Data from Soil_25_5_HRD10591_00008.txt Node
Date: Thu Feb 19 11:26:37 EST 2026
User: Yrep
Spectrometer: HR+D1059
Trigger mode: 1
Integration Time (sec): 1.000000E-1
Scans to average: 1
Electric dark correction enabled: true
Nonlinearity correction enabled: false
Boxcar width: 0
XAxis mode: Wavelengths
Number of Pixels in Spectrum: 2048
>>>>>Begin Spectral Data<<<<<
223.165	-4.62
223.4	-4.62
223.635	-4.62
223.869	-11.62
224.104	-11.62
224.338	-18.62
224.573	-16.62
224.808	-18.62
225.042	-20.62
225.277	-19.62
225.511	7.38
225.746	5.38
225.98	3.38
226.215	6.38
226.449	23.38
226.683	18.38
226.918	16.38
227.152	41.38
227.387	37.38
227.621	55.38
227.856	45.38
228.09	41.38
228.324	69.38
228.559	58.38
228.793	57.38
229.027	70.38
229.262	66.38
229.496	64.38
229.73	84.38
229.964	76.38
230.199	70.38
230.433	75.38
230.667	85.38
230.901	71.38
231.136	66.38
231.37	71.38
231.604	84.38
231.838	85.38
232.072	82.38
232.306	85.38
232.541	91.38
232.775	78.38
233.009	81.38
233.243	89.38
233.477	86.38
233.711	73.38
233.945	89.38
234.179	80.38
234.413	77.38
234.647	89.38
234.881	87.38
235.115	81.38
235.349	88.38
235.583	72.38
235.817	65.38
236.051	87.38
236.285	70.38
236.519	71.38
236.753	68.38
236.987	75.38
237.221	88.38
237.455	87.38
237.689	76.38
237.922	74.38
238.156	68.38
238.39	91.38
238.624	74.38
238.858	74.38
239.091	80.38
239.325	79.38
239.559	76.38
239.793	78.38
240.027	82.38
240.26	73.38
240.494	64.38
240.728	75.38
240.961	78.38
241.195	77.38
241.429	83.38
241.662	89.38
241.896	85.38
242.13	89.38
242.363	72.38
242.597	83.38
242.83	83.38
243.064	77.38
243.298	74.38
243.531	68.38
243.765	85.38
243.998	83.38
244.232	77.38
244.465	73.38
244.699	59.38
244.932	84.38
245.166	80.38
245.399	84.38
245.633	74.38
245.866	74.38
246.099	81.38
246.333	83.38
246.566	82.38
246.8	76.38
247.033	79.38
247.266	70.38
247.5	88.38
247.733	82.38
247.966	92.38
248.2	76.38
248.433	85.38
248.666	83.38
248.899	76.38
249.133	73.38
249.366	76.38
249.599	76.38
249.832	84.38
250.066	76.38
250.299	83.38
250.532	92.38
250.765	76.38
250.998	76.38
251.231	67.38
251.465	70.38
251.698	81.38
251.931	75.38
252.164	63.38
252.397	83.38
252.63	89.38
252.863	86.38
253.096	70.38
253.329	92.38
253.562	70.38
253.795	101.38
254.028	81.38
254.261	78.38
254.494	79.38
254.727	72.38
254.96	73.38
255.193	71.38
255.426	79.38
255.659	89.38
255.892	87.38
256.124	76.38
256.357	86.38
256.59	81.38
256.823	83.38
257.056	87.38
257.289	77.38
257.521	88.38
257.754	73.38
257.987	89.38
258.22	80.38
258.452	83.38
258.685	81.38
258.918	98.38
259.151	89.38
259.383	80.38
259.616	71.38
259.849	77.38
260.081	96.38
260.314	70.38
260.547	73.38
260.779	75.38
261.012	76.38
261.244	85.38
261.477	83.38
261.71	84.38
261.942	84.38
262.175	71.38
262.407	82.38
262.64	76.38
262.872	80.38
263.105	86.38
263.337	80.38
263.57	74.38
263.802	84.38
264.035	72.38
264.267	83.38
264.499	69.38
264.732	80.38
264.964	94.38
265.197	85.38
265.429	79.38
265.661	84.38
265.894	93.38
266.126	76.38
266.358	76.38
266.591	80.38
266.823	93.38
267.055	89.38
267.287	99.38
267.52	77.38
267.752	88.38
267.984	91.38
268.216	85.38
268.448	81.38
268.681	80.38
268.913	91.38
269.145	76.38
269.377	72.38
269.609	87.38
269.841	90.38
270.073	102.38
270.306	71.38
270.538	82.38
270.77	87.38
271.002	71.38
271.234	86.38
271.466	75.38
271.698	79.38
271.93	87.38
272.162	77.38
272.394	80.38
272.626	92.38
272.858	84.38
273.09	74.38
273.322	80.38
273.553	89.38
273.785	98.38
274.017	85.38
274.249	88.38
274.481	82.38
274.713	82.38
274.945	91.38
275.176	91.38
275.408	91.38
275.64	85.38
275.872	85.38
276.104	82.38
276.335	73.38
276.567	90.38
276.799	82.38
277.031	90.38
277.262	78.38
277.494	85.38
277.726	88.38
277.957	83.38
278.189	78.38
278.421	86.38
278.652	76.38
278.884	85.38
279.115	77.38
279.347	86.38
279.579	97.38
279.81	93.38
280.042	86.38
280.273	92.38
280.505	77.38
280.736	74.38
280.968	97.38
281.199	103.38
281.431	90.38
281.662	99.38
281.894	86.38
282.125	94.38
282.356	85.38
282.588	94.38
282.819	92.38
283.051	73.38
283.282	81.38
283.513	79.38
283.745	86.38
283.976	92.38
284.207	96.38
284.439	86.38
284.67	95.38
284.901	102.38
285.132	81.38
285.364	80.38
285.595	89.38
285.826	87.38
286.057	82.38
286.288	79.38
286.52	82.38
286.751	88.38
286.982	83.38
287.213	91.38
287.444	86.38
287.675	79.38
287.906	88.38
288.138	79.38
288.369	83.38
288.6	80.38
288.831	81.38
289.062	96.38
289.293	85.38
289.524	74.38
289.755	83.38
289.986	79.38
290.217	80.38
290.448	84.38
290.679	98.38
290.91	94.38
291.141	82.38
291.371	73.38
291.602	84.38
291.833	93.38
292.064	88.38
292.295	97.38
292.526	85.38
292.757	88.38
292.987	79.38
293.218	98.38
293.449	83.38
293.68	96.38
293.91	84.38
294.141	83.38
294.372	71.38
294.603	85.38
294.833	82.38
295.064	85.38
295.295	76.38
295.525	75.38
295.756	84.38
295.987	80.38
296.217	75.38
296.448	81.38
296.679	73.38
296.909	90.38
297.14	87.38
297.37	95.38
297.601	75.38
297.831	92.38
298.062	81.38
298.292	73.38
298.523	85.38
298.753	70.38
298.984	92.38
299.214	92.38
299.445	74.38
299.675	72.38
299.905	67.38
300.136	92.38
300.366	78.38
300.597	91.38
300.827	87.38
301.057	76.38
301.288	88.38
301.518	96.38
301.748	86.38
301.979	87.38
302.209	85.38
302.439	75.38
302.669	68.38
302.9	84.38
303.13	87.38
303.36	91.38
303.59	76.38
303.82	85.38
304.051	89.38
304.281	81.38
304.511	93.38
304.741	80.38
304.971	79.38
305.201	97.38
305.431	94.38
305.661	88.38
305.891	79.38
306.121	81.38
306.352	69.38
306.582	77.38
306.812	79.38
307.042	67.38
307.272	87.38
307.502	78.38
307.731	83.38
307.961	77.38
308.191	91.38
308.421	90.38
308.651	93.38
308.881	91.38
309.111	74.38
309.341	74.38
309.571	81.38
309.8	99.38
310.03	87.38
310.26	89.38
310.49	84.38
310.72	67.38
310.949	80.38
311.179	87.38
311.409	79.38
311.639	90.38
311.868	100.38
312.098	89.38
312.328	105.38
312.557	73.38
312.787	87.38
313.017	94.38
313.246	90.38
313.476	87.38
313.706	86.38
313.935	79.38
314.165	87.38
314.394	92.38
314.624	95.38
314.853	89.38
315.083	84.38
315.312	76.38
315.542	88.38
315.771	88.38
316.001	76.38
316.23	88.38
316.46	92.38
316.689	80.38
316.919	75.38
317.148	96.38
317.377	91.38
317.607	91.38
317.836	88.38
318.065	88.38
318.295	91.38
318.524	80.38
318.753	97.38
318.983	88.38
319.212	87.38
319.441	83.38
319.67	91.38
319.9	83.38
320.129	90.38
320.358	72.38
320.587	86.38
320.816	81.38
321.046	86.38
321.275	79.38
321.504	82.38
321.733	84.38
321.962	82.38
322.191	80.38
322.42	87.38
322.649	92.38
322.878	78.38
323.108	71.38
323.337	93.38
323.566	94.38
323.795	77.38
324.024	76.38
324.253	80.38
324.482	86.38
324.71	83.38
324.939	87.38
325.168	86.38
325.397	82.38
325.626	75.38
325.855	79.38
326.084	89.38
326.313	76.38
326.542	85.38
326.77	87.38
326.999	95.38
327.228	80.38
327.457	85.38
327.686	83.38
327.914	88.38
328.143	85.38
328.372	76.38
328.6	87.38
328.829	93.38
329.058	82.38
329.287	87.38
329.515	85.38
329.744	88.38
329.972	74.38
330.201	86.38
330.43	93.38
330.658	83.38
330.887	75.38
331.115	83.38
331.344	76.38
331.572	90.38
331.801	72.38
332.03	82.38
332.258	93.38
332.486	88.38
332.715	80.38
332.943	92.38
333.172	82.38
333.4	82.38
333.629	79.38
333.857	97.38
334.085	90.38
334.314	80.38
334.542	91.38
334.771	77.38
334.999	73.38
335.227	88.38
335.455	91.38
335.684	71.38
335.912	98.38
336.14	99.38
336.369	63.38
336.597	75.38
336.825	87.38
337.053	85.38
337.281	88.38
337.51	82.38
337.738	73.38
337.966	82.38
338.194	100.38
338.422	83.38
338.65	90.38
338.878	69.38
339.106	80.38
339.334	85.38
339.562	88.38
339.79	97.38
340.018	97.38
340.246	89.38
340.474	91.38
340.702	84.38
340.93	84.38
341.158	91.38
341.386	79.38
341.614	87.38
341.842	93.38
342.07	97.38
342.298	90.38
342.526	87.38
342.754	84.38
342.981	71.38
343.209	87.38
343.437	88.38
343.665	84.38
343.893	76.38
344.12	80.38
344.348	93.38
344.576	83.38
344.804	79.38
345.031	74.38
345.259	91.38
345.487	83.38
345.714	74.38
345.942	93.38
346.17	85.38
346.397	89.38
346.625	80.38
346.853	94.38
347.08	81.38
347.308	79.38
347.535	69.38
347.763	89.38
347.99	73.38
348.218	90.38
348.445	83.38
348.673	71.38
348.9	90.38
349.128	80.38
349.355	84.38
349.583	76.38
349.81	92.38
350.037	88.38
350.265	85.38
350.492	86.38
350.72	81.38
350.947	81.38
351.174	87.38
351.402	70.38
351.629	102.38
351.856	75.38
352.083	79.38
352.311	76.38
352.538	78.38
352.765	73.38
352.992	89.38
353.22	88.38
353.447	71.38
353.674	73.38
353.901	94.38
354.128	94.38
354.355	80.38
354.583	84.38
354.81	73.38
355.037	74.38
355.264	84.38
355.491	91.38
355.718	96.38
355.945	82.38
356.172	72.38
356.399	86.38
356.626	77.38
356.853	82.38
357.08	81.38
357.307	88.38
357.534	79.38
357.761	88.38
357.988	85.38
358.215	72.38
358.441	85.38
358.668	91.38
358.895	64.38
359.122	69.38
359.349	71.38
359.576	82.38
359.802	78.38
360.029	78.38
360.256	85.38
360.483	89.38
360.709	83.38
360.936	70.38
361.163	68.38
361.39	83.38
361.616	73.38
361.843	82.38
362.07	89.38
362.296	70.38
362.523	89.38
362.749	104.38
362.976	90.38
363.203	95.38
363.429	91.38
363.656	83.38
363.882	81.38
364.109	89.38
364.335	88.38
364.562	85.38
364.788	85.38
365.015	76.38
365.241	84.38
365.468	92.38
365.694	91.38
365.92	88.38
366.147	85.38
366.373	87.38
366.599	74.38
366.826	83.38
367.052	82.38
367.278	73.38
367.505	99.38
367.731	100.38
367.957	109.38
368.184	80.38
368.41	79.38
368.636	98.38
368.862	86.38
369.089	85.38
369.315	81.38
369.541	90.38
369.767	74.38
369.993	93.38
370.219	81.38
370.445	79.38
370.672	87.38
370.898	84.38
371.124	79.38
371.35	83.38
371.576	84.38
371.802	79.38
372.028	83.38
372.254	77.38
372.48	91.38
372.706	90.38
372.932	72.38
373.158	89.38
373.384	94.38
373.61	96.38
373.835	101.38
374.061	88.38
374.287	72.38
374.513	86.38
374.739	94.38
374.965	76.38
375.191	68.38
375.416	81.38
375.642	84.38
375.868	85.38
376.094	89.38
376.319	76.38
376.545	81.38
376.771	80.38
376.997	84.38
377.222	80.38
377.448	82.38
377.674	73.38
377.899	81.38
378.125	83.38
378.35	81.38
378.576	67.38
378.802	89.38
379.027	85.38
379.253	88.38
379.478	78.38
379.704	72.38
379.929	91.38
380.155	100.38
380.38	68.38
380.606	73.38
380.831	69.38
381.057	73.38
381.282	81.38
381.507	83.38
381.733	81.38
381.958	81.38
382.184	84.38
382.409	83.38
382.634	97.38
382.86	84.38
383.085	81.38
383.31	74.38
383.535	93.38
383.761	79.38
383.986	87.38
384.211	91.38
384.436	82.38
384.662	70.38
384.887	78.38
385.112	84.38
385.337	85.38
385.562	68.38
385.787	83.38
386.013	91.38
386.238	90.38
386.463	72.38
386.688	94.38
386.913	81.38
387.138	76.38
387.363	87.38
387.588	85.38
387.813	91.38
388.038	75.38
388.263	87.38
388.488	79.38
388.713	88.38
388.938	89.38
389.163	88.38
389.387	83.38
389.612	87.38
389.837	71.38
390.062	89.38
390.287	88.38
390.512	78.38
390.736	81.38
390.961	89.38
391.186	93.38
391.411	81.38
391.636	74.38
391.86	82.38
392.085	90.38
392.31	71.38
392.534	91.38
392.759	100.38
392.984	97.38
393.208	123.38
393.433	122.38
393.658	96.38
393.882	76.38
394.107	90.38
394.331	88.38
394.556	73.38
394.78	99.38
395.005	97.38
395.229	81.38
395.454	74.38
395.678	67.38
395.903	81.38
396.127	84.38
396.352	83.38
396.576	98.38
396.801	108.38
397.025	117.38
397.249	96.38
397.474	90.38
397.698	77.38
397.922	80.38
398.147	83.38
398.371	79.38
398.595	87.38
398.82	73.38
399.044	86.38
399.268	79.38
399.492	79.38
399.717	86.38
399.941	75.38
400.165	88.38
400.389	69.38
400.613	87.38
400.837	74.38
401.062	77.38
401.286	85.38
401.51	75.38
401.734	81.38
401.958	83.38
402.182	80.38
402.406	82.38
402.63	92.38
402.854	72.38
403.078	84.38
403.302	85.38
403.526	77.38
403.75	92.38
403.974	93.38
404.198	76.38
404.422	91.38
404.645	81.38
404.869	84.38
405.093	80.38
405.317	78.38
405.541	82.38
405.765	81.38
405.988	68.38
406.212	75.38
406.436	82.38
406.66	90.38
406.883	86.38
407.107	91.38
407.331	92.38
407.555	89.38
407.778	87.38
408.002	77.38
408.226	82.38
408.449	81.38
408.673	80.38
408.896	80.38
409.12	80.38
409.344	67.38
409.567	80.38
409.791	81.38
410.014	77.38
410.238	80.38
410.461	75.38
410.685	76.38
410.908	85.38
411.132	81.38
411.355	90.38
411.578	87.38
411.802	91.38
412.025	79.38
412.249	80.38
412.472	96.38
412.695	85.38
412.919	90.38
413.142	75.38
413.365	103.38
413.589	79.38
413.812	87.38
414.035	99.38
414.258	91.38
414.482	79.38
414.705	79.38
414.928	77.38
415.151	85.38
415.374	91.38
415.597	96.38
415.821	75.38
416.044	76.38
416.267	79.38
416.49	95.38
416.713	84.38
416.936	91.38
417.159	92.38
417.382	76.38
417.605	88.38
417.828	91.38
418.051	98.38
418.274	84.38
418.497	85.38
418.72	72.38
418.943	75.38
419.166	80.38
419.389	87.38
419.611	79.38
419.834	75.38
420.057	85.38
420.28	81.38
420.503	99.38
420.726	83.38
420.948	85.38
421.171	79.38
421.394	88.38
421.617	78.38
421.839	91.38
422.062	90.38
422.285	88.38
422.507	86.38
422.73	81.38
422.953	99.38
423.175	87.38
423.398	96.38
423.621	109.38
423.843	75.38
424.066	73.38
424.288	65.38
424.511	68.38
424.733	94.38
424.956	85.38
425.178	90.38
425.401	84.38
425.623	83.38
425.846	80.38
426.068	104.38
426.291	97.38
426.513	79.38
426.735	83.38
426.958	88.38
427.18	84.38
427.402	71.38
427.625	76.38
427.847	81.38
428.069	85.38
428.292	81.38
428.514	80.38
428.736	81.38
428.958	83.38
429.181	90.38
429.403	92.38
429.625	82.38
429.847	81.38
430.069	69.38
430.292	93.38
430.514	90.38
430.736	83.38
430.958	97.38
431.18	86.38
431.402	83.38
431.624	86.38
431.846	85.38
432.068	94.38
432.29	80.38
432.512	79.38
432.734	80.38
432.956	91.38
433.178	85.38
433.4	79.38
433.622	81.38
433.844	80.38
434.066	74.38
434.287	80.38
434.509	83.38
434.731	87.38
434.953	90.38
435.175	84.38
435.397	92.38
435.618	89.38
435.84	83.38
436.062	89.38
436.284	92.38
436.505	88.38
436.727	96.38
436.949	89.38
437.17	76.38
437.392	82.38
437.614	78.38
437.835	77.38
438.057	87.38
438.278	81.38
438.5	92.38
438.721	83.38
438.943	75.38
439.165	76.38
439.386	84.38
439.608	89.38
439.829	86.38
440.05	85.38
440.272	77.38
440.493	84.38
440.715	87.38
440.936	86.38
441.158	74.38
441.379	74.38
441.6	74.38
441.822	80.38
442.043	69.38
442.264	89.38
442.486	83.38
442.707	79.38
442.928	89.38
443.149	90.38
443.371	96.38
443.592	79.38
443.813	81.38
444.034	80.38
444.255	76.38
444.476	80.38
444.698	77.38
444.919	98.38
445.14	180.38
445.361	120.38
445.582	93.38
445.803	77.38
446.024	84.38
446.245	79.38
446.466	94.38
446.687	85.38
446.908	89.38
447.129	79.38
447.35	89.38
447.571	86.38
447.792	93.38
448.013	80.38
448.234	83.38
448.455	75.38
448.675	77.38
448.896	78.38
449.117	77.38
449.338	83.38
449.559	91.38
449.779	75.38
450	65.38
450.221	88.38
450.442	81.38
450.662	85.38
450.883	74.38
451.104	83.38
451.324	85.38
451.545	71.38
451.766	78.38
451.986	91.38
452.207	89.38
452.428	84.38
452.648	93.38
452.869	84.38
453.089	80.38
453.31	99.38
453.53	82.38
453.751	76.38
453.971	90.38
454.192	70.38
454.412	88.38
454.633	86.38
454.853	76.38
455.073	95.38
455.294	76.38
455.514	66.38
455.734	86.38
455.955	79.38
456.175	76.38
456.395	91.38
456.616	73.38
456.836	76.38
457.056	72.38
457.276	92.38
457.497	69.38
457.717	85.38
457.937	83.38
458.157	87.38
458.377	89.38
458.598	79.38
458.818	81.38
459.038	84.38
459.258	80.38
459.478	86.38
459.698	88.38
459.918	94.38
460.138	83.38
460.358	83.38
460.578	68.38
460.798	85.38
461.018	81.38
461.238	91.38
461.458	79.38
461.678	80.38
461.898	86.38
462.118	71.38
462.338	79.38
462.558	76.38
462.777	86.38
462.997	91.38
463.217	86.38
463.437	77.38
463.657	73.38
463.876	84.38
464.096	80.38
464.316	71.38
464.536	79.38
464.755	99.38
464.975	71.38
465.195	87.38
465.414	79.38
465.634	76.38
465.854	74.38
466.073	92.38
466.293	76.38
466.512	89.38
466.732	97.38
466.951	82.38
467.171	87.38
467.391	85.38
467.61	77.38
467.829	82.38
468.049	77.38
468.268	88.38
468.488	80.38
468.707	72.38
468.927	84.38
469.146	92.38
469.365	87.38
469.585	87.38
469.804	91.38
470.023	80.38
470.243	77.38
470.462	79.38
470.681	85.38
470.901	76.38
471.12	76.38
471.339	86.38
471.558	75.38
471.777	88.38
471.997	91.38
472.216	86.38
472.435	74.38
472.654	87.38
472.873	94.38
473.092	81.38
473.311	78.38
473.53	94.38
473.749	85.38
473.968	94.38
474.187	81.38
474.406	82.38
474.625	80.38
474.844	76.38
475.063	75.38
475.282	71.38
475.501	86.38
475.72	75.38
475.939	84.38
476.158	69.38
476.377	94.38
476.596	77.38
476.814	72.38
477.033	93.38
477.252	87.38
477.471	82.38
477.69	89.38
477.908	85.38
478.127	83.38
478.346	87.38
478.564	96.38
478.783	81.38
479.002	88.38
479.22	74.38
479.439	83.38
479.658	76.38
479.876	92.38
480.095	79.38
480.313	91.38
480.532	73.38
480.751	78.38
480.969	90.38
481.188	92.38
481.406	87.38
481.624	83.38
481.843	84.38
482.061	89.38
482.28	105.38
482.498	87.38
482.717	92.38
482.935	59.38
483.153	91.38
483.372	85.38
483.59	74.38
483.808	78.38
484.027	83.38
484.245	81.38
484.463	94.38
484.681	85.38
484.9	97.38
485.118	94.38
485.336	83.38
485.554	83.38
485.772	80.38
485.99	75.38
486.209	79.38
486.427	71.38
486.645	79.38
486.863	80.38
487.081	75.38
487.299	69.38
487.517	83.38
487.735	79.38
487.953	70.38
488.171	79.38
488.389	88.38
488.607	86.38
488.825	87.38
489.043	76.38
489.261	71.38
489.479	91.38
489.696	92.38
489.914	84.38
490.132	88.38
490.35	78.38
490.568	88.38
490.786	90.38
491.003	96.38
491.221	87.38
491.439	75.38
491.657	68.38
491.874	85.38
492.092	84.38
492.31	86.38
492.527	91.38
492.745	89.38
492.963	81.38
493.18	84.38
493.398	87.38
493.615	83.38
493.833	77.38
494.05	103.38
494.268	94.38
494.485	79.38
494.703	85.38
494.92	92.38
495.138	71.38
495.355	89.38
495.573	71.38
495.79	93.38
496.008	73.38
496.225	88.38
496.442	99.38
496.66	73.38
496.877	93.38
497.094	68.38
497.312	80.38
497.529	87.38
497.746	85.38
497.963	100.38
498.181	71.38
498.398	89.38
498.615	84.38
498.832	83.38
499.049	92.38
499.267	90.38
499.484	82.38
499.701	91.38
499.918	88.38
500.135	90.38
500.352	90.38
500.569	96.38
500.786	87.38
501.003	90.38
501.22	91.38
501.437	85.38
501.654	92.38
501.871	90.38
502.088	88.38
502.305	92.38
502.522	84.38
502.739	94.38
502.956	91.38
503.172	79.38
503.389	85.38
503.606	95.38
503.823	87.38
504.04	94.38
504.256	91.38
504.473	71.38
504.69	75.38
504.907	91.38
505.123	96.38
505.34	99.38
505.557	84.38
505.773	76.38
505.99	89.38
506.207	98.38
506.423	83.38
506.64	93.38
506.856	99.38
507.073	83.38
507.289	91.38
507.506	87.38
507.722	76.38
507.939	80.38
508.155	85.38
508.372	88.38
508.588	94.38
508.805	88.38
509.021	93.38
509.238	84.38
509.454	78.38
509.67	91.38
509.887	80.38
510.103	71.38
510.319	77.38
510.536	85.38
510.752	83.38
510.968	91.38
511.184	83.38
511.401	99.38
511.617	79.38
511.833	76.38
512.049	81.38
512.265	97.38
512.481	87.38
512.698	86.38
512.914	79.38
513.13	81.38
513.346	84.38
513.562	89.38
513.778	86.38
513.994	83.38
514.21	68.38
514.426	73.38
514.642	86.38
514.858	79.38
515.074	76.38
515.29	91.38
515.506	81.38
515.721	85.38
515.937	91.38
516.153	81.38
516.369	87.38
516.585	84.38
516.801	79.38
517.016	87.38
517.232	91.38
517.448	98.38
517.664	90.38
517.879	83.38
518.095	76.38
518.311	93.38
518.527	82.38
518.742	72.38
518.958	80.38
519.173	90.38
519.389	82.38
519.605	83.38
519.82	90.38
520.036	92.38
520.251	84.38
520.467	85.38
520.682	79.38
520.898	79.38
521.113	100.38
521.329	81.38
521.544	77.38
521.76	83.38
521.975	81.38
522.19	89.38
522.406	76.38
522.621	91.38
522.836	75.38
523.052	86.38
523.267	89.38
523.482	80.38
523.698	83.38
523.913	88.38
524.128	78.38
524.343	79.38
524.559	77.38
524.774	81.38
524.989	78.38
525.204	74.38
525.419	94.38
525.634	79.38
525.849	92.38
526.064	91.38
526.28	94.38
526.495	83.38
526.71	98.38
526.925	92.38
527.14	87.38
527.355	80.38
527.57	104.38
527.785	91.38
527.999	69.38
528.214	91.38
528.429	84.38
528.644	98.38
528.859	81.38
529.074	83.38
529.289	75.38
529.503	97.38
529.718	98.38
529.933	87.38
530.148	85.38
530.363	80.38
530.577	89.38
530.792	87.38
531.007	92.38
531.221	86.38
531.436	77.38
531.651	95.38
531.865	93.38
532.08	70.38
532.295	77.38
532.509	78.38
532.724	76.38
532.938	71.38
533.153	80.38
533.367	91.38
533.582	105.38
533.796	79.38
534.011	90.38
534.225	83.38
534.44	84.38
534.654	89.38
534.868	94.38
535.083	87.38
535.297	97.38
535.511	99.38
535.726	78.38
535.94	83.38
536.154	83.38
536.369	86.38
536.583	93.38
536.797	93.38
537.011	96.38
537.225	90.38
537.44	93.38
537.654	94.38
537.868	87.38
538.082	86.38
538.296	88.38
538.51	83.38
538.724	69.38
538.938	83.38
539.153	86.38
539.367	91.38
539.581	91.38
539.795	86.38
540.009	84.38
540.222	90.38
540.436	81.38
540.65	95.38
540.864	83.38
541.078	87.38
541.292	88.38
541.506	100.38
541.72	88.38
541.934	82.38
542.147	78.38
542.361	91.38
542.575	66.38
542.789	91.38
543.002	82.38
543.216	89.38
543.43	83.38
543.644	87.38
543.857	81.38
544.071	85.38
544.285	88.38
544.498	89.38
544.712	85.38
544.925	87.38
545.139	88.38
545.352	86.38
545.566	87.38
545.779	79.38
545.993	92.38
546.206	99.38
546.42	71.38
546.633	94.38
546.847	91.38
547.06	93.38
547.274	96.38
547.487	95.38
547.7	90.38
547.914	95.38
548.127	90.38
548.34	82.38
548.554	91.38
548.767	100.38
548.98	93.38
549.193	99.38
549.407	91.38
549.62	89.38
549.833	91.38
550.046	92.38
550.259	86.38
550.473	89.38
550.686	101.38
550.899	90.38
551.112	107.38
551.325	99.38
551.538	75.38
551.751	91.38
551.964	87.38
552.177	93.38
552.39	103.38
552.603	91.38
552.816	108.38
553.029	85.38
553.242	96.38
553.455	100.38
553.667	102.38
553.88	87.38
554.093	99.38
554.306	95.38
554.519	94.38
554.732	88.38
554.944	102.38
555.157	97.38
555.37	93.38
555.583	85.38
555.795	90.38
556.008	93.38
556.221	96.38
556.433	99.38
556.646	97.38
556.859	93.38
557.071	105.38
557.284	81.38
557.496	84.38
557.709	76.38
557.921	95.38
558.134	88.38
558.346	83.38
558.559	85.38
558.771	85.38
558.984	92.38
559.196	88.38
559.409	90.38
559.621	91.38
559.833	85.38
560.046	92.38
560.258	92.38
560.47	80.38
560.683	86.38
560.895	83.38
561.107	95.38
561.32	89.38
561.532	88.38
561.744	75.38
561.956	105.38
562.168	90.38
562.381	82.38
562.593	98.38
562.805	80.38
563.017	93.38
563.229	79.38
563.441	77.38
563.653	95.38
563.865	91.38
564.077	74.38
564.289	90.38
564.501	96.38
564.713	88.38
564.925	88.38
565.137	91.38
565.349	90.38
565.561	92.38
565.773	86.38
565.985	84.38
566.197	80.38
566.408	84.38
566.62	87.38
566.832	84.38
567.044	90.38
567.255	88.38
567.467	79.38
567.679	83.38
567.891	89.38
568.102	91.38
568.314	79.38
568.526	105.38
568.737	82.38
568.949	87.38
569.161	88.38
569.372	92.38
569.584	100.38
569.795	106.38
570.007	94.38
570.218	89.38
570.43	77.38
570.641	91.38
570.853	80.38
571.064	85.38
571.276	94.38
571.487	81.38
571.698	78.38
571.91	84.38
572.121	81.38
572.333	88.38
572.544	90.38
572.755	92.38
572.966	93.38
573.178	92.38
573.389	92.38
573.6	87.38
573.811	99.38
574.023	95.38
574.234	80.38
574.445	85.38
574.656	70.38
574.867	81.38
575.078	96.38
575.289	99.38
575.501	93.38
575.712	86.38
575.923	94.38
576.134	81.38
576.345	85.38
576.556	87.38
576.767	81.38
576.978	85.38
577.188	84.38
577.399	90.38
577.61	88.38
577.821	75.38
578.032	79.38
578.243	86.38
578.454	83.38
578.665	89.38
578.875	75.38
579.086	79.38
579.297	88.38
579.508	94.38
579.718	88.38
579.929	81.38
580.14	73.38
580.35	94.38
580.561	95.38
580.772	92.38
580.982	85.38
581.193	84.38
581.403	87.38
581.614	79.38
581.825	86.38
582.035	82.38
582.246	83.38
582.456	79.38
582.667	99.38
582.877	79.38
583.087	87.38
583.298	85.38
583.508	83.38
583.719	82.38
583.929	79.38
584.139	84.38
584.35	83.38
584.56	84.38
584.77	88.38
584.981	89.38
585.191	76.38
585.401	92.38
585.611	85.38
585.821	97.38
586.032	74.38
586.242	81.38
586.452	87.38
586.662	84.38
586.872	79.38
587.082	80.38
587.292	85.38
587.502	86.38
587.713	88.38
587.923	97.38
588.133	92.38
588.343	99.38
588.553	97.38
588.762	106.38
588.972	154.38
589.182	226.38
589.392	165.38
589.602	164.38
589.812	211.38
590.022	159.38
590.232	103.38
590.441	104.38
590.651	78.38
590.861	86.38
591.071	79.38
591.281	84.38
591.49	82.38
591.7	83.38
591.91	98.38
592.119	95.38
592.329	100.38
592.539	90.38
592.748	102.38
592.958	101.38
593.167	79.38
593.377	80.38
593.587	104.38
593.796	100.38
594.006	98.38
594.215	81.38
594.424	94.38
594.634	77.38
594.843	74.38
595.053	79.38
595.262	91.38
595.472	94.38
595.681	89.38
595.89	103.38
596.1	93.38
596.309	89.38
596.518	79.38
596.727	85.38
596.937	90.38
597.146	83.38
597.355	86.38
597.564	84.38
597.774	91.38
597.983	95.38
598.192	85.38
598.401	100.38
598.61	100.38
598.819	95.38
599.028	84.38
599.237	105.38
599.446	101.38
599.655	89.38
599.864	91.38
600.073	99.38
600.282	105.38
600.491	83.38
600.7	88.38
600.909	104.38
601.118	84.38
601.327	81.38
601.536	92.38
601.745	88.38
601.953	76.38
602.162	85.38
602.371	93.38
602.58	83.38
602.789	91.38
602.997	84.38
603.206	103.38
603.415	85.38
603.623	87.38
603.832	87.38
604.041	93.38
604.249	81.38
604.458	83.38
604.666	80.38
604.875	88.38
605.084	92.38
605.292	87.38
605.501	94.38
605.709	87.38
605.918	100.38
606.126	87.38
606.334	91.38
606.543	83.38
606.751	98.38
606.96	100.38
607.168	83.38
607.376	91.38
607.585	72.38
607.793	81.38
608.001	86.38
608.21	83.38
608.418	94.38
608.626	91.38
608.834	95.38
609.043	98.38
609.251	97.38
609.459	98.38
609.667	84.38
609.875	89.38
610.083	95.38
610.291	87.38
610.499	93.38
610.707	79.38
610.916	92.38
611.124	84.38
611.332	94.38
611.54	101.38
611.748	99.38
611.955	102.38
612.163	95.38
612.371	101.38
612.579	88.38
612.787	91.38
612.995	94.38
613.203	113.38
613.411	94.38
613.618	87.38
613.826	105.38
614.034	85.38
614.242	84.38
614.449	107.38
614.657	99.38
614.865	82.38
615.072	82.38
615.28	77.38
615.488	98.38
615.695	115.38
615.903	102.38
616.111	91.38
616.318	94.38
616.526	87.38
616.733	83.38
616.941	108.38
617.148	105.38
617.356	91.38
617.563	99.38
617.771	100.38
617.978	110.38
618.185	100.38
618.393	91.38
618.6	104.38
618.807	103.38
619.015	89.38
619.222	99.38
619.429	103.38
619.637	90.38
619.844	86.38
620.051	96.38
620.258	87.38
620.466	100.38
620.673	103.38
620.88	92.38
621.087	102.38
621.294	102.38
621.501	85.38
621.708	108.38
621.915	108.38
622.122	82.38
622.329	85.38
622.536	86.38
622.743	75.38
622.95	95.38
623.157	97.38
623.364	100.38
623.571	93.38
623.778	99.38
623.985	86.38
624.192	93.38
624.399	96.38
624.606	86.38
624.812	89.38
625.019	81.38
625.226	88.38
625.433	91.38
625.639	92.38
625.846	90.38
626.053	73.38
626.259	100.38
626.466	99.38
626.673	89.38
626.879	83.38
627.086	98.38
627.293	78.38
627.499	90.38
627.706	91.38
627.912	83.38
628.119	80.38
628.325	81.38
628.532	88.38
628.738	84.38
628.945	80.38
629.151	87.38
629.357	80.38
629.564	81.38
629.77	79.38
629.976	91.38
630.183	84.38
630.389	68.38
630.595	73.38
630.802	81.38
631.008	76.38
631.214	78.38
631.42	97.38
631.627	96.38
631.833	74.38
632.039	71.38
632.245	105.38
632.451	83.38
632.657	88.38
632.863	79.38
633.069	75.38
633.275	96.38
633.481	83.38
633.688	89.38
633.893	74.38
634.099	80.38
634.305	87.38
634.511	89.38
634.717	84.38
634.923	80.38
635.129	78.38
635.335	80.38
635.541	86.38
635.747	105.38
635.952	85.38
636.158	90.38
636.364	89.38
636.57	84.38
636.775	88.38
636.981	81.38
637.187	86.38
637.392	75.38
637.598	85.38
637.804	85.38
638.009	73.38
638.215	82.38
638.421	105.38
638.626	77.38
638.832	84.38
639.037	89.38
639.243	72.38
639.448	88.38
639.654	81.38
639.859	91.38
640.065	89.38
640.27	88.38
640.475	80.38
640.681	82.38
640.886	87.38
641.091	74.38
641.297	97.38
641.502	91.38
641.707	92.38
641.913	84.38
642.118	85.38
642.323	103.38
642.528	93.38
642.733	86.38
642.939	90.38
643.144	90.38
643.349	81.38
643.554	89.38
643.759	88.38
643.964	94.38
644.169	87.38
644.374	81.38
644.579	84.38
644.784	76.38
644.989	91.38
645.194	78.38
645.399	81.38
645.604	84.38
645.809	98.38
646.014	86.38
646.219	92.38
646.423	97.38
646.628	75.38
646.833	93.38
647.038	98.38
647.243	85.38
647.447	93.38
647.652	77.38
647.857	79.38
648.062	79.38
648.266	78.38
648.471	82.38
648.676	91.38
648.88	87.38
649.085	88.38
649.289	83.38
649.494	77.38
649.698	86.38
649.903	83.38
650.107	87.38
650.312	84.38
650.516	85.38
650.721	88.38
650.925	75.38
651.13	70.38
651.334	77.38
651.539	93.38
651.743	93.38
651.947	106.38
652.152	93.38
652.356	80.38
652.56	80.38
652.764	77.38
652.969	74.38
653.173	85.38
653.377	76.38
653.581	85.38
653.785	83.38
653.99	85.38
654.194	73.38
654.398	91.38
654.602	77.38
654.806	81.38
655.01	76.38
655.214	81.38
655.418	82.38
655.622	79.38
655.826	76.38
656.03	73.38
656.234	90.38
656.438	90.38
656.642	91.38
656.846	79.38
657.049	84.38
657.253	63.38
657.457	83.38
657.661	75.38
657.865	96.38
658.068	91.38
658.272	89.38
658.476	86.38
658.68	71.38
658.883	85.38
659.087	68.38
659.291	84.38
659.494	101.38
659.698	79.38
659.901	71.38
660.105	94.38
660.309	83.38
660.512	79.38
660.716	75.38
660.919	74.38
661.123	80.38
661.326	85.38
661.53	87.38
661.733	88.38
661.936	78.38
662.14	82.38
662.343	79.38
662.546	80.38
662.75	78.38
662.953	69.38
663.156	90.38
663.36	81.38
663.563	102.38
663.766	97.38
663.969	90.38
664.173	82.38
664.376	92.38
664.579	92.38
664.782	79.38
664.985	91.38
665.188	86.38
665.391	73.38
665.594	91.38
665.797	74.38
666	79.38
666.203	76.38
666.406	82.38
666.609	79.38
666.812	87.38
667.015	72.38
667.218	79.38
667.421	93.38
667.624	82.38
667.827	99.38
668.03	81.38
668.232	87.38
668.435	78.38
668.638	81.38
668.841	84.38
669.043	88.38
669.246	73.38
669.449	75.38
669.651	78.38
669.854	76.38
670.057	79.38
670.259	86.38
670.462	91.38
670.665	75.38
670.867	81.38
671.07	85.38
671.272	86.38
671.475	92.38
671.677	78.38
671.88	77.38
672.082	76.38
672.284	81.38
672.487	83.38
672.689	87.38
672.892	87.38
