Data from Soil_25_5_HRD10591_00002.txt Node
Date: Thu Feb 19 11:26:35 EST 2026
User: Yrep
Spectrometer: HR+D1059
Trigger mode: 1
Integration Time (sec): 1.000000E-1
Scans to average: 1
Electric dark correction enabled: true
Nonlinearity correction enabled: false
Boxcar width: 0
XAxis mode: Wavelengths
Number of Pixels in Spectrum: 2048
>>>>>Begin Spectral Data<<<<<
223.165	-19.56
223.4	-19.56
223.635	-19.56
223.869	-17.56
224.104	-17.56
224.338	-15.56
224.573	-9.56
224.808	-19.56
225.042	3.44
225.277	-14.56
225.511	-6.56
225.746	2.44
225.98	15.44
226.215	15.44
226.449	10.44
226.683	12.44
226.918	22.44
227.152	38.44
227.387	41.44
227.621	52.44
227.856	29.44
228.09	46.44
228.324	24.44
228.559	56.44
228.793	59.44
229.027	63.44
229.262	52.44
229.496	67.44
229.73	55.44
229.964	72.44
230.199	69.44
230.433	77.44
230.667	82.44
230.901	91.44
231.136	87.44
231.37	82.44
231.604	78.44
231.838	85.44
232.072	76.44
232.306	79.44
232.541	81.44
232.775	89.44
233.009	73.44
233.243	85.44
233.477	77.44
233.711	81.44
233.945	72.44
234.179	80.44
234.413	86.44
234.647	70.44
234.881	70.44
235.115	86.44
235.349	81.44
235.583	62.44
235.817	74.44
236.051	73.44
236.285	76.44
236.519	74.44
236.753	81.44
236.987	75.44
237.221	69.44
237.455	68.44
237.689	77.44
237.922	71.44
238.156	70.44
238.39	78.44
238.624	79.44
238.858	75.44
239.091	80.44
239.325	84.44
239.559	74.44
239.793	75.44
240.027	79.44
240.26	73.44
240.494	73.44
240.728	67.44
240.961	71.44
241.195	77.44
241.429	84.44
241.662	55.44
241.896	72.44
242.13	79.44
242.363	67.44
242.597	82.44
242.83	75.44
243.064	72.44
243.298	86.44
243.531	65.44
243.765	64.44
243.998	78.44
244.232	74.44
244.465	79.44
244.699	79.44
244.932	79.44
245.166	64.44
245.399	75.44
245.633	67.44
245.866	77.44
246.099	67.44
246.333	75.44
246.566	78.44
246.8	71.44
247.033	76.44
247.266	80.44
247.5	71.44
247.733	77.44
247.966	75.44
248.2	95.44
248.433	80.44
248.666	85.44
248.899	85.44
249.133	78.44
249.366	76.44
249.599	75.44
249.832	79.44
250.066	76.44
250.299	81.44
250.532	82.44
250.765	83.44
250.998	85.44
251.231	82.44
251.465	86.44
251.698	60.44
251.931	76.44
252.164	78.44
252.397	80.44
252.63	84.44
252.863	83.44
253.096	65.44
253.329	86.44
253.562	74.44
253.795	77.44
254.028	60.44
254.261	62.44
254.494	86.44
254.727	74.44
254.96	75.44
255.193	80.44
255.426	82.44
255.659	79.44
255.892	85.44
256.124	88.44
256.357	81.44
256.59	78.44
256.823	72.44
257.056	97.44
257.289	83.44
257.521	79.44
257.754	72.44
257.987	77.44
258.22	87.44
258.452	91.44
258.685	70.44
258.918	73.44
259.151	84.44
259.383	82.44
259.616	73.44
259.849	87.44
260.081	74.44
260.314	81.44
260.547	74.44
260.779	82.44
261.012	81.44
261.244	81.44
261.477	84.44
261.71	81.44
261.942	95.44
262.175	86.44
262.407	79.44
262.64	88.44
262.872	74.44
263.105	82.44
263.337	82.44
263.57	76.44
263.802	78.44
264.035	71.44
264.267	63.44
264.499	73.44
264.732	76.44
264.964	75.44
265.197	77.44
265.429	79.44
265.661	74.44
265.894	83.44
266.126	78.44
266.358	82.44
266.591	80.44
266.823	89.44
267.055	74.44
267.287	86.44
267.52	76.44
267.752	77.44
267.984	79.44
268.216	72.44
268.448	74.44
268.681	86.44
268.913	78.44
269.145	75.44
269.377	87.44
269.609	86.44
269.841	87.44
270.073	76.44
270.306	93.44
270.538	97.44
270.77	89.44
271.002	77.44
271.234	83.44
271.466	81.44
271.698	74.44
271.93	80.44
272.162	90.44
272.394	93.44
272.626	83.44
272.858	89.44
273.09	77.44
273.322	85.44
273.553	92.44
273.785	81.44
274.017	70.44
274.249	84.44
274.481	75.44
274.713	79.44
274.945	86.44
275.176	85.44
275.408	83.44
275.64	79.44
275.872	85.44
276.104	90.44
276.335	79.44
276.567	82.44
276.799	96.44
277.031	91.44
277.262	81.44
277.494	87.44
277.726	88.44
277.957	74.44
278.189	95.44
278.421	83.44
278.652	69.44
278.884	85.44
279.115	98.44
279.347	81.44
279.579	82.44
279.81	88.44
280.042	74.44
280.273	91.44
280.505	78.44
280.736	72.44
280.968	89.44
281.199	80.44
281.431	78.44
281.662	74.44
281.894	80.44
282.125	96.44
282.356	78.44
282.588	77.44
282.819	91.44
283.051	91.44
283.282	100.44
283.513	96.44
283.745	82.44
283.976	84.44
284.207	78.44
284.439	67.44
284.67	72.44
284.901	79.44
285.132	93.44
285.364	88.44
285.595	83.44
285.826	67.44
286.057	94.44
286.288	86.44
286.52	91.44
286.751	83.44
286.982	72.44
287.213	69.44
287.444	84.44
287.675	78.44
287.906	86.44
288.138	87.44
288.369	87.44
288.6	100.44
288.831	77.44
289.062	92.44
289.293	95.44
289.524	81.44
289.755	78.44
289.986	99.44
290.217	97.44
290.448	82.44
290.679	87.44
290.91	83.44
291.141	78.44
291.371	84.44
291.602	72.44
291.833	84.44
292.064	72.44
292.295	70.44
292.526	75.44
292.757	82.44
292.987	86.44
293.218	72.44
293.449	73.44
293.68	86.44
293.91	84.44
294.141	87.44
294.372	98.44
294.603	77.44
294.833	96.44
295.064	78.44
295.295	87.44
295.525	81.44
295.756	85.44
295.987	84.44
296.217	87.44
296.448	84.44
296.679	74.44
296.909	81.44
297.14	96.44
297.37	89.44
297.601	81.44
297.831	72.44
298.062	84.44
298.292	78.44
298.523	88.44
298.753	77.44
298.984	85.44
299.214	72.44
299.445	79.44
299.675	79.44
299.905	95.44
300.136	89.44
300.366	74.44
300.597	82.44
300.827	91.44
301.057	86.44
301.288	84.44
301.518	90.44
301.748	78.44
301.979	87.44
302.209	81.44
302.439	94.44
302.669	89.44
302.9	81.44
303.13	80.44
303.36	75.44
303.59	83.44
303.82	61.44
304.051	88.44
304.281	99.44
304.511	86.44
304.741	97.44
304.971	69.44
305.201	71.44
305.431	77.44
305.661	78.44
305.891	80.44
306.121	85.44
306.352	82.44
306.582	71.44
306.812	81.44
307.042	89.44
307.272	78.44
307.502	86.44
307.731	103.44
307.961	76.44
308.191	74.44
308.421	94.44
308.651	76.44
308.881	84.44
309.111	85.44
309.341	105.44
309.571	100.44
309.8	86.44
310.03	74.44
310.26	88.44
310.49	87.44
310.72	86.44
310.949	96.44
311.179	85.44
311.409	93.44
311.639	79.44
311.868	99.44
312.098	88.44
312.328	91.44
312.557	91.44
312.787	59.44
313.017	80.44
313.246	95.44
313.476	96.44
313.706	84.44
313.935	73.44
314.165	75.44
314.394	74.44
314.624	76.44
314.853	65.44
315.083	95.44
315.312	85.44
315.542	77.44
315.771	81.44
316.001	84.44
316.23	89.44
316.46	87.44
316.689	98.44
316.919	85.44
317.148	81.44
317.377	84.44
317.607	77.44
317.836	91.44
318.065	78.44
318.295	75.44
318.524	80.44
318.753	79.44
318.983	81.44
319.212	79.44
319.441	85.44
319.67	85.44
319.9	82.44
320.129	83.44
320.358	63.44
320.587	94.44
320.816	81.44
321.046	84.44
321.275	77.44
321.504	93.44
321.733	78.44
321.962	88.44
322.191	89.44
322.42	82.44
322.649	84.44
322.878	91.44
323.108	87.44
323.337	90.44
323.566	89.44
323.795	72.44
324.024	95.44
324.253	89.44
324.482	88.44
324.71	76.44
324.939	73.44
325.168	84.44
325.397	84.44
325.626	92.44
325.855	80.44
326.084	79.44
326.313	84.44
326.542	91.44
326.77	91.44
326.999	80.44
327.228	85.44
327.457	88.44
327.686	85.44
327.914	77.44
328.143	95.44
328.372	96.44
328.6	79.44
328.829	91.44
329.058	67.44
329.287	81.44
329.515	79.44
329.744	92.44
329.972	82.44
330.201	91.44
330.43	89.44
330.658	82.44
330.887	76.44
331.115	101.44
331.344	77.44
331.572	83.44
331.801	88.44
332.03	89.44
332.258	78.44
332.486	87.44
332.715	82.44
332.943	81.44
333.172	84.44
333.4	67.44
333.629	85.44
333.857	89.44
334.085	83.44
334.314	71.44
334.542	75.44
334.771	84.44
334.999	78.44
335.227	81.44
335.455	85.44
335.684	82.44
335.912	71.44
336.14	87.44
336.369	67.44
336.597	77.44
336.825	74.44
337.053	77.44
337.281	99.44
337.51	82.44
337.738	81.44
337.966	74.44
338.194	82.44
338.422	62.44
338.65	78.44
338.878	87.44
339.106	86.44
339.334	93.44
339.562	89.44
339.79	73.44
340.018	74.44
340.246	72.44
340.474	84.44
340.702	85.44
340.93	84.44
341.158	86.44
341.386	83.44
341.614	84.44
341.842	76.44
342.07	81.44
342.298	74.44
342.526	75.44
342.754	82.44
342.981	85.44
343.209	91.44
343.437	91.44
343.665	77.44
343.893	65.44
344.12	90.44
344.348	84.44
344.576	90.44
344.804	89.44
345.031	82.44
345.259	85.44
345.487	87.44
345.714	80.44
345.942	70.44
346.17	89.44
346.397	79.44
346.625	83.44
346.853	98.44
347.08	84.44
347.308	85.44
347.535	88.44
347.763	78.44
347.99	78.44
348.218	95.44
348.445	78.44
348.673	81.44
348.9	74.44
349.128	85.44
349.355	81.44
349.583	77.44
349.81	96.44
350.037	76.44
350.265	83.44
350.492	90.44
350.72	82.44
350.947	81.44
351.174	95.44
351.402	77.44
351.629	87.44
351.856	82.44
352.083	79.44
352.311	81.44
352.538	80.44
352.765	84.44
352.992	96.44
353.22	92.44
353.447	81.44
353.674	77.44
353.901	93.44
354.128	85.44
354.355	77.44
354.583	65.44
354.81	82.44
355.037	101.44
355.264	91.44
355.491	74.44
355.718	89.44
355.945	73.44
356.172	91.44
356.399	74.44
356.626	87.44
356.853	82.44
357.08	72.44
357.307	77.44
357.534	90.44
357.761	83.44
357.988	85.44
358.215	86.44
358.441	85.44
358.668	81.44
358.895	86.44
359.122	88.44
359.349	90.44
359.576	74.44
359.802	99.44
360.029	87.44
360.256	89.44
360.483	92.44
360.709	85.44
360.936	90.44
361.163	81.44
361.39	71.44
361.616	92.44
361.843	69.44
362.07	81.44
362.296	78.44
362.523	78.44
362.749	89.44
362.976	74.44
363.203	89.44
363.429	69.44
363.656	99.44
363.882	99.44
364.109	82.44
364.335	87.44
364.562	88.44
364.788	71.44
365.015	99.44
365.241	71.44
365.468	74.44
365.694	91.44
365.92	82.44
366.147	76.44
366.373	77.44
366.599	77.44
366.826	81.44
367.052	79.44
367.278	80.44
367.505	81.44
367.731	82.44
367.957	83.44
368.184	71.44
368.41	91.44
368.636	74.44
368.862	71.44
369.089	77.44
369.315	81.44
369.541	84.44
369.767	76.44
369.993	85.44
370.219	71.44
370.445	79.44
370.672	74.44
370.898	84.44
371.124	83.44
371.35	73.44
371.576	87.44
371.802	85.44
372.028	94.44
372.254	91.44
372.48	86.44
372.706	87.44
372.932	77.44
373.158	72.44
373.384	78.44
373.61	87.44
373.835	75.44
374.061	65.44
374.287	86.44
374.513	83.44
374.739	81.44
374.965	88.44
375.191	70.44
375.416	73.44
375.642	83.44
375.868	85.44
376.094	76.44
376.319	93.44
376.545	75.44
376.771	81.44
376.997	81.44
377.222	84.44
377.448	77.44
377.674	64.44
377.899	87.44
378.125	93.44
378.35	91.44
378.576	79.44
378.802	92.44
379.027	88.44
379.253	71.44
379.478	70.44
379.704	91.44
379.929	87.44
380.155	74.44
380.38	83.44
380.606	87.44
380.831	89.44
381.057	97.44
381.282	88.44
381.507	67.44
381.733	84.44
381.958	77.44
382.184	86.44
382.409	76.44
382.634	98.44
382.86	77.44
383.085	105.44
383.31	101.44
383.535	92.44
383.761	82.44
383.986	78.44
384.211	84.44
384.436	90.44
384.662	87.44
384.887	87.44
385.112	96.44
385.337	78.44
385.562	91.44
385.787	88.44
386.013	87.44
386.238	89.44
386.463	79.44
386.688	81.44
386.913	85.44
387.138	80.44
387.363	80.44
387.588	91.44
387.813	85.44
388.038	83.44
388.263	86.44
388.488	85.44
388.713	80.44
388.938	77.44
389.163	76.44
389.387	78.44
389.612	73.44
389.837	95.44
390.062	84.44
390.287	81.44
390.512	84.44
390.736	78.44
390.961	84.44
391.186	74.44
391.411	88.44
391.636	95.44
391.86	85.44
392.085	77.44
392.31	76.44
392.534	82.44
392.759	94.44
392.984	95.44
393.208	84.44
393.433	96.44
393.658	101.44
393.882	85.44
394.107	90.44
394.331	83.44
394.556	83.44
394.78	100.44
395.005	79.44
395.229	79.44
395.454	72.44
395.678	85.44
395.903	81.44
396.127	91.44
396.352	90.44
396.576	88.44
396.801	91.44
397.025	100.44
397.249	85.44
397.474	77.44
397.698	85.44
397.922	74.44
398.147	70.44
398.371	81.44
398.595	88.44
398.82	82.44
399.044	89.44
399.268	81.44
399.492	82.44
399.717	74.44
399.941	77.44
400.165	82.44
400.389	92.44
400.613	89.44
400.837	75.44
401.062	71.44
401.286	68.44
401.51	79.44
401.734	87.44
401.958	77.44
402.182	78.44
402.406	91.44
402.63	90.44
402.854	78.44
403.078	85.44
403.302	87.44
403.526	81.44
403.75	78.44
403.974	67.44
404.198	82.44
404.422	91.44
404.645	80.44
404.869	78.44
405.093	85.44
405.317	78.44
405.541	82.44
405.765	78.44
405.988	86.44
406.212	96.44
406.436	83.44
406.66	90.44
406.883	80.44
407.107	86.44
407.331	84.44
407.555	73.44
407.778	85.44
408.002	90.44
408.226	86.44
408.449	82.44
408.673	70.44
408.896	77.44
409.12	83.44
409.344	85.44
409.567	83.44
409.791	95.44
410.014	72.44
410.238	76.44
410.461	84.44
410.685	74.44
410.908	69.44
411.132	73.44
411.355	73.44
411.578	76.44
411.802	79.44
412.025	79.44
412.249	84.44
412.472	83.44
412.695	79.44
412.919	69.44
413.142	82.44
413.365	73.44
413.589	83.44
413.812	89.44
414.035	94.44
414.258	77.44
414.482	74.44
414.705	89.44
414.928	66.44
415.151	85.44
415.374	67.44
415.597	86.44
415.821	77.44
416.044	85.44
416.267	82.44
416.49	87.44
416.713	80.44
416.936	76.44
417.159	61.44
417.382	64.44
417.605	72.44
417.828	90.44
418.051	80.44
418.274	84.44
418.497	78.44
418.72	73.44
418.943	83.44
419.166	67.44
419.389	84.44
419.611	83.44
419.834	91.44
420.057	71.44
420.28	77.44
420.503	81.44
420.726	89.44
420.948	77.44
421.171	77.44
421.394	70.44
421.617	85.44
421.839	79.44
422.062	96.44
422.285	80.44
422.507	104.44
422.73	121.44
422.953	96.44
423.175	80.44
423.398	75.44
423.621	86.44
423.843	79.44
424.066	97.44
424.288	85.44
424.511	82.44
424.733	89.44
424.956	73.44
425.178	81.44
425.401	92.44
425.623	85.44
425.846	87.44
426.068	72.44
426.291	79.44
426.513	67.44
426.735	85.44
426.958	74.44
427.18	78.44
427.402	75.44
427.625	89.44
427.847	94.44
428.069	87.44
428.292	80.44
428.514	79.44
428.736	89.44
428.958	86.44
429.181	92.44
429.403	79.44
429.625	73.44
429.847	83.44
430.069	97.44
430.292	98.44
430.514	102.44
430.736	88.44
430.958	92.44
431.18	71.44
431.402	85.44
431.624	70.44
431.846	70.44
432.068	71.44
432.29	77.44
432.512	73.44
432.734	80.44
432.956	89.44
433.178	79.44
433.4	87.44
433.622	93.44
433.844	91.44
434.066	70.44
434.287	69.44
434.509	80.44
434.731	83.44
434.953	82.44
435.175	89.44
435.397	84.44
435.618	91.44
435.84	82.44
436.062	75.44
436.284	72.44
436.505	69.44
436.727	79.44
436.949	75.44
437.17	93.44
437.392	65.44
437.614	80.44
437.835	78.44
438.057	75.44
438.278	82.44
438.5	73.44
438.721	93.44
438.943	90.44
439.165	77.44
439.386	86.44
439.608	85.44
439.829	77.44
440.05	63.44
440.272	80.44
440.493	67.44
440.715	71.44
440.936	94.44
441.158	89.44
441.379	78.44
441.6	75.44
441.822	85.44
442.043	77.44
442.264	78.44
442.486	85.44
442.707	97.44
442.928	90.44
443.149	81.44
443.371	81.44
443.592	83.44
443.813	83.44
444.034	82.44
444.255	89.44
444.476	81.44
444.698	89.44
444.919	94.44
445.14	163.44
445.361	135.44
445.582	112.44
445.803	85.44
446.024	101.44
446.245	92.44
446.466	68.44
446.687	79.44
446.908	83.44
447.129	80.44
447.35	83.44
447.571	73.44
447.792	92.44
448.013	74.44
448.234	78.44
448.455	91.44
448.675	88.44
448.896	87.44
449.117	78.44
449.338	89.44
449.559	87.44
449.779	89.44
450	88.44
450.221	71.44
450.442	77.44
450.662	80.44
450.883	76.44
451.104	89.44
451.324	73.44
451.545	75.44
451.766	92.44
451.986	71.44
452.207	68.44
452.428	84.44
452.648	63.44
452.869	72.44
453.089	86.44
453.31	101.44
453.53	81.44
453.751	83.44
453.971	85.44
454.192	87.44
454.412	79.44
454.633	79.44
454.853	75.44
455.073	75.44
455.294	82.44
455.514	74.44
455.734	77.44
455.955	81.44
456.175	82.44
456.395	70.44
456.616	76.44
456.836	78.44
457.056	83.44
457.276	80.44
457.497	87.44
457.717	73.44
457.937	65.44
458.157	80.44
458.377	85.44
458.598	81.44
458.818	81.44
459.038	76.44
459.258	72.44
459.478	67.44
459.698	79.44
459.918	83.44
460.138	86.44
460.358	78.44
460.578	86.44
460.798	79.44
461.018	88.44
461.238	87.44
461.458	77.44
461.678	77.44
461.898	70.44
462.118	65.44
462.338	72.44
462.558	81.44
462.777	67.44
462.997	72.44
463.217	69.44
463.437	84.44
463.657	89.44
463.876	87.44
464.096	83.44
464.316	67.44
464.536	81.44
464.755	85.44
464.975	80.44
465.195	82.44
465.414	80.44
465.634	79.44
465.854	88.44
466.073	81.44
466.293	77.44
466.512	71.44
466.732	77.44
466.951	84.44
467.171	88.44
467.391	96.44
467.61	76.44
467.829	81.44
468.049	81.44
468.268	92.44
468.488	83.44
468.707	87.44
468.927	78.44
469.146	77.44
469.365	79.44
469.585	69.44
469.804	88.44
470.023	87.44
470.243	77.44
470.462	82.44
470.681	73.44
470.901	73.44
471.12	80.44
471.339	72.44
471.558	74.44
471.777	90.44
471.997	82.44
472.216	91.44
472.435	98.44
472.654	72.44
472.873	96.44
473.092	85.44
473.311	71.44
473.53	78.44
473.749	88.44
473.968	77.44
474.187	89.44
474.406	74.44
474.625	71.44
474.844	87.44
475.063	93.44
475.282	79.44
475.501	93.44
475.72	92.44
475.939	88.44
476.158	80.44
476.377	70.44
476.596	84.44
476.814	81.44
477.033	76.44
477.252	82.44
477.471	69.44
477.69	82.44
477.908	85.44
478.127	83.44
478.346	67.44
478.564	79.44
478.783	84.44
479.002	81.44
479.22	80.44
479.439	81.44
479.658	89.44
479.876	86.44
480.095	70.44
480.313	79.44
480.532	73.44
480.751	87.44
480.969	72.44
481.188	87.44
481.406	85.44
481.624	72.44
481.843	77.44
482.061	74.44
482.28	84.44
482.498	73.44
482.717	77.44
482.935	81.44
483.153	78.44
483.372	79.44
483.59	89.44
483.808	95.44
484.027	89.44
484.245	71.44
484.463	83.44
484.681	77.44
484.9	72.44
485.118	89.44
485.336	82.44
485.554	82.44
485.772	85.44
485.99	66.44
486.209	83.44
486.427	81.44
486.645	66.44
486.863	73.44
487.081	77.44
487.299	83.44
487.517	81.44
487.735	91.44
487.953	102.44
488.171	87.44
488.389	83.44
488.607	79.44
488.825	75.44
489.043	82.44
489.261	88.44
489.479	80.44
489.696	73.44
489.914	89.44
490.132	82.44
490.35	80.44
490.568	82.44
490.786	81.44
491.003	86.44
491.221	77.44
491.439	66.44
491.657	79.44
491.874	89.44
492.092	80.44
492.31	87.44
492.527	65.44
492.745	61.44
492.963	79.44
493.18	71.44
493.398	78.44
493.615	99.44
493.833	75.44
494.05	75.44
494.268	82.44
494.485	81.44
494.703	88.44
494.92	70.44
495.138	82.44
495.355	75.44
495.573	84.44
495.79	91.44
496.008	95.44
496.225	83.44
496.442	89.44
496.66	81.44
496.877	82.44
497.094	77.44
497.312	77.44
497.529	92.44
497.746	88.44
497.963	81.44
498.181	83.44
498.398	72.44
498.615	77.44
498.832	89.44
499.049	77.44
499.267	89.44
499.484	81.44
499.701	86.44
499.918	76.44
500.135	88.44
500.352	82.44
500.569	84.44
500.786	91.44
501.003	75.44
501.22	82.44
501.437	91.44
501.654	81.44
501.871	87.44
502.088	80.44
502.305	89.44
502.522	83.44
502.739	78.44
502.956	85.44
503.172	79.44
503.389	69.44
503.606	79.44
503.823	86.44
504.04	85.44
504.256	88.44
504.473	88.44
504.69	89.44
504.907	88.44
505.123	80.44
505.34	69.44
505.557	77.44
505.773	88.44
505.99	74.44
506.207	74.44
506.423	90.44
506.64	85.44
506.856	75.44
507.073	79.44
507.289	87.44
507.506	92.44
507.722	82.44
507.939	86.44
508.155	86.44
508.372	86.44
508.588	87.44
508.805	75.44
509.021	89.44
509.238	81.44
509.454	72.44
509.67	78.44
509.887	87.44
510.103	90.44
510.319	88.44
510.536	82.44
510.752	72.44
510.968	78.44
511.184	92.44
511.401	86.44
511.617	89.44
511.833	89.44
512.049	65.44
512.265	86.44
512.481	79.44
512.698	87.44
512.914	77.44
513.13	77.44
513.346	81.44
513.562	80.44
513.778	87.44
513.994	79.44
514.21	80.44
514.426	79.44
514.642	84.44
514.858	73.44
515.074	92.44
515.29	86.44
515.506	89.44
515.721	90.44
515.937	84.44
516.153	98.44
516.369	90.44
516.585	84.44
516.801	98.44
517.016	89.44
517.232	86.44
517.448	103.44
517.664	101.44
517.879	80.44
518.095	82.44
518.311	77.44
518.527	95.44
518.742	84.44
518.958	82.44
519.173	79.44
519.389	100.44
519.605	84.44
519.82	70.44
520.036	91.44
520.251	79.44
520.467	82.44
520.682	83.44
520.898	85.44
521.113	84.44
521.329	97.44
521.544	89.44
521.76	83.44
521.975	82.44
522.19	88.44
522.406	81.44
522.621	82.44
522.836	72.44
523.052	87.44
523.267	82.44
523.482	81.44
523.698	74.44
523.913	89.44
524.128	86.44
524.343	93.44
524.559	84.44
524.774	100.44
524.989	80.44
525.204	77.44
525.419	94.44
525.634	93.44
525.849	87.44
526.064	84.44
526.28	85.44
526.495	94.44
526.71	84.44
526.925	95.44
527.14	98.44
527.355	99.44
527.57	77.44
527.785	90.44
527.999	77.44
528.214	73.44
528.429	91.44
528.644	90.44
528.859	89.44
529.074	82.44
529.289	81.44
529.503	84.44
529.718	85.44
529.933	95.44
530.148	84.44
530.363	90.44
530.577	81.44
530.792	89.44
531.007	87.44
531.221	90.44
531.436	77.44
531.651	74.44
531.865	74.44
532.08	80.44
532.295	90.44
532.509	78.44
532.724	68.44
532.938	85.44
533.153	79.44
533.367	95.44
533.582	77.44
533.796	75.44
534.011	92.44
534.225	80.44
534.44	74.44
534.654	75.44
534.868	76.44
535.083	73.44
535.297	92.44
535.511	91.44
535.726	89.44
535.94	82.44
536.154	91.44
536.369	84.44
536.583	75.44
536.797	66.44
537.011	84.44
537.225	77.44
537.44	73.44
537.654	84.44
537.868	71.44
538.082	98.44
538.296	92.44
538.51	85.44
538.724	79.44
538.938	87.44
539.153	85.44
539.367	71.44
539.581	73.44
539.795	79.44
540.009	89.44
540.222	89.44
540.436	99.44
540.65	81.44
540.864	88.44
541.078	82.44
541.292	79.44
541.506	89.44
541.72	105.44
541.934	74.44
542.147	80.44
542.361	85.44
542.575	87.44
542.789	72.44
543.002	76.44
543.216	90.44
543.43	87.44
543.644	81.44
543.857	89.44
544.071	81.44
544.285	89.44
544.498	79.44
544.712	74.44
544.925	74.44
545.139	91.44
545.352	86.44
545.566	87.44
545.779	92.44
545.993	102.44
546.206	89.44
546.42	84.44
546.633	87.44
546.847	95.44
547.06	90.44
547.274	91.44
547.487	96.44
547.7	91.44
547.914	94.44
548.127	76.44
548.34	81.44
548.554	97.44
548.767	106.44
548.98	102.44
549.193	81.44
549.407	79.44
549.62	99.44
549.833	92.44
550.046	91.44
550.259	100.44
550.473	95.44
550.686	91.44
550.899	94.44
551.112	109.44
551.325	103.44
551.538	89.44
551.751	99.44
551.964	107.44
552.177	99.44
552.39	79.44
552.603	95.44
552.816	107.44
553.029	100.44
553.242	109.44
553.455	103.44
553.667	110.44
553.88	105.44
554.093	90.44
554.306	88.44
554.519	101.44
554.732	84.44
554.944	85.44
555.157	101.44
555.37	96.44
555.583	104.44
555.795	90.44
556.008	87.44
556.221	89.44
556.433	94.44
556.646	85.44
556.859	96.44
557.071	91.44
557.284	98.44
557.496	95.44
557.709	73.44
557.921	98.44
558.134	107.44
558.346	77.44
558.559	89.44
558.771	83.44
558.984	106.44
559.196	106.44
559.409	87.44
559.621	101.44
559.833	93.44
560.046	94.44
560.258	99.44
560.47	80.44
560.683	94.44
560.895	69.44
561.107	81.44
561.32	90.44
561.532	87.44
561.744	88.44
561.956	91.44
562.168	91.44
562.381	84.44
562.593	85.44
562.805	85.44
563.017	86.44
563.229	86.44
563.441	91.44
563.653	89.44
563.865	94.44
564.077	77.44
564.289	90.44
564.501	85.44
564.713	83.44
564.925	83.44
565.137	80.44
565.349	77.44
565.561	101.44
565.773	90.44
565.985	102.44
566.197	81.44
566.408	89.44
566.62	82.44
566.832	81.44
567.044	87.44
567.255	82.44
567.467	84.44
567.679	82.44
567.891	91.44
568.102	90.44
568.314	87.44
568.526	91.44
568.737	71.44
568.949	102.44
569.161	94.44
569.372	95.44
569.584	93.44
569.795	103.44
570.007	85.44
570.218	87.44
570.43	83.44
570.641	88.44
570.853	97.44
571.064	79.44
571.276	91.44
571.487	91.44
571.698	96.44
571.91	85.44
572.121	89.44
572.333	82.44
572.544	71.44
572.755	80.44
572.966	87.44
573.178	82.44
573.389	97.44
573.6	82.44
573.811	105.44
574.023	87.44
574.234	87.44
574.445	87.44
574.656	90.44
574.867	92.44
575.078	97.44
575.289	84.44
575.501	95.44
575.712	81.44
575.923	79.44
576.134	92.44
576.345	73.44
576.556	84.44
576.767	94.44
576.978	80.44
577.188	88.44
577.399	90.44
577.61	91.44
577.821	92.44
578.032	93.44
578.243	90.44
578.454	87.44
578.665	80.44
578.875	79.44
579.086	95.44
579.297	88.44
579.508	85.44
579.718	95.44
579.929	82.44
580.14	94.44
580.35	87.44
580.561	74.44
580.772	81.44
580.982	87.44
581.193	80.44
581.403	85.44
581.614	83.44
581.825	92.44
582.035	85.44
582.246	82.44
582.456	64.44
582.667	79.44
582.877	87.44
583.087	83.44
583.298	109.44
583.508	78.44
583.719	91.44
583.929	95.44
584.139	83.44
584.35	87.44
584.56	90.44
584.77	94.44
584.981	58.44
585.191	99.44
585.401	94.44
585.611	92.44
585.821	93.44
586.032	92.44
586.242	98.44
586.452	100.44
586.662	86.44
586.872	80.44
587.082	85.44
587.292	94.44
587.502	95.44
587.713	90.44
587.923	105.44
588.133	113.44
588.343	90.44
588.553	96.44
588.762	125.44
588.972	189.44
589.182	253.44
589.392	237.44
589.602	197.44
589.812	242.44
590.022	185.44
590.232	119.44
590.441	102.44
590.651	112.44
590.861	107.44
591.071	77.44
591.281	100.44
591.49	94.44
591.7	90.44
591.91	97.44
592.119	92.44
592.329	98.44
592.539	99.44
592.748	88.44
592.958	100.44
593.167	93.44
593.377	100.44
593.587	111.44
593.796	109.44
594.006	101.44
594.215	97.44
594.424	88.44
594.634	88.44
594.843	87.44
595.053	97.44
595.262	103.44
595.472	105.44
595.681	95.44
595.89	79.44
596.1	81.44
596.309	86.44
596.518	93.44
596.727	84.44
596.937	97.44
597.146	79.44
597.355	76.44
597.564	96.44
597.774	95.44
597.983	90.44
598.192	101.44
598.401	88.44
598.61	88.44
598.819	106.44
599.028	89.44
599.237	84.44
599.446	96.44
599.655	93.44
599.864	78.44
600.073	93.44
600.282	88.44
600.491	88.44
600.7	92.44
600.909	81.44
601.118	72.44
601.327	87.44
601.536	86.44
601.745	87.44
601.953	98.44
602.162	106.44
602.371	90.44
602.58	101.44
602.789	86.44
602.997	83.44
603.206	93.44
603.415	90.44
603.623	89.44
603.832	94.44
604.041	90.44
604.249	91.44
604.458	104.44
604.666	97.44
604.875	93.44
605.084	84.44
605.292	110.44
605.501	100.44
605.709	93.44
605.918	99.44
606.126	98.44
606.334	91.44
606.543	91.44
606.751	97.44
606.96	103.44
607.168	105.44
607.376	83.44
607.585	89.44
607.793	95.44
608.001	98.44
608.21	91.44
608.418	90.44
608.626	74.44
608.834	89.44
609.043	86.44
609.251	88.44
609.459	95.44
609.667	81.44
609.875	89.44
610.083	90.44
610.291	94.44
610.499	102.44
610.707	98.44
610.916	82.44
611.124	82.44
611.332	88.44
611.54	81.44
611.748	83.44
611.955	92.44
612.163	83.44
612.371	126.44
612.579	109.44
612.787	98.44
612.995	98.44
613.203	100.44
613.411	111.44
613.618	93.44
613.826	96.44
614.034	111.44
614.242	103.44
614.449	82.44
614.657	75.44
614.865	87.44
615.072	92.44
615.28	109.44
615.488	94.44
615.695	97.44
615.903	98.44
616.111	104.44
616.318	120.44
616.526	118.44
616.733	111.44
616.941	105.44
617.148	111.44
617.356	111.44
617.563	121.44
617.771	111.44
617.978	95.44
618.185	114.44
618.393	104.44
618.6	108.44
618.807	102.44
619.015	106.44
619.222	88.44
619.429	97.44
619.637	93.44
619.844	98.44
620.051	97.44
620.258	107.44
620.466	115.44
620.673	107.44
620.88	113.44
621.087	111.44
621.294	92.44
621.501	107.44
621.708	99.44
621.915	94.44
622.122	84.44
622.329	94.44
622.536	98.44
622.743	97.44
622.95	95.44
623.157	90.44
623.364	96.44
623.571	99.44
623.778	104.44
623.985	105.44
624.192	96.44
624.399	95.44
624.606	105.44
624.812	94.44
625.019	89.44
625.226	103.44
625.433	77.44
625.639	87.44
625.846	94.44
626.053	98.44
626.259	90.44
626.466	87.44
626.673	81.44
626.879	98.44
627.086	93.44
627.293	98.44
627.499	85.44
627.706	91.44
627.912	97.44
628.119	77.44
628.325	92.44
628.532	95.44
628.738	74.44
628.945	66.44
629.151	78.44
629.357	83.44
629.564	86.44
629.77	91.44
629.976	84.44
630.183	88.44
630.389	77.44
630.595	85.44
630.802	84.44
631.008	83.44
631.214	79.44
631.42	73.44
631.627	98.44
631.833	83.44
632.039	93.44
632.245	91.44
632.451	84.44
632.657	90.44
632.863	79.44
633.069	82.44
633.275	85.44
633.481	79.44
633.688	85.44
633.893	82.44
634.099	81.44
634.305	69.44
634.511	74.44
634.717	97.44
634.923	72.44
635.129	73.44
635.335	77.44
635.541	85.44
635.747	96.44
635.952	87.44
636.158	101.44
636.364	79.44
636.57	86.44
636.775	72.44
636.981	87.44
637.187	77.44
637.392	90.44
637.598	70.44
637.804	77.44
638.009	73.44
638.215	69.44
638.421	86.44
638.626	73.44
638.832	96.44
639.037	71.44
639.243	90.44
639.448	74.44
639.654	84.44
639.859	96.44
640.065	76.44
640.27	93.44
640.475	97.44
640.681	77.44
640.886	90.44
641.091	81.44
641.297	86.44
641.502	73.44
641.707	89.44
641.913	98.44
642.118	85.44
642.323	85.44
642.528	88.44
642.733	67.44
642.939	77.44
643.144	83.44
643.349	106.44
643.554	80.44
643.759	81.44
643.964	74.44
644.169	86.44
644.374	98.44
644.579	106.44
644.784	82.44
644.989	74.44
645.194	81.44
645.399	89.44
645.604	81.44
645.809	83.44
646.014	87.44
646.219	89.44
646.423	73.44
646.628	81.44
646.833	102.44
647.038	103.44
647.243	75.44
647.447	86.44
647.652	87.44
647.857	81.44
648.062	85.44
648.266	76.44
648.471	77.44
648.676	76.44
648.88	86.44
649.085	84.44
649.289	82.44
649.494	89.44
649.698	85.44
649.903	88.44
650.107	85.44
650.312	82.44
650.516	61.44
650.721	89.44
650.925	85.44
651.13	88.44
651.334	69.44
651.539	88.44
651.743	94.44
651.947	81.44
652.152	94.44
652.356	75.44
652.56	77.44
652.764	86.44
652.969	85.44
653.173	80.44
653.377	79.44
653.581	80.44
653.785	74.44
653.99	79.44
654.194	78.44
654.398	76.44
654.602	83.44
654.806	82.44
655.01	78.44
655.214	80.44
655.418	76.44
655.622	75.44
655.826	86.44
656.03	71.44
656.234	82.44
656.438	81.44
656.642	79.44
656.846	84.44
657.049	65.44
657.253	100.44
657.457	80.44
657.661	79.44
657.865	89.44
658.068	97.44
658.272	77.44
658.476	79.44
658.68	86.44
658.883	81.44
659.087	79.44
659.291	71.44
659.494	67.44
659.698	82.44
659.901	81.44
660.105	77.44
660.309	78.44
660.512	73.44
660.716	85.44
660.919	79.44
661.123	71.44
661.326	70.44
661.53	89.44
661.733	91.44
661.936	76.44
662.14	79.44
662.343	88.44
662.546	75.44
662.75	85.44
662.953	80.44
663.156	90.44
663.36	84.44
663.563	74.44
663.766	84.44
663.969	75.44
664.173	85.44
664.376	82.44
664.579	83.44
664.782	81.44
664.985	82.44
665.188	81.44
665.391	79.44
665.594	82.44
665.797	93.44
666	83.44
666.203	89.44
666.406	78.44
666.609	74.44
666.812	83.44
667.015	88.44
667.218	78.44
667.421	72.44
667.624	84.44
667.827	94.44
668.03	103.44
668.232	78.44
668.435	69.44
668.638	79.44
668.841	92.44
669.043	79.44
669.246	77.44
669.449	72.44
669.651	83.44
669.854	81.44
670.057	78.44
670.259	84.44
670.462	83.44
670.665	92.44
670.867	78.44
671.07	74.44
671.272	70.44
671.475	85.44
671.677	72.44
671.88	78.44
672.082	73.44
672.284	75.44
672.487	86.44
672.689	63.44
672.892	78.44
