Data from SampC_HRD10591_00091.txt Node
Date: Mon Jan 19 11:38:00 EST 2026
User: Yrep
Spectrometer: HR+D1059
Trigger mode: 0
Integration Time (sec): 3.443000E-1
Scans to average: 1
Electric dark correction enabled: true
Nonlinearity correction enabled: false
Boxcar width: 0
XAxis mode: Wavelengths
Number of Pixels in Spectrum: 2048
>>>>>Begin Spectral Data<<<<<
223.165	-25.81
223.4	-25.81
223.635	-25.81
223.869	-8.81
224.104	-30.81
224.338	-8.81
224.573	-23.81
224.808	-16.81
225.042	-4.81
225.277	2.19
225.511	-6.81
225.746	-5.81
225.98	12.19
226.215	16.19
226.449	27.19
226.683	17.19
226.918	30.19
227.152	27.19
227.387	39.19
227.621	40.19
227.856	50.19
228.09	47.19
228.324	37.19
228.559	72.19
228.793	71.19
229.027	77.19
229.262	89.19
229.496	82.19
229.73	86.19
229.964	101.19
230.199	115.19
230.433	98.19
230.667	123.19
230.901	114.19
231.136	120.19
231.37	111.19
231.604	130.19
231.838	117.19
232.072	144.19
232.306	129.19
232.541	127.19
232.775	123.19
233.009	115.19
233.243	122.19
233.477	120.19
233.711	120.19
233.945	111.19
234.179	121.19
234.413	123.19
234.647	113.19
234.881	115.19
235.115	138.19
235.349	120.19
235.583	130.19
235.817	120.19
236.051	123.19
236.285	123.19
236.519	137.19
236.753	186.19
236.987	193.19
237.221	229.19
237.455	228.19
237.689	235.19
237.922	191.19
238.156	165.19
238.39	144.19
238.624	139.19
238.858	132.19
239.091	127.19
239.325	125.19
239.559	118.19
239.793	123.19
240.027	123.19
240.26	112.19
240.494	112.19
240.728	126.19
240.961	120.19
241.195	121.19
241.429	127.19
241.662	125.19
241.896	110.19
242.13	116.19
242.363	128.19
242.597	115.19
242.83	129.19
243.064	120.19
243.298	134.19
243.531	118.19
243.765	135.19
243.998	128.19
244.232	132.19
244.465	117.19
244.699	129.19
244.932	127.19
245.166	129.19
245.399	145.19
245.633	126.19
245.866	120.19
246.099	133.19
246.333	152.19
246.566	136.19
246.8	131.19
247.033	126.19
247.266	129.19
247.5	128.19
247.733	145.19
247.966	128.19
248.2	131.19
248.433	133.19
248.666	135.19
248.899	136.19
249.133	142.19
249.366	134.19
249.599	139.19
249.832	129.19
250.066	161.19
250.299	147.19
250.532	146.19
250.765	142.19
250.998	136.19
251.231	123.19
251.465	153.19
251.698	162.19
251.931	160.19
252.164	144.19
252.397	144.19
252.63	154.19
252.863	137.19
253.096	138.19
253.329	150.19
253.562	146.19
253.795	150.19
254.028	139.19
254.261	163.19
254.494	152.19
254.727	150.19
254.96	151.19
255.193	151.19
255.426	138.19
255.659	155.19
255.892	177.19
256.124	181.19
256.357	175.19
256.59	202.19
256.823	221.19
257.056	272.19
257.289	279.19
257.521	310.19
257.754	330.19
257.987	314.19
258.22	248.19
258.452	218.19
258.685	196.19
258.918	181.19
259.151	176.19
259.383	181.19
259.616	175.19
259.849	170.19
260.081	189.19
260.314	183.19
260.547	188.19
260.779	169.19
261.012	161.19
261.244	184.19
261.477	191.19
261.71	195.19
261.942	179.19
262.175	180.19
262.407	183.19
262.64	207.19
262.872	205.19
263.105	206.19
263.337	265.19
263.57	264.19
263.802	225.19
264.035	232.19
264.267	207.19
264.499	225.19
264.732	226.19
264.964	190.19
265.197	209.19
265.429	266.19
265.661	256.19
265.894	258.19
266.126	273.19
266.358	297.19
266.591	230.19
266.823	226.19
267.055	219.19
267.287	191.19
267.52	195.19
267.752	202.19
267.984	186.19
268.216	199.19
268.448	203.19
268.681	195.19
268.913	201.19
269.145	189.19
269.377	183.19
269.609	199.19
269.841	194.19
270.073	186.19
270.306	180.19
270.538	170.19
270.77	167.19
271.002	192.19
271.234	189.19
271.466	198.19
271.698	198.19
271.93	178.19
272.162	195.19
272.394	209.19
272.626	212.19
272.858	191.19
273.09	191.19
273.322	194.19
273.553	183.19
273.785	195.19
274.017	182.19
274.249	201.19
274.481	208.19
274.713	195.19
274.945	211.19
275.176	199.19
275.408	199.19
275.64	211.19
275.872	202.19
276.104	218.19
276.335	217.19
276.567	213.19
276.799	210.19
277.031	218.19
277.262	221.19
277.494	242.19
277.726	248.19
277.957	253.19
278.189	255.19
278.421	257.19
278.652	272.19
278.884	291.19
279.115	353.19
279.347	522.19
279.579	737.19
279.81	817.19
280.042	658.19
280.273	612.19
280.505	638.19
280.736	407.19
280.968	301.19
281.199	334.19
281.431	375.19
281.662	484.19
281.894	541.19
282.125	437.19
282.356	367.19
282.588	313.19
282.819	298.19
283.051	273.19
283.282	273.19
283.513	279.19
283.745	248.19
283.976	251.19
284.207	257.19
284.439	233.19
284.67	255.19
284.901	282.19
285.132	305.19
285.364	339.19
285.595	310.19
285.826	253.19
286.057	217.19
286.288	229.19
286.52	237.19
286.751	221.19
286.982	240.19
287.213	226.19
287.444	227.19
287.675	237.19
287.906	254.19
288.138	251.19
288.369	239.19
288.6	233.19
288.831	230.19
289.062	235.19
289.293	270.19
289.524	218.19
289.755	247.19
289.986	232.19
290.217	238.19
290.448	226.19
290.679	230.19
290.91	254.19
291.141	259.19
291.371	243.19
291.602	236.19
291.833	222.19
292.064	251.19
292.295	248.19
292.526	274.19
292.757	271.19
292.987	263.19
293.218	251.19
293.449	274.19
293.68	289.19
293.91	251.19
294.141	259.19
294.372	258.19
294.603	261.19
294.833	241.19
295.064	241.19
295.295	250.19
295.525	234.19
295.756	244.19
295.987	227.19
296.217	232.19
296.448	234.19
296.679	246.19
296.909	270.19
297.14	239.19
297.37	271.19
297.601	263.19
297.831	241.19
298.062	245.19
298.292	236.19
298.523	262.19
298.753	254.19
298.984	241.19
299.214	232.19
299.445	240.19
299.675	237.19
299.905	256.19
300.136	250.19
300.366	256.19
300.597	272.19
300.827	263.19
301.057	264.19
301.288	274.19
301.518	285.19
301.748	280.19
301.979	331.19
302.209	281.19
302.439	310.19
302.669	273.19
302.9	292.19
303.13	303.19
303.36	315.19
303.59	328.19
303.82	306.19
304.051	335.19
304.281	333.19
304.511	374.19
304.741	391.19
304.971	434.19
305.201	508.19
305.431	565.19
305.661	606.19
305.891	675.19
306.121	645.19
306.352	566.19
306.582	594.19
306.812	600.19
307.042	514.19
307.272	515.19
307.502	563.19
307.731	746.19
307.961	1021.19
308.191	1466.19
308.421	1679.19
308.651	1425.19
308.881	1332.19
309.111	1608.19
309.341	2065.19
309.571	1974.19
309.8	1258.19
310.03	834.19
310.26	645.19
310.49	557.19
310.72	481.19
310.949	453.19
311.179	429.19
311.409	389.19
311.639	375.19
311.868	377.19
312.098	371.19
312.328	355.19
312.557	354.19
312.787	337.19
313.017	330.19
313.246	336.19
313.476	333.19
313.706	339.19
313.935	300.19
314.165	327.19
314.394	323.19
314.624	296.19
314.853	307.19
315.083	318.19
315.312	302.19
315.542	306.19
315.771	302.19
316.001	304.19
316.23	308.19
316.46	276.19
316.689	304.19
316.919	278.19
317.148	283.19
317.377	305.19
317.607	285.19
317.836	275.19
318.065	298.19
318.295	292.19
318.524	276.19
318.753	279.19
318.983	295.19
319.212	271.19
319.441	279.19
319.67	278.19
319.9	293.19
320.129	292.19
320.358	281.19
320.587	279.19
320.816	300.19
321.046	291.19
321.275	282.19
321.504	290.19
321.733	286.19
321.962	289.19
322.191	290.19
322.42	278.19
322.649	294.19
322.878	302.19
323.108	301.19
323.337	283.19
323.566	302.19
323.795	274.19
324.024	286.19
324.253	285.19
324.482	300.19
324.71	297.19
324.939	292.19
325.168	286.19
325.397	296.19
325.626	287.19
325.855	290.19
326.084	306.19
326.313	299.19
326.542	287.19
326.77	292.19
326.999	278.19
327.228	292.19
327.457	285.19
327.686	295.19
327.914	301.19
328.143	293.19
328.372	289.19
328.6	292.19
328.829	291.19
329.058	283.19
329.287	294.19
329.515	300.19
329.744	304.19
329.972	300.19
330.201	295.19
330.43	278.19
330.658	289.19
330.887	291.19
331.115	297.19
331.344	300.19
331.572	313.19
331.801	304.19
332.03	308.19
332.258	313.19
332.486	311.19
332.715	305.19
332.943	335.19
333.172	339.19
333.4	349.19
333.629	327.19
333.857	322.19
334.085	343.19
334.314	317.19
334.542	322.19
334.771	334.19
334.999	318.19
335.227	333.19
335.455	323.19
335.684	324.19
335.912	314.19
336.14	346.19
336.369	321.19
336.597	321.19
336.825	338.19
337.053	300.19
337.281	318.19
337.51	318.19
337.738	328.19
337.966	319.19
338.194	297.19
338.422	313.19
338.65	314.19
338.878	321.19
339.106	326.19
339.334	335.19
339.562	319.19
339.79	312.19
340.018	295.19
340.246	302.19
340.474	300.19
340.702	294.19
340.93	307.19
341.158	301.19
341.386	310.19
341.614	307.19
341.842	297.19
342.07	298.19
342.298	310.19
342.526	310.19
342.754	314.19
342.981	322.19
343.209	317.19
343.437	357.19
343.665	334.19
343.893	329.19
344.12	361.19
344.348	334.19
344.576	342.19
344.804	327.19
345.031	317.19
345.259	290.19
345.487	299.19
345.714	317.19
345.942	315.19
346.17	293.19
346.397	306.19
346.625	299.19
346.853	303.19
347.08	311.19
347.308	328.19
347.535	304.19
347.763	329.19
347.99	318.19
348.218	316.19
348.445	330.19
348.673	308.19
348.9	318.19
349.128	320.19
349.355	335.19
349.583	303.19
349.81	312.19
350.037	320.19
350.265	334.19
350.492	327.19
350.72	330.19
350.947	318.19
351.174	329.19
351.402	332.19
351.629	321.19
351.856	321.19
352.083	313.19
352.311	350.19
352.538	340.19
352.765	321.19
352.992	339.19
353.22	333.19
353.447	358.19
353.674	349.19
353.901	344.19
354.128	345.19
354.355	363.19
354.583	362.19
354.81	364.19
355.037	374.19
355.264	381.19
355.491	394.19
355.718	368.19
355.945	413.19
356.172	417.19
356.399	432.19
356.626	433.19
356.853	479.19
357.08	471.19
357.307	504.19
357.534	542.19
357.761	587.19
357.988	641.19
358.215	746.19
358.441	859.19
358.668	943.19
358.895	882.19
359.122	774.19
359.349	651.19
359.576	574.19
359.802	552.19
360.029	514.19
360.256	503.19
360.483	472.19
360.709	469.19
360.936	479.19
361.163	451.19
361.39	436.19
361.616	435.19
361.843	416.19
362.07	411.19
362.296	400.19
362.523	373.19
362.749	397.19
362.976	382.19
363.203	392.19
363.429	366.19
363.656	346.19
363.882	359.19
364.109	342.19
364.335	354.19
364.562	345.19
364.788	343.19
365.015	366.19
365.241	344.19
365.468	344.19
365.694	346.19
365.92	346.19
366.147	341.19
366.373	325.19
366.599	345.19
366.826	329.19
367.052	340.19
367.278	350.19
367.505	328.19
367.731	352.19
367.957	320.19
368.184	327.19
368.41	345.19
368.636	333.19
368.862	330.19
369.089	341.19
369.315	329.19
369.541	355.19
369.767	328.19
369.993	348.19
370.219	329.19
370.445	341.19
370.672	347.19
370.898	338.19
371.124	341.19
371.35	350.19
371.576	324.19
371.802	338.19
372.028	373.19
372.254	352.19
372.48	343.19
372.706	349.19
372.932	360.19
373.158	359.19
373.384	368.19
373.61	369.19
373.835	363.19
374.061	349.19
374.287	351.19
374.513	352.19
374.739	372.19
374.965	373.19
375.191	371.19
375.416	343.19
375.642	347.19
375.868	352.19
376.094	361.19
376.319	345.19
376.545	343.19
376.771	331.19
376.997	326.19
377.222	314.19
377.448	342.19
377.674	357.19
377.899	341.19
378.125	346.19
378.35	332.19
378.576	343.19
378.802	349.19
379.027	338.19
379.253	335.19
379.478	341.19
379.704	353.19
379.929	358.19
380.155	344.19
380.38	331.19
380.606	355.19
380.831	343.19
381.057	358.19
381.282	345.19
381.507	356.19
381.733	368.19
381.958	365.19
382.184	392.19
382.409	408.19
382.634	415.19
382.86	418.19
383.085	461.19
383.31	456.19
383.535	481.19
383.761	497.19
383.986	500.19
384.211	438.19
384.436	410.19
384.662	394.19
384.887	387.19
385.112	393.19
385.337	404.19
385.562	401.19
385.787	392.19
386.013	421.19
386.238	399.19
386.463	406.19
386.688	421.19
386.913	419.19
387.138	425.19
387.363	402.19
387.588	394.19
387.813	402.19
388.038	384.19
388.263	397.19
388.488	412.19
388.713	414.19
388.938	438.19
389.163	392.19
389.387	405.19
389.612	388.19
389.837	420.19
390.062	414.19
390.287	430.19
390.512	426.19
390.736	405.19
390.961	420.19
391.186	441.19
391.411	437.19
391.636	443.19
391.86	464.19
392.085	449.19
392.31	466.19
392.534	463.19
392.759	488.19
392.984	520.19
393.208	573.19
393.433	657.19
393.658	715.19
393.882	846.19
394.107	1344.19
394.331	2347.19
394.556	3072.19
394.78	2104.19
395.005	1240.19
395.229	971.19
395.454	1002.19
395.678	1269.19
395.903	2046.19
396.127	3386.19
396.352	3989.19
396.576	2425.19
396.801	1439.19
397.025	1021.19
397.249	867.19
397.474	753.19
397.698	688.19
397.922	652.19
398.147	624.19
398.371	602.19
398.595	570.19
398.82	573.19
399.044	576.19
399.268	574.19
399.492	600.19
399.717	602.19
399.941	583.19
400.165	571.19
400.389	548.19
400.613	533.19
400.837	510.19
401.062	477.19
401.286	484.19
401.51	507.19
401.734	482.19
401.958	477.19
402.182	463.19
402.406	461.19
402.63	482.19
402.854	469.19
403.078	474.19
403.302	487.19
403.526	486.19
403.75	490.19
403.974	500.19
404.198	492.19
404.422	520.19
404.645	498.19
404.869	483.19
405.093	495.19
405.317	489.19
405.541	472.19
405.765	522.19
405.988	500.19
406.212	481.19
406.436	497.19
406.66	502.19
406.883	501.19
407.107	519.19
407.331	514.19
407.555	479.19
407.778	486.19
408.002	499.19
408.226	503.19
408.449	490.19
408.673	496.19
408.896	479.19
409.12	454.19
409.344	503.19
409.567	469.19
409.791	490.19
410.014	465.19
410.238	436.19
410.461	472.19
410.685	477.19
410.908	480.19
411.132	469.19
411.355	464.19
411.578	492.19
411.802	439.19
412.025	467.19
412.249	462.19
412.472	458.19
412.695	453.19
412.919	457.19
413.142	488.19
413.365	469.19
413.589	457.19
413.812	456.19
414.035	501.19
414.258	455.19
414.482	459.19
414.705	480.19
414.928	463.19
415.151	467.19
415.374	480.19
415.597	456.19
415.821	464.19
416.044	455.19
416.267	459.19
416.49	436.19
416.713	458.19
416.936	475.19
417.159	457.19
417.382	457.19
417.605	477.19
417.828	467.19
418.051	452.19
418.274	458.19
418.497	475.19
418.72	465.19
418.943	484.19
419.166	490.19
419.389	506.19
419.611	478.19
419.834	497.19
420.057	499.19
420.28	470.19
420.503	461.19
420.726	489.19
420.948	466.19
421.171	466.19
421.394	469.19
421.617	477.19
421.839	495.19
422.062	467.19
422.285	454.19
422.507	481.19
422.73	502.19
422.953	474.19
423.175	463.19
423.398	474.19
423.621	488.19
423.843	480.19
424.066	486.19
424.288	496.19
424.511	479.19
424.733	490.19
424.956	497.19
425.178	481.19
425.401	473.19
425.623	485.19
425.846	475.19
426.068	458.19
426.291	450.19
426.513	468.19
426.735	454.19
426.958	455.19
427.18	457.19
427.402	437.19
427.625	456.19
427.847	445.19
428.069	442.19
428.292	439.19
428.514	448.19
428.736	453.19
428.958	433.19
429.181	441.19
429.403	439.19
429.625	424.19
429.847	417.19
430.069	444.19
430.292	462.19
430.514	445.19
430.736	446.19
430.958	453.19
431.18	418.19
431.402	435.19
431.624	429.19
431.846	403.19
432.068	382.19
432.29	400.19
432.512	425.19
432.734	442.19
432.956	458.19
433.178	463.19
433.4	441.19
433.622	456.19
433.844	458.19
434.066	443.19
434.287	421.19
434.509	432.19
434.731	408.19
434.953	427.19
435.175	443.19
435.397	445.19
435.618	441.19
435.84	424.19
436.062	447.19
436.284	439.19
436.505	442.19
436.727	436.19
436.949	441.19
437.17	431.19
437.392	422.19
437.614	406.19
437.835	409.19
438.057	428.19
438.278	412.19
438.5	435.19
438.721	454.19
438.943	444.19
439.165	454.19
439.386	431.19
439.608	471.19
439.829	464.19
440.05	474.19
440.272	489.19
440.493	467.19
440.715	472.19
440.936	483.19
441.158	502.19
441.379	483.19
441.6	472.19
441.822	473.19
442.043	492.19
442.264	485.19
442.486	497.19
442.707	472.19
442.928	458.19
443.149	518.19
443.371	477.19
443.592	474.19
443.813	470.19
444.034	484.19
444.255	490.19
444.476	530.19
444.698	502.19
444.919	528.19
445.14	673.19
445.361	589.19
445.582	496.19
445.803	495.19
446.024	470.19
446.245	481.19
446.466	493.19
446.687	462.19
446.908	492.19
447.129	475.19
447.35	466.19
447.571	456.19
447.792	477.19
448.013	461.19
448.234	458.19
448.455	457.19
448.675	441.19
448.896	449.19
449.117	445.19
449.338	455.19
449.559	452.19
449.779	450.19
450	452.19
450.221	421.19
450.442	450.19
450.662	441.19
450.883	463.19
451.104	453.19
451.324	433.19
451.545	435.19
451.766	464.19
451.986	437.19
452.207	435.19
452.428	439.19
452.648	437.19
452.869	438.19
453.089	413.19
453.31	413.19
453.53	421.19
453.751	427.19
453.971	432.19
454.192	439.19
454.412	392.19
454.633	402.19
454.853	408.19
455.073	415.19
455.294	421.19
455.514	423.19
455.734	406.19
455.955	403.19
456.175	377.19
456.395	403.19
456.616	408.19
456.836	398.19
457.056	403.19
457.276	370.19
457.497	401.19
457.717	383.19
457.937	352.19
458.157	391.19
458.377	365.19
458.598	358.19
458.818	369.19
459.038	367.19
459.258	381.19
459.478	410.19
459.698	419.19
459.918	443.19
460.138	442.19
460.358	442.19
460.578	454.19
460.798	444.19
461.018	454.19
461.238	466.19
461.458	472.19
461.678	433.19
461.898	470.19
462.118	485.19
462.338	474.19
462.558	506.19
462.777	498.19
462.997	492.19
463.217	518.19
463.437	535.19
463.657	511.19
463.876	496.19
464.096	487.19
464.316	481.19
464.536	498.19
464.755	499.19
464.975	485.19
465.195	486.19
465.414	471.19
465.634	457.19
465.854	468.19
466.073	506.19
466.293	505.19
466.512	560.19
466.732	537.19
466.951	518.19
467.171	510.19
467.391	496.19
467.61	477.19
467.829	477.19
468.049	457.19
468.268	461.19
468.488	445.19
468.707	447.19
468.927	461.19
469.146	449.19
469.365	467.19
469.585	466.19
469.804	476.19
470.023	462.19
470.243	470.19
470.462	494.19
470.681	461.19
470.901	462.19
471.12	475.19
471.339	455.19
471.558	466.19
471.777	433.19
471.997	452.19
472.216	445.19
472.435	429.19
472.654	430.19
472.873	445.19
473.092	441.19
473.311	496.19
473.53	494.19
473.749	517.19
473.968	541.19
474.187	518.19
474.406	512.19
474.625	567.19
474.844	554.19
475.063	553.19
475.282	485.19
475.501	455.19
475.72	497.19
475.939	477.19
476.158	457.19
476.377	451.19
476.596	431.19
476.814	421.19
477.033	441.19
477.252	423.19
477.471	445.19
477.69	462.19
477.908	472.19
478.127	474.19
478.346	466.19
478.564	471.19
478.783	451.19
479.002	478.19
479.22	491.19
479.439	467.19
479.658	470.19
479.876	458.19
480.095	449.19
480.313	480.19
480.532	480.19
480.751	453.19
480.969	438.19
481.188	432.19
481.406	422.19
481.624	427.19
481.843	416.19
482.061	416.19
482.28	437.19
482.498	421.19
482.717	427.19
482.935	439.19
483.153	466.19
483.372	483.19
483.59	459.19
483.808	477.19
484.027	436.19
484.245	484.19
484.463	533.19
484.681	541.19
484.9	507.19
485.118	516.19
485.336	485.19
485.554	482.19
485.772	496.19
485.99	481.19
486.209	482.19
486.427	473.19
486.645	504.19
486.863	538.19
487.081	535.19
487.299	528.19
487.517	521.19
487.735	530.19
487.953	554.19
488.171	575.19
488.389	549.19
488.607	533.19
488.825	505.19
489.043	498.19
489.261	513.19
489.479	506.19
489.696	514.19
489.914	494.19
490.132	505.19
490.35	520.19
490.568	545.19
490.786	538.19
491.003	545.19
491.221	565.19
491.439	576.19
491.657	549.19
491.874	608.19
492.092	615.19
492.31	625.19
492.527	595.19
492.745	573.19
492.963	583.19
493.18	571.19
493.398	570.19
493.615	567.19
493.833	553.19
494.05	550.19
494.268	537.19
494.485	553.19
494.703	552.19
494.92	545.19
495.138	544.19
495.355	546.19
495.573	532.19
495.79	526.19
496.008	538.19
496.225	539.19
496.442	544.19
496.66	561.19
496.877	541.19
497.094	560.19
497.312	545.19
497.529	565.19
497.746	547.19
497.963	541.19
498.181	549.19
498.398	539.19
498.615	565.19
498.832	586.19
499.049	592.19
499.267	643.19
499.484	672.19
499.701	705.19
499.918	769.19
500.135	826.19
500.352	868.19
500.569	855.19
500.786	848.19
501.003	807.19
501.22	731.19
501.437	713.19
501.654	653.19
501.871	638.19
502.088	618.19
502.305	613.19
502.522	577.19
502.739	569.19
502.956	545.19
503.172	542.19
503.389	531.19
503.606	539.19
503.823	509.19
504.04	509.19
504.256	516.19
504.473	487.19
504.69	498.19
504.907	527.19
505.123	493.19
505.34	479.19
505.557	473.19
505.773	480.19
505.99	473.19
506.207	465.19
506.423	446.19
506.64	439.19
506.856	441.19
507.073	432.19
507.289	441.19
507.506	433.19
507.722	444.19
507.939	413.19
508.155	446.19
508.372	426.19
508.588	439.19
508.805	435.19
509.021	433.19
509.238	424.19
509.454	449.19
509.67	426.19
509.887	399.19
510.103	402.19
510.319	430.19
510.536	427.19
510.752	415.19
510.968	399.19
511.184	405.19
511.401	382.19
511.617	415.19
511.833	388.19
512.049	402.19
512.265	402.19
512.481	426.19
512.698	444.19
512.914	435.19
513.13	416.19
513.346	424.19
513.562	433.19
513.778	463.19
513.994	480.19
514.21	458.19
514.426	453.19
514.642	456.19
514.858	454.19
515.074	447.19
515.29	513.19
515.506	502.19
515.721	455.19
515.937	466.19
516.153	452.19
516.369	462.19
516.585	461.19
516.801	473.19
517.016	492.19
517.232	515.19
517.448	573.19
517.664	538.19
517.879	481.19
518.095	481.19
518.311	498.19
518.527	592.19
518.742	529.19
518.958	482.19
519.173	468.19
519.389	447.19
519.605	443.19
519.82	450.19
520.036	445.19
520.251	406.19
520.467	415.19
520.682	405.19
520.898	423.19
521.113	383.19
521.329	414.19
521.544	380.19
521.76	391.19
521.975	374.19
522.19	400.19
522.406	390.19
522.621	376.19
522.836	379.19
523.052	402.19
523.267	392.19
523.482	382.19
523.698	395.19
523.913	394.19
524.128	373.19
524.343	381.19
524.559	397.19
524.774	389.19
524.989	398.19
525.204	390.19
525.419	391.19
525.634	387.19
525.849	371.19
526.064	387.19
526.28	395.19
526.495	369.19
526.71	393.19
526.925	394.19
527.14	381.19
527.355	371.19
527.57	375.19
527.785	373.19
527.999	371.19
528.214	383.19
528.429	381.19
528.644	395.19
528.859	411.19
529.074	442.19
529.289	429.19
529.503	407.19
529.718	395.19
529.933	395.19
530.148	382.19
530.363	403.19
530.577	378.19
530.792	374.19
531.007	367.19
531.221	374.19
531.436	341.19
531.651	363.19
531.865	374.19
532.08	373.19
532.295	408.19
532.509	399.19
532.724	381.19
532.938	397.19
533.153	377.19
533.367	390.19
533.582	391.19
533.796	391.19
534.011	396.19
534.225	353.19
534.44	330.19
534.654	363.19
534.868	354.19
535.083	355.19
535.297	343.19
535.511	389.19
535.726	347.19
535.94	353.19
536.154	362.19
536.369	356.19
536.583	339.19
536.797	346.19
537.011	358.19
537.225	346.19
537.44	344.19
537.654	350.19
537.868	349.19
538.082	358.19
538.296	344.19
538.51	344.19
538.724	352.19
538.938	375.19
539.153	386.19
539.367	373.19
539.581	364.19
539.795	360.19
540.009	355.19
540.222	349.19
540.436	351.19
540.65	349.19
540.864	369.19
541.078	392.19
541.292	391.19
541.506	432.19
541.72	427.19
541.934	435.19
542.147	440.19
542.361	427.19
542.575	387.19
542.789	390.19
543.002	384.19
543.216	356.19
543.43	355.19
543.644	359.19
543.857	387.19
544.071	401.19
544.285	406.19
544.498	415.19
544.712	401.19
544.925	424.19
545.139	426.19
545.352	415.19
545.566	430.19
545.779	398.19
545.993	433.19
546.206	419.19
546.42	430.19
546.633	426.19
546.847	429.19
547.06	424.19
547.274	439.19
547.487	432.19
547.7	417.19
547.914	421.19
548.127	425.19
548.34	395.19
548.554	401.19
548.767	394.19
548.98	389.19
549.193	418.19
549.407	422.19
549.62	430.19
549.833	401.19
550.046	397.19
550.259	407.19
550.473	416.19
550.686	403.19
550.899	403.19
551.112	410.19
551.325	395.19
551.538	376.19
551.751	354.19
551.964	380.19
552.177	366.19
552.39	400.19
552.603	408.19
552.816	404.19
553.029	401.19
553.242	435.19
553.455	431.19
553.667	445.19
553.88	420.19
554.093	416.19
554.306	400.19
554.519	380.19
554.732	379.19
554.944	415.19
555.157	386.19
555.37	392.19
555.583	382.19
555.795	387.19
556.008	380.19
556.221	381.19
556.433	375.19
556.646	362.19
556.859	366.19
557.071	397.19
557.284	377.19
557.496	377.19
557.709	361.19
557.921	362.19
558.134	363.19
558.346	384.19
558.559	386.19
558.771	366.19
558.984	407.19
559.196	445.19
559.409	497.19
559.621	414.19
559.833	398.19
560.046	401.19
560.258	377.19
560.47	378.19
560.683	414.19
560.895	451.19
561.107	386.19
561.32	353.19
561.532	390.19
561.744	365.19
561.956	342.19
562.168	336.19
562.381	358.19
562.593	326.19
562.805	360.19
563.017	375.19
563.229	345.19
563.441	375.19
563.653	392.19
563.865	370.19
564.077	351.19
564.289	368.19
564.501	346.19
564.713	344.19
564.925	343.19
565.137	346.19
565.349	352.19
565.561	375.19
565.773	360.19
565.985	383.19
566.197	384.19
566.408	394.19
566.62	398.19
566.832	415.19
567.044	416.19
567.255	389.19
567.467	399.19
567.679	413.19
567.891	431.19
568.102	420.19
568.314	395.19
568.526	379.19
568.737	358.19
568.949	343.19
569.161	327.19
569.372	326.19
569.584	331.19
569.795	324.19
570.007	328.19
570.218	312.19
570.43	327.19
570.641	330.19
570.853	317.19
571.064	320.19
571.276	311.19
571.487	310.19
571.698	298.19
571.91	310.19
572.121	303.19
572.333	287.19
572.544	295.19
572.755	282.19
572.966	278.19
573.178	271.19
573.389	282.19
573.6	262.19
573.811	265.19
574.023	231.19
574.234	265.19
574.445	251.19
574.656	280.19
574.867	257.19
575.078	279.19
575.289	266.19
575.501	247.19
575.712	265.19
575.923	272.19
576.134	276.19
576.345	244.19
576.556	288.19
576.767	263.19
576.978	265.19
577.188	244.19
577.399	274.19
577.61	261.19
577.821	245.19
578.032	260.19
578.243	258.19
578.454	243.19
578.665	236.19
578.875	229.19
579.086	240.19
579.297	246.19
579.508	252.19
579.718	247.19
579.929	239.19
580.14	237.19
580.35	244.19
580.561	248.19
580.772	245.19
580.982	237.19
581.193	226.19
581.403	235.19
581.614	227.19
581.825	231.19
582.035	248.19
582.246	237.19
582.456	225.19
582.667	226.19
582.877	236.19
583.087	238.19
583.298	220.19
583.508	233.19
583.719	205.19
583.929	230.19
584.139	219.19
584.35	232.19
584.56	218.19
584.77	225.19
584.981	227.19
585.191	227.19
585.401	223.19
585.611	238.19
585.821	238.19
586.032	228.19
586.242	215.19
586.452	219.19
586.662	207.19
586.872	206.19
587.082	219.19
587.292	229.19
587.502	226.19
587.713	210.19
587.923	226.19
588.133	218.19
588.343	226.19
588.553	223.19
588.762	241.19
588.972	250.19
589.182	353.19
589.392	288.19
589.602	239.19
589.812	297.19
590.022	243.19
590.232	230.19
590.441	222.19
590.651	212.19
590.861	228.19
591.071	213.19
591.281	241.19
591.49	220.19
591.7	228.19
591.91	244.19
592.119	235.19
592.329	226.19
592.539	234.19
592.748	247.19
592.958	247.19
593.167	225.19
593.377	235.19
593.587	254.19
593.796	261.19
594.006	240.19
594.215	249.19
594.424	254.19
594.634	246.19
594.843	257.19
595.053	246.19
595.262	250.19
595.472	239.19
595.681	225.19
595.89	239.19
596.1	229.19
596.309	232.19
596.518	226.19
596.727	219.19
596.937	212.19
597.146	216.19
597.355	229.19
597.564	210.19
597.774	218.19
597.983	201.19
598.192	194.19
598.401	194.19
598.61	208.19
598.819	198.19
599.028	197.19
599.237	210.19
599.446	209.19
599.655	212.19
599.864	210.19
600.073	213.19
600.282	219.19
600.491	216.19
600.7	202.19
600.909	197.19
601.118	217.19
601.327	221.19
601.536	231.19
601.745	215.19
601.953	205.19
602.162	227.19
602.371	207.19
602.58	217.19
602.789	215.19
602.997	229.19
603.206	233.19
603.415	200.19
603.623	205.19
603.832	232.19
604.041	215.19
604.249	205.19
604.458	209.19
604.666	215.19
604.875	198.19
605.084	212.19
605.292	200.19
605.501	213.19
605.709	221.19
605.918	225.19
606.126	211.19
606.334	221.19
606.543	211.19
606.751	215.19
606.96	222.19
607.168	197.19
607.376	211.19
607.585	218.19
607.793	185.19
608.001	213.19
608.21	201.19
608.418	224.19
608.626	214.19
608.834	208.19
609.043	214.19
609.251	227.19
609.459	203.19
609.667	207.19
609.875	200.19
610.083	221.19
610.291	215.19
610.499	223.19
610.707	214.19
610.916	211.19
611.124	208.19
611.332	219.19
611.54	221.19
611.748	211.19
611.955	219.19
612.163	215.19
612.371	226.19
612.579	217.19
612.787	214.19
612.995	222.19
613.203	225.19
613.411	213.19
613.618	229.19
613.826	216.19
614.034	216.19
614.242	224.19
614.449	207.19
614.657	209.19
614.865	223.19
615.072	220.19
615.28	214.19
615.488	229.19
615.695	194.19
615.903	215.19
616.111	216.19
616.318	246.19
616.526	231.19
616.733	254.19
616.941	240.19
617.148	220.19
617.356	240.19
617.563	205.19
617.771	217.19
617.978	229.19
618.185	233.19
618.393	242.19
618.6	266.19
618.807	249.19
619.015	264.19
619.222	239.19
619.429	231.19
619.637	222.19
619.844	229.19
620.051	208.19
620.258	195.19
620.466	209.19
620.673	190.19
620.88	185.19
621.087	213.19
621.294	201.19
621.501	207.19
621.708	213.19
621.915	210.19
622.122	200.19
622.329	215.19
622.536	207.19
622.743	206.19
622.95	212.19
623.157	206.19
623.364	223.19
623.571	214.19
623.778	219.19
623.985	224.19
624.192	231.19
624.399	235.19
624.606	244.19
624.812	242.19
625.019	241.19
625.226	235.19
625.433	225.19
625.639	221.19
625.846	201.19
626.053	218.19
626.259	215.19
626.466	198.19
626.673	189.19
626.879	199.19
627.086	209.19
627.293	198.19
627.499	206.19
627.706	201.19
627.912	211.19
628.119	188.19
628.325	194.19
628.532	192.19
628.738	201.19
628.945	178.19
629.151	185.19
629.357	200.19
629.564	192.19
629.77	171.19
629.976	177.19
630.183	205.19
630.389	182.19
630.595	182.19
630.802	192.19
631.008	183.19
631.214	174.19
631.42	169.19
631.627	192.19
631.833	184.19
632.039	174.19
632.245	189.19
632.451	173.19
632.657	174.19
632.863	193.19
633.069	189.19
633.275	175.19
633.481	161.19
633.688	169.19
633.893	162.19
634.099	163.19
634.305	170.19
634.511	171.19
634.717	170.19
634.923	155.19
635.129	172.19
635.335	157.19
635.541	160.19
635.747	165.19
635.952	165.19
636.158	160.19
636.364	170.19
636.57	154.19
636.775	166.19
636.981	170.19
637.187	162.19
637.392	173.19
637.598	151.19
637.804	163.19
638.009	158.19
638.215	173.19
638.421	161.19
638.626	181.19
638.832	173.19
639.037	158.19
639.243	159.19
639.448	169.19
639.654	174.19
639.859	161.19
640.065	146.19
640.27	163.19
640.475	145.19
640.681	160.19
640.886	147.19
641.091	165.19
641.297	163.19
641.502	161.19
641.707	174.19
641.913	172.19
642.118	162.19
642.323	145.19
642.528	172.19
642.733	164.19
642.939	150.19
643.144	160.19
643.349	163.19
643.554	165.19
643.759	159.19
643.964	149.19
644.169	157.19
644.374	148.19
644.579	161.19
644.784	138.19
644.989	145.19
645.194	162.19
645.399	159.19
645.604	149.19
645.809	155.19
646.014	159.19
646.219	164.19
646.423	151.19
646.628	153.19
646.833	150.19
647.038	162.19
647.243	165.19
647.447	151.19
647.652	163.19
647.857	152.19
648.062	164.19
648.266	173.19
648.471	150.19
648.676	169.19
648.88	163.19
649.085	152.19
649.289	147.19
649.494	153.19
649.698	169.19
649.903	149.19
650.107	144.19
650.312	148.19
650.516	146.19
650.721	146.19
650.925	143.19
651.13	150.19
651.334	134.19
651.539	146.19
651.743	143.19
651.947	149.19
652.152	141.19
652.356	143.19
652.56	144.19
652.764	138.19
652.969	141.19
653.173	141.19
653.377	133.19
653.581	141.19
653.785	130.19
653.99	130.19
654.194	122.19
654.398	139.19
654.602	146.19
654.806	132.19
655.01	143.19
655.214	146.19
655.418	128.19
655.622	128.19
655.826	128.19
656.03	146.19
656.234	155.19
656.438	145.19
656.642	158.19
656.846	136.19
657.049	137.19
657.253	137.19
657.457	139.19
657.661	112.19
657.865	113.19
658.068	121.19
658.272	115.19
658.476	104.19
658.68	95.19
658.883	100.19
659.087	117.19
659.291	111.19
659.494	108.19
659.698	86.19
659.901	105.19
660.105	102.19
660.309	114.19
660.512	93.19
660.716	109.19
660.919	104.19
661.123	86.19
661.326	104.19
661.53	105.19
661.733	106.19
661.936	94.19
662.14	87.19
662.343	91.19
662.546	91.19
662.75	106.19
662.953	95.19
663.156	97.19
663.36	82.19
663.563	98.19
663.766	89.19
663.969	87.19
664.173	94.19
664.376	90.19
664.579	85.19
664.782	85.19
664.985	82.19
665.188	79.19
665.391	93.19
665.594	86.19
665.797	75.19
666	93.19
666.203	69.19
666.406	82.19
666.609	82.19
666.812	87.19
667.015	89.19
667.218	87.19
667.421	92.19
667.624	80.19
667.827	93.19
668.03	87.19
668.232	81.19
668.435	87.19
668.638	88.19
668.841	95.19
669.043	81.19
669.246	92.19
669.449	68.19
669.651	91.19
669.854	89.19
670.057	80.19
670.259	80.19
670.462	105.19
670.665	93.19
670.867	90.19
671.07	89.19
671.272	82.19
671.475	84.19
671.677	83.19
671.88	72.19
672.082	87.19
672.284	99.19
672.487	89.19
672.689	90.19
672.892	80.19
