Data from SampC_HRD10591_00015.txt Node
Date: Mon Jan 19 11:37:34 EST 2026
User: Yrep
Spectrometer: HR+D1059
Trigger mode: 0
Integration Time (sec): 3.443000E-1
Scans to average: 1
Electric dark correction enabled: true
Nonlinearity correction enabled: false
Boxcar width: 0
XAxis mode: Wavelengths
Number of Pixels in Spectrum: 2048
>>>>>Begin Spectral Data<<<<<
223.165	-29.25
223.4	-29.25
223.635	-29.25
223.869	-29.25
224.104	-10.25
224.338	-17.25
224.573	-10.25
224.808	-8.25
225.042	-9.25
225.277	-7.25
225.511	-12.25
225.746	7.75
225.98	5.75
226.215	11.75
226.449	17.75
226.683	22.75
226.918	31.75
227.152	35.75
227.387	7.75
227.621	44.75
227.856	47.75
228.09	43.75
228.324	44.75
228.559	58.75
228.793	57.75
229.027	71.75
229.262	69.75
229.496	79.75
229.73	76.75
229.964	85.75
230.199	92.75
230.433	79.75
230.667	97.75
230.901	84.75
231.136	81.75
231.37	94.75
231.604	87.75
231.838	101.75
232.072	95.75
232.306	106.75
232.541	98.75
232.775	91.75
233.009	86.75
233.243	83.75
233.477	97.75
233.711	99.75
233.945	112.75
234.179	82.75
234.413	88.75
234.647	102.75
234.881	94.75
235.115	91.75
235.349	101.75
235.583	100.75
235.817	96.75
236.051	98.75
236.285	98.75
236.519	105.75
236.753	125.75
236.987	140.75
237.221	139.75
237.455	140.75
237.689	136.75
237.922	130.75
238.156	118.75
238.39	99.75
238.624	112.75
238.858	102.75
239.091	102.75
239.325	102.75
239.559	99.75
239.793	105.75
240.027	89.75
240.26	87.75
240.494	97.75
240.728	99.75
240.961	98.75
241.195	93.75
241.429	98.75
241.662	103.75
241.896	91.75
242.13	91.75
242.363	97.75
242.597	106.75
242.83	103.75
243.064	82.75
243.298	95.75
243.531	105.75
243.765	95.75
243.998	81.75
244.232	108.75
244.465	88.75
244.699	91.75
244.932	113.75
245.166	96.75
245.399	91.75
245.633	91.75
245.866	99.75
246.099	99.75
246.333	91.75
246.566	90.75
246.8	100.75
247.033	114.75
247.266	99.75
247.5	93.75
247.733	97.75
247.966	90.75
248.2	106.75
248.433	98.75
248.666	99.75
248.899	100.75
249.133	103.75
249.366	107.75
249.599	106.75
249.832	99.75
250.066	103.75
250.299	99.75
250.532	107.75
250.765	114.75
250.998	106.75
251.231	94.75
251.465	109.75
251.698	90.75
251.931	112.75
252.164	117.75
252.397	106.75
252.63	107.75
252.863	118.75
253.096	120.75
253.329	126.75
253.562	103.75
253.795	114.75
254.028	119.75
254.261	107.75
254.494	102.75
254.727	110.75
254.96	123.75
255.193	123.75
255.426	111.75
255.659	104.75
255.892	114.75
256.124	118.75
256.357	126.75
256.59	138.75
256.823	153.75
257.056	173.75
257.289	161.75
257.521	174.75
257.754	173.75
257.987	174.75
258.22	147.75
258.452	141.75
258.685	129.75
258.918	120.75
259.151	113.75
259.383	128.75
259.616	107.75
259.849	128.75
260.081	122.75
260.314	125.75
260.547	120.75
260.779	124.75
261.012	126.75
261.244	125.75
261.477	146.75
261.71	118.75
261.942	124.75
262.175	123.75
262.407	128.75
262.64	125.75
262.872	153.75
263.105	145.75
263.337	173.75
263.57	172.75
263.802	168.75
264.035	139.75
264.267	141.75
264.499	153.75
264.732	122.75
264.964	133.75
265.197	157.75
265.429	166.75
265.661	168.75
265.894	153.75
266.126	170.75
266.358	172.75
266.591	168.75
266.823	155.75
267.055	137.75
267.287	138.75
267.52	122.75
267.752	144.75
267.984	137.75
268.216	123.75
268.448	128.75
268.681	145.75
268.913	136.75
269.145	120.75
269.377	126.75
269.609	131.75
269.841	135.75
270.073	119.75
270.306	130.75
270.538	122.75
270.77	119.75
271.002	132.75
271.234	127.75
271.466	144.75
271.698	123.75
271.93	133.75
272.162	142.75
272.394	144.75
272.626	123.75
272.858	128.75
273.09	148.75
273.322	152.75
273.553	131.75
273.785	145.75
274.017	145.75
274.249	154.75
274.481	151.75
274.713	135.75
274.945	126.75
275.176	125.75
275.408	149.75
275.64	144.75
275.872	149.75
276.104	141.75
276.335	144.75
276.567	139.75
276.799	141.75
277.031	128.75
277.262	159.75
277.494	151.75
277.726	161.75
277.957	162.75
278.189	171.75
278.421	174.75
278.652	197.75
278.884	208.75
279.115	244.75
279.347	342.75
279.579	451.75
279.81	525.75
280.042	412.75
280.273	394.75
280.505	376.75
280.736	267.75
280.968	220.75
281.199	205.75
281.431	248.75
281.662	306.75
281.894	333.75
282.125	271.75
282.356	233.75
282.588	219.75
282.819	209.75
283.051	173.75
283.282	163.75
283.513	181.75
283.745	170.75
283.976	177.75
284.207	176.75
284.439	177.75
284.67	161.75
284.901	163.75
285.132	182.75
285.364	208.75
285.595	200.75
285.826	161.75
286.057	170.75
286.288	156.75
286.52	177.75
286.751	151.75
286.982	170.75
287.213	149.75
287.444	167.75
287.675	148.75
287.906	161.75
288.138	152.75
288.369	168.75
288.6	157.75
288.831	166.75
289.062	167.75
289.293	158.75
289.524	161.75
289.755	162.75
289.986	149.75
290.217	163.75
290.448	158.75
290.679	155.75
290.91	150.75
291.141	167.75
291.371	167.75
291.602	155.75
291.833	151.75
292.064	172.75
292.295	168.75
292.526	183.75
292.757	197.75
292.987	187.75
293.218	193.75
293.449	179.75
293.68	185.75
293.91	172.75
294.141	182.75
294.372	166.75
294.603	162.75
294.833	169.75
295.064	146.75
295.295	151.75
295.525	168.75
295.756	170.75
295.987	154.75
296.217	166.75
296.448	171.75
296.679	171.75
296.909	169.75
297.14	161.75
297.37	174.75
297.601	165.75
297.831	164.75
298.062	163.75
298.292	171.75
298.523	170.75
298.753	170.75
298.984	169.75
299.214	168.75
299.445	163.75
299.675	165.75
299.905	174.75
300.136	151.75
300.366	177.75
300.597	179.75
300.827	160.75
301.057	187.75
301.288	187.75
301.518	176.75
301.748	187.75
301.979	217.75
302.209	178.75
302.439	188.75
302.669	183.75
302.9	198.75
303.13	200.75
303.36	191.75
303.59	202.75
303.82	194.75
304.051	224.75
304.281	231.75
304.511	211.75
304.741	234.75
304.971	245.75
305.201	277.75
305.431	311.75
305.661	339.75
305.891	376.75
306.121	355.75
306.352	322.75
306.582	317.75
306.812	315.75
307.042	293.75
307.272	285.75
307.502	314.75
307.731	402.75
307.961	508.75
308.191	728.75
308.421	791.75
308.651	701.75
308.881	663.75
309.111	788.75
309.341	994.75
309.571	953.75
309.8	651.75
310.03	437.75
310.26	362.75
310.49	314.75
310.72	279.75
310.949	261.75
311.179	256.75
311.409	257.75
311.639	212.75
311.868	211.75
312.098	215.75
312.328	226.75
312.557	211.75
312.787	216.75
313.017	201.75
313.246	211.75
313.476	190.75
313.706	213.75
313.935	185.75
314.165	193.75
314.394	199.75
314.624	203.75
314.853	207.75
315.083	194.75
315.312	198.75
315.542	187.75
315.771	201.75
316.001	177.75
316.23	190.75
316.46	183.75
316.689	185.75
316.919	188.75
317.148	179.75
317.377	184.75
317.607	199.75
317.836	188.75
318.065	186.75
318.295	192.75
318.524	178.75
318.753	178.75
318.983	185.75
319.212	181.75
319.441	194.75
319.67	171.75
319.9	177.75
320.129	184.75
320.358	176.75
320.587	187.75
320.816	205.75
321.046	189.75
321.275	193.75
321.504	167.75
321.733	206.75
321.962	189.75
322.191	181.75
322.42	190.75
322.649	175.75
322.878	202.75
323.108	181.75
323.337	196.75
323.566	192.75
323.795	182.75
324.024	193.75
324.253	186.75
324.482	167.75
324.71	190.75
324.939	203.75
325.168	202.75
325.397	202.75
325.626	185.75
325.855	190.75
326.084	186.75
326.313	187.75
326.542	184.75
326.77	203.75
326.999	191.75
327.228	182.75
327.457	193.75
327.686	182.75
327.914	191.75
328.143	209.75
328.372	210.75
328.6	183.75
328.829	192.75
329.058	191.75
329.287	189.75
329.515	188.75
329.744	179.75
329.972	185.75
330.201	196.75
330.43	205.75
330.658	202.75
330.887	202.75
331.115	193.75
331.344	195.75
331.572	230.75
331.801	184.75
332.03	200.75
332.258	201.75
332.486	210.75
332.715	184.75
332.943	217.75
333.172	205.75
333.4	218.75
333.629	220.75
333.857	223.75
334.085	202.75
334.314	226.75
334.542	223.75
334.771	218.75
334.999	207.75
335.227	203.75
335.455	212.75
335.684	210.75
335.912	221.75
336.14	216.75
336.369	204.75
336.597	207.75
336.825	213.75
337.053	187.75
337.281	209.75
337.51	215.75
337.738	197.75
337.966	202.75
338.194	181.75
338.422	190.75
338.65	199.75
338.878	207.75
339.106	193.75
339.334	203.75
339.562	180.75
339.79	182.75
340.018	188.75
340.246	208.75
340.474	202.75
340.702	217.75
340.93	202.75
341.158	204.75
341.386	184.75
341.614	188.75
341.842	192.75
342.07	210.75
342.298	193.75
342.526	201.75
342.754	215.75
342.981	219.75
343.209	220.75
343.437	252.75
343.665	221.75
343.893	221.75
344.12	230.75
344.348	210.75
344.576	205.75
344.804	222.75
345.031	202.75
345.259	205.75
345.487	217.75
345.714	215.75
345.942	174.75
346.17	186.75
346.397	182.75
346.625	206.75
346.853	201.75
347.08	210.75
347.308	207.75
347.535	198.75
347.763	203.75
347.99	199.75
348.218	222.75
348.445	226.75
348.673	197.75
348.9	194.75
349.128	217.75
349.355	215.75
349.583	215.75
349.81	206.75
350.037	195.75
350.265	214.75
350.492	218.75
350.72	198.75
350.947	213.75
351.174	214.75
351.402	213.75
351.629	218.75
351.856	198.75
352.083	211.75
352.311	209.75
352.538	205.75
352.765	217.75
352.992	231.75
353.22	220.75
353.447	219.75
353.674	223.75
353.901	217.75
354.128	218.75
354.355	226.75
354.583	221.75
354.81	214.75
355.037	247.75
355.264	229.75
355.491	241.75
355.718	244.75
355.945	262.75
356.172	254.75
356.399	255.75
356.626	279.75
356.853	279.75
357.08	290.75
357.307	319.75
357.534	301.75
357.761	360.75
357.988	420.75
358.215	436.75
358.441	496.75
358.668	539.75
358.895	544.75
359.122	444.75
359.349	371.75
359.576	346.75
359.802	317.75
360.029	314.75
360.256	313.75
360.483	293.75
360.709	263.75
360.936	286.75
361.163	274.75
361.39	265.75
361.616	258.75
361.843	257.75
362.07	248.75
362.296	264.75
362.523	224.75
362.749	250.75
362.976	237.75
363.203	249.75
363.429	237.75
363.656	222.75
363.882	231.75
364.109	217.75
364.335	243.75
364.562	210.75
364.788	205.75
365.015	233.75
365.241	217.75
365.468	234.75
365.694	226.75
365.92	220.75
366.147	209.75
366.373	198.75
366.599	211.75
366.826	227.75
367.052	218.75
367.278	201.75
367.505	215.75
367.731	231.75
367.957	224.75
368.184	199.75
368.41	228.75
368.636	211.75
368.862	231.75
369.089	201.75
369.315	213.75
369.541	235.75
369.767	210.75
369.993	221.75
370.219	204.75
370.445	195.75
370.672	216.75
370.898	204.75
371.124	224.75
371.35	214.75
371.576	217.75
371.802	215.75
372.028	224.75
372.254	224.75
372.48	223.75
372.706	231.75
372.932	225.75
373.158	222.75
373.384	242.75
373.61	238.75
373.835	241.75
374.061	215.75
374.287	217.75
374.513	214.75
374.739	225.75
374.965	233.75
375.191	218.75
375.416	233.75
375.642	231.75
375.868	231.75
376.094	221.75
376.319	209.75
376.545	202.75
376.771	214.75
376.997	221.75
377.222	222.75
377.448	210.75
377.674	229.75
377.899	214.75
378.125	217.75
378.35	226.75
378.576	212.75
378.802	215.75
379.027	227.75
379.253	226.75
379.478	220.75
379.704	227.75
379.929	225.75
380.155	204.75
380.38	237.75
380.606	227.75
380.831	220.75
381.057	240.75
381.282	235.75
381.507	230.75
381.733	226.75
381.958	227.75
382.184	239.75
382.409	241.75
382.634	256.75
382.86	273.75
383.085	281.75
383.31	289.75
383.535	270.75
383.761	307.75
383.986	295.75
384.211	265.75
384.436	246.75
384.662	238.75
384.887	239.75
385.112	237.75
385.337	246.75
385.562	234.75
385.787	231.75
386.013	266.75
386.238	239.75
386.463	257.75
386.688	290.75
386.913	265.75
387.138	241.75
387.363	249.75
387.588	285.75
387.813	253.75
388.038	252.75
388.263	263.75
388.488	256.75
388.713	264.75
388.938	254.75
389.163	251.75
389.387	232.75
389.612	263.75
389.837	253.75
390.062	268.75
390.287	245.75
390.512	239.75
390.736	265.75
390.961	252.75
391.186	244.75
391.411	263.75
391.636	262.75
391.86	262.75
392.085	270.75
392.31	283.75
392.534	288.75
392.759	295.75
392.984	294.75
393.208	335.75
393.433	374.75
393.658	384.75
393.882	419.75
394.107	652.75
394.331	1088.75
394.556	1375.75
394.78	1014.75
395.005	609.75
395.229	494.75
395.454	509.75
395.678	623.75
395.903	949.75
396.127	1561.75
396.352	1838.75
396.576	1156.75
396.801	701.75
397.025	547.75
397.249	456.75
397.474	403.75
397.698	383.75
397.922	363.75
398.147	350.75
398.371	345.75
398.595	315.75
398.82	319.75
399.044	315.75
399.268	337.75
399.492	347.75
399.717	370.75
399.941	339.75
400.165	335.75
400.389	327.75
400.613	306.75
400.837	287.75
401.062	301.75
401.286	289.75
401.51	307.75
401.734	286.75
401.958	303.75
402.182	283.75
402.406	265.75
402.63	286.75
402.854	282.75
403.078	297.75
403.302	287.75
403.526	286.75
403.75	300.75
403.974	303.75
404.198	286.75
404.422	307.75
404.645	297.75
404.869	287.75
405.093	291.75
405.317	290.75
405.541	289.75
405.765	297.75
405.988	295.75
406.212	299.75
406.436	287.75
406.66	306.75
406.883	311.75
407.107	302.75
407.331	305.75
407.555	309.75
407.778	311.75
408.002	309.75
408.226	301.75
408.449	301.75
408.673	291.75
408.896	292.75
409.12	286.75
409.344	297.75
409.567	305.75
409.791	285.75
410.014	307.75
410.238	285.75
410.461	290.75
410.685	302.75
410.908	286.75
411.132	286.75
411.355	269.75
411.578	292.75
411.802	265.75
412.025	289.75
412.249	270.75
412.472	269.75
412.695	289.75
412.919	286.75
413.142	283.75
413.365	280.75
413.589	277.75
413.812	274.75
414.035	301.75
414.258	299.75
414.482	293.75
414.705	283.75
414.928	273.75
415.151	274.75
415.374	270.75
415.597	280.75
415.821	270.75
416.044	289.75
416.267	273.75
416.49	282.75
416.713	280.75
416.936	275.75
417.159	283.75
417.382	245.75
417.605	291.75
417.828	281.75
418.051	296.75
418.274	280.75
418.497	275.75
418.72	275.75
418.943	279.75
419.166	292.75
419.389	299.75
419.611	283.75
419.834	292.75
420.057	309.75
420.28	279.75
420.503	295.75
420.726	277.75
420.948	282.75
421.171	295.75
421.394	299.75
421.617	287.75
421.839	296.75
422.062	286.75
422.285	283.75
422.507	280.75
422.73	267.75
422.953	275.75
423.175	284.75
423.398	279.75
423.621	288.75
423.843	289.75
424.066	282.75
424.288	297.75
424.511	293.75
424.733	305.75
424.956	297.75
425.178	278.75
425.401	289.75
425.623	266.75
425.846	291.75
426.068	275.75
426.291	269.75
426.513	284.75
426.735	277.75
426.958	276.75
427.18	277.75
427.402	280.75
427.625	279.75
427.847	251.75
428.069	273.75
428.292	269.75
428.514	262.75
428.736	258.75
428.958	255.75
429.181	277.75
429.403	285.75
429.625	260.75
429.847	270.75
430.069	261.75
430.292	265.75
430.514	275.75
430.736	279.75
430.958	271.75
431.18	265.75
431.402	287.75
431.624	252.75
431.846	256.75
432.068	256.75
432.29	237.75
432.512	247.75
432.734	270.75
432.956	285.75
433.178	267.75
433.4	291.75
433.622	286.75
433.844	279.75
434.066	256.75
434.287	259.75
434.509	255.75
434.731	270.75
434.953	273.75
435.175	259.75
435.397	291.75
435.618	271.75
435.84	261.75
436.062	266.75
436.284	270.75
436.505	237.75
436.727	269.75
436.949	274.75
437.17	271.75
437.392	267.75
437.614	257.75
437.835	252.75
438.057	270.75
438.278	251.75
438.5	257.75
438.721	253.75
438.943	274.75
439.165	281.75
439.386	265.75
439.608	291.75
439.829	295.75
440.05	275.75
440.272	292.75
440.493	273.75
440.715	271.75
440.936	290.75
441.158	290.75
441.379	286.75
441.6	284.75
441.822	293.75
442.043	284.75
442.264	277.75
442.486	272.75
442.707	282.75
442.928	295.75
443.149	269.75
443.371	290.75
443.592	302.75
443.813	299.75
444.034	286.75
444.255	310.75
444.476	315.75
444.698	290.75
444.919	297.75
445.14	558.75
445.361	429.75
445.582	311.75
445.803	279.75
446.024	284.75
446.245	312.75
446.466	296.75
446.687	266.75
446.908	294.75
447.129	297.75
447.35	285.75
447.571	299.75
447.792	263.75
448.013	286.75
448.234	283.75
448.455	289.75
448.675	275.75
448.896	280.75
449.117	270.75
449.338	273.75
449.559	274.75
449.779	268.75
450	265.75
450.221	274.75
450.442	277.75
450.662	259.75
450.883	247.75
451.104	284.75
451.324	263.75
451.545	264.75
451.766	264.75
451.986	258.75
452.207	265.75
452.428	277.75
452.648	278.75
452.869	267.75
453.089	245.75
453.31	267.75
453.53	242.75
453.751	259.75
453.971	256.75
454.192	267.75
454.412	231.75
454.633	245.75
454.853	278.75
455.073	263.75
455.294	244.75
455.514	235.75
455.734	255.75
455.955	246.75
456.175	239.75
456.395	244.75
456.616	217.75
456.836	239.75
457.056	217.75
457.276	227.75
457.497	234.75
457.717	228.75
457.937	240.75
458.157	238.75
458.377	236.75
458.598	236.75
458.818	237.75
459.038	230.75
459.258	246.75
459.478	250.75
459.698	234.75
459.918	253.75
460.138	268.75
460.358	271.75
460.578	264.75
460.798	267.75
461.018	273.75
461.238	272.75
461.458	262.75
461.678	273.75
461.898	272.75
462.118	278.75
462.338	286.75
462.558	301.75
462.777	297.75
462.997	300.75
463.217	322.75
463.437	293.75
463.657	309.75
463.876	304.75
464.096	299.75
464.316	290.75
464.536	307.75
464.755	310.75
464.975	300.75
465.195	283.75
465.414	289.75
465.634	275.75
465.854	287.75
466.073	292.75
466.293	301.75
466.512	345.75
466.732	309.75
466.951	317.75
467.171	303.75
467.391	296.75
467.61	303.75
467.829	269.75
468.049	283.75
468.268	274.75
468.488	265.75
468.707	268.75
468.927	263.75
469.146	287.75
469.365	262.75
469.585	269.75
469.804	264.75
470.023	287.75
470.243	303.75
470.462	281.75
470.681	282.75
470.901	290.75
471.12	291.75
471.339	262.75
471.558	270.75
471.777	271.75
471.997	291.75
472.216	274.75
472.435	246.75
472.654	231.75
472.873	279.75
473.092	267.75
473.311	280.75
473.53	285.75
473.749	311.75
473.968	320.75
474.187	289.75
474.406	296.75
474.625	313.75
474.844	317.75
475.063	299.75
475.282	292.75
475.501	277.75
475.72	282.75
475.939	276.75
476.158	275.75
476.377	263.75
476.596	245.75
476.814	256.75
477.033	267.75
477.252	258.75
477.471	269.75
477.69	289.75
477.908	263.75
478.127	302.75
478.346	296.75
478.564	277.75
478.783	283.75
479.002	288.75
479.22	283.75
479.439	301.75
479.658	275.75
479.876	280.75
480.095	281.75
480.313	288.75
480.532	295.75
480.751	275.75
480.969	270.75
481.188	263.75
481.406	274.75
481.624	257.75
481.843	260.75
482.061	255.75
482.28	256.75
482.498	248.75
482.717	267.75
482.935	277.75
483.153	287.75
483.372	287.75
483.59	296.75
483.808	267.75
484.027	273.75
484.245	297.75
484.463	292.75
484.681	318.75
484.9	308.75
485.118	299.75
485.336	284.75
485.554	283.75
485.772	296.75
485.99	294.75
486.209	287.75
486.427	289.75
486.645	285.75
486.863	314.75
487.081	299.75
487.299	294.75
487.517	310.75
487.735	329.75
487.953	341.75
488.171	325.75
488.389	312.75
488.607	291.75
488.825	302.75
489.043	294.75
489.261	307.75
489.479	307.75
489.696	302.75
489.914	285.75
490.132	293.75
490.35	303.75
490.568	326.75
490.786	338.75
491.003	318.75
491.221	307.75
491.439	302.75
491.657	325.75
491.874	344.75
492.092	331.75
492.31	368.75
492.527	342.75
492.745	321.75
492.963	338.75
493.18	336.75
493.398	323.75
493.615	333.75
493.833	333.75
494.05	331.75
494.268	330.75
494.485	338.75
494.703	314.75
494.92	322.75
495.138	314.75
495.355	321.75
495.573	330.75
495.79	317.75
496.008	314.75
496.225	317.75
496.442	302.75
496.66	321.75
496.877	337.75
497.094	310.75
497.312	312.75
497.529	338.75
497.746	314.75
497.963	312.75
498.181	312.75
498.398	325.75
498.615	348.75
498.832	343.75
499.049	370.75
499.267	380.75
499.484	382.75
499.701	412.75
499.918	454.75
500.135	501.75
500.352	510.75
500.569	499.75
500.786	515.75
501.003	473.75
501.22	437.75
501.437	438.75
501.654	407.75
501.871	379.75
502.088	360.75
502.305	362.75
502.522	339.75
502.739	357.75
502.956	327.75
503.172	325.75
503.389	337.75
503.606	312.75
503.823	318.75
504.04	314.75
504.256	309.75
504.473	298.75
504.69	319.75
504.907	321.75
505.123	298.75
505.34	285.75
505.557	284.75
505.773	291.75
505.99	279.75
506.207	274.75
506.423	270.75
506.64	289.75
506.856	287.75
507.073	263.75
507.289	275.75
507.506	265.75
507.722	255.75
507.939	262.75
508.155	273.75
508.372	259.75
508.588	281.75
508.805	251.75
509.021	257.75
509.238	288.75
509.454	249.75
509.67	231.75
509.887	259.75
510.103	255.75
510.319	251.75
510.536	279.75
510.752	237.75
510.968	248.75
511.184	251.75
511.401	251.75
511.617	251.75
511.833	239.75
512.049	254.75
512.265	249.75
512.481	252.75
512.698	254.75
512.914	271.75
513.13	270.75
513.346	250.75
513.562	257.75
513.778	260.75
513.994	279.75
514.21	257.75
514.426	269.75
514.642	267.75
514.858	262.75
515.074	286.75
515.29	321.75
515.506	277.75
515.721	273.75
515.937	274.75
516.153	283.75
516.369	286.75
516.585	270.75
516.801	294.75
517.016	321.75
517.232	304.75
517.448	333.75
517.664	309.75
517.879	307.75
518.095	297.75
518.311	317.75
518.527	333.75
518.742	320.75
518.958	281.75
519.173	281.75
519.389	269.75
519.605	287.75
519.82	264.75
520.036	251.75
520.251	252.75
520.467	265.75
520.682	253.75
520.898	225.75
521.113	251.75
521.329	253.75
521.544	234.75
521.76	233.75
521.975	249.75
522.19	231.75
522.406	265.75
522.621	228.75
522.836	235.75
523.052	231.75
523.267	258.75
523.482	240.75
523.698	244.75
523.913	241.75
524.128	255.75
524.343	263.75
524.559	269.75
524.774	240.75
524.989	244.75
525.204	247.75
525.419	245.75
525.634	232.75
525.849	231.75
526.064	271.75
526.28	250.75
526.495	250.75
526.71	248.75
526.925	237.75
527.14	243.75
527.355	235.75
527.57	213.75
527.785	219.75
527.999	239.75
528.214	238.75
528.429	258.75
528.644	249.75
528.859	255.75
529.074	252.75
529.289	249.75
529.503	269.75
529.718	241.75
529.933	227.75
530.148	237.75
530.363	233.75
530.577	230.75
530.792	223.75
531.007	226.75
531.221	250.75
531.436	216.75
531.651	238.75
531.865	230.75
532.08	240.75
532.295	250.75
532.509	242.75
532.724	233.75
532.938	242.75
533.153	242.75
533.367	243.75
533.582	236.75
533.796	246.75
534.011	241.75
534.225	223.75
534.44	215.75
534.654	220.75
534.868	204.75
535.083	234.75
535.297	228.75
535.511	235.75
535.726	233.75
535.94	234.75
536.154	228.75
536.369	217.75
536.583	211.75
536.797	225.75
537.011	217.75
537.225	199.75
537.44	231.75
537.654	233.75
537.868	217.75
538.082	231.75
538.296	213.75
538.51	222.75
538.724	220.75
538.938	220.75
539.153	218.75
539.367	232.75
539.581	225.75
539.795	223.75
540.009	225.75
540.222	237.75
540.436	215.75
540.65	219.75
540.864	238.75
541.078	240.75
541.292	264.75
541.506	266.75
541.72	270.75
541.934	256.75
542.147	248.75
542.361	257.75
542.575	241.75
542.789	237.75
543.002	230.75
543.216	225.75
543.43	221.75
543.644	224.75
543.857	221.75
544.071	251.75
544.285	246.75
544.498	239.75
544.712	247.75
544.925	248.75
545.139	242.75
545.352	248.75
545.566	264.75
545.779	261.75
545.993	249.75
546.206	258.75
546.42	266.75
546.633	263.75
546.847	287.75
547.06	256.75
547.274	264.75
547.487	265.75
547.7	236.75
547.914	250.75
548.127	268.75
548.34	274.75
548.554	251.75
548.767	238.75
548.98	253.75
549.193	254.75
549.407	242.75
549.62	269.75
549.833	263.75
550.046	245.75
550.259	256.75
550.473	249.75
550.686	266.75
550.899	251.75
551.112	246.75
551.325	221.75
551.538	227.75
551.751	229.75
551.964	223.75
552.177	248.75
552.39	240.75
552.603	247.75
552.816	254.75
553.029	254.75
553.242	259.75
553.455	272.75
553.667	267.75
553.88	259.75
554.093	269.75
554.306	251.75
554.519	246.75
554.732	231.75
554.944	241.75
555.157	238.75
555.37	256.75
555.583	237.75
555.795	248.75
556.008	232.75
556.221	242.75
556.433	227.75
556.646	239.75
556.859	226.75
557.071	257.75
557.284	230.75
557.496	243.75
557.709	259.75
557.921	229.75
558.134	238.75
558.346	249.75
558.559	245.75
558.771	238.75
558.984	235.75
559.196	288.75
559.409	311.75
559.621	278.75
559.833	245.75
560.046	253.75
560.258	246.75
560.47	253.75
560.683	269.75
560.895	270.75
561.107	253.75
561.32	226.75
561.532	221.75
561.744	233.75
561.956	230.75
562.168	210.75
562.381	220.75
562.593	210.75
562.805	224.75
563.017	227.75
563.229	240.75
563.441	245.75
563.653	237.75
563.865	218.75
564.077	216.75
564.289	201.75
564.501	220.75
564.713	225.75
564.925	240.75
565.137	235.75
565.349	232.75
565.561	238.75
565.773	239.75
565.985	243.75
566.197	224.75
566.408	261.75
566.62	273.75
566.832	253.75
567.044	275.75
567.255	279.75
567.467	263.75
567.679	264.75
567.891	277.75
568.102	253.75
568.314	261.75
568.526	245.75
568.737	253.75
568.949	221.75
569.161	218.75
569.372	221.75
569.584	212.75
569.795	219.75
570.007	188.75
570.218	211.75
570.43	191.75
570.641	217.75
570.853	208.75
571.064	223.75
571.276	203.75
571.487	206.75
571.698	208.75
571.91	193.75
572.121	189.75
572.333	184.75
572.544	171.75
572.755	177.75
572.966	195.75
573.178	174.75
573.389	186.75
573.6	169.75
573.811	176.75
574.023	181.75
574.234	183.75
574.445	185.75
574.656	174.75
574.867	170.75
575.078	184.75
575.289	161.75
575.501	183.75
575.712	167.75
575.923	163.75
576.134	150.75
576.345	169.75
576.556	186.75
576.767	206.75
576.978	180.75
577.188	172.75
577.399	169.75
577.61	163.75
577.821	168.75
578.032	162.75
578.243	162.75
578.454	176.75
578.665	163.75
578.875	171.75
579.086	168.75
579.297	168.75
579.508	150.75
579.718	169.75
579.929	155.75
580.14	158.75
580.35	166.75
580.561	163.75
580.772	159.75
580.982	167.75
581.193	155.75
581.403	154.75
581.614	157.75
581.825	160.75
582.035	163.75
582.246	155.75
582.456	145.75
582.667	161.75
582.877	171.75
583.087	171.75
583.298	164.75
583.508	158.75
583.719	165.75
583.929	169.75
584.139	151.75
584.35	166.75
584.56	163.75
584.77	134.75
584.981	160.75
585.191	157.75
585.401	157.75
585.611	149.75
585.821	170.75
586.032	151.75
586.242	154.75
586.452	174.75
586.662	153.75
586.872	161.75
587.082	165.75
587.292	141.75
587.502	170.75
587.713	163.75
587.923	164.75
588.133	144.75
588.343	150.75
588.553	145.75
588.762	164.75
588.972	175.75
589.182	243.75
589.392	204.75
589.602	172.75
589.812	224.75
590.022	194.75
590.232	161.75
590.441	155.75
590.651	153.75
590.861	151.75
591.071	151.75
591.281	160.75
591.49	152.75
591.7	156.75
591.91	163.75
592.119	149.75
592.329	139.75
592.539	158.75
592.748	168.75
592.958	163.75
593.167	176.75
593.377	185.75
593.587	181.75
593.796	173.75
594.006	175.75
594.215	168.75
594.424	169.75
594.634	162.75
594.843	162.75
595.053	167.75
595.262	157.75
595.472	158.75
595.681	160.75
595.89	155.75
596.1	162.75
596.309	163.75
596.518	157.75
596.727	161.75
596.937	154.75
597.146	146.75
597.355	164.75
597.564	168.75
597.774	144.75
597.983	151.75
598.192	151.75
598.401	152.75
598.61	140.75
598.819	156.75
599.028	135.75
599.237	147.75
599.446	153.75
599.655	139.75
599.864	160.75
600.073	162.75
600.282	146.75
600.491	148.75
600.7	136.75
600.909	164.75
601.118	149.75
601.327	158.75
601.536	151.75
601.745	149.75
601.953	149.75
602.162	155.75
602.371	143.75
602.58	157.75
602.789	166.75
602.997	154.75
603.206	164.75
603.415	156.75
603.623	160.75
603.832	161.75
604.041	158.75
604.249	135.75
604.458	151.75
604.666	168.75
604.875	157.75
605.084	147.75
605.292	143.75
605.501	155.75
605.709	145.75
605.918	143.75
606.126	141.75
606.334	164.75
606.543	158.75
606.751	155.75
606.96	136.75
607.168	155.75
607.376	134.75
607.585	136.75
607.793	152.75
608.001	159.75
608.21	154.75
608.418	140.75
608.626	154.75
608.834	140.75
609.043	156.75
609.251	151.75
609.459	143.75
609.667	154.75
609.875	138.75
610.083	154.75
610.291	149.75
610.499	151.75
610.707	138.75
610.916	147.75
611.124	158.75
611.332	149.75
611.54	147.75
611.748	155.75
611.955	153.75
612.163	148.75
612.371	157.75
612.579	149.75
612.787	146.75
612.995	148.75
613.203	154.75
613.411	169.75
613.618	151.75
613.826	147.75
614.034	136.75
614.242	141.75
614.449	145.75
614.657	135.75
614.865	144.75
615.072	141.75
615.28	160.75
615.488	151.75
615.695	141.75
615.903	142.75
616.111	135.75
616.318	154.75
616.526	157.75
616.733	189.75
616.941	158.75
617.148	155.75
617.356	154.75
617.563	148.75
617.771	142.75
617.978	135.75
618.185	148.75
618.393	156.75
618.6	150.75
618.807	161.75
619.015	172.75
619.222	163.75
619.429	163.75
619.637	156.75
619.844	154.75
620.051	148.75
620.258	140.75
620.466	144.75
620.673	143.75
620.88	149.75
621.087	147.75
621.294	142.75
621.501	134.75
621.708	144.75
621.915	149.75
622.122	144.75
622.329	149.75
622.536	140.75
622.743	155.75
622.95	140.75
623.157	158.75
623.364	143.75
623.571	164.75
623.778	154.75
623.985	173.75
624.192	143.75
624.399	169.75
624.606	173.75
624.812	157.75
625.019	161.75
625.226	166.75
625.433	148.75
625.639	157.75
625.846	154.75
626.053	128.75
626.259	147.75
626.466	147.75
626.673	146.75
626.879	139.75
627.086	155.75
627.293	158.75
627.499	140.75
627.706	138.75
627.912	135.75
628.119	135.75
628.325	152.75
628.532	129.75
628.738	154.75
628.945	136.75
629.151	124.75
629.357	137.75
629.564	128.75
629.77	153.75
629.976	124.75
630.183	115.75
630.389	136.75
630.595	130.75
630.802	124.75
631.008	121.75
631.214	130.75
631.42	138.75
631.627	139.75
631.833	114.75
632.039	143.75
632.245	117.75
632.451	121.75
632.657	126.75
632.863	130.75
633.069	131.75
633.275	142.75
633.481	137.75
633.688	135.75
633.893	133.75
634.099	123.75
634.305	123.75
634.511	120.75
634.717	122.75
634.923	128.75
635.129	121.75
635.335	119.75
635.541	125.75
635.747	125.75
635.952	99.75
636.158	118.75
636.364	126.75
636.57	135.75
636.775	119.75
636.981	119.75
637.187	139.75
637.392	113.75
637.598	110.75
637.804	115.75
638.009	136.75
638.215	125.75
638.421	110.75
638.626	122.75
638.832	124.75
639.037	99.75
639.243	121.75
639.448	139.75
639.654	130.75
639.859	117.75
640.065	108.75
640.27	127.75
640.475	121.75
640.681	113.75
640.886	114.75
641.091	121.75
641.297	112.75
641.502	116.75
641.707	115.75
641.913	103.75
642.118	114.75
642.323	127.75
642.528	132.75
642.733	122.75
642.939	122.75
643.144	113.75
643.349	123.75
643.554	106.75
643.759	117.75
643.964	110.75
644.169	127.75
644.374	136.75
644.579	118.75
644.784	119.75
644.989	117.75
645.194	110.75
645.399	101.75
645.604	105.75
645.809	107.75
646.014	114.75
646.219	118.75
646.423	117.75
646.628	123.75
646.833	131.75
647.038	124.75
647.243	118.75
647.447	116.75
647.652	121.75
647.857	112.75
648.062	131.75
648.266	117.75
648.471	124.75
648.676	119.75
648.88	98.75
649.085	116.75
649.289	121.75
649.494	122.75
649.698	129.75
649.903	101.75
650.107	110.75
650.312	115.75
650.516	124.75
650.721	104.75
650.925	119.75
651.13	98.75
651.334	107.75
651.539	81.75
651.743	113.75
651.947	116.75
652.152	113.75
652.356	95.75
652.56	105.75
652.764	107.75
652.969	114.75
653.173	106.75
653.377	96.75
653.581	105.75
653.785	95.75
653.99	112.75
654.194	106.75
654.398	113.75
654.602	106.75
654.806	96.75
655.01	117.75
655.214	102.75
655.418	113.75
655.622	105.75
655.826	98.75
656.03	108.75
656.234	104.75
656.438	120.75
656.642	134.75
656.846	110.75
657.049	96.75
657.253	105.75
657.457	102.75
657.661	96.75
657.865	99.75
658.068	86.75
658.272	100.75
658.476	99.75
658.68	85.75
658.883	91.75
659.087	100.75
659.291	86.75
659.494	94.75
659.698	93.75
659.901	88.75
660.105	85.75
660.309	69.75
660.512	93.75
660.716	99.75
660.919	103.75
661.123	89.75
661.326	86.75
661.53	89.75
661.733	87.75
661.936	82.75
662.14	85.75
662.343	72.75
662.546	78.75
662.75	92.75
662.953	99.75
663.156	101.75
663.36	79.75
663.563	76.75
663.766	62.75
663.969	77.75
664.173	76.75
664.376	87.75
664.579	87.75
664.782	90.75
664.985	71.75
665.188	82.75
665.391	83.75
665.594	84.75
665.797	77.75
666	83.75
666.203	81.75
666.406	79.75
666.609	68.75
666.812	80.75
667.015	78.75
667.218	88.75
667.421	87.75
667.624	81.75
667.827	83.75
668.03	73.75
668.232	66.75
668.435	87.75
668.638	70.75
668.841	89.75
669.043	71.75
669.246	83.75
669.449	87.75
669.651	80.75
669.854	82.75
670.057	73.75
670.259	81.75
670.462	90.75
670.665	69.75
670.867	95.75
671.07	83.75
671.272	76.75
671.475	79.75
671.677	79.75
671.88	80.75
672.082	85.75
672.284	88.75
672.487	82.75
672.689	71.75
672.892	72.75
