Data from SampC_HRD10591_00025.txt Node
Date: Mon Jan 19 11:37:38 EST 2026
User: Yrep
Spectrometer: HR+D1059
Trigger mode: 0
Integration Time (sec): 3.443000E-1
Scans to average: 1
Electric dark correction enabled: true
Nonlinearity correction enabled: false
Boxcar width: 0
XAxis mode: Wavelengths
Number of Pixels in Spectrum: 2048
>>>>>Begin Spectral Data<<<<<
223.165	-35.81
223.4	-35.81
223.635	-35.81
223.869	-17.81
224.104	-11.81
224.338	-6.81
224.573	-9.81
224.808	-10.81
225.042	-7.81
225.277	-9.81
225.511	-3.81
225.746	1.19
225.98	10.19
226.215	10.19
226.449	26.19
226.683	16.19
226.918	22.19
227.152	28.19
227.387	46.19
227.621	44.19
227.856	58.19
228.09	42.19
228.324	44.19
228.559	58.19
228.793	57.19
229.027	66.19
229.262	62.19
229.496	77.19
229.73	82.19
229.964	79.19
230.199	80.19
230.433	82.19
230.667	95.19
230.901	93.19
231.136	92.19
231.37	82.19
231.604	95.19
231.838	94.19
232.072	78.19
232.306	91.19
232.541	99.19
232.775	96.19
233.009	91.19
233.243	90.19
233.477	86.19
233.711	80.19
233.945	88.19
234.179	96.19
234.413	113.19
234.647	94.19
234.881	90.19
235.115	89.19
235.349	84.19
235.583	108.19
235.817	108.19
236.051	101.19
236.285	90.19
236.519	96.19
236.753	114.19
236.987	118.19
237.221	114.19
237.455	133.19
237.689	114.19
237.922	119.19
238.156	116.19
238.39	108.19
238.624	87.19
238.858	98.19
239.091	87.19
239.325	84.19
239.559	92.19
239.793	78.19
240.027	104.19
240.26	96.19
240.494	90.19
240.728	84.19
240.961	84.19
241.195	90.19
241.429	106.19
241.662	88.19
241.896	96.19
242.13	96.19
242.363	91.19
242.597	93.19
242.83	105.19
243.064	100.19
243.298	97.19
243.531	84.19
243.765	84.19
243.998	99.19
244.232	106.19
244.465	101.19
244.699	88.19
244.932	87.19
245.166	101.19
245.399	100.19
245.633	95.19
245.866	86.19
246.099	107.19
246.333	95.19
246.566	108.19
246.8	100.19
247.033	83.19
247.266	93.19
247.5	99.19
247.733	89.19
247.966	97.19
248.2	92.19
248.433	95.19
248.666	90.19
248.899	106.19
249.133	113.19
249.366	107.19
249.599	113.19
249.832	109.19
250.066	108.19
250.299	112.19
250.532	97.19
250.765	101.19
250.998	87.19
251.231	95.19
251.465	98.19
251.698	102.19
251.931	108.19
252.164	113.19
252.397	91.19
252.63	113.19
252.863	114.19
253.096	107.19
253.329	114.19
253.562	117.19
253.795	119.19
254.028	107.19
254.261	109.19
254.494	102.19
254.727	104.19
254.96	114.19
255.193	98.19
255.426	98.19
255.659	105.19
255.892	109.19
256.124	105.19
256.357	116.19
256.59	117.19
256.823	140.19
257.056	156.19
257.289	157.19
257.521	158.19
257.754	166.19
257.987	177.19
258.22	127.19
258.452	126.19
258.685	112.19
258.918	114.19
259.151	98.19
259.383	121.19
259.616	117.19
259.849	128.19
260.081	125.19
260.314	113.19
260.547	106.19
260.779	100.19
261.012	109.19
261.244	110.19
261.477	141.19
261.71	108.19
261.942	116.19
262.175	119.19
262.407	124.19
262.64	129.19
262.872	127.19
263.105	125.19
263.337	144.19
263.57	118.19
263.802	137.19
264.035	133.19
264.267	141.19
264.499	140.19
264.732	125.19
264.964	116.19
265.197	134.19
265.429	142.19
265.661	144.19
265.894	141.19
266.126	156.19
266.358	148.19
266.591	145.19
266.823	154.19
267.055	116.19
267.287	116.19
267.52	105.19
267.752	123.19
267.984	122.19
268.216	116.19
268.448	126.19
268.681	140.19
268.913	113.19
269.145	115.19
269.377	107.19
269.609	105.19
269.841	122.19
270.073	116.19
270.306	107.19
270.538	121.19
270.77	120.19
271.002	136.19
271.234	125.19
271.466	115.19
271.698	120.19
271.93	122.19
272.162	112.19
272.394	115.19
272.626	120.19
272.858	120.19
273.09	129.19
273.322	117.19
273.553	121.19
273.785	127.19
274.017	122.19
274.249	125.19
274.481	120.19
274.713	115.19
274.945	123.19
275.176	129.19
275.408	125.19
275.64	127.19
275.872	123.19
276.104	133.19
276.335	125.19
276.567	132.19
276.799	120.19
277.031	124.19
277.262	121.19
277.494	139.19
277.726	142.19
277.957	158.19
278.189	153.19
278.421	142.19
278.652	162.19
278.884	187.19
279.115	236.19
279.347	298.19
279.579	396.19
279.81	441.19
280.042	358.19
280.273	341.19
280.505	334.19
280.736	245.19
280.968	175.19
281.199	174.19
281.431	218.19
281.662	211.19
281.894	248.19
282.125	214.19
282.356	171.19
282.588	166.19
282.819	180.19
283.051	154.19
283.282	154.19
283.513	136.19
283.745	144.19
283.976	156.19
284.207	140.19
284.439	159.19
284.67	156.19
284.901	170.19
285.132	190.19
285.364	202.19
285.595	178.19
285.826	147.19
286.057	160.19
286.288	144.19
286.52	134.19
286.751	139.19
286.982	124.19
287.213	140.19
287.444	131.19
287.675	140.19
287.906	129.19
288.138	143.19
288.369	145.19
288.6	132.19
288.831	142.19
289.062	150.19
289.293	144.19
289.524	149.19
289.755	135.19
289.986	127.19
290.217	132.19
290.448	113.19
290.679	126.19
290.91	144.19
291.141	113.19
291.371	136.19
291.602	139.19
291.833	138.19
292.064	153.19
292.295	154.19
292.526	131.19
292.757	129.19
292.987	132.19
293.218	167.19
293.449	161.19
293.68	173.19
293.91	162.19
294.141	171.19
294.372	135.19
294.603	133.19
294.833	146.19
295.064	126.19
295.295	136.19
295.525	142.19
295.756	146.19
295.987	158.19
296.217	132.19
296.448	141.19
296.679	145.19
296.909	138.19
297.14	143.19
297.37	141.19
297.601	153.19
297.831	140.19
298.062	138.19
298.292	130.19
298.523	148.19
298.753	138.19
298.984	143.19
299.214	141.19
299.445	145.19
299.675	149.19
299.905	136.19
300.136	139.19
300.366	144.19
300.597	159.19
300.827	157.19
301.057	139.19
301.288	145.19
301.518	158.19
301.748	157.19
301.979	185.19
302.209	172.19
302.439	160.19
302.669	165.19
302.9	169.19
303.13	156.19
303.36	177.19
303.59	161.19
303.82	177.19
304.051	152.19
304.281	179.19
304.511	198.19
304.741	196.19
304.971	215.19
305.201	240.19
305.431	242.19
305.661	278.19
305.891	293.19
306.121	275.19
306.352	254.19
306.582	266.19
306.812	255.19
307.042	238.19
307.272	245.19
307.502	268.19
307.731	321.19
307.961	404.19
308.191	545.19
308.421	625.19
308.651	543.19
308.881	513.19
309.111	606.19
309.341	753.19
309.571	724.19
309.8	511.19
310.03	356.19
310.26	272.19
310.49	265.19
310.72	225.19
310.949	206.19
311.179	220.19
311.409	207.19
311.639	186.19
311.868	193.19
312.098	164.19
312.328	174.19
312.557	169.19
312.787	172.19
313.017	167.19
313.246	166.19
313.476	181.19
313.706	177.19
313.935	173.19
314.165	170.19
314.394	175.19
314.624	153.19
314.853	162.19
315.083	162.19
315.312	152.19
315.542	165.19
315.771	152.19
316.001	163.19
316.23	152.19
316.46	156.19
316.689	178.19
316.919	180.19
317.148	161.19
317.377	170.19
317.607	178.19
317.836	160.19
318.065	138.19
318.295	158.19
318.524	158.19
318.753	151.19
318.983	160.19
319.212	162.19
319.441	161.19
319.67	159.19
319.9	149.19
320.129	159.19
320.358	147.19
320.587	153.19
320.816	153.19
321.046	150.19
321.275	163.19
321.504	167.19
321.733	158.19
321.962	139.19
322.191	141.19
322.42	149.19
322.649	151.19
322.878	170.19
323.108	140.19
323.337	170.19
323.566	161.19
323.795	170.19
324.024	164.19
324.253	145.19
324.482	155.19
324.71	165.19
324.939	162.19
325.168	162.19
325.397	162.19
325.626	143.19
325.855	151.19
326.084	144.19
326.313	155.19
326.542	157.19
326.77	156.19
326.999	150.19
327.228	163.19
327.457	154.19
327.686	161.19
327.914	166.19
328.143	160.19
328.372	170.19
328.6	156.19
328.829	162.19
329.058	161.19
329.287	155.19
329.515	162.19
329.744	149.19
329.972	157.19
330.201	151.19
330.43	146.19
330.658	154.19
330.887	166.19
331.115	162.19
331.344	173.19
331.572	177.19
331.801	166.19
332.03	167.19
332.258	152.19
332.486	160.19
332.715	165.19
332.943	164.19
333.172	176.19
333.4	156.19
333.629	184.19
333.857	182.19
334.085	185.19
334.314	182.19
334.542	184.19
334.771	180.19
334.999	175.19
335.227	174.19
335.455	170.19
335.684	159.19
335.912	186.19
336.14	171.19
336.369	178.19
336.597	161.19
336.825	163.19
337.053	154.19
337.281	173.19
337.51	166.19
337.738	165.19
337.966	147.19
338.194	175.19
338.422	172.19
338.65	172.19
338.878	161.19
339.106	181.19
339.334	164.19
339.562	171.19
339.79	162.19
340.018	163.19
340.246	162.19
340.474	165.19
340.702	164.19
340.93	156.19
341.158	162.19
341.386	166.19
341.614	160.19
341.842	165.19
342.07	162.19
342.298	166.19
342.526	177.19
342.754	149.19
342.981	172.19
343.209	169.19
343.437	189.19
343.665	164.19
343.893	156.19
344.12	190.19
344.348	162.19
344.576	181.19
344.804	166.19
345.031	165.19
345.259	177.19
345.487	176.19
345.714	156.19
345.942	175.19
346.17	161.19
346.397	158.19
346.625	152.19
346.853	144.19
347.08	149.19
347.308	150.19
347.535	164.19
347.763	144.19
347.99	165.19
348.218	173.19
348.445	163.19
348.673	162.19
348.9	163.19
349.128	168.19
349.355	176.19
349.583	180.19
349.81	166.19
350.037	143.19
350.265	167.19
350.492	164.19
350.72	145.19
350.947	172.19
351.174	186.19
351.402	173.19
351.629	159.19
351.856	178.19
352.083	170.19
352.311	163.19
352.538	171.19
352.765	177.19
352.992	176.19
353.22	182.19
353.447	159.19
353.674	173.19
353.901	174.19
354.128	180.19
354.355	194.19
354.583	166.19
354.81	172.19
355.037	179.19
355.264	184.19
355.491	179.19
355.718	191.19
355.945	191.19
356.172	194.19
356.399	209.19
356.626	207.19
356.853	216.19
357.08	231.19
357.307	223.19
357.534	234.19
357.761	266.19
357.988	280.19
358.215	306.19
358.441	349.19
358.668	351.19
358.895	350.19
359.122	316.19
359.349	253.19
359.576	254.19
359.802	252.19
360.029	233.19
360.256	226.19
360.483	236.19
360.709	223.19
360.936	218.19
361.163	206.19
361.39	205.19
361.616	205.19
361.843	188.19
362.07	192.19
362.296	207.19
362.523	182.19
362.749	186.19
362.976	183.19
363.203	178.19
363.429	174.19
363.656	185.19
363.882	164.19
364.109	183.19
364.335	189.19
364.562	187.19
364.788	171.19
365.015	169.19
365.241	178.19
365.468	183.19
365.694	171.19
365.92	185.19
366.147	174.19
366.373	171.19
366.599	166.19
366.826	179.19
367.052	176.19
367.278	170.19
367.505	172.19
367.731	190.19
367.957	176.19
368.184	172.19
368.41	173.19
368.636	160.19
368.862	174.19
369.089	165.19
369.315	185.19
369.541	178.19
369.767	188.19
369.993	179.19
370.219	167.19
370.445	176.19
370.672	184.19
370.898	181.19
371.124	184.19
371.35	187.19
371.576	164.19
371.802	179.19
372.028	167.19
372.254	183.19
372.48	186.19
372.706	175.19
372.932	182.19
373.158	182.19
373.384	202.19
373.61	190.19
373.835	189.19
374.061	173.19
374.287	174.19
374.513	195.19
374.739	188.19
374.965	192.19
375.191	197.19
375.416	191.19
375.642	190.19
375.868	186.19
376.094	179.19
376.319	178.19
376.545	169.19
376.771	164.19
376.997	188.19
377.222	181.19
377.448	175.19
377.674	172.19
377.899	175.19
378.125	170.19
378.35	169.19
378.576	182.19
378.802	176.19
379.027	184.19
379.253	173.19
379.478	170.19
379.704	186.19
379.929	180.19
380.155	169.19
380.38	180.19
380.606	179.19
380.831	177.19
381.057	197.19
381.282	178.19
381.507	195.19
381.733	181.19
381.958	190.19
382.184	188.19
382.409	204.19
382.634	211.19
382.86	212.19
383.085	255.19
383.31	267.19
383.535	259.19
383.761	254.19
383.986	261.19
384.211	218.19
384.436	193.19
384.662	207.19
384.887	212.19
385.112	194.19
385.337	213.19
385.562	189.19
385.787	188.19
386.013	196.19
386.238	221.19
386.463	211.19
386.688	236.19
386.913	192.19
387.138	202.19
387.363	197.19
387.588	212.19
387.813	198.19
388.038	208.19
388.263	192.19
388.488	211.19
388.713	182.19
388.938	204.19
389.163	205.19
389.387	206.19
389.612	197.19
389.837	210.19
390.062	200.19
390.287	201.19
390.512	228.19
390.736	202.19
390.961	189.19
391.186	204.19
391.411	224.19
391.636	220.19
391.86	210.19
392.085	225.19
392.31	212.19
392.534	230.19
392.759	264.19
392.984	281.19
393.208	335.19
393.433	426.19
393.658	394.19
393.882	364.19
394.107	533.19
394.331	844.19
394.556	1060.19
394.78	773.19
395.005	511.19
395.229	404.19
395.454	414.19
395.678	505.19
395.903	727.19
396.127	1186.19
396.352	1378.19
396.576	922.19
396.801	600.19
397.025	516.19
397.249	380.19
397.474	331.19
397.698	297.19
397.922	276.19
398.147	267.19
398.371	269.19
398.595	268.19
398.82	240.19
399.044	257.19
399.268	266.19
399.492	284.19
399.717	297.19
399.941	278.19
400.165	285.19
400.389	246.19
400.613	233.19
400.837	249.19
401.062	222.19
401.286	212.19
401.51	214.19
401.734	234.19
401.958	219.19
402.182	225.19
402.406	235.19
402.63	229.19
402.854	234.19
403.078	250.19
403.302	229.19
403.526	229.19
403.75	245.19
403.974	234.19
404.198	242.19
404.422	238.19
404.645	228.19
404.869	232.19
405.093	237.19
405.317	235.19
405.541	233.19
405.765	220.19
405.988	238.19
406.212	243.19
406.436	235.19
406.66	237.19
406.883	244.19
407.107	253.19
407.331	244.19
407.555	258.19
407.778	235.19
408.002	213.19
408.226	236.19
408.449	251.19
408.673	225.19
408.896	244.19
409.12	230.19
409.344	236.19
409.567	227.19
409.791	232.19
410.014	232.19
410.238	216.19
410.461	232.19
410.685	216.19
410.908	220.19
411.132	237.19
411.355	222.19
411.578	241.19
411.802	221.19
412.025	227.19
412.249	219.19
412.472	218.19
412.695	225.19
412.919	226.19
413.142	226.19
413.365	220.19
413.589	222.19
413.812	219.19
414.035	210.19
414.258	228.19
414.482	206.19
414.705	230.19
414.928	241.19
415.151	224.19
415.374	221.19
415.597	221.19
415.821	241.19
416.044	208.19
416.267	223.19
416.49	236.19
416.713	213.19
416.936	214.19
417.159	209.19
417.382	217.19
417.605	210.19
417.828	200.19
418.051	215.19
418.274	220.19
418.497	235.19
418.72	222.19
418.943	243.19
419.166	227.19
419.389	251.19
419.611	233.19
419.834	245.19
420.057	228.19
420.28	228.19
420.503	229.19
420.726	221.19
420.948	222.19
421.171	231.19
421.394	253.19
421.617	241.19
421.839	207.19
422.062	230.19
422.285	235.19
422.507	227.19
422.73	244.19
422.953	247.19
423.175	229.19
423.398	218.19
423.621	219.19
423.843	226.19
424.066	224.19
424.288	230.19
424.511	237.19
424.733	241.19
424.956	216.19
425.178	215.19
425.401	226.19
425.623	236.19
425.846	211.19
426.068	221.19
426.291	210.19
426.513	220.19
426.735	219.19
426.958	224.19
427.18	228.19
427.402	208.19
427.625	203.19
427.847	230.19
428.069	234.19
428.292	216.19
428.514	210.19
428.736	217.19
428.958	227.19
429.181	217.19
429.403	214.19
429.625	217.19
429.847	219.19
430.069	228.19
430.292	234.19
430.514	221.19
430.736	219.19
430.958	216.19
431.18	196.19
431.402	210.19
431.624	214.19
431.846	210.19
432.068	201.19
432.29	192.19
432.512	219.19
432.734	223.19
432.956	213.19
433.178	210.19
433.4	217.19
433.622	219.19
433.844	213.19
434.066	222.19
434.287	200.19
434.509	204.19
434.731	203.19
434.953	214.19
435.175	218.19
435.397	219.19
435.618	218.19
435.84	191.19
436.062	218.19
436.284	217.19
436.505	208.19
436.727	226.19
436.949	210.19
437.17	212.19
437.392	195.19
437.614	217.19
437.835	197.19
438.057	203.19
438.278	212.19
438.5	209.19
438.721	225.19
438.943	226.19
439.165	226.19
439.386	207.19
439.608	234.19
439.829	232.19
440.05	219.19
440.272	247.19
440.493	232.19
440.715	218.19
440.936	214.19
441.158	230.19
441.379	232.19
441.6	225.19
441.822	230.19
442.043	236.19
442.264	230.19
442.486	236.19
442.707	244.19
442.928	251.19
443.149	226.19
443.371	241.19
443.592	243.19
443.813	224.19
444.034	229.19
444.255	236.19
444.476	244.19
444.698	252.19
444.919	253.19
445.14	465.19
445.361	348.19
445.582	257.19
445.803	226.19
446.024	239.19
446.245	245.19
446.466	228.19
446.687	238.19
446.908	244.19
447.129	225.19
447.35	214.19
447.571	242.19
447.792	234.19
448.013	225.19
448.234	227.19
448.455	229.19
448.675	238.19
448.896	218.19
449.117	229.19
449.338	211.19
449.559	224.19
449.779	217.19
450	217.19
450.221	218.19
450.442	224.19
450.662	213.19
450.883	218.19
451.104	218.19
451.324	211.19
451.545	218.19
451.766	213.19
451.986	208.19
452.207	204.19
452.428	206.19
452.648	201.19
452.869	205.19
453.089	217.19
453.31	217.19
453.53	210.19
453.751	196.19
453.971	200.19
454.192	196.19
454.412	190.19
454.633	212.19
454.853	203.19
455.073	203.19
455.294	212.19
455.514	194.19
455.734	208.19
455.955	205.19
456.175	210.19
456.395	173.19
456.616	202.19
456.836	209.19
457.056	215.19
457.276	191.19
457.497	192.19
457.717	185.19
457.937	201.19
458.157	195.19
458.377	181.19
458.598	184.19
458.818	198.19
459.038	186.19
459.258	191.19
459.478	183.19
459.698	188.19
459.918	196.19
460.138	208.19
460.358	198.19
460.578	219.19
460.798	225.19
461.018	230.19
461.238	216.19
461.458	222.19
461.678	211.19
461.898	226.19
462.118	212.19
462.338	218.19
462.558	242.19
462.777	249.19
462.997	243.19
463.217	235.19
463.437	230.19
463.657	226.19
463.876	221.19
464.096	261.19
464.316	233.19
464.536	233.19
464.755	236.19
464.975	236.19
465.195	231.19
465.414	245.19
465.634	216.19
465.854	224.19
466.073	222.19
466.293	233.19
466.512	250.19
466.732	269.19
466.951	253.19
467.171	248.19
467.391	244.19
467.61	222.19
467.829	227.19
468.049	230.19
468.268	214.19
468.488	213.19
468.707	233.19
468.927	229.19
469.146	227.19
469.365	226.19
469.585	226.19
469.804	238.19
470.023	224.19
470.243	225.19
470.462	227.19
470.681	228.19
470.901	223.19
471.12	240.19
471.339	224.19
471.558	221.19
471.777	216.19
471.997	233.19
472.216	224.19
472.435	215.19
472.654	209.19
472.873	210.19
473.092	223.19
473.311	228.19
473.53	245.19
473.749	256.19
473.968	262.19
474.187	238.19
474.406	240.19
474.625	256.19
474.844	265.19
475.063	234.19
475.282	218.19
475.501	215.19
475.72	219.19
475.939	208.19
476.158	220.19
476.377	228.19
476.596	216.19
476.814	195.19
477.033	198.19
477.252	221.19
477.471	229.19
477.69	222.19
477.908	228.19
478.127	245.19
478.346	218.19
478.564	230.19
478.783	228.19
479.002	223.19
479.22	226.19
479.439	245.19
479.658	220.19
479.876	209.19
480.095	223.19
480.313	228.19
480.532	229.19
480.751	228.19
480.969	216.19
481.188	213.19
481.406	224.19
481.624	202.19
481.843	194.19
482.061	217.19
482.28	211.19
482.498	210.19
482.717	216.19
482.935	211.19
483.153	233.19
483.372	236.19
483.59	229.19
483.808	215.19
484.027	229.19
484.245	242.19
484.463	257.19
484.681	266.19
484.9	228.19
485.118	264.19
485.336	252.19
485.554	221.19
485.772	233.19
485.99	209.19
486.209	247.19
486.427	238.19
486.645	240.19
486.863	258.19
487.081	262.19
487.299	268.19
487.517	239.19
487.735	260.19
487.953	282.19
488.171	248.19
488.389	277.19
488.607	229.19
488.825	228.19
489.043	201.19
489.261	242.19
489.479	237.19
489.696	242.19
489.914	241.19
490.132	251.19
490.35	254.19
490.568	235.19
490.786	244.19
491.003	245.19
491.221	261.19
491.439	266.19
491.657	258.19
491.874	281.19
492.092	282.19
492.31	298.19
492.527	286.19
492.745	272.19
492.963	264.19
493.18	254.19
493.398	268.19
493.615	259.19
493.833	245.19
494.05	281.19
494.268	251.19
494.485	255.19
494.703	246.19
494.92	268.19
495.138	266.19
495.355	256.19
495.573	255.19
495.79	251.19
496.008	282.19
496.225	254.19
496.442	257.19
496.66	274.19
496.877	260.19
497.094	249.19
497.312	257.19
497.529	251.19
497.746	269.19
497.963	250.19
498.181	252.19
498.398	249.19
498.615	276.19
498.832	270.19
499.049	266.19
499.267	275.19
499.484	303.19
499.701	319.19
499.918	340.19
500.135	336.19
500.352	361.19
500.569	342.19
500.786	378.19
501.003	339.19
501.22	332.19
501.437	325.19
501.654	291.19
501.871	274.19
502.088	289.19
502.305	283.19
502.522	277.19
502.739	252.19
502.956	269.19
503.172	251.19
503.389	241.19
503.606	238.19
503.823	217.19
504.04	254.19
504.256	261.19
504.473	223.19
504.69	252.19
504.907	249.19
505.123	216.19
505.34	238.19
505.557	234.19
505.773	226.19
505.99	227.19
506.207	224.19
506.423	221.19
506.64	225.19
506.856	212.19
507.073	212.19
507.289	217.19
507.506	227.19
507.722	204.19
507.939	217.19
508.155	239.19
508.372	230.19
508.588	231.19
508.805	193.19
509.021	185.19
509.238	192.19
509.454	179.19
509.67	205.19
509.887	203.19
510.103	194.19
510.319	202.19
510.536	224.19
510.752	200.19
510.968	220.19
511.184	201.19
511.401	193.19
511.617	197.19
511.833	193.19
512.049	206.19
512.265	190.19
512.481	212.19
512.698	187.19
512.914	201.19
513.13	208.19
513.346	198.19
513.562	221.19
513.778	225.19
513.994	227.19
514.21	209.19
514.426	220.19
514.642	206.19
514.858	197.19
515.074	224.19
515.29	248.19
515.506	236.19
515.721	219.19
515.937	211.19
516.153	218.19
516.369	221.19
516.585	222.19
516.801	213.19
517.016	257.19
517.232	240.19
517.448	278.19
517.664	246.19
517.879	233.19
518.095	238.19
518.311	256.19
518.527	336.19
518.742	287.19
518.958	241.19
519.173	223.19
519.389	233.19
519.605	220.19
519.82	206.19
520.036	197.19
520.251	215.19
520.467	218.19
520.682	202.19
520.898	207.19
521.113	191.19
521.329	191.19
521.544	182.19
521.76	188.19
521.975	173.19
522.19	193.19
522.406	190.19
522.621	203.19
522.836	204.19
523.052	191.19
523.267	197.19
523.482	204.19
523.698	204.19
523.913	203.19
524.128	198.19
524.343	204.19
524.559	214.19
524.774	207.19
524.989	206.19
525.204	208.19
525.419	208.19
525.634	197.19
525.849	192.19
526.064	195.19
526.28	213.19
526.495	206.19
526.71	200.19
526.925	188.19
527.14	166.19
527.355	192.19
527.57	194.19
527.785	180.19
527.999	194.19
528.214	192.19
528.429	191.19
528.644	203.19
528.859	221.19
529.074	202.19
529.289	241.19
529.503	210.19
529.718	194.19
529.933	197.19
530.148	180.19
530.363	179.19
530.577	173.19
530.792	193.19
531.007	197.19
531.221	189.19
531.436	180.19
531.651	186.19
531.865	180.19
532.08	197.19
532.295	201.19
532.509	196.19
532.724	182.19
532.938	190.19
533.153	180.19
533.367	195.19
533.582	192.19
533.796	208.19
534.011	200.19
534.225	176.19
534.44	175.19
534.654	195.19
534.868	180.19
535.083	187.19
535.297	187.19
535.511	181.19
535.726	187.19
535.94	190.19
536.154	163.19
536.369	169.19
536.583	169.19
536.797	181.19
537.011	171.19
537.225	176.19
537.44	174.19
537.654	179.19
537.868	179.19
538.082	191.19
538.296	170.19
538.51	188.19
538.724	202.19
538.938	192.19
539.153	190.19
539.367	192.19
539.581	175.19
539.795	165.19
540.009	188.19
540.222	177.19
540.436	188.19
540.65	194.19
540.864	189.19
541.078	193.19
541.292	211.19
541.506	212.19
541.72	213.19
541.934	205.19
542.147	216.19
542.361	218.19
542.575	221.19
542.789	190.19
543.002	195.19
543.216	177.19
543.43	182.19
543.644	201.19
543.857	184.19
544.071	218.19
544.285	226.19
544.498	207.19
544.712	210.19
544.925	202.19
545.139	203.19
545.352	203.19
545.566	216.19
545.779	207.19
545.993	213.19
546.206	193.19
546.42	211.19
546.633	209.19
546.847	230.19
547.06	208.19
547.274	206.19
547.487	228.19
547.7	223.19
547.914	210.19
548.127	216.19
548.34	220.19
548.554	192.19
548.767	224.19
548.98	229.19
549.193	214.19
549.407	219.19
549.62	220.19
549.833	198.19
550.046	214.19
550.259	213.19
550.473	203.19
550.686	200.19
550.899	177.19
551.112	217.19
551.325	201.19
551.538	206.19
551.751	183.19
551.964	186.19
552.177	197.19
552.39	204.19
552.603	213.19
552.816	226.19
553.029	197.19
553.242	226.19
553.455	212.19
553.667	211.19
553.88	225.19
554.093	206.19
554.306	210.19
554.519	210.19
554.732	193.19
554.944	200.19
555.157	188.19
555.37	195.19
555.583	192.19
555.795	182.19
556.008	192.19
556.221	195.19
556.433	194.19
556.646	197.19
556.859	184.19
557.071	197.19
557.284	181.19
557.496	202.19
557.709	170.19
557.921	193.19
558.134	203.19
558.346	192.19
558.559	218.19
558.771	194.19
558.984	207.19
559.196	233.19
559.409	221.19
559.621	197.19
559.833	213.19
560.046	198.19
560.258	186.19
560.47	192.19
560.683	224.19
560.895	221.19
561.107	203.19
561.32	193.19
561.532	176.19
561.744	172.19
561.956	188.19
562.168	204.19
562.381	195.19
562.593	184.19
562.805	191.19
563.017	193.19
563.229	189.19
563.441	174.19
563.653	200.19
563.865	176.19
564.077	189.19
564.289	199.19
564.501	184.19
564.713	181.19
564.925	179.19
565.137	176.19
565.349	182.19
565.561	172.19
565.773	206.19
565.985	181.19
566.197	180.19
566.408	205.19
566.62	197.19
566.832	199.19
567.044	218.19
567.255	203.19
567.467	195.19
567.679	200.19
567.891	213.19
568.102	222.19
568.314	216.19
568.526	177.19
568.737	193.19
568.949	188.19
569.161	174.19
569.372	192.19
569.584	180.19
569.795	175.19
570.007	170.19
570.218	164.19
570.43	170.19
570.641	176.19
570.853	187.19
571.064	158.19
571.276	156.19
571.487	163.19
571.698	164.19
571.91	171.19
572.121	176.19
572.333	160.19
572.544	165.19
572.755	162.19
572.966	156.19
573.178	163.19
573.389	146.19
573.6	154.19
573.811	151.19
574.023	165.19
574.234	144.19
574.445	150.19
574.656	145.19
574.867	131.19
575.078	150.19
575.289	147.19
575.501	143.19
575.712	149.19
575.923	151.19
576.134	128.19
576.345	127.19
576.556	151.19
576.767	141.19
576.978	170.19
577.188	131.19
577.399	142.19
577.61	136.19
577.821	165.19
578.032	132.19
578.243	129.19
578.454	143.19
578.665	137.19
578.875	116.19
579.086	138.19
579.297	139.19
579.508	150.19
579.718	144.19
579.929	139.19
580.14	129.19
580.35	134.19
580.561	131.19
580.772	135.19
580.982	142.19
581.193	142.19
581.403	143.19
581.614	138.19
581.825	154.19
582.035	129.19
582.246	138.19
582.456	140.19
582.667	136.19
582.877	141.19
583.087	150.19
583.298	143.19
583.508	133.19
583.719	128.19
583.929	140.19
584.139	148.19
584.35	130.19
584.56	157.19
584.77	129.19
584.981	147.19
585.191	144.19
585.401	148.19
585.611	144.19
585.821	140.19
586.032	139.19
586.242	122.19
586.452	133.19
586.662	144.19
586.872	130.19
587.082	125.19
587.292	122.19
587.502	133.19
587.713	130.19
587.923	140.19
588.133	132.19
588.343	132.19
588.553	137.19
588.762	167.19
588.972	172.19
589.182	317.19
589.392	244.19
589.602	166.19
589.812	258.19
590.022	198.19
590.232	136.19
590.441	128.19
590.651	129.19
590.861	147.19
591.071	136.19
591.281	122.19
591.49	129.19
591.7	136.19
591.91	137.19
592.119	124.19
592.329	138.19
592.539	132.19
592.748	144.19
592.958	159.19
593.167	148.19
593.377	144.19
593.587	156.19
593.796	145.19
594.006	160.19
594.215	139.19
594.424	146.19
594.634	146.19
594.843	136.19
595.053	139.19
595.262	142.19
595.472	141.19
595.681	150.19
595.89	136.19
596.1	120.19
596.309	132.19
596.518	125.19
596.727	146.19
596.937	146.19
597.146	120.19
597.355	127.19
597.564	136.19
597.774	156.19
597.983	130.19
598.192	112.19
598.401	112.19
598.61	131.19
598.819	111.19
599.028	132.19
599.237	122.19
599.446	123.19
599.655	126.19
599.864	145.19
600.073	139.19
600.282	139.19
600.491	111.19
600.7	115.19
600.909	142.19
601.118	130.19
601.327	118.19
601.536	122.19
601.745	136.19
601.953	138.19
602.162	130.19
602.371	117.19
602.58	123.19
602.789	141.19
602.997	131.19
603.206	140.19
603.415	136.19
603.623	133.19
603.832	142.19
604.041	133.19
604.249	114.19
604.458	119.19
604.666	124.19
604.875	115.19
605.084	122.19
605.292	126.19
605.501	130.19
605.709	126.19
605.918	138.19
606.126	123.19
606.334	133.19
606.543	136.19
606.751	136.19
606.96	127.19
607.168	123.19
607.376	131.19
607.585	132.19
607.793	134.19
608.001	128.19
608.21	130.19
608.418	152.19
608.626	131.19
608.834	135.19
609.043	132.19
609.251	134.19
609.459	135.19
609.667	146.19
609.875	137.19
610.083	128.19
610.291	138.19
610.499	129.19
610.707	142.19
610.916	136.19
611.124	123.19
611.332	125.19
611.54	129.19
611.748	147.19
611.955	132.19
612.163	152.19
612.371	131.19
612.579	130.19
612.787	137.19
612.995	132.19
613.203	140.19
613.411	140.19
613.618	140.19
613.826	142.19
614.034	131.19
614.242	138.19
614.449	130.19
614.657	129.19
614.865	139.19
615.072	130.19
615.28	139.19
615.488	136.19
615.695	134.19
615.903	142.19
616.111	122.19
616.318	157.19
616.526	157.19
616.733	151.19
616.941	134.19
617.148	147.19
617.356	132.19
617.563	140.19
617.771	151.19
617.978	127.19
618.185	127.19
618.393	138.19
618.6	158.19
618.807	143.19
619.015	141.19
619.222	142.19
619.429	134.19
619.637	133.19
619.844	136.19
620.051	119.19
620.258	121.19
620.466	121.19
620.673	124.19
620.88	126.19
621.087	137.19
621.294	122.19
621.501	117.19
621.708	137.19
621.915	123.19
622.122	128.19
622.329	126.19
622.536	143.19
622.743	125.19
622.95	126.19
623.157	142.19
623.364	140.19
623.571	133.19
623.778	136.19
623.985	145.19
624.192	137.19
624.399	125.19
624.606	143.19
624.812	133.19
625.019	142.19
625.226	142.19
625.433	128.19
625.639	126.19
625.846	136.19
626.053	130.19
626.259	116.19
626.466	136.19
626.673	136.19
626.879	121.19
627.086	141.19
627.293	136.19
627.499	128.19
627.706	132.19
627.912	118.19
628.119	119.19
628.325	128.19
628.532	124.19
628.738	115.19
628.945	133.19
629.151	138.19
629.357	107.19
629.564	128.19
629.77	116.19
629.976	109.19
630.183	108.19
630.389	119.19
630.595	110.19
630.802	115.19
631.008	121.19
631.214	118.19
631.42	126.19
631.627	130.19
631.833	130.19
632.039	116.19
632.245	110.19
632.451	120.19
632.657	121.19
632.863	104.19
633.069	111.19
633.275	108.19
633.481	137.19
633.688	119.19
633.893	126.19
634.099	110.19
634.305	127.19
634.511	124.19
634.717	111.19
634.923	102.19
635.129	107.19
635.335	128.19
635.541	116.19
635.747	115.19
635.952	107.19
636.158	123.19
636.364	111.19
636.57	115.19
636.775	120.19
636.981	102.19
637.187	108.19
637.392	105.19
637.598	103.19
637.804	121.19
638.009	115.19
638.215	110.19
638.421	102.19
638.626	105.19
638.832	98.19
639.037	106.19
639.243	91.19
639.448	106.19
639.654	125.19
639.859	124.19
640.065	115.19
640.27	130.19
640.475	93.19
640.681	83.19
640.886	88.19
641.091	112.19
641.297	131.19
641.502	110.19
641.707	122.19
641.913	116.19
642.118	105.19
642.323	115.19
642.528	114.19
642.733	100.19
642.939	116.19
643.144	112.19
643.349	112.19
643.554	133.19
643.759	128.19
643.964	108.19
644.169	101.19
644.374	106.19
644.579	109.19
644.784	109.19
644.989	116.19
645.194	105.19
645.399	127.19
645.604	96.19
645.809	117.19
646.014	116.19
646.219	113.19
646.423	105.19
646.628	119.19
646.833	110.19
647.038	113.19
647.243	108.19
647.447	117.19
647.652	105.19
647.857	112.19
648.062	107.19
648.266	96.19
648.471	99.19
648.676	102.19
648.88	113.19
649.085	109.19
649.289	112.19
649.494	101.19
649.698	112.19
649.903	114.19
650.107	102.19
650.312	115.19
650.516	89.19
650.721	102.19
650.925	101.19
651.13	112.19
651.334	114.19
651.539	98.19
651.743	95.19
651.947	99.19
652.152	115.19
652.356	110.19
652.56	120.19
652.764	92.19
652.969	107.19
653.173	93.19
653.377	98.19
653.581	94.19
653.785	104.19
653.99	94.19
654.194	119.19
654.398	100.19
654.602	110.19
654.806	101.19
655.01	105.19
655.214	106.19
655.418	111.19
655.622	102.19
655.826	105.19
656.03	92.19
656.234	106.19
656.438	111.19
656.642	106.19
656.846	94.19
657.049	91.19
657.253	114.19
657.457	93.19
657.661	102.19
657.865	111.19
658.068	88.19
658.272	98.19
658.476	91.19
658.68	89.19
658.883	93.19
659.087	92.19
659.291	86.19
659.494	90.19
659.698	88.19
659.901	101.19
660.105	83.19
660.309	89.19
660.512	73.19
660.716	85.19
660.919	85.19
661.123	93.19
661.326	106.19
661.53	85.19
661.733	81.19
661.936	90.19
662.14	82.19
662.343	89.19
662.546	77.19
662.75	90.19
662.953	98.19
663.156	94.19
663.36	86.19
663.563	88.19
663.766	75.19
663.969	75.19
664.173	72.19
664.376	79.19
664.579	74.19
664.782	75.19
664.985	75.19
665.188	96.19
665.391	92.19
665.594	73.19
665.797	61.19
666	71.19
666.203	85.19
666.406	83.19
666.609	77.19
666.812	73.19
667.015	84.19
667.218	86.19
667.421	72.19
667.624	69.19
667.827	88.19
668.03	72.19
668.232	67.19
668.435	74.19
668.638	75.19
668.841	84.19
669.043	65.19
669.246	84.19
669.449	76.19
669.651	72.19
669.854	86.19
670.057	83.19
670.259	69.19
670.462	88.19
670.665	82.19
670.867	88.19
671.07	86.19
671.272	86.19
671.475	104.19
671.677	78.19
671.88	89.19
672.082	88.19
672.284	85.19
672.487	100.19
672.689	76.19
672.892	77.19
