Data from Circ_1988_H10_HRD10591_00052.txt Node
Date: Wed Jan 03 12:05:45 EST 2024
User: Yrep
Spectrometer: HR+D1059
Trigger mode: 1
Integration Time (sec): 1.000000E-1
Scans to average: 1
Electric dark correction enabled: true
Nonlinearity correction enabled: false
Boxcar width: 0
XAxis mode: Wavelengths
Number of Pixels in Spectrum: 2048
>>>>>Begin Spectral Data<<<<<
223.165	-12.25
223.4	-12.25
223.635	-12.25
223.869	-21.25
224.104	-18.25
224.338	-18.25
224.573	-22.25
224.808	-12.25
225.042	-5.25
225.277	-1.25
225.511	-6.25
225.746	3.75
225.98	7.75
226.215	16.75
226.449	13.75
226.683	17.75
226.918	28.75
227.152	28.75
227.387	32.75
227.621	27.75
227.856	50.75
228.09	45.75
228.324	38.75
228.559	51.75
228.793	65.75
229.027	61.75
229.262	70.75
229.496	64.75
229.73	87.75
229.964	106.75
230.199	83.75
230.433	81.75
230.667	78.75
230.901	82.75
231.136	70.75
231.37	74.75
231.604	79.75
231.838	75.75
232.072	101.75
232.306	90.75
232.541	85.75
232.775	88.75
233.009	98.75
233.243	82.75
233.477	89.75
233.711	86.75
233.945	94.75
234.179	70.75
234.413	81.75
234.647	77.75
234.881	89.75
235.115	89.75
235.349	86.75
235.583	93.75
235.817	73.75
236.051	89.75
236.285	80.75
236.519	96.75
236.753	78.75
236.987	94.75
237.221	87.75
237.455	93.75
237.689	94.75
237.922	75.75
238.156	73.75
238.39	74.75
238.624	74.75
238.858	89.75
239.091	81.75
239.325	86.75
239.559	83.75
239.793	77.75
240.027	76.75
240.26	84.75
240.494	74.75
240.728	67.75
240.961	87.75
241.195	95.75
241.429	69.75
241.662	71.75
241.896	83.75
242.13	85.75
242.363	74.75
242.597	88.75
242.83	93.75
243.064	80.75
243.298	94.75
243.531	91.75
243.765	79.75
243.998	84.75
244.232	70.75
244.465	84.75
244.699	83.75
244.932	74.75
245.166	86.75
245.399	78.75
245.633	71.75
245.866	83.75
246.099	83.75
246.333	89.75
246.566	82.75
246.8	87.75
247.033	74.75
247.266	82.75
247.5	83.75
247.733	87.75
247.966	86.75
248.2	80.75
248.433	82.75
248.666	77.75
248.899	80.75
249.133	92.75
249.366	107.75
249.599	103.75
249.832	88.75
250.066	72.75
250.299	94.75
250.532	104.75
250.765	97.75
250.998	82.75
251.231	73.75
251.465	85.75
251.698	83.75
251.931	102.75
252.164	86.75
252.397	79.75
252.63	89.75
252.863	80.75
253.096	94.75
253.329	91.75
253.562	88.75
253.795	89.75
254.028	79.75
254.261	85.75
254.494	86.75
254.727	103.75
254.96	67.75
255.193	84.75
255.426	95.75
255.659	81.75
255.892	114.75
256.124	109.75
256.357	95.75
256.59	90.75
256.823	102.75
257.056	83.75
257.289	93.75
257.521	91.75
257.754	89.75
257.987	91.75
258.22	108.75
258.452	122.75
258.685	112.75
258.918	101.75
259.151	95.75
259.383	113.75
259.616	101.75
259.849	95.75
260.081	87.75
260.314	94.75
260.547	104.75
260.779	115.75
261.012	138.75
261.244	148.75
261.477	116.75
261.71	102.75
261.942	137.75
262.175	137.75
262.407	104.75
262.64	88.75
262.872	79.75
263.105	91.75
263.337	95.75
263.57	97.75
263.802	101.75
264.035	73.75
264.267	82.75
264.499	79.75
264.732	97.75
264.964	89.75
265.197	79.75
265.429	95.75
265.661	86.75
265.894	81.75
266.126	83.75
266.358	84.75
266.591	80.75
266.823	77.75
267.055	83.75
267.287	93.75
267.52	76.75
267.752	89.75
267.984	79.75
268.216	72.75
268.448	90.75
268.681	97.75
268.913	93.75
269.145	105.75
269.377	92.75
269.609	80.75
269.841	94.75
270.073	89.75
270.306	90.75
270.538	87.75
270.77	97.75
271.002	86.75
271.234	108.75
271.466	105.75
271.698	88.75
271.93	97.75
272.162	95.75
272.394	88.75
272.626	90.75
272.858	95.75
273.09	80.75
273.322	96.75
273.553	86.75
273.785	97.75
274.017	78.75
274.249	96.75
274.481	95.75
274.713	89.75
274.945	98.75
275.176	98.75
275.408	124.75
275.64	159.75
275.872	161.75
276.104	132.75
276.335	138.75
276.567	133.75
276.799	175.75
277.031	272.75
277.262	341.75
277.494	255.75
277.726	123.75
277.957	99.75
278.189	99.75
278.421	105.75
278.652	98.75
278.884	111.75
279.115	101.75
279.347	108.75
279.579	114.75
279.81	207.75
280.042	370.75
280.273	530.75
280.505	328.75
280.736	146.75
280.968	117.75
281.199	109.75
281.431	95.75
281.662	96.75
281.894	98.75
282.125	104.75
282.356	139.75
282.588	184.75
282.819	142.75
283.051	84.75
283.282	100.75
283.513	97.75
283.745	100.75
283.976	98.75
284.207	90.75
284.439	79.75
284.67	95.75
284.901	90.75
285.132	79.75
285.364	81.75
285.595	94.75
285.826	89.75
286.057	86.75
286.288	94.75
286.52	90.75
286.751	79.75
286.982	89.75
287.213	87.75
287.444	98.75
287.675	91.75
287.906	91.75
288.138	80.75
288.369	101.75
288.6	92.75
288.831	95.75
289.062	108.75
289.293	87.75
289.524	97.75
289.755	82.75
289.986	72.75
290.217	97.75
290.448	86.75
290.679	77.75
290.91	93.75
291.141	83.75
291.371	86.75
291.602	100.75
291.833	90.75
292.064	98.75
292.295	74.75
292.526	94.75
292.757	90.75
292.987	92.75
293.218	82.75
293.449	94.75
293.68	97.75
293.91	95.75
294.141	89.75
294.372	88.75
294.603	98.75
294.833	95.75
295.064	83.75
295.295	81.75
295.525	84.75
295.756	110.75
295.987	127.75
296.217	174.75
296.448	142.75
296.679	86.75
296.909	91.75
297.14	97.75
297.37	86.75
297.601	84.75
297.831	87.75
298.062	103.75
298.292	101.75
298.523	101.75
298.753	105.75
298.984	93.75
299.214	95.75
299.445	97.75
299.675	106.75
299.905	103.75
300.136	100.75
300.366	98.75
300.597	97.75
300.827	109.75
301.057	104.75
301.288	122.75
301.518	107.75
301.748	102.75
301.979	123.75
302.209	95.75
302.439	96.75
302.669	97.75
302.9	96.75
303.13	112.75
303.36	122.75
303.59	170.75
303.82	203.75
304.051	118.75
304.281	84.75
304.511	99.75
304.741	102.75
304.971	90.75
305.201	95.75
305.431	93.75
305.661	105.75
305.891	101.75
306.121	102.75
306.352	120.75
306.582	118.75
306.812	131.75
307.042	179.75
307.272	257.75
307.502	277.75
307.731	257.75
307.961	163.75
308.191	115.75
308.421	102.75
308.651	106.75
308.881	96.75
309.111	80.75
309.341	113.75
309.571	101.75
309.8	106.75
310.03	104.75
310.26	114.75
310.49	91.75
310.72	110.75
310.949	121.75
311.179	107.75
311.409	94.75
311.639	99.75
311.868	104.75
312.098	101.75
312.328	103.75
312.557	112.75
312.787	119.75
313.017	114.75
313.246	89.75
313.476	96.75
313.706	89.75
313.935	111.75
314.165	106.75
314.394	130.75
314.624	116.75
314.853	114.75
315.083	84.75
315.312	93.75
315.542	94.75
315.771	112.75
316.001	112.75
316.23	110.75
316.46	99.75
316.689	95.75
316.919	89.75
317.148	101.75
317.377	111.75
317.607	117.75
317.836	107.75
318.065	101.75
318.295	95.75
318.524	89.75
318.753	95.75
318.983	100.75
319.212	118.75
319.441	124.75
319.67	117.75
319.9	87.75
320.129	91.75
320.358	113.75
320.587	111.75
320.816	103.75
321.046	110.75
321.275	106.75
321.504	113.75
321.733	103.75
321.962	106.75
322.191	107.75
322.42	111.75
322.649	114.75
322.878	115.75
323.108	135.75
323.337	134.75
323.566	147.75
323.795	157.75
324.024	223.75
324.253	367.75
324.482	840.75
324.71	1637.75
324.939	2201.75
325.168	855.75
325.397	275.75
325.626	159.75
325.855	141.75
326.084	138.75
326.313	135.75
326.542	174.75
326.77	247.75
326.999	422.75
327.228	853.75
327.457	1519.75
327.686	1319.75
327.914	654.75
328.143	913.75
328.372	1302.75
328.6	653.75
328.829	249.75
329.058	234.75
329.287	229.75
329.515	241.75
329.744	427.75
329.972	867.75
330.201	1983.75
330.43	2947.75
330.658	1178.75
330.887	402.75
331.115	232.75
331.344	151.75
331.572	132.75
331.801	142.75
332.03	140.75
332.258	136.75
332.486	126.75
332.715	125.75
332.943	130.75
333.172	137.75
333.4	155.75
333.629	203.75
333.857	352.75
334.085	749.75
334.314	1701.75
334.542	3487.75
334.771	3320.75
334.999	785.75
335.227	262.75
335.455	173.75
335.684	134.75
335.912	122.75
336.14	135.75
336.369	125.75
336.597	133.75
336.825	118.75
337.053	99.75
337.281	115.75
337.51	98.75
337.738	109.75
337.966	100.75
338.194	101.75
338.422	104.75
338.65	101.75
338.878	99.75
339.106	94.75
339.334	107.75
339.562	96.75
339.79	94.75
340.018	106.75
340.246	96.75
340.474	92.75
340.702	101.75
340.93	115.75
341.158	100.75
341.386	106.75
341.614	112.75
341.842	95.75
342.07	102.75
342.298	89.75
342.526	97.75
342.754	95.75
342.981	88.75
343.209	101.75
343.437	111.75
343.665	87.75
343.893	106.75
344.12	86.75
344.348	85.75
344.576	105.75
344.804	100.75
345.031	122.75
345.259	96.75
345.487	102.75
345.714	103.75
345.942	101.75
346.17	110.75
346.397	88.75
346.625	97.75
346.853	114.75
347.08	97.75
347.308	88.75
347.535	100.75
347.763	105.75
347.99	90.75
348.218	100.75
348.445	116.75
348.673	108.75
348.9	93.75
349.128	93.75
349.355	101.75
349.583	92.75
349.81	99.75
350.037	104.75
350.265	91.75
350.492	94.75
350.72	93.75
350.947	104.75
351.174	115.75
351.402	127.75
351.629	106.75
351.856	105.75
352.083	117.75
352.311	113.75
352.538	108.75
352.765	127.75
352.992	121.75
353.22	107.75
353.447	106.75
353.674	100.75
353.901	91.75
354.128	93.75
354.355	94.75
354.583	120.75
354.81	95.75
355.037	91.75
355.264	93.75
355.491	92.75
355.718	96.75
355.945	91.75
356.172	83.75
356.399	107.75
356.626	94.75
356.853	83.75
357.08	98.75
357.307	101.75
357.534	90.75
357.761	91.75
357.988	94.75
358.215	102.75
358.441	102.75
358.668	93.75
358.895	91.75
359.122	105.75
359.349	98.75
359.576	106.75
359.802	115.75
360.029	134.75
360.256	125.75
360.483	116.75
360.709	86.75
360.936	91.75
361.163	96.75
361.39	115.75
361.616	104.75
361.843	99.75
362.07	108.75
362.296	98.75
362.523	103.75
362.749	99.75
362.976	95.75
363.203	111.75
363.429	98.75
363.656	90.75
363.882	79.75
364.109	101.75
364.335	96.75
364.562	98.75
364.788	99.75
365.015	105.75
365.241	115.75
365.468	105.75
365.694	111.75
365.92	114.75
366.147	114.75
366.373	89.75
366.599	91.75
366.826	99.75
367.052	91.75
367.278	92.75
367.505	101.75
367.731	97.75
367.957	93.75
368.184	99.75
368.41	115.75
368.636	120.75
368.862	136.75
369.089	120.75
369.315	103.75
369.541	93.75
369.767	79.75
369.993	90.75
370.219	98.75
370.445	79.75
370.672	89.75
370.898	97.75
371.124	85.75
371.35	86.75
371.576	89.75
371.802	102.75
372.028	82.75
372.254	94.75
372.48	96.75
372.706	91.75
372.932	90.75
373.158	93.75
373.384	105.75
373.61	82.75
373.835	93.75
374.061	98.75
374.287	96.75
374.513	92.75
374.739	86.75
374.965	82.75
375.191	93.75
375.416	85.75
375.642	86.75
375.868	87.75
376.094	102.75
376.319	96.75
376.545	102.75
376.771	91.75
376.997	101.75
377.222	105.75
377.448	101.75
377.674	102.75
377.899	86.75
378.125	89.75
378.35	97.75
378.576	109.75
378.802	104.75
379.027	109.75
379.253	104.75
379.478	97.75
379.704	89.75
379.929	81.75
380.155	81.75
380.38	108.75
380.606	104.75
380.831	105.75
381.057	105.75
381.282	107.75
381.507	101.75
381.733	106.75
381.958	115.75
382.184	87.75
382.409	93.75
382.634	120.75
382.86	106.75
383.085	103.75
383.31	113.75
383.535	110.75
383.761	99.75
383.986	102.75
384.211	110.75
384.436	106.75
384.662	111.75
384.887	122.75
385.112	116.75
385.337	119.75
385.562	116.75
385.787	107.75
386.013	111.75
386.238	134.75
386.463	108.75
386.688	134.75
386.913	126.75
387.138	116.75
387.363	117.75
387.588	113.75
387.813	96.75
388.038	118.75
388.263	128.75
388.488	127.75
388.713	104.75
388.938	88.75
389.163	113.75
389.387	93.75
389.612	95.75
389.837	93.75
390.062	99.75
390.287	95.75
390.512	85.75
390.736	94.75
390.961	93.75
391.186	97.75
391.411	79.75
391.636	84.75
391.86	74.75
392.085	93.75
392.31	76.75
392.534	84.75
392.759	92.75
392.984	90.75
393.208	92.75
393.433	102.75
393.658	86.75
393.882	83.75
394.107	97.75
394.331	90.75
394.556	73.75
394.78	102.75
395.005	94.75
395.229	79.75
395.454	87.75
395.678	98.75
395.903	86.75
396.127	88.75
396.352	88.75
396.576	102.75
396.801	98.75
397.025	97.75
397.249	83.75
397.474	91.75
397.698	91.75
397.922	78.75
398.147	86.75
398.371	95.75
398.595	99.75
398.82	93.75
399.044	87.75
399.268	79.75
399.492	88.75
399.717	81.75
399.941	100.75
400.165	101.75
400.389	86.75
400.613	94.75
400.837	74.75
401.062	105.75
401.286	97.75
401.51	89.75
401.734	97.75
401.958	112.75
402.182	144.75
402.406	187.75
402.63	138.75
402.854	112.75
403.078	98.75
403.302	98.75
403.526	96.75
403.75	82.75
403.974	85.75
404.198	97.75
404.422	97.75
404.645	94.75
404.869	105.75
405.093	134.75
405.317	157.75
405.541	141.75
405.765	125.75
405.988	132.75
406.212	187.75
406.436	274.75
406.66	205.75
406.883	125.75
407.107	114.75
407.331	103.75
407.555	119.75
407.778	110.75
408.002	93.75
408.226	94.75
408.449	110.75
408.673	92.75
408.896	90.75
409.12	96.75
409.344	96.75
409.567	82.75
409.791	82.75
410.014	83.75
410.238	87.75
410.461	94.75
410.685	99.75
410.908	97.75
411.132	110.75
411.355	106.75
411.578	96.75
411.802	96.75
412.025	112.75
412.249	112.75
412.472	142.75
412.695	159.75
412.919	122.75
413.142	113.75
413.365	99.75
413.589	78.75
413.812	96.75
414.035	98.75
414.258	91.75
414.482	96.75
414.705	99.75
414.928	88.75
415.151	101.75
415.374	108.75
415.597	90.75
415.821	101.75
416.044	90.75
416.267	96.75
416.49	96.75
416.713	95.75
416.936	100.75
417.159	109.75
417.382	104.75
417.605	137.75
417.828	120.75
418.051	110.75
418.274	120.75
418.497	92.75
418.72	114.75
418.943	87.75
419.166	98.75
419.389	90.75
419.611	97.75
419.834	77.75
420.057	113.75
420.28	100.75
420.503	97.75
420.726	99.75
420.948	106.75
421.171	107.75
421.394	110.75
421.617	103.75
421.839	96.75
422.062	110.75
422.285	104.75
422.507	107.75
422.73	112.75
422.953	84.75
423.175	89.75
423.398	94.75
423.621	94.75
423.843	84.75
424.066	90.75
424.288	99.75
424.511	109.75
424.733	104.75
424.956	122.75
425.178	93.75
425.401	106.75
425.623	113.75
425.846	100.75
426.068	120.75
426.291	102.75
426.513	94.75
426.735	107.75
426.958	106.75
427.18	135.75
427.402	160.75
427.625	257.75
427.847	260.75
428.069	235.75
428.292	136.75
428.514	91.75
428.736	91.75
428.958	83.75
429.181	81.75
429.403	102.75
429.625	97.75
429.847	99.75
430.069	130.75
430.292	104.75
430.514	95.75
430.736	105.75
430.958	96.75
431.18	70.75
431.402	87.75
431.624	97.75
431.846	84.75
432.068	95.75
432.29	104.75
432.512	90.75
432.734	85.75
432.956	87.75
433.178	100.75
433.4	101.75
433.622	98.75
433.844	90.75
434.066	94.75
434.287	100.75
434.509	97.75
434.731	95.75
434.953	94.75
435.175	85.75
435.397	109.75
435.618	95.75
435.84	99.75
436.062	117.75
436.284	127.75
436.505	97.75
436.727	93.75
436.949	85.75
437.17	89.75
437.392	94.75
437.614	97.75
437.835	117.75
438.057	137.75
438.278	136.75
438.5	110.75
438.721	144.75
438.943	112.75
439.165	95.75
439.386	93.75
439.608	85.75
439.829	98.75
440.05	153.75
440.272	169.75
440.493	114.75
440.715	100.75
440.936	85.75
441.158	81.75
441.379	85.75
441.6	101.75
441.822	101.75
442.043	105.75
442.264	129.75
442.486	98.75
442.707	102.75
442.928	110.75
443.149	182.75
443.371	181.75
443.592	128.75
443.813	133.75
444.034	112.75
444.255	105.75
444.476	90.75
444.698	82.75
444.919	89.75
445.14	138.75
445.361	122.75
445.582	134.75
445.803	180.75
446.024	169.75
446.245	155.75
446.466	119.75
446.687	104.75
446.908	91.75
447.129	93.75
447.35	94.75
447.571	92.75
447.792	112.75
448.013	119.75
448.234	131.75
448.455	119.75
448.675	116.75
448.896	133.75
449.117	105.75
449.338	111.75
449.559	149.75
449.779	136.75
450	101.75
450.221	91.75
450.442	97.75
450.662	85.75
450.883	130.75
451.104	159.75
451.324	111.75
451.545	104.75
451.766	103.75
451.986	89.75
452.207	95.75
452.428	99.75
452.648	101.75
452.869	124.75
453.089	127.75
453.31	147.75
453.53	122.75
453.751	109.75
453.971	118.75
454.192	146.75
454.412	107.75
454.633	89.75
454.853	85.75
455.073	93.75
455.294	90.75
455.514	107.75
455.734	118.75
455.955	93.75
456.175	82.75
456.395	89.75
456.616	85.75
456.836	83.75
457.056	90.75
457.276	96.75
457.497	96.75
457.717	103.75
457.937	94.75
458.157	90.75
458.377	115.75
458.598	127.75
458.818	210.75
459.038	225.75
459.258	153.75
459.478	98.75
459.698	84.75
459.918	88.75
460.138	96.75
460.358	82.75
460.578	89.75
460.798	93.75
461.018	92.75
461.238	85.75
461.458	94.75
461.678	86.75
461.898	93.75
462.118	89.75
462.338	86.75
462.558	95.75
462.777	103.75
462.997	120.75
463.217	157.75
463.437	122.75
463.657	91.75
463.876	97.75
464.096	106.75
464.316	110.75
464.536	93.75
464.755	99.75
464.975	128.75
465.195	246.75
465.414	248.75
465.634	116.75
465.854	95.75
466.073	94.75
466.293	99.75
466.512	94.75
466.732	88.75
466.951	107.75
467.171	114.75
467.391	134.75
467.61	192.75
467.829	359.75
468.049	1218.75
468.268	1941.75
468.488	405.75
468.707	140.75
468.927	107.75
469.146	104.75
469.365	94.75
469.585	88.75
469.804	124.75
470.023	98.75
470.243	114.75
470.462	123.75
470.681	162.75
470.901	127.75
471.12	125.75
471.339	120.75
471.558	141.75
471.777	222.75
471.997	531.75
472.216	2201.75
472.435	5302.75
472.654	1090.75
472.873	251.75
473.092	157.75
473.311	117.75
473.53	99.75
473.749	103.75
473.968	121.75
474.187	123.75
474.406	102.75
474.625	86.75
474.844	102.75
475.063	129.75
475.282	101.75
475.501	98.75
475.72	99.75
475.939	99.75
476.158	95.75
476.377	94.75
476.596	88.75
476.814	94.75
477.033	107.75
477.252	101.75
477.471	101.75
477.69	110.75
477.908	87.75
478.127	96.75
478.346	93.75
478.564	88.75
478.783	123.75
479.002	114.75
479.22	111.75
479.439	144.75
479.658	159.75
479.876	147.75
480.095	152.75
480.313	168.75
480.532	228.75
480.751	472.75
480.969	1857.75
481.188	8493.75
481.406	4748.75
481.624	619.75
481.843	203.75
482.061	152.75
482.28	118.75
482.498	107.75
482.717	112.75
482.935	100.75
483.153	102.75
483.372	100.75
483.59	96.75
483.808	80.75
484.027	101.75
484.245	87.75
484.463	104.75
484.681	102.75
484.9	105.75
485.118	105.75
485.336	96.75
485.554	101.75
485.772	115.75
485.99	111.75
486.209	119.75
486.427	119.75
486.645	121.75
486.863	134.75
487.081	121.75
487.299	79.75
487.517	111.75
487.735	97.75
487.953	93.75
488.171	97.75
488.389	109.75
488.607	96.75
488.825	88.75
489.043	97.75
489.261	79.75
489.479	104.75
489.696	103.75
489.914	93.75
490.132	84.75
490.35	102.75
490.568	97.75
490.786	97.75
491.003	95.75
491.221	92.75
491.439	112.75
491.657	109.75
491.874	94.75
492.092	90.75
492.31	95.75
492.527	103.75
492.745	104.75
492.963	110.75
493.18	93.75
493.398	102.75
493.615	115.75
493.833	94.75
494.05	79.75
494.268	85.75
494.485	88.75
494.703	89.75
494.92	93.75
495.138	101.75
495.355	102.75
495.573	111.75
495.79	91.75
496.008	85.75
496.225	100.75
496.442	87.75
496.66	90.75
496.877	105.75
497.094	108.75
497.312	91.75
497.529	111.75
497.746	89.75
497.963	107.75
498.181	101.75
498.398	108.75
498.615	123.75
498.832	112.75
499.049	100.75
499.267	93.75
499.484	78.75
499.701	108.75
499.918	108.75
500.135	105.75
500.352	80.75
500.569	107.75
500.786	110.75
501.003	86.75
501.22	99.75
501.437	95.75
501.654	91.75
501.871	119.75
502.088	118.75
502.305	95.75
502.522	84.75
502.739	96.75
502.956	104.75
503.172	93.75
503.389	111.75
503.606	128.75
503.823	117.75
504.04	88.75
504.256	89.75
504.473	83.75
504.69	93.75
504.907	106.75
505.123	97.75
505.34	87.75
505.557	91.75
505.773	100.75
505.99	99.75
506.207	101.75
506.423	84.75
506.64	94.75
506.856	102.75
507.073	87.75
507.289	89.75
507.506	119.75
507.722	140.75
507.939	141.75
508.155	95.75
508.372	86.75
508.588	87.75
508.805	104.75
509.021	100.75
509.238	98.75
509.454	105.75
509.67	100.75
509.887	121.75
510.103	138.75
510.319	258.75
510.536	931.75
510.752	3284.75
510.968	853.75
511.184	188.75
511.401	127.75
511.617	117.75
511.833	136.75
512.049	112.75
512.265	100.75
512.481	91.75
512.698	97.75
512.914	93.75
513.13	87.75
513.346	121.75
513.562	91.75
513.778	103.75
513.994	105.75
514.21	137.75
514.426	143.75
514.642	178.75
514.858	153.75
515.074	226.75
515.29	670.75
515.506	2417.75
515.721	906.75
515.937	222.75
516.153	127.75
516.369	119.75
516.585	114.75
516.801	117.75
517.016	102.75
517.232	96.75
517.448	97.75
517.664	97.75
517.879	108.75
518.095	88.75
518.311	137.75
518.527	137.75
518.742	103.75
518.958	102.75
519.173	100.75
519.389	91.75
519.605	119.75
519.82	88.75
520.036	110.75
520.251	161.75
520.467	130.75
520.682	127.75
520.898	133.75
521.113	144.75
521.329	181.75
521.544	290.75
521.76	899.75
521.975	4183.75
522.19	2421.75
522.406	499.75
522.621	150.75
522.836	109.75
523.052	106.75
523.267	101.75
523.482	102.75
523.698	110.75
523.913	144.75
524.128	117.75
524.343	104.75
524.559	95.75
524.774	93.75
524.989	90.75
525.204	117.75
525.419	97.75
525.634	95.75
525.849	107.75
526.064	82.75
526.28	98.75
526.495	117.75
526.71	81.75
526.925	89.75
527.14	91.75
527.355	97.75
527.57	95.75
527.785	73.75
527.999	88.75
528.214	91.75
528.429	91.75
528.644	114.75
528.859	96.75
529.074	98.75
529.289	147.75
529.503	259.75
529.718	119.75
529.933	89.75
530.148	95.75
530.363	101.75
530.577	87.75
530.792	100.75
531.007	85.75
531.221	90.75
531.436	78.75
531.651	95.75
531.865	103.75
532.08	86.75
532.295	96.75
532.509	91.75
532.724	98.75
532.938	95.75
533.153	97.75
533.367	74.75
533.582	103.75
533.796	89.75
534.011	96.75
534.225	94.75
534.44	81.75
534.654	96.75
534.868	86.75
535.083	115.75
535.297	101.75
535.511	120.75
535.726	120.75
535.94	99.75
536.154	110.75
536.369	95.75
536.583	97.75
536.797	110.75
537.011	95.75
537.225	89.75
537.44	93.75
537.654	91.75
537.868	86.75
538.082	91.75
538.296	84.75
538.51	89.75
538.724	83.75
538.938	87.75
539.153	101.75
539.367	119.75
539.581	79.75
539.795	104.75
540.009	91.75
540.222	97.75
540.436	89.75
540.65	87.75
540.864	80.75
541.078	95.75
541.292	101.75
541.506	82.75
541.72	93.75
541.934	81.75
542.147	95.75
542.361	92.75
542.575	93.75
542.789	97.75
543.002	100.75
543.216	103.75
543.43	112.75
543.644	91.75
543.857	87.75
544.071	90.75
544.285	95.75
544.498	95.75
544.712	98.75
544.925	87.75
545.139	98.75
545.352	86.75
545.566	86.75
545.779	95.75
545.993	92.75
546.206	66.75
546.42	90.75
546.633	86.75
546.847	96.75
547.06	94.75
547.274	95.75
547.487	87.75
547.7	82.75
547.914	83.75
548.127	82.75
548.34	88.75
548.554	82.75
548.767	92.75
548.98	87.75
549.193	95.75
549.407	104.75
549.62	94.75
549.833	82.75
550.046	82.75
550.259	99.75
550.473	89.75
550.686	84.75
550.899	103.75
551.112	90.75
551.325	99.75
551.538	122.75
551.751	124.75
551.964	88.75
552.177	93.75
552.39	90.75
552.603	81.75
552.816	108.75
553.029	87.75
553.242	96.75
553.455	107.75
553.667	133.75
553.88	130.75
554.093	102.75
554.306	157.75
554.519	168.75
554.732	113.75
554.944	110.75
555.157	92.75
555.37	107.75
555.583	95.75
555.795	86.75
556.008	88.75
556.221	87.75
556.433	95.75
556.646	96.75
556.859	96.75
557.071	86.75
557.284	91.75
557.496	79.75
557.709	86.75
557.921	82.75
558.134	89.75
558.346	112.75
558.559	79.75
558.771	94.75
558.984	95.75
559.196	104.75
559.409	99.75
559.621	94.75
559.833	96.75
560.046	114.75
560.258	151.75
560.47	204.75
560.683	126.75
560.895	96.75
561.107	97.75
561.32	94.75
561.532	99.75
561.744	88.75
561.956	98.75
562.168	97.75
562.381	98.75
562.593	93.75
562.805	90.75
563.017	99.75
563.229	89.75
563.441	77.75
563.653	74.75
563.865	74.75
564.077	89.75
564.289	89.75
564.501	85.75
564.713	100.75
564.925	95.75
565.137	107.75
565.349	108.75
565.561	93.75
565.773	80.75
565.985	95.75
566.197	90.75
566.408	81.75
566.62	83.75
566.832	74.75
567.044	79.75
567.255	91.75
567.467	83.75
567.679	92.75
567.891	85.75
568.102	90.75
568.314	107.75
568.526	93.75
568.737	89.75
568.949	81.75
569.161	98.75
569.372	79.75
569.584	79.75
569.795	96.75
570.007	141.75
570.218	298.75
570.43	145.75
570.641	103.75
570.853	93.75
571.064	87.75
571.276	97.75
571.487	88.75
571.698	100.75
571.91	95.75
572.121	96.75
572.333	91.75
572.544	85.75
572.755	73.75
572.966	84.75
573.178	100.75
573.389	78.75
573.6	84.75
573.811	98.75
574.023	90.75
574.234	105.75
574.445	87.75
574.656	90.75
574.867	82.75
575.078	91.75
575.289	88.75
575.501	98.75
575.712	83.75
575.923	90.75
576.134	89.75
576.345	84.75
576.556	103.75
576.767	92.75
576.978	98.75
577.188	100.75
577.399	95.75
577.61	99.75
577.821	108.75
578.032	118.75
578.243	317.75
578.454	961.75
578.665	237.75
578.875	113.75
579.086	88.75
579.297	83.75
579.508	82.75
579.718	89.75
579.929	91.75
580.14	103.75
580.35	98.75
580.561	89.75
580.772	78.75
580.982	88.75
581.193	102.75
581.403	95.75
581.614	95.75
581.825	95.75
582.035	90.75
582.246	87.75
582.456	88.75
582.667	91.75
582.877	100.75
583.087	91.75
583.298	85.75
583.508	86.75
583.719	87.75
583.929	87.75
584.139	87.75
584.35	103.75
584.56	93.75
584.77	91.75
584.981	95.75
585.191	89.75
585.401	102.75
585.611	74.75
585.821	96.75
586.032	96.75
586.242	82.75
586.452	97.75
586.662	81.75
586.872	91.75
587.082	98.75
587.292	99.75
587.502	83.75
587.713	79.75
587.923	79.75
588.133	84.75
588.343	98.75
588.553	79.75
588.762	102.75
588.972	111.75
589.182	241.75
589.392	141.75
589.602	130.75
589.812	163.75
590.022	108.75
590.232	86.75
590.441	86.75
590.651	93.75
590.861	89.75
591.071	86.75
591.281	81.75
591.49	74.75
591.7	73.75
591.91	94.75
592.119	75.75
592.329	83.75
592.539	100.75
592.748	104.75
592.958	80.75
593.167	82.75
593.377	88.75
593.587	99.75
593.796	96.75
594.006	91.75
594.215	99.75
594.424	73.75
594.634	84.75
594.843	95.75
595.053	81.75
595.262	89.75
595.472	99.75
595.681	103.75
595.89	77.75
596.1	84.75
596.309	84.75
596.518	89.75
596.727	90.75
596.937	91.75
597.146	97.75
597.355	101.75
597.564	86.75
597.774	93.75
597.983	85.75
598.192	83.75
598.401	93.75
598.61	90.75
598.819	88.75
599.028	93.75
599.237	94.75
599.446	80.75
599.655	90.75
599.864	89.75
600.073	87.75
600.282	82.75
600.491	88.75
600.7	77.75
600.909	89.75
601.118	93.75
601.327	85.75
601.536	97.75
601.745	87.75
601.953	85.75
602.162	107.75
602.371	79.75
602.58	95.75
602.789	90.75
602.997	89.75
603.206	78.75
603.415	91.75
603.623	87.75
603.832	96.75
604.041	78.75
604.249	77.75
604.458	79.75
604.666	83.75
604.875	77.75
605.084	92.75
605.292	88.75
605.501	89.75
605.709	85.75
605.918	97.75
606.126	86.75
606.334	85.75
606.543	88.75
606.751	100.75
606.96	82.75
607.168	95.75
607.376	88.75
607.585	89.75
607.793	86.75
608.001	99.75
608.21	95.75
608.418	86.75
608.626	90.75
608.834	85.75
609.043	96.75
609.251	80.75
609.459	79.75
609.667	84.75
609.875	97.75
610.083	89.75
610.291	99.75
610.499	117.75
610.707	79.75
610.916	89.75
611.124	90.75
611.332	88.75
611.54	93.75
611.748	95.75
611.955	78.75
612.163	89.75
612.371	85.75
612.579	83.75
612.787	81.75
612.995	87.75
613.203	74.75
613.411	87.75
613.618	94.75
613.826	102.75
614.034	89.75
614.242	95.75
614.449	91.75
614.657	100.75
614.865	76.75
615.072	83.75
615.28	88.75
615.488	102.75
615.695	85.75
615.903	91.75
616.111	95.75
616.318	99.75
616.526	86.75
616.733	93.75
616.941	91.75
617.148	97.75
617.356	87.75
617.563	101.75
617.771	87.75
617.978	87.75
618.185	81.75
618.393	74.75
618.6	89.75
618.807	85.75
619.015	90.75
619.222	85.75
619.429	91.75
619.637	81.75
619.844	95.75
620.051	82.75
620.258	84.75
620.466	97.75
620.673	85.75
620.88	97.75
621.087	81.75
621.294	97.75
621.501	78.75
621.708	73.75
621.915	93.75
622.122	86.75
622.329	89.75
622.536	83.75
622.743	80.75
622.95	91.75
623.157	101.75
623.364	89.75
623.571	83.75
623.778	82.75
623.985	88.75
624.192	91.75
624.399	90.75
624.606	95.75
624.812	81.75
625.019	101.75
625.226	82.75
625.433	79.75
625.639	91.75
625.846	94.75
626.053	96.75
626.259	99.75
626.466	80.75
626.673	93.75
626.879	79.75
627.086	87.75
627.293	81.75
627.499	87.75
627.706	86.75
627.912	87.75
628.119	107.75
628.325	83.75
628.532	94.75
628.738	102.75
628.945	92.75
629.151	88.75
629.357	83.75
629.564	86.75
629.77	89.75
629.976	100.75
630.183	99.75
630.389	78.75
630.595	86.75
630.802	95.75
631.008	78.75
631.214	75.75
631.42	89.75
631.627	92.75
631.833	89.75
632.039	74.75
632.245	90.75
632.451	87.75
632.657	87.75
632.863	75.75
633.069	81.75
633.275	101.75
633.481	98.75
633.688	95.75
633.893	87.75
634.099	85.75
634.305	99.75
634.511	94.75
634.717	89.75
634.923	95.75
635.129	95.75
635.335	86.75
635.541	102.75
635.747	110.75
635.952	127.75
636.158	215.75
636.364	792.75
636.57	666.75
636.775	215.75
636.981	121.75
637.187	100.75
637.392	108.75
637.598	95.75
637.804	91.75
638.009	82.75
638.215	90.75
638.421	82.75
638.626	74.75
638.832	90.75
639.037	93.75
639.243	79.75
639.448	91.75
639.654	91.75
639.859	91.75
640.065	94.75
640.27	94.75
640.475	75.75
640.681	79.75
640.886	86.75
641.091	78.75
641.297	100.75
641.502	78.75
641.707	90.75
641.913	83.75
642.118	90.75
642.323	81.75
642.528	86.75
642.733	84.75
642.939	99.75
643.144	83.75
643.349	78.75
643.554	95.75
643.759	89.75
643.964	72.75
644.169	104.75
644.374	77.75
644.579	66.75
644.784	95.75
644.989	101.75
645.194	86.75
645.399	86.75
645.604	92.75
645.809	102.75
646.014	98.75
646.219	84.75
646.423	83.75
646.628	82.75
646.833	87.75
647.038	97.75
647.243	94.75
647.447	86.75
647.652	88.75
647.857	85.75
648.062	90.75
648.266	87.75
648.471	97.75
648.676	90.75
648.88	96.75
649.085	91.75
649.289	91.75
649.494	105.75
649.698	125.75
649.903	98.75
650.107	77.75
650.312	84.75
650.516	85.75
650.721	74.75
650.925	77.75
651.13	78.75
651.334	85.75
651.539	79.75
651.743	82.75
651.947	93.75
652.152	88.75
652.356	90.75
652.56	85.75
652.764	79.75
652.969	92.75
653.173	82.75
653.377	81.75
653.581	75.75
653.785	86.75
653.99	89.75
654.194	91.75
654.398	90.75
654.602	84.75
654.806	99.75
655.01	90.75
655.214	84.75
655.418	86.75
655.622	100.75
655.826	89.75
656.03	98.75
656.234	106.75
656.438	112.75
656.642	109.75
656.846	89.75
657.049	78.75
657.253	79.75
657.457	87.75
657.661	88.75
657.865	83.75
658.068	71.75
658.272	90.75
658.476	91.75
658.68	80.75
658.883	85.75
659.087	94.75
659.291	83.75
659.494	81.75
659.698	92.75
659.901	86.75
660.105	88.75
660.309	89.75
660.512	82.75
660.716	75.75
660.919	88.75
661.123	81.75
661.326	67.75
661.53	74.75
661.733	81.75
661.936	96.75
662.14	82.75
662.343	81.75
662.546	80.75
662.75	79.75
662.953	83.75
663.156	80.75
663.36	75.75
663.563	82.75
663.766	83.75
663.969	74.75
664.173	95.75
664.376	94.75
664.579	81.75
664.782	107.75
664.985	87.75
665.188	69.75
665.391	81.75
665.594	70.75
665.797	72.75
666	87.75
666.203	72.75
666.406	89.75
666.609	101.75
666.812	76.75
667.015	73.75
667.218	75.75
667.421	93.75
667.624	85.75
667.827	83.75
668.03	94.75
668.232	85.75
668.435	79.75
668.638	85.75
668.841	60.75
669.043	78.75
669.246	69.75
669.449	85.75
669.651	91.75
669.854	89.75
670.057	86.75
670.259	95.75
670.462	77.75
670.665	92.75
670.867	81.75
671.07	86.75
671.272	88.75
671.475	87.75
671.677	74.75
671.88	97.75
672.082	83.75
672.284	97.75
672.487	80.75
672.689	72.75
672.892	83.75
