Data from Circ_1988_H10_HRD10591_00054.txt Node
Date: Wed Jan 03 12:05:45 EST 2024
User: Yrep
Spectrometer: HR+D1059
Trigger mode: 1
Integration Time (sec): 1.000000E-1
Scans to average: 1
Electric dark correction enabled: true
Nonlinearity correction enabled: false
Boxcar width: 0
XAxis mode: Wavelengths
Number of Pixels in Spectrum: 2048
>>>>>Begin Spectral Data<<<<<
223.165	-19.12
223.4	-19.12
223.635	-19.12
223.869	-30.12
224.104	-5.12
224.338	-10.12
224.573	-18.12
224.808	-15.12
225.042	-7.12
225.277	-12.12
225.511	-8.12
225.746	5.88
225.98	8.88
226.215	29.88
226.449	17.88
226.683	21.88
226.918	27.88
227.152	12.88
227.387	37.88
227.621	35.88
227.856	59.88
228.09	38.88
228.324	41.88
228.559	45.88
228.793	56.88
229.027	65.88
229.262	72.88
229.496	98.88
229.73	108.88
229.964	103.88
230.199	81.88
230.433	84.88
230.667	72.88
230.901	92.88
231.136	84.88
231.37	85.88
231.604	85.88
231.838	64.88
232.072	65.88
232.306	86.88
232.541	92.88
232.775	88.88
233.009	82.88
233.243	89.88
233.477	77.88
233.711	88.88
233.945	90.88
234.179	85.88
234.413	78.88
234.647	79.88
234.881	59.88
235.115	87.88
235.349	84.88
235.583	67.88
235.817	80.88
236.051	77.88
236.285	81.88
236.519	67.88
236.753	77.88
236.987	98.88
237.221	91.88
237.455	88.88
237.689	81.88
237.922	76.88
238.156	68.88
238.39	84.88
238.624	51.88
238.858	78.88
239.091	64.88
239.325	91.88
239.559	87.88
239.793	90.88
240.027	69.88
240.26	79.88
240.494	81.88
240.728	92.88
240.961	73.88
241.195	96.88
241.429	87.88
241.662	78.88
241.896	83.88
242.13	83.88
242.363	70.88
242.597	75.88
242.83	75.88
243.064	87.88
243.298	72.88
243.531	83.88
243.765	86.88
243.998	93.88
244.232	88.88
244.465	93.88
244.699	87.88
244.932	77.88
245.166	87.88
245.399	84.88
245.633	90.88
245.866	93.88
246.099	92.88
246.333	87.88
246.566	86.88
246.8	77.88
247.033	84.88
247.266	77.88
247.5	75.88
247.733	81.88
247.966	91.88
248.2	94.88
248.433	93.88
248.666	87.88
248.899	80.88
249.133	79.88
249.366	98.88
249.599	116.88
249.832	91.88
250.066	91.88
250.299	84.88
250.532	111.88
250.765	96.88
250.998	92.88
251.231	86.88
251.465	102.88
251.698	101.88
251.931	103.88
252.164	97.88
252.397	80.88
252.63	106.88
252.863	75.88
253.096	77.88
253.329	92.88
253.562	86.88
253.795	79.88
254.028	91.88
254.261	90.88
254.494	72.88
254.727	84.88
254.96	94.88
255.193	72.88
255.426	80.88
255.659	93.88
255.892	114.88
256.124	124.88
256.357	104.88
256.59	92.88
256.823	86.88
257.056	94.88
257.289	104.88
257.521	102.88
257.754	103.88
257.987	92.88
258.22	120.88
258.452	142.88
258.685	130.88
258.918	112.88
259.151	102.88
259.383	95.88
259.616	94.88
259.849	92.88
260.081	100.88
260.314	103.88
260.547	108.88
260.779	119.88
261.012	159.88
261.244	175.88
261.477	123.88
261.71	133.88
261.942	155.88
262.175	165.88
262.407	105.88
262.64	88.88
262.872	93.88
263.105	94.88
263.337	103.88
263.57	91.88
263.802	95.88
264.035	71.88
264.267	82.88
264.499	85.88
264.732	91.88
264.964	89.88
265.197	93.88
265.429	83.88
265.661	75.88
265.894	90.88
266.126	86.88
266.358	101.88
266.591	86.88
266.823	94.88
267.055	84.88
267.287	96.88
267.52	94.88
267.752	101.88
267.984	87.88
268.216	87.88
268.448	91.88
268.681	105.88
268.913	83.88
269.145	83.88
269.377	87.88
269.609	91.88
269.841	70.88
270.073	93.88
270.306	92.88
270.538	89.88
270.77	92.88
271.002	86.88
271.234	104.88
271.466	109.88
271.698	81.88
271.93	94.88
272.162	93.88
272.394	95.88
272.626	82.88
272.858	84.88
273.09	105.88
273.322	95.88
273.553	88.88
273.785	91.88
274.017	101.88
274.249	97.88
274.481	104.88
274.713	102.88
274.945	111.88
275.176	108.88
275.408	120.88
275.64	168.88
275.872	195.88
276.104	159.88
276.335	126.88
276.567	171.88
276.799	208.88
277.031	309.88
277.262	438.88
277.494	285.88
277.726	149.88
277.957	109.88
278.189	111.88
278.421	108.88
278.652	106.88
278.884	105.88
279.115	104.88
279.347	118.88
279.579	141.88
279.81	232.88
280.042	442.88
280.273	659.88
280.505	387.88
280.736	166.88
280.968	109.88
281.199	107.88
281.431	102.88
281.662	95.88
281.894	111.88
282.125	112.88
282.356	141.88
282.588	179.88
282.819	142.88
283.051	90.88
283.282	77.88
283.513	101.88
283.745	89.88
283.976	91.88
284.207	87.88
284.439	100.88
284.67	95.88
284.901	83.88
285.132	89.88
285.364	94.88
285.595	84.88
285.826	72.88
286.057	109.88
286.288	93.88
286.52	97.88
286.751	96.88
286.982	85.88
287.213	74.88
287.444	78.88
287.675	89.88
287.906	95.88
288.138	106.88
288.369	92.88
288.6	100.88
288.831	83.88
289.062	102.88
289.293	94.88
289.524	93.88
289.755	102.88
289.986	81.88
290.217	93.88
290.448	81.88
290.679	96.88
290.91	93.88
291.141	78.88
291.371	89.88
291.602	108.88
291.833	88.88
292.064	90.88
292.295	86.88
292.526	101.88
292.757	99.88
292.987	92.88
293.218	83.88
293.449	92.88
293.68	105.88
293.91	84.88
294.141	96.88
294.372	94.88
294.603	94.88
294.833	85.88
295.064	90.88
295.295	93.88
295.525	96.88
295.756	119.88
295.987	143.88
296.217	182.88
296.448	168.88
296.679	107.88
296.909	88.88
297.14	95.88
297.37	87.88
297.601	91.88
297.831	81.88
298.062	101.88
298.292	97.88
298.523	129.88
298.753	89.88
298.984	93.88
299.214	107.88
299.445	103.88
299.675	94.88
299.905	96.88
300.136	93.88
300.366	98.88
300.597	87.88
300.827	107.88
301.057	101.88
301.288	131.88
301.518	109.88
301.748	113.88
301.979	133.88
302.209	117.88
302.439	111.88
302.669	87.88
302.9	105.88
303.13	110.88
303.36	128.88
303.59	195.88
303.82	233.88
304.051	143.88
304.281	108.88
304.511	89.88
304.741	89.88
304.971	75.88
305.201	119.88
305.431	101.88
305.661	94.88
305.891	100.88
306.121	103.88
306.352	126.88
306.582	129.88
306.812	137.88
307.042	190.88
307.272	307.88
307.502	331.88
307.731	287.88
307.961	189.88
308.191	113.88
308.421	92.88
308.651	97.88
308.881	101.88
309.111	110.88
309.341	120.88
309.571	99.88
309.8	92.88
310.03	98.88
310.26	113.88
310.49	99.88
310.72	120.88
310.949	121.88
311.179	117.88
311.409	97.88
311.639	118.88
311.868	111.88
312.098	91.88
312.328	107.88
312.557	124.88
312.787	120.88
313.017	131.88
313.246	96.88
313.476	101.88
313.706	104.88
313.935	110.88
314.165	122.88
314.394	127.88
314.624	119.88
314.853	108.88
315.083	104.88
315.312	100.88
315.542	101.88
315.771	93.88
316.001	85.88
316.23	93.88
316.46	98.88
316.689	83.88
316.919	112.88
317.148	112.88
317.377	95.88
317.607	104.88
317.836	95.88
318.065	104.88
318.295	96.88
318.524	100.88
318.753	93.88
318.983	108.88
319.212	111.88
319.441	125.88
319.67	123.88
319.9	102.88
320.129	102.88
320.358	99.88
320.587	109.88
320.816	94.88
321.046	111.88
321.275	103.88
321.504	97.88
321.733	96.88
321.962	115.88
322.191	113.88
322.42	131.88
322.649	132.88
322.878	133.88
323.108	132.88
323.337	142.88
323.566	158.88
323.795	187.88
324.024	233.88
324.253	485.88
324.482	1004.88
324.71	1939.88
324.939	2653.88
325.168	1014.88
325.397	295.88
325.626	189.88
325.855	139.88
326.084	141.88
326.313	161.88
326.542	192.88
326.77	267.88
326.999	483.88
327.228	968.88
327.457	1767.88
327.686	1547.88
327.914	803.88
328.143	1069.88
328.372	1599.88
328.6	784.88
328.829	317.88
329.058	279.88
329.287	276.88
329.515	286.88
329.744	495.88
329.972	1081.88
330.201	2497.88
330.43	3665.88
330.658	1431.88
330.887	473.88
331.115	273.88
331.344	161.88
331.572	155.88
331.801	166.88
332.03	161.88
332.258	143.88
332.486	127.88
332.715	146.88
332.943	146.88
333.172	167.88
333.4	199.88
333.629	251.88
333.857	423.88
334.085	917.88
334.314	2111.88
334.542	4458.88
334.771	4062.88
334.999	947.88
335.227	303.88
335.455	188.88
335.684	154.88
335.912	134.88
336.14	116.88
336.369	124.88
336.597	126.88
336.825	124.88
337.053	112.88
337.281	108.88
337.51	100.88
337.738	103.88
337.966	112.88
338.194	105.88
338.422	118.88
338.65	95.88
338.878	103.88
339.106	84.88
339.334	97.88
339.562	81.88
339.79	95.88
340.018	107.88
340.246	101.88
340.474	105.88
340.702	95.88
340.93	107.88
341.158	104.88
341.386	104.88
341.614	116.88
341.842	113.88
342.07	103.88
342.298	95.88
342.526	100.88
342.754	85.88
342.981	99.88
343.209	95.88
343.437	99.88
343.665	87.88
343.893	92.88
344.12	99.88
344.348	98.88
344.576	89.88
344.804	87.88
345.031	103.88
345.259	111.88
345.487	113.88
345.714	102.88
345.942	93.88
346.17	108.88
346.397	101.88
346.625	102.88
346.853	107.88
347.08	97.88
347.308	95.88
347.535	103.88
347.763	114.88
347.99	111.88
348.218	127.88
348.445	111.88
348.673	114.88
348.9	103.88
349.128	91.88
349.355	99.88
349.583	95.88
349.81	94.88
350.037	88.88
350.265	88.88
350.492	93.88
350.72	111.88
350.947	115.88
351.174	121.88
351.402	123.88
351.629	114.88
351.856	112.88
352.083	126.88
352.311	111.88
352.538	126.88
352.765	126.88
352.992	125.88
353.22	110.88
353.447	113.88
353.674	122.88
353.901	75.88
354.128	99.88
354.355	99.88
354.583	108.88
354.81	95.88
355.037	78.88
355.264	99.88
355.491	99.88
355.718	94.88
355.945	94.88
356.172	93.88
356.399	73.88
356.626	84.88
356.853	95.88
357.08	99.88
357.307	113.88
357.534	87.88
357.761	97.88
357.988	95.88
358.215	91.88
358.441	90.88
358.668	101.88
358.895	104.88
359.122	97.88
359.349	96.88
359.576	101.88
359.802	129.88
360.029	153.88
360.256	149.88
360.483	122.88
360.709	88.88
360.936	101.88
361.163	99.88
361.39	108.88
361.616	108.88
361.843	94.88
362.07	104.88
362.296	117.88
362.523	103.88
362.749	96.88
362.976	94.88
363.203	94.88
363.429	94.88
363.656	87.88
363.882	88.88
364.109	95.88
364.335	90.88
364.562	91.88
364.788	81.88
365.015	109.88
365.241	113.88
365.468	130.88
365.694	124.88
365.92	117.88
366.147	95.88
366.373	88.88
366.599	100.88
366.826	91.88
367.052	89.88
367.278	82.88
367.505	84.88
367.731	93.88
367.957	89.88
368.184	96.88
368.41	112.88
368.636	141.88
368.862	146.88
369.089	129.88
369.315	103.88
369.541	91.88
369.767	85.88
369.993	86.88
370.219	113.88
370.445	89.88
370.672	84.88
370.898	94.88
371.124	92.88
371.35	71.88
371.576	99.88
371.802	81.88
372.028	88.88
372.254	105.88
372.48	87.88
372.706	76.88
372.932	96.88
373.158	102.88
373.384	94.88
373.61	104.88
373.835	75.88
374.061	88.88
374.287	92.88
374.513	100.88
374.739	100.88
374.965	88.88
375.191	96.88
375.416	84.88
375.642	85.88
375.868	88.88
376.094	85.88
376.319	94.88
376.545	89.88
376.771	84.88
376.997	99.88
377.222	96.88
377.448	91.88
377.674	105.88
377.899	89.88
378.125	89.88
378.35	83.88
378.576	83.88
378.802	82.88
379.027	89.88
379.253	99.88
379.478	77.88
379.704	95.88
379.929	107.88
380.155	95.88
380.38	89.88
380.606	96.88
380.831	93.88
381.057	104.88
381.282	99.88
381.507	99.88
381.733	100.88
381.958	98.88
382.184	92.88
382.409	103.88
382.634	127.88
382.86	101.88
383.085	103.88
383.31	105.88
383.535	91.88
383.761	95.88
383.986	113.88
384.211	107.88
384.436	101.88
384.662	109.88
384.887	114.88
385.112	100.88
385.337	105.88
385.562	112.88
385.787	109.88
386.013	126.88
386.238	125.88
386.463	113.88
386.688	134.88
386.913	121.88
387.138	125.88
387.363	116.88
387.588	88.88
387.813	99.88
388.038	112.88
388.263	112.88
388.488	114.88
388.713	84.88
388.938	83.88
389.163	81.88
389.387	99.88
389.612	89.88
389.837	90.88
390.062	86.88
390.287	98.88
390.512	84.88
390.736	86.88
390.961	84.88
391.186	111.88
391.411	96.88
391.636	94.88
391.86	72.88
392.085	89.88
392.31	71.88
392.534	70.88
392.759	98.88
392.984	86.88
393.208	87.88
393.433	105.88
393.658	88.88
393.882	84.88
394.107	81.88
394.331	88.88
394.556	85.88
394.78	99.88
395.005	96.88
395.229	88.88
395.454	86.88
395.678	81.88
395.903	82.88
396.127	85.88
396.352	85.88
396.576	81.88
396.801	94.88
397.025	96.88
397.249	87.88
397.474	97.88
397.698	95.88
397.922	73.88
398.147	79.88
398.371	87.88
398.595	83.88
398.82	69.88
399.044	75.88
399.268	86.88
399.492	68.88
399.717	101.88
399.941	97.88
400.165	97.88
400.389	99.88
400.613	93.88
400.837	85.88
401.062	91.88
401.286	82.88
401.51	93.88
401.734	96.88
401.958	117.88
402.182	157.88
402.406	211.88
402.63	166.88
402.854	115.88
403.078	83.88
403.302	100.88
403.526	85.88
403.75	96.88
403.974	83.88
404.198	82.88
404.422	101.88
404.645	105.88
404.869	120.88
405.093	139.88
405.317	187.88
405.541	179.88
405.765	134.88
405.988	153.88
406.212	217.88
406.436	327.88
406.66	220.88
406.883	129.88
407.107	115.88
407.331	104.88
407.555	110.88
407.778	101.88
408.002	91.88
408.226	103.88
408.449	115.88
408.673	87.88
408.896	99.88
409.12	113.88
409.344	95.88
409.567	87.88
409.791	85.88
410.014	103.88
410.238	91.88
410.461	103.88
410.685	105.88
410.908	104.88
411.132	104.88
411.355	108.88
411.578	93.88
411.802	92.88
412.025	108.88
412.249	86.88
412.472	132.88
412.695	184.88
412.919	146.88
413.142	101.88
413.365	100.88
413.589	96.88
413.812	98.88
414.035	99.88
414.258	107.88
414.482	110.88
414.705	99.88
414.928	82.88
415.151	76.88
415.374	97.88
415.597	98.88
415.821	99.88
416.044	95.88
416.267	88.88
416.49	69.88
416.713	105.88
416.936	109.88
417.159	104.88
417.382	109.88
417.605	141.88
417.828	140.88
418.051	104.88
418.274	92.88
418.497	93.88
418.72	95.88
418.943	84.88
419.166	88.88
419.389	79.88
419.611	102.88
419.834	95.88
420.057	103.88
420.28	111.88
420.503	96.88
420.726	97.88
420.948	104.88
421.171	131.88
421.394	112.88
421.617	83.88
421.839	73.88
422.062	100.88
422.285	93.88
422.507	108.88
422.73	96.88
422.953	113.88
423.175	81.88
423.398	71.88
423.621	83.88
423.843	84.88
424.066	77.88
424.288	70.88
424.511	105.88
424.733	113.88
424.956	125.88
425.178	111.88
425.401	103.88
425.623	133.88
425.846	87.88
426.068	108.88
426.291	109.88
426.513	103.88
426.735	110.88
426.958	113.88
427.18	127.88
427.402	187.88
427.625	313.88
427.847	299.88
428.069	264.88
428.292	157.88
428.514	113.88
428.736	104.88
428.958	89.88
429.181	108.88
429.403	87.88
429.625	90.88
429.847	95.88
430.069	116.88
430.292	96.88
430.514	95.88
430.736	87.88
430.958	92.88
431.18	72.88
431.402	87.88
431.624	84.88
431.846	99.88
432.068	88.88
432.29	92.88
432.512	77.88
432.734	85.88
432.956	93.88
433.178	88.88
433.4	94.88
433.622	108.88
433.844	92.88
434.066	85.88
434.287	91.88
434.509	93.88
434.731	95.88
434.953	99.88
435.175	88.88
435.397	85.88
435.618	83.88
435.84	99.88
436.062	125.88
436.284	127.88
436.505	104.88
436.727	110.88
436.949	103.88
437.17	90.88
437.392	91.88
437.614	102.88
437.835	121.88
438.057	156.88
438.278	122.88
438.5	120.88
438.721	139.88
438.943	112.88
439.165	97.88
439.386	85.88
439.608	107.88
439.829	118.88
440.05	165.88
440.272	206.88
440.493	120.88
440.715	96.88
440.936	102.88
441.158	96.88
441.379	99.88
441.6	95.88
441.822	116.88
442.043	105.88
442.264	131.88
442.486	112.88
442.707	125.88
442.928	125.88
443.149	206.88
443.371	187.88
443.592	139.88
443.813	125.88
444.034	119.88
444.255	91.88
444.476	86.88
444.698	98.88
444.919	87.88
445.14	143.88
445.361	151.88
445.582	127.88
445.803	204.88
446.024	187.88
446.245	171.88
446.466	121.88
446.687	101.88
446.908	86.88
447.129	93.88
447.35	87.88
447.571	101.88
447.792	107.88
448.013	108.88
448.234	140.88
448.455	116.88
448.675	121.88
448.896	134.88
449.117	106.88
449.338	113.88
449.559	149.88
449.779	135.88
450	103.88
450.221	108.88
450.442	99.88
450.662	104.88
450.883	140.88
451.104	159.88
451.324	115.88
451.545	91.88
451.766	97.88
451.986	102.88
452.207	104.88
452.428	96.88
452.648	103.88
452.869	133.88
453.089	151.88
453.31	159.88
453.53	95.88
453.751	110.88
453.971	135.88
454.192	145.88
454.412	105.88
454.633	87.88
454.853	79.88
455.073	92.88
455.294	103.88
455.514	118.88
455.734	86.88
455.955	91.88
456.175	95.88
456.395	98.88
456.616	83.88
456.836	90.88
457.056	99.88
457.276	95.88
457.497	95.88
457.717	89.88
457.937	95.88
458.157	89.88
458.377	113.88
458.598	162.88
458.818	255.88
459.038	262.88
459.258	155.88
459.478	101.88
459.698	96.88
459.918	95.88
460.138	79.88
460.358	91.88
460.578	94.88
460.798	115.88
461.018	79.88
461.238	97.88
461.458	94.88
461.678	97.88
461.898	87.88
462.118	76.88
462.338	92.88
462.558	79.88
462.777	95.88
462.997	124.88
463.217	158.88
463.437	127.88
463.657	113.88
463.876	106.88
464.096	97.88
464.316	102.88
464.536	111.88
464.755	125.88
464.975	133.88
465.195	276.88
465.414	278.88
465.634	121.88
465.854	117.88
466.073	101.88
466.293	98.88
466.512	89.88
466.732	96.88
466.951	96.88
467.171	121.88
467.391	152.88
467.61	212.88
467.829	409.88
468.049	1458.88
468.268	2356.88
468.488	489.88
468.707	164.88
468.927	97.88
469.146	93.88
469.365	111.88
469.585	105.88
469.804	132.88
470.023	111.88
470.243	118.88
470.462	141.88
470.681	170.88
470.901	128.88
471.12	130.88
471.339	120.88
471.558	167.88
471.777	260.88
471.997	605.88
472.216	2668.88
472.435	6315.88
472.654	1325.88
472.873	298.88
473.092	143.88
473.311	125.88
473.53	130.88
473.749	109.88
473.968	124.88
474.187	124.88
474.406	113.88
474.625	98.88
474.844	83.88
475.063	93.88
475.282	111.88
475.501	91.88
475.72	97.88
475.939	86.88
476.158	87.88
476.377	97.88
476.596	109.88
476.814	116.88
477.033	118.88
477.252	106.88
477.471	99.88
477.69	108.88
477.908	106.88
478.127	108.88
478.346	105.88
478.564	112.88
478.783	153.88
479.002	126.88
479.22	111.88
479.439	162.88
479.658	172.88
479.876	143.88
480.095	171.88
480.313	174.88
480.532	254.88
480.751	531.88
480.969	2275.88
481.188	10127.88
481.406	5692.88
481.624	729.88
481.843	205.88
482.061	141.88
482.28	138.88
482.498	117.88
482.717	109.88
482.935	100.88
483.153	105.88
483.372	105.88
483.59	111.88
483.808	93.88
484.027	85.88
484.245	94.88
484.463	102.88
484.681	104.88
484.9	101.88
485.118	113.88
485.336	108.88
485.554	108.88
485.772	122.88
485.99	115.88
486.209	113.88
486.427	120.88
486.645	142.88
486.863	143.88
487.081	115.88
487.299	102.88
487.517	119.88
487.735	101.88
487.953	112.88
488.171	100.88
488.389	108.88
488.607	127.88
488.825	114.88
489.043	92.88
489.261	102.88
489.479	104.88
489.696	102.88
489.914	96.88
490.132	100.88
490.35	105.88
490.568	91.88
490.786	88.88
491.003	92.88
491.221	92.88
491.439	108.88
491.657	94.88
491.874	95.88
492.092	106.88
492.31	104.88
492.527	127.88
492.745	109.88
492.963	104.88
493.18	92.88
493.398	100.88
493.615	114.88
493.833	108.88
494.05	81.88
494.268	91.88
494.485	97.88
494.703	84.88
494.92	82.88
495.138	91.88
495.355	107.88
495.573	89.88
495.79	83.88
496.008	95.88
496.225	100.88
496.442	93.88
496.66	94.88
496.877	91.88
497.094	81.88
497.312	93.88
497.529	87.88
497.746	92.88
497.963	88.88
498.181	104.88
498.398	107.88
498.615	128.88
498.832	107.88
499.049	91.88
499.267	99.88
499.484	106.88
499.701	84.88
499.918	85.88
500.135	89.88
500.352	91.88
500.569	109.88
500.786	123.88
501.003	94.88
501.22	116.88
501.437	92.88
501.654	91.88
501.871	148.88
502.088	98.88
502.305	86.88
502.522	84.88
502.739	108.88
502.956	91.88
503.172	107.88
503.389	107.88
503.606	139.88
503.823	106.88
504.04	102.88
504.256	93.88
504.473	85.88
504.69	110.88
504.907	92.88
505.123	101.88
505.34	79.88
505.557	94.88
505.773	83.88
505.99	105.88
506.207	94.88
506.423	96.88
506.64	71.88
506.856	87.88
507.073	95.88
507.289	94.88
507.506	115.88
507.722	139.88
507.939	141.88
508.155	125.88
508.372	88.88
508.588	95.88
508.805	101.88
509.021	116.88
509.238	111.88
509.454	99.88
509.67	110.88
509.887	103.88
510.103	148.88
510.319	263.88
510.536	1044.88
510.752	3760.88
510.968	979.88
511.184	209.88
511.401	141.88
511.617	129.88
511.833	148.88
512.049	113.88
512.265	93.88
512.481	87.88
512.698	96.88
512.914	102.88
513.13	105.88
513.346	96.88
513.562	97.88
513.778	112.88
513.994	128.88
514.21	135.88
514.426	155.88
514.642	199.88
514.858	188.88
515.074	255.88
515.29	839.88
515.506	2961.88
515.721	1028.88
515.937	235.88
516.153	163.88
516.369	117.88
516.585	128.88
516.801	126.88
517.016	110.88
517.232	108.88
517.448	102.88
517.664	79.88
517.879	109.88
518.095	101.88
518.311	138.88
518.527	142.88
518.742	108.88
518.958	92.88
519.173	108.88
519.389	115.88
519.605	100.88
519.82	118.88
520.036	112.88
520.251	178.88
520.467	149.88
520.682	143.88
520.898	123.88
521.113	162.88
521.329	217.88
521.544	373.88
521.76	1106.88
521.975	5059.88
522.19	2920.88
522.406	574.88
522.621	197.88
522.836	132.88
523.052	115.88
523.267	102.88
523.482	112.88
523.698	124.88
523.913	155.88
524.128	126.88
524.343	109.88
524.559	115.88
524.774	101.88
524.989	108.88
525.204	130.88
525.419	96.88
525.634	89.88
525.849	87.88
526.064	88.88
526.28	96.88
526.495	96.88
526.71	97.88
526.925	102.88
527.14	95.88
527.355	88.88
527.57	98.88
527.785	95.88
527.999	91.88
528.214	91.88
528.429	99.88
528.644	104.88
528.859	83.88
529.074	105.88
529.289	161.88
529.503	308.88
529.718	144.88
529.933	109.88
530.148	107.88
530.363	97.88
530.577	98.88
530.792	98.88
531.007	88.88
531.221	99.88
531.436	97.88
531.651	96.88
531.865	96.88
532.08	100.88
532.295	108.88
532.509	91.88
532.724	110.88
532.938	109.88
533.153	103.88
533.367	81.88
533.582	98.88
533.796	101.88
534.011	105.88
534.225	112.88
534.44	96.88
534.654	101.88
534.868	85.88
535.083	81.88
535.297	116.88
535.511	126.88
535.726	117.88
535.94	109.88
536.154	101.88
536.369	107.88
536.583	91.88
536.797	97.88
537.011	102.88
537.225	90.88
537.44	112.88
537.654	97.88
537.868	91.88
538.082	86.88
538.296	93.88
538.51	91.88
538.724	80.88
538.938	86.88
539.153	105.88
539.367	120.88
539.581	104.88
539.795	85.88
540.009	84.88
540.222	100.88
540.436	74.88
540.65	89.88
540.864	102.88
541.078	95.88
541.292	101.88
541.506	99.88
541.72	91.88
541.934	94.88
542.147	86.88
542.361	82.88
542.575	98.88
542.789	100.88
543.002	99.88
543.216	102.88
543.43	93.88
543.644	109.88
543.857	105.88
544.071	83.88
544.285	88.88
544.498	93.88
544.712	88.88
544.925	107.88
545.139	95.88
545.352	84.88
545.566	88.88
545.779	101.88
545.993	90.88
546.206	89.88
546.42	94.88
546.633	104.88
546.847	101.88
547.06	110.88
547.274	85.88
547.487	101.88
547.7	98.88
547.914	92.88
548.127	80.88
548.34	88.88
548.554	84.88
548.767	88.88
548.98	100.88
549.193	102.88
549.407	105.88
549.62	87.88
549.833	102.88
550.046	100.88
550.259	95.88
550.473	92.88
550.686	102.88
550.899	107.88
551.112	102.88
551.325	103.88
551.538	121.88
551.751	94.88
551.964	86.88
552.177	101.88
552.39	98.88
552.603	85.88
552.816	90.88
553.029	101.88
553.242	109.88
553.455	107.88
553.667	120.88
553.88	127.88
554.093	121.88
554.306	164.88
554.519	171.88
554.732	123.88
554.944	106.88
555.157	107.88
555.37	81.88
555.583	95.88
555.795	95.88
556.008	85.88
556.221	84.88
556.433	93.88
556.646	89.88
556.859	91.88
557.071	88.88
557.284	87.88
557.496	99.88
557.709	100.88
557.921	100.88
558.134	95.88
558.346	99.88
558.559	103.88
558.771	86.88
558.984	97.88
559.196	93.88
559.409	91.88
559.621	100.88
559.833	100.88
560.046	119.88
560.258	153.88
560.47	233.88
560.683	150.88
560.895	89.88
561.107	96.88
561.32	81.88
561.532	105.88
561.744	95.88
561.956	86.88
562.168	91.88
562.381	94.88
562.593	98.88
562.805	88.88
563.017	88.88
563.229	88.88
563.441	89.88
563.653	89.88
563.865	102.88
564.077	94.88
564.289	68.88
564.501	84.88
564.713	92.88
564.925	108.88
565.137	116.88
565.349	103.88
565.561	91.88
565.773	76.88
565.985	96.88
566.197	78.88
566.408	86.88
566.62	79.88
566.832	87.88
567.044	78.88
567.255	83.88
567.467	80.88
567.679	80.88
567.891	94.88
568.102	72.88
568.314	89.88
568.526	86.88
568.737	93.88
568.949	74.88
569.161	91.88
569.372	84.88
569.584	110.88
569.795	97.88
570.007	129.88
570.218	350.88
570.43	175.88
570.641	93.88
570.853	79.88
571.064	95.88
571.276	87.88
571.487	92.88
571.698	86.88
571.91	87.88
572.121	89.88
572.333	78.88
572.544	96.88
572.755	107.88
572.966	88.88
573.178	97.88
573.389	97.88
573.6	83.88
573.811	102.88
574.023	88.88
574.234	91.88
574.445	86.88
574.656	111.88
574.867	94.88
575.078	102.88
575.289	83.88
575.501	77.88
575.712	85.88
575.923	76.88
576.134	77.88
576.345	73.88
576.556	95.88
576.767	111.88
576.978	93.88
577.188	97.88
577.399	97.88
577.61	97.88
577.821	108.88
578.032	139.88
578.243	352.88
578.454	1112.88
578.665	268.88
578.875	121.88
579.086	83.88
579.297	92.88
579.508	108.88
579.718	96.88
579.929	84.88
580.14	89.88
580.35	102.88
580.561	81.88
580.772	86.88
580.982	78.88
581.193	99.88
581.403	82.88
581.614	95.88
581.825	81.88
582.035	86.88
582.246	87.88
582.456	91.88
582.667	87.88
582.877	92.88
583.087	83.88
583.298	96.88
583.508	94.88
583.719	83.88
583.929	83.88
584.139	97.88
584.35	79.88
584.56	87.88
584.77	94.88
584.981	92.88
585.191	100.88
585.401	79.88
585.611	92.88
585.821	93.88
586.032	99.88
586.242	81.88
586.452	91.88
586.662	90.88
586.872	86.88
587.082	89.88
587.292	83.88
587.502	81.88
587.713	79.88
587.923	87.88
588.133	86.88
588.343	91.88
588.553	92.88
588.762	90.88
588.972	97.88
589.182	187.88
589.392	115.88
589.602	113.88
589.812	146.88
590.022	107.88
590.232	86.88
590.441	88.88
590.651	82.88
590.861	87.88
591.071	89.88
591.281	98.88
591.49	92.88
591.7	100.88
591.91	96.88
592.119	82.88
592.329	91.88
592.539	86.88
592.748	81.88
592.958	87.88
593.167	85.88
593.377	88.88
593.587	95.88
593.796	87.88
594.006	82.88
594.215	85.88
594.424	80.88
594.634	80.88
594.843	88.88
595.053	77.88
595.262	85.88
595.472	85.88
595.681	94.88
595.89	100.88
596.1	78.88
596.309	93.88
596.518	85.88
596.727	83.88
596.937	103.88
597.146	87.88
597.355	79.88
597.564	82.88
597.774	75.88
597.983	85.88
598.192	82.88
598.401	101.88
598.61	90.88
598.819	91.88
599.028	80.88
599.237	93.88
599.446	98.88
599.655	84.88
599.864	99.88
600.073	86.88
600.282	100.88
600.491	87.88
600.7	86.88
600.909	113.88
601.118	98.88
601.327	88.88
601.536	83.88
601.745	100.88
601.953	93.88
602.162	94.88
602.371	88.88
602.58	80.88
602.789	85.88
602.997	84.88
603.206	89.88
603.415	83.88
603.623	99.88
603.832	96.88
604.041	99.88
604.249	87.88
604.458	91.88
604.666	100.88
604.875	92.88
605.084	86.88
605.292	91.88
605.501	79.88
605.709	99.88
605.918	83.88
606.126	93.88
606.334	93.88
606.543	93.88
606.751	100.88
606.96	76.88
607.168	81.88
607.376	109.88
607.585	95.88
607.793	88.88
608.001	82.88
608.21	81.88
608.418	91.88
608.626	89.88
608.834	75.88
609.043	76.88
609.251	78.88
609.459	88.88
609.667	80.88
609.875	79.88
610.083	81.88
610.291	83.88
610.499	88.88
610.707	83.88
610.916	73.88
611.124	83.88
611.332	71.88
611.54	61.88
611.748	90.88
611.955	91.88
612.163	77.88
612.371	83.88
612.579	93.88
612.787	85.88
612.995	79.88
613.203	85.88
613.411	95.88
613.618	85.88
613.826	85.88
614.034	86.88
614.242	96.88
614.449	91.88
614.657	87.88
614.865	99.88
615.072	95.88
615.28	103.88
615.488	93.88
615.695	98.88
615.903	92.88
616.111	97.88
616.318	96.88
616.526	93.88
616.733	75.88
616.941	84.88
617.148	82.88
617.356	96.88
617.563	91.88
617.771	90.88
617.978	86.88
618.185	97.88
618.393	78.88
618.6	84.88
618.807	85.88
619.015	71.88
619.222	75.88
619.429	87.88
619.637	84.88
619.844	82.88
620.051	88.88
620.258	77.88
620.466	74.88
620.673	95.88
620.88	91.88
621.087	89.88
621.294	96.88
621.501	97.88
621.708	82.88
621.915	94.88
622.122	71.88
622.329	85.88
622.536	76.88
622.743	83.88
622.95	88.88
623.157	98.88
623.364	88.88
623.571	77.88
623.778	83.88
623.985	88.88
624.192	83.88
624.399	82.88
624.606	91.88
624.812	79.88
625.019	81.88
625.226	78.88
625.433	88.88
625.639	77.88
625.846	96.88
626.053	78.88
626.259	83.88
626.466	94.88
626.673	84.88
626.879	86.88
627.086	73.88
627.293	93.88
627.499	85.88
627.706	82.88
627.912	79.88
628.119	85.88
628.325	86.88
628.532	72.88
628.738	88.88
628.945	86.88
629.151	70.88
629.357	84.88
629.564	79.88
629.77	86.88
629.976	87.88
630.183	92.88
630.389	95.88
630.595	82.88
630.802	88.88
631.008	79.88
631.214	99.88
631.42	71.88
631.627	89.88
631.833	73.88
632.039	87.88
632.245	87.88
632.451	87.88
632.657	89.88
632.863	65.88
633.069	75.88
633.275	86.88
633.481	96.88
633.688	79.88
633.893	86.88
634.099	88.88
634.305	92.88
634.511	94.88
634.717	94.88
634.923	99.88
635.129	79.88
635.335	89.88
635.541	96.88
635.747	114.88
635.952	152.88
636.158	237.88
636.364	965.88
636.57	819.88
636.775	255.88
636.981	143.88
637.187	110.88
637.392	92.88
637.598	99.88
637.804	85.88
638.009	87.88
638.215	88.88
638.421	91.88
638.626	82.88
638.832	95.88
639.037	99.88
639.243	78.88
639.448	88.88
639.654	82.88
639.859	78.88
640.065	79.88
640.27	81.88
640.475	83.88
640.681	90.88
640.886	86.88
641.091	95.88
641.297	85.88
641.502	96.88
641.707	90.88
641.913	94.88
642.118	79.88
642.323	81.88
642.528	73.88
642.733	87.88
642.939	87.88
643.144	77.88
643.349	82.88
643.554	78.88
643.759	78.88
643.964	87.88
644.169	108.88
644.374	75.88
644.579	80.88
644.784	85.88
644.989	84.88
645.194	76.88
645.399	82.88
645.604	84.88
645.809	90.88
646.014	87.88
646.219	80.88
646.423	80.88
646.628	73.88
646.833	76.88
647.038	88.88
647.243	92.88
647.447	89.88
647.652	82.88
647.857	90.88
648.062	83.88
648.266	93.88
648.471	95.88
648.676	88.88
648.88	87.88
649.085	80.88
649.289	69.88
649.494	110.88
649.698	135.88
649.903	102.88
650.107	95.88
650.312	70.88
650.516	89.88
650.721	83.88
650.925	89.88
651.13	94.88
651.334	78.88
651.539	75.88
651.743	90.88
651.947	96.88
652.152	91.88
652.356	81.88
652.56	91.88
652.764	81.88
652.969	70.88
653.173	80.88
653.377	78.88
653.581	92.88
653.785	85.88
653.99	75.88
654.194	92.88
654.398	84.88
654.602	71.88
654.806	89.88
655.01	100.88
655.214	86.88
655.418	79.88
655.622	88.88
655.826	84.88
656.03	83.88
656.234	89.88
656.438	112.88
656.642	97.88
656.846	94.88
657.049	94.88
657.253	80.88
657.457	86.88
657.661	72.88
657.865	89.88
658.068	80.88
658.272	72.88
658.476	72.88
658.68	80.88
658.883	79.88
659.087	77.88
659.291	82.88
659.494	76.88
659.698	60.88
659.901	69.88
660.105	78.88
660.309	79.88
660.512	88.88
660.716	94.88
660.919	87.88
661.123	69.88
661.326	75.88
661.53	83.88
661.733	104.88
661.936	81.88
662.14	83.88
662.343	79.88
662.546	83.88
662.75	73.88
662.953	99.88
663.156	81.88
663.36	79.88
663.563	94.88
663.766	83.88
663.969	89.88
664.173	79.88
664.376	94.88
664.579	80.88
664.782	94.88
664.985	87.88
665.188	69.88
665.391	85.88
665.594	84.88
665.797	75.88
666	80.88
666.203	73.88
666.406	62.88
666.609	75.88
666.812	83.88
667.015	72.88
667.218	87.88
667.421	73.88
667.624	83.88
667.827	77.88
668.03	88.88
668.232	87.88
668.435	75.88
668.638	85.88
668.841	73.88
669.043	61.88
669.246	68.88
669.449	88.88
669.651	77.88
669.854	84.88
670.057	86.88
670.259	79.88
670.462	77.88
670.665	79.88
670.867	70.88
671.07	77.88
671.272	86.88
671.475	79.88
671.677	77.88
671.88	79.88
672.082	67.88
672.284	94.88
672.487	79.88
672.689	77.88
672.892	81.88
