Data from Circ_1988_H10_HRD10591_00019.txt Node
Date: Wed Jan 03 12:05:38 EST 2024
User: Yrep
Spectrometer: HR+D1059
Trigger mode: 1
Integration Time (sec): 1.000000E-1
Scans to average: 1
Electric dark correction enabled: true
Nonlinearity correction enabled: false
Boxcar width: 0
XAxis mode: Wavelengths
Number of Pixels in Spectrum: 2048
>>>>>Begin Spectral Data<<<<<
223.165	-25.5
223.4	-25.5
223.635	-25.5
223.869	-24.5
224.104	-7.5
224.338	-9.5
224.573	-13.5
224.808	-10.5
225.042	-19.5
225.277	3.5
225.511	-6.5
225.746	15.5
225.98	1.5
226.215	1.5
226.449	11.5
226.683	19.5
226.918	37.5
227.152	26.5
227.387	35.5
227.621	32.5
227.856	39.5
228.09	62.5
228.324	60.5
228.559	64.5
228.793	61.5
229.027	56.5
229.262	77.5
229.496	71.5
229.73	107.5
229.964	94.5
230.199	73.5
230.433	77.5
230.667	96.5
230.901	76.5
231.136	75.5
231.37	84.5
231.604	81.5
231.838	80.5
232.072	85.5
232.306	86.5
232.541	88.5
232.775	94.5
233.009	78.5
233.243	85.5
233.477	78.5
233.711	89.5
233.945	85.5
234.179	80.5
234.413	87.5
234.647	80.5
234.881	79.5
235.115	76.5
235.349	66.5
235.583	73.5
235.817	79.5
236.051	87.5
236.285	82.5
236.519	63.5
236.753	77.5
236.987	83.5
237.221	82.5
237.455	100.5
237.689	82.5
237.922	85.5
238.156	67.5
238.39	72.5
238.624	78.5
238.858	72.5
239.091	68.5
239.325	87.5
239.559	97.5
239.793	87.5
240.027	86.5
240.26	79.5
240.494	92.5
240.728	53.5
240.961	71.5
241.195	83.5
241.429	72.5
241.662	75.5
241.896	75.5
242.13	70.5
242.363	75.5
242.597	75.5
242.83	77.5
243.064	83.5
243.298	75.5
243.531	75.5
243.765	79.5
243.998	93.5
244.232	79.5
244.465	87.5
244.699	81.5
244.932	84.5
245.166	81.5
245.399	91.5
245.633	77.5
245.866	93.5
246.099	71.5
246.333	87.5
246.566	64.5
246.8	87.5
247.033	87.5
247.266	83.5
247.5	73.5
247.733	89.5
247.966	98.5
248.2	93.5
248.433	87.5
248.666	76.5
248.899	79.5
249.133	93.5
249.366	102.5
249.599	111.5
249.832	88.5
250.066	77.5
250.299	97.5
250.532	97.5
250.765	87.5
250.998	94.5
251.231	88.5
251.465	89.5
251.698	83.5
251.931	99.5
252.164	92.5
252.397	82.5
252.63	98.5
252.863	78.5
253.096	81.5
253.329	92.5
253.562	82.5
253.795	87.5
254.028	87.5
254.261	82.5
254.494	97.5
254.727	77.5
254.96	82.5
255.193	83.5
255.426	82.5
255.659	86.5
255.892	97.5
256.124	99.5
256.357	88.5
256.59	93.5
256.823	90.5
257.056	95.5
257.289	104.5
257.521	81.5
257.754	93.5
257.987	88.5
258.22	107.5
258.452	124.5
258.685	128.5
258.918	106.5
259.151	86.5
259.383	92.5
259.616	97.5
259.849	83.5
260.081	73.5
260.314	84.5
260.547	107.5
260.779	125.5
261.012	167.5
261.244	157.5
261.477	127.5
261.71	119.5
261.942	123.5
262.175	141.5
262.407	103.5
262.64	97.5
262.872	90.5
263.105	94.5
263.337	94.5
263.57	83.5
263.802	81.5
264.035	92.5
264.267	84.5
264.499	91.5
264.732	89.5
264.964	75.5
265.197	91.5
265.429	75.5
265.661	85.5
265.894	83.5
266.126	72.5
266.358	95.5
266.591	95.5
266.823	79.5
267.055	91.5
267.287	104.5
267.52	97.5
267.752	79.5
267.984	99.5
268.216	65.5
268.448	88.5
268.681	95.5
268.913	88.5
269.145	80.5
269.377	99.5
269.609	94.5
269.841	81.5
270.073	85.5
270.306	80.5
270.538	91.5
270.77	92.5
271.002	102.5
271.234	100.5
271.466	100.5
271.698	104.5
271.93	115.5
272.162	95.5
272.394	94.5
272.626	85.5
272.858	79.5
273.09	86.5
273.322	88.5
273.553	89.5
273.785	90.5
274.017	85.5
274.249	91.5
274.481	89.5
274.713	83.5
274.945	99.5
275.176	110.5
275.408	129.5
275.64	166.5
275.872	191.5
276.104	147.5
276.335	109.5
276.567	139.5
276.799	182.5
277.031	288.5
277.262	374.5
277.494	267.5
277.726	127.5
277.957	109.5
278.189	105.5
278.421	102.5
278.652	93.5
278.884	97.5
279.115	99.5
279.347	108.5
279.579	136.5
279.81	206.5
280.042	390.5
280.273	587.5
280.505	357.5
280.736	147.5
280.968	104.5
281.199	105.5
281.431	101.5
281.662	104.5
281.894	97.5
282.125	112.5
282.356	141.5
282.588	198.5
282.819	140.5
283.051	103.5
283.282	100.5
283.513	102.5
283.745	89.5
283.976	87.5
284.207	91.5
284.439	80.5
284.67	90.5
284.901	71.5
285.132	81.5
285.364	91.5
285.595	81.5
285.826	94.5
286.057	95.5
286.288	73.5
286.52	90.5
286.751	89.5
286.982	99.5
287.213	89.5
287.444	98.5
287.675	92.5
287.906	87.5
288.138	100.5
288.369	102.5
288.6	106.5
288.831	80.5
289.062	82.5
289.293	89.5
289.524	88.5
289.755	107.5
289.986	88.5
290.217	97.5
290.448	90.5
290.679	95.5
290.91	94.5
291.141	86.5
291.371	88.5
291.602	95.5
291.833	100.5
292.064	95.5
292.295	83.5
292.526	114.5
292.757	90.5
292.987	91.5
293.218	88.5
293.449	81.5
293.68	97.5
293.91	83.5
294.141	96.5
294.372	67.5
294.603	79.5
294.833	78.5
295.064	81.5
295.295	89.5
295.525	114.5
295.756	113.5
295.987	140.5
296.217	170.5
296.448	176.5
296.679	103.5
296.909	86.5
297.14	86.5
297.37	102.5
297.601	100.5
297.831	91.5
298.062	88.5
298.292	93.5
298.523	88.5
298.753	82.5
298.984	100.5
299.214	99.5
299.445	107.5
299.675	97.5
299.905	93.5
300.136	109.5
300.366	87.5
300.597	87.5
300.827	91.5
301.057	109.5
301.288	108.5
301.518	109.5
301.748	119.5
301.979	146.5
302.209	111.5
302.439	101.5
302.669	94.5
302.9	97.5
303.13	104.5
303.36	107.5
303.59	182.5
303.82	213.5
304.051	131.5
304.281	99.5
304.511	103.5
304.741	99.5
304.971	87.5
305.201	72.5
305.431	87.5
305.661	101.5
305.891	91.5
306.121	106.5
306.352	111.5
306.582	127.5
306.812	122.5
307.042	180.5
307.272	289.5
307.502	323.5
307.731	281.5
307.961	187.5
308.191	122.5
308.421	95.5
308.651	102.5
308.881	104.5
309.111	95.5
309.341	96.5
309.571	119.5
309.8	106.5
310.03	116.5
310.26	105.5
310.49	105.5
310.72	109.5
310.949	111.5
311.179	121.5
311.409	91.5
311.639	99.5
311.868	87.5
312.098	84.5
312.328	108.5
312.557	113.5
312.787	122.5
313.017	128.5
313.246	99.5
313.476	88.5
313.706	99.5
313.935	97.5
314.165	109.5
314.394	112.5
314.624	97.5
314.853	105.5
315.083	87.5
315.312	92.5
315.542	115.5
315.771	91.5
316.001	97.5
316.23	92.5
316.46	107.5
316.689	94.5
316.919	85.5
317.148	110.5
317.377	95.5
317.607	112.5
317.836	106.5
318.065	96.5
318.295	89.5
318.524	93.5
318.753	73.5
318.983	88.5
319.212	112.5
319.441	117.5
319.67	120.5
319.9	103.5
320.129	98.5
320.358	96.5
320.587	108.5
320.816	118.5
321.046	103.5
321.275	97.5
321.504	114.5
321.733	101.5
321.962	102.5
322.191	113.5
322.42	120.5
322.649	121.5
322.878	124.5
323.108	110.5
323.337	123.5
323.566	164.5
323.795	173.5
324.024	248.5
324.253	463.5
324.482	937.5
324.71	1879.5
324.939	2454.5
325.168	946.5
325.397	292.5
325.626	169.5
325.855	158.5
326.084	143.5
326.313	141.5
326.542	166.5
326.77	251.5
326.999	486.5
327.228	934.5
327.457	1687.5
327.686	1478.5
327.914	720.5
328.143	985.5
328.372	1447.5
328.6	699.5
328.829	279.5
329.058	229.5
329.287	244.5
329.515	246.5
329.744	435.5
329.972	959.5
330.201	2171.5
330.43	3175.5
330.658	1269.5
330.887	422.5
331.115	238.5
331.344	161.5
331.572	141.5
331.801	144.5
332.03	143.5
332.258	134.5
332.486	110.5
332.715	140.5
332.943	123.5
333.172	151.5
333.4	178.5
333.629	237.5
333.857	367.5
334.085	793.5
334.314	1825.5
334.542	3729.5
334.771	3594.5
334.999	837.5
335.227	276.5
335.455	165.5
335.684	131.5
335.912	130.5
336.14	122.5
336.369	125.5
336.597	131.5
336.825	120.5
337.053	102.5
337.281	98.5
337.51	97.5
337.738	99.5
337.966	104.5
338.194	125.5
338.422	101.5
338.65	101.5
338.878	98.5
339.106	103.5
339.334	114.5
339.562	98.5
339.79	80.5
340.018	105.5
340.246	86.5
340.474	100.5
340.702	101.5
340.93	93.5
341.158	98.5
341.386	88.5
341.614	96.5
341.842	90.5
342.07	89.5
342.298	94.5
342.526	90.5
342.754	87.5
342.981	89.5
343.209	92.5
343.437	102.5
343.665	96.5
343.893	93.5
344.12	99.5
344.348	94.5
344.576	94.5
344.804	105.5
345.031	105.5
345.259	110.5
345.487	100.5
345.714	96.5
345.942	98.5
346.17	101.5
346.397	97.5
346.625	93.5
346.853	98.5
347.08	83.5
347.308	105.5
347.535	105.5
347.763	109.5
347.99	101.5
348.218	102.5
348.445	129.5
348.673	95.5
348.9	92.5
349.128	102.5
349.355	91.5
349.583	101.5
349.81	96.5
350.037	80.5
350.265	81.5
350.492	97.5
350.72	98.5
350.947	103.5
351.174	113.5
351.402	123.5
351.629	111.5
351.856	115.5
352.083	124.5
352.311	111.5
352.538	128.5
352.765	115.5
352.992	126.5
353.22	106.5
353.447	101.5
353.674	113.5
353.901	91.5
354.128	101.5
354.355	92.5
354.583	98.5
354.81	102.5
355.037	80.5
355.264	104.5
355.491	104.5
355.718	107.5
355.945	103.5
356.172	95.5
356.399	104.5
356.626	104.5
356.853	88.5
357.08	81.5
357.307	92.5
357.534	100.5
357.761	95.5
357.988	129.5
358.215	105.5
358.441	123.5
358.668	120.5
358.895	103.5
359.122	103.5
359.349	70.5
359.576	96.5
359.802	123.5
360.029	147.5
360.256	141.5
360.483	111.5
360.709	92.5
360.936	104.5
361.163	86.5
361.39	97.5
361.616	91.5
361.843	91.5
362.07	104.5
362.296	105.5
362.523	107.5
362.749	86.5
362.976	99.5
363.203	99.5
363.429	91.5
363.656	89.5
363.882	92.5
364.109	109.5
364.335	101.5
364.562	101.5
364.788	100.5
365.015	85.5
365.241	95.5
365.468	124.5
365.694	124.5
365.92	102.5
366.147	84.5
366.373	89.5
366.599	93.5
366.826	92.5
367.052	94.5
367.278	113.5
367.505	87.5
367.731	97.5
367.957	97.5
368.184	93.5
368.41	111.5
368.636	123.5
368.862	131.5
369.089	112.5
369.315	121.5
369.541	103.5
369.767	105.5
369.993	87.5
370.219	105.5
370.445	99.5
370.672	83.5
370.898	75.5
371.124	84.5
371.35	79.5
371.576	91.5
371.802	91.5
372.028	87.5
372.254	97.5
372.48	87.5
372.706	92.5
372.932	84.5
373.158	93.5
373.384	99.5
373.61	97.5
373.835	87.5
374.061	96.5
374.287	106.5
374.513	95.5
374.739	93.5
374.965	89.5
375.191	84.5
375.416	90.5
375.642	104.5
375.868	90.5
376.094	93.5
376.319	109.5
376.545	103.5
376.771	99.5
376.997	95.5
377.222	98.5
377.448	80.5
377.674	95.5
377.899	101.5
378.125	97.5
378.35	87.5
378.576	108.5
378.802	86.5
379.027	101.5
379.253	89.5
379.478	95.5
379.704	105.5
379.929	104.5
380.155	108.5
380.38	115.5
380.606	102.5
380.831	114.5
381.057	100.5
381.282	111.5
381.507	113.5
381.733	101.5
381.958	115.5
382.184	117.5
382.409	110.5
382.634	122.5
382.86	123.5
383.085	119.5
383.31	109.5
383.535	133.5
383.761	121.5
383.986	123.5
384.211	122.5
384.436	123.5
384.662	114.5
384.887	135.5
385.112	159.5
385.337	158.5
385.562	143.5
385.787	148.5
386.013	155.5
386.238	169.5
386.463	139.5
386.688	135.5
386.913	152.5
387.138	141.5
387.363	164.5
387.588	124.5
387.813	113.5
388.038	149.5
388.263	164.5
388.488	169.5
388.713	113.5
388.938	81.5
389.163	82.5
389.387	91.5
389.612	86.5
389.837	87.5
390.062	84.5
390.287	95.5
390.512	90.5
390.736	102.5
390.961	81.5
391.186	93.5
391.411	97.5
391.636	91.5
391.86	85.5
392.085	89.5
392.31	89.5
392.534	93.5
392.759	99.5
392.984	88.5
393.208	94.5
393.433	100.5
393.658	107.5
393.882	92.5
394.107	87.5
394.331	105.5
394.556	86.5
394.78	108.5
395.005	97.5
395.229	97.5
395.454	86.5
395.678	83.5
395.903	79.5
396.127	87.5
396.352	85.5
396.576	94.5
396.801	98.5
397.025	94.5
397.249	104.5
397.474	89.5
397.698	93.5
397.922	96.5
398.147	85.5
398.371	84.5
398.595	103.5
398.82	75.5
399.044	87.5
399.268	85.5
399.492	92.5
399.717	87.5
399.941	99.5
400.165	100.5
400.389	95.5
400.613	79.5
400.837	81.5
401.062	105.5
401.286	95.5
401.51	97.5
401.734	92.5
401.958	124.5
402.182	156.5
402.406	221.5
402.63	160.5
402.854	103.5
403.078	94.5
403.302	97.5
403.526	102.5
403.75	89.5
403.974	86.5
404.198	90.5
404.422	87.5
404.645	95.5
404.869	112.5
405.093	132.5
405.317	141.5
405.541	142.5
405.765	141.5
405.988	142.5
406.212	225.5
406.436	335.5
406.66	207.5
406.883	123.5
407.107	114.5
407.331	94.5
407.555	108.5
407.778	99.5
408.002	95.5
408.226	91.5
408.449	108.5
408.673	69.5
408.896	97.5
409.12	96.5
409.344	99.5
409.567	101.5
409.791	100.5
410.014	98.5
410.238	95.5
410.461	95.5
410.685	97.5
410.908	84.5
411.132	104.5
411.355	108.5
411.578	94.5
411.802	91.5
412.025	104.5
412.249	112.5
412.472	132.5
412.695	159.5
412.919	104.5
413.142	91.5
413.365	99.5
413.589	94.5
413.812	69.5
414.035	117.5
414.258	111.5
414.482	97.5
414.705	89.5
414.928	107.5
415.151	85.5
415.374	107.5
415.597	93.5
415.821	103.5
416.044	100.5
416.267	104.5
416.49	86.5
416.713	95.5
416.936	97.5
417.159	96.5
417.382	109.5
417.605	132.5
417.828	136.5
418.051	115.5
418.274	99.5
418.497	90.5
418.72	101.5
418.943	81.5
419.166	81.5
419.389	110.5
419.611	102.5
419.834	104.5
420.057	111.5
420.28	114.5
420.503	95.5
420.726	83.5
420.948	84.5
421.171	95.5
421.394	105.5
421.617	80.5
421.839	86.5
422.062	91.5
422.285	92.5
422.507	101.5
422.73	121.5
422.953	112.5
423.175	104.5
423.398	83.5
423.621	85.5
423.843	77.5
424.066	91.5
424.288	100.5
424.511	75.5
424.733	108.5
424.956	99.5
425.178	110.5
425.401	113.5
425.623	106.5
425.846	98.5
426.068	99.5
426.291	87.5
426.513	93.5
426.735	102.5
426.958	102.5
427.18	125.5
427.402	195.5
427.625	272.5
427.847	251.5
428.069	219.5
428.292	155.5
428.514	111.5
428.736	91.5
428.958	91.5
429.181	92.5
429.403	95.5
429.625	77.5
429.847	102.5
430.069	109.5
430.292	99.5
430.514	83.5
430.736	85.5
430.958	84.5
431.18	98.5
431.402	93.5
431.624	86.5
431.846	67.5
432.068	86.5
432.29	84.5
432.512	100.5
432.734	96.5
432.956	91.5
433.178	94.5
433.4	98.5
433.622	92.5
433.844	103.5
434.066	87.5
434.287	86.5
434.509	88.5
434.731	87.5
434.953	90.5
435.175	84.5
435.397	90.5
435.618	100.5
435.84	98.5
436.062	119.5
436.284	125.5
436.505	109.5
436.727	104.5
436.949	87.5
437.17	90.5
437.392	91.5
437.614	100.5
437.835	109.5
438.057	155.5
438.278	115.5
438.5	113.5
438.721	130.5
438.943	115.5
439.165	97.5
439.386	90.5
439.608	80.5
439.829	111.5
440.05	142.5
440.272	172.5
440.493	107.5
440.715	103.5
440.936	87.5
441.158	99.5
441.379	99.5
441.6	98.5
441.822	94.5
442.043	101.5
442.264	124.5
442.486	109.5
442.707	107.5
442.928	115.5
443.149	170.5
443.371	162.5
443.592	135.5
443.813	117.5
444.034	114.5
444.255	92.5
444.476	106.5
444.698	101.5
444.919	80.5
445.14	141.5
445.361	124.5
445.582	136.5
445.803	186.5
446.024	175.5
446.245	146.5
446.466	100.5
446.687	101.5
446.908	94.5
447.129	91.5
447.35	79.5
447.571	120.5
447.792	121.5
448.013	104.5
448.234	134.5
448.455	118.5
448.675	112.5
448.896	120.5
449.117	103.5
449.338	108.5
449.559	130.5
449.779	151.5
450	104.5
450.221	101.5
450.442	96.5
450.662	103.5
450.883	134.5
451.104	131.5
451.324	97.5
451.545	86.5
451.766	100.5
451.986	85.5
452.207	108.5
452.428	90.5
452.648	103.5
452.869	120.5
453.089	134.5
453.31	148.5
453.53	91.5
453.751	104.5
453.971	118.5
454.192	124.5
454.412	100.5
454.633	80.5
454.853	93.5
455.073	92.5
455.294	97.5
455.514	100.5
455.734	103.5
455.955	87.5
456.175	94.5
456.395	88.5
456.616	83.5
456.836	72.5
457.056	77.5
457.276	95.5
457.497	80.5
457.717	94.5
457.937	97.5
458.157	84.5
458.377	112.5
458.598	131.5
458.818	218.5
459.038	221.5
459.258	149.5
459.478	93.5
459.698	94.5
459.918	87.5
460.138	96.5
460.358	102.5
460.578	98.5
460.798	100.5
461.018	84.5
461.238	84.5
461.458	85.5
461.678	78.5
461.898	101.5
462.118	98.5
462.338	93.5
462.558	79.5
462.777	96.5
462.997	118.5
463.217	159.5
463.437	116.5
463.657	104.5
463.876	100.5
464.096	104.5
464.316	102.5
464.536	114.5
464.755	119.5
464.975	116.5
465.195	252.5
465.414	228.5
465.634	128.5
465.854	99.5
466.073	106.5
466.293	117.5
466.512	108.5
466.732	93.5
466.951	102.5
467.171	110.5
467.391	142.5
467.61	196.5
467.829	396.5
468.049	1419.5
468.268	2276.5
468.488	471.5
468.707	157.5
468.927	112.5
469.146	95.5
469.365	89.5
469.585	95.5
469.804	107.5
470.023	126.5
470.243	111.5
470.462	122.5
470.681	151.5
470.901	117.5
471.12	116.5
471.339	128.5
471.558	173.5
471.777	255.5
471.997	593.5
472.216	2540.5
472.435	6034.5
472.654	1223.5
472.873	279.5
473.092	147.5
473.311	113.5
473.53	102.5
473.749	115.5
473.968	112.5
474.187	133.5
474.406	112.5
474.625	91.5
474.844	98.5
475.063	88.5
475.282	91.5
475.501	94.5
475.72	101.5
475.939	94.5
476.158	94.5
476.377	91.5
476.596	99.5
476.814	99.5
477.033	120.5
477.252	115.5
477.471	85.5
477.69	107.5
477.908	108.5
478.127	104.5
478.346	104.5
478.564	112.5
478.783	130.5
479.002	126.5
479.22	134.5
479.439	139.5
479.658	139.5
479.876	147.5
480.095	185.5
480.313	193.5
480.532	247.5
480.751	532.5
480.969	2139.5
481.188	9591.5
481.406	5351.5
481.624	677.5
481.843	216.5
482.061	145.5
482.28	123.5
482.498	116.5
482.717	111.5
482.935	100.5
483.153	94.5
483.372	107.5
483.59	87.5
483.808	88.5
484.027	89.5
484.245	110.5
484.463	98.5
484.681	108.5
484.9	103.5
485.118	102.5
485.336	101.5
485.554	113.5
485.772	128.5
485.99	133.5
486.209	128.5
486.427	117.5
486.645	118.5
486.863	142.5
487.081	96.5
487.299	104.5
487.517	95.5
487.735	103.5
487.953	98.5
488.171	94.5
488.389	112.5
488.607	111.5
488.825	105.5
489.043	105.5
489.261	93.5
489.479	91.5
489.696	83.5
489.914	93.5
490.132	90.5
490.35	91.5
490.568	93.5
490.786	91.5
491.003	92.5
491.221	111.5
491.439	103.5
491.657	105.5
491.874	103.5
492.092	100.5
492.31	112.5
492.527	113.5
492.745	105.5
492.963	93.5
493.18	112.5
493.398	95.5
493.615	118.5
493.833	92.5
494.05	88.5
494.268	101.5
494.485	100.5
494.703	89.5
494.92	88.5
495.138	90.5
495.355	95.5
495.573	88.5
495.79	104.5
496.008	100.5
496.225	93.5
496.442	99.5
496.66	89.5
496.877	89.5
497.094	98.5
497.312	98.5
497.529	88.5
497.746	101.5
497.963	91.5
498.181	90.5
498.398	97.5
498.615	136.5
498.832	107.5
499.049	104.5
499.267	87.5
499.484	96.5
499.701	92.5
499.918	91.5
500.135	93.5
500.352	92.5
500.569	111.5
500.786	103.5
501.003	109.5
501.22	97.5
501.437	87.5
501.654	105.5
501.871	128.5
502.088	113.5
502.305	87.5
502.522	111.5
502.739	108.5
502.956	102.5
503.172	91.5
503.389	114.5
503.606	128.5
503.823	109.5
504.04	92.5
504.256	103.5
504.473	80.5
504.69	89.5
504.907	99.5
505.123	96.5
505.34	83.5
505.557	96.5
505.773	83.5
505.99	92.5
506.207	120.5
506.423	85.5
506.64	103.5
506.856	90.5
507.073	102.5
507.289	85.5
507.506	116.5
507.722	144.5
507.939	127.5
508.155	108.5
508.372	93.5
508.588	86.5
508.805	101.5
509.021	96.5
509.238	107.5
509.454	113.5
509.67	97.5
509.887	120.5
510.103	165.5
510.319	295.5
510.536	1083.5
510.752	3972.5
510.968	1042.5
511.184	209.5
511.401	143.5
511.617	113.5
511.833	128.5
512.049	104.5
512.265	108.5
512.481	92.5
512.698	94.5
512.914	107.5
513.13	95.5
513.346	95.5
513.562	108.5
513.778	98.5
513.994	95.5
514.21	129.5
514.426	141.5
514.642	205.5
514.858	173.5
515.074	262.5
515.29	755.5
515.506	2899.5
515.721	996.5
515.937	232.5
516.153	137.5
516.369	130.5
516.585	121.5
516.801	136.5
517.016	123.5
517.232	102.5
517.448	111.5
517.664	101.5
517.879	104.5
518.095	104.5
518.311	131.5
518.527	153.5
518.742	112.5
518.958	99.5
519.173	111.5
519.389	111.5
519.605	97.5
519.82	100.5
520.036	108.5
520.251	139.5
520.467	135.5
520.682	125.5
520.898	136.5
521.113	152.5
521.329	184.5
521.544	326.5
521.76	1046.5
521.975	4913.5
522.19	2899.5
522.406	547.5
522.621	164.5
522.836	128.5
523.052	128.5
523.267	109.5
523.482	102.5
523.698	112.5
523.913	162.5
524.128	127.5
524.343	111.5
524.559	104.5
524.774	101.5
524.989	114.5
525.204	123.5
525.419	144.5
525.634	100.5
525.849	95.5
526.064	105.5
526.28	102.5
526.495	103.5
526.71	94.5
526.925	81.5
527.14	83.5
527.355	94.5
527.57	92.5
527.785	97.5
527.999	79.5
528.214	84.5
528.429	100.5
528.644	115.5
528.859	89.5
529.074	100.5
529.289	157.5
529.503	293.5
529.718	131.5
529.933	104.5
530.148	82.5
530.363	100.5
530.577	94.5
530.792	81.5
531.007	91.5
531.221	104.5
531.436	105.5
531.651	97.5
531.865	87.5
532.08	82.5
532.295	88.5
532.509	96.5
532.724	86.5
532.938	97.5
533.153	97.5
533.367	105.5
533.582	100.5
533.796	97.5
534.011	102.5
534.225	96.5
534.44	104.5
534.654	87.5
534.868	93.5
535.083	95.5
535.297	94.5
535.511	123.5
535.726	113.5
535.94	95.5
536.154	91.5
536.369	109.5
536.583	100.5
536.797	92.5
537.011	109.5
537.225	99.5
537.44	96.5
537.654	82.5
537.868	93.5
538.082	96.5
538.296	98.5
538.51	95.5
538.724	81.5
538.938	92.5
539.153	111.5
539.367	119.5
539.581	114.5
539.795	86.5
540.009	90.5
540.222	107.5
540.436	96.5
540.65	91.5
540.864	97.5
541.078	87.5
541.292	84.5
541.506	68.5
541.72	89.5
541.934	87.5
542.147	91.5
542.361	94.5
542.575	95.5
542.789	101.5
543.002	96.5
543.216	91.5
543.43	113.5
543.644	95.5
543.857	109.5
544.071	91.5
544.285	93.5
544.498	97.5
544.712	104.5
544.925	98.5
545.139	99.5
545.352	83.5
545.566	87.5
545.779	96.5
545.993	81.5
546.206	86.5
546.42	90.5
546.633	95.5
546.847	83.5
547.06	89.5
547.274	96.5
547.487	89.5
547.7	82.5
547.914	110.5
548.127	81.5
548.34	91.5
548.554	84.5
548.767	80.5
548.98	96.5
549.193	88.5
549.407	88.5
549.62	97.5
549.833	105.5
550.046	93.5
550.259	96.5
550.473	85.5
550.686	94.5
550.899	81.5
551.112	100.5
551.325	92.5
551.538	127.5
551.751	110.5
551.964	107.5
552.177	102.5
552.39	97.5
552.603	90.5
552.816	103.5
553.029	96.5
553.242	99.5
553.455	115.5
553.667	137.5
553.88	128.5
554.093	109.5
554.306	147.5
554.519	179.5
554.732	121.5
554.944	89.5
555.157	87.5
555.37	103.5
555.583	103.5
555.795	96.5
556.008	97.5
556.221	86.5
556.433	88.5
556.646	94.5
556.859	89.5
557.071	104.5
557.284	88.5
557.496	99.5
557.709	81.5
557.921	90.5
558.134	102.5
558.346	97.5
558.559	92.5
558.771	93.5
558.984	93.5
559.196	93.5
559.409	92.5
559.621	104.5
559.833	91.5
560.046	111.5
560.258	168.5
560.47	221.5
560.683	126.5
560.895	120.5
561.107	84.5
561.32	90.5
561.532	89.5
561.744	93.5
561.956	95.5
562.168	87.5
562.381	116.5
562.593	103.5
562.805	97.5
563.017	92.5
563.229	92.5
563.441	100.5
563.653	92.5
563.865	100.5
564.077	83.5
564.289	91.5
564.501	95.5
564.713	104.5
564.925	93.5
565.137	108.5
565.349	95.5
565.561	83.5
565.773	84.5
565.985	85.5
566.197	84.5
566.408	90.5
566.62	79.5
566.832	76.5
567.044	87.5
567.255	88.5
567.467	99.5
567.679	83.5
567.891	83.5
568.102	98.5
568.314	87.5
568.526	89.5
568.737	79.5
568.949	84.5
569.161	90.5
569.372	99.5
569.584	92.5
569.795	83.5
570.007	123.5
570.218	354.5
570.43	169.5
570.641	103.5
570.853	95.5
571.064	87.5
571.276	88.5
571.487	84.5
571.698	98.5
571.91	85.5
572.121	95.5
572.333	86.5
572.544	93.5
572.755	93.5
572.966	92.5
573.178	81.5
573.389	96.5
573.6	91.5
573.811	91.5
574.023	88.5
574.234	90.5
574.445	77.5
574.656	86.5
574.867	82.5
575.078	85.5
575.289	91.5
575.501	88.5
575.712	94.5
575.923	93.5
576.134	77.5
576.345	88.5
576.556	89.5
576.767	100.5
576.978	92.5
577.188	101.5
577.399	93.5
577.61	99.5
577.821	98.5
578.032	129.5
578.243	391.5
578.454	1166.5
578.665	279.5
578.875	105.5
579.086	85.5
579.297	99.5
579.508	106.5
579.718	97.5
579.929	89.5
580.14	94.5
580.35	91.5
580.561	91.5
580.772	100.5
580.982	75.5
581.193	92.5
581.403	87.5
581.614	82.5
581.825	89.5
582.035	100.5
582.246	94.5
582.456	79.5
582.667	102.5
582.877	84.5
583.087	105.5
583.298	87.5
583.508	97.5
583.719	85.5
583.929	81.5
584.139	90.5
584.35	86.5
584.56	79.5
584.77	80.5
584.981	89.5
585.191	88.5
585.401	82.5
585.611	99.5
585.821	102.5
586.032	84.5
586.242	89.5
586.452	88.5
586.662	87.5
586.872	99.5
587.082	91.5
587.292	91.5
587.502	82.5
587.713	83.5
587.923	109.5
588.133	88.5
588.343	89.5
588.553	86.5
588.762	102.5
588.972	142.5
589.182	373.5
589.392	185.5
589.602	144.5
589.812	277.5
590.022	133.5
590.232	100.5
590.441	107.5
590.651	88.5
590.861	88.5
591.071	98.5
591.281	95.5
591.49	78.5
591.7	82.5
591.91	97.5
592.119	97.5
592.329	115.5
592.539	110.5
592.748	91.5
592.958	83.5
593.167	77.5
593.377	80.5
593.587	103.5
593.796	86.5
594.006	98.5
594.215	78.5
594.424	79.5
594.634	77.5
594.843	77.5
595.053	85.5
595.262	95.5
595.472	91.5
595.681	87.5
595.89	88.5
596.1	104.5
596.309	78.5
596.518	81.5
596.727	91.5
596.937	85.5
597.146	96.5
597.355	80.5
597.564	91.5
597.774	93.5
597.983	89.5
598.192	98.5
598.401	86.5
598.61	105.5
598.819	93.5
599.028	85.5
599.237	85.5
599.446	91.5
599.655	98.5
599.864	90.5
600.073	71.5
600.282	74.5
600.491	95.5
600.7	82.5
600.909	73.5
601.118	94.5
601.327	87.5
601.536	86.5
601.745	93.5
601.953	83.5
602.162	78.5
602.371	94.5
602.58	88.5
602.789	81.5
602.997	68.5
603.206	97.5
603.415	86.5
603.623	95.5
603.832	95.5
604.041	88.5
604.249	101.5
604.458	100.5
604.666	90.5
604.875	95.5
605.084	84.5
605.292	83.5
605.501	82.5
605.709	83.5
605.918	96.5
606.126	80.5
606.334	93.5
606.543	85.5
606.751	84.5
606.96	89.5
607.168	88.5
607.376	110.5
607.585	105.5
607.793	89.5
608.001	82.5
608.21	86.5
608.418	89.5
608.626	84.5
608.834	80.5
609.043	83.5
609.251	91.5
609.459	85.5
609.667	104.5
609.875	92.5
610.083	95.5
610.291	78.5
610.499	94.5
610.707	81.5
610.916	89.5
611.124	87.5
611.332	83.5
611.54	97.5
611.748	96.5
611.955	70.5
612.163	84.5
612.371	99.5
612.579	77.5
612.787	86.5
612.995	88.5
613.203	80.5
613.411	99.5
613.618	93.5
613.826	87.5
614.034	93.5
614.242	86.5
614.449	97.5
614.657	102.5
614.865	87.5
615.072	92.5
615.28	95.5
615.488	100.5
615.695	93.5
615.903	88.5
616.111	87.5
616.318	104.5
616.526	79.5
616.733	75.5
616.941	84.5
617.148	94.5
617.356	85.5
617.563	95.5
617.771	79.5
617.978	94.5
618.185	81.5
618.393	80.5
618.6	87.5
618.807	97.5
619.015	87.5
619.222	78.5
619.429	95.5
619.637	88.5
619.844	69.5
620.051	99.5
620.258	99.5
620.466	90.5
620.673	80.5
620.88	82.5
621.087	89.5
621.294	78.5
621.501	88.5
621.708	84.5
621.915	68.5
622.122	82.5
622.329	94.5
622.536	88.5
622.743	87.5
622.95	79.5
623.157	84.5
623.364	99.5
623.571	97.5
623.778	89.5
623.985	82.5
624.192	90.5
624.399	76.5
624.606	88.5
624.812	88.5
625.019	72.5
625.226	73.5
625.433	94.5
625.639	83.5
625.846	84.5
626.053	76.5
626.259	94.5
626.466	87.5
626.673	79.5
626.879	89.5
627.086	75.5
627.293	88.5
627.499	78.5
627.706	84.5
627.912	75.5
628.119	69.5
628.325	92.5
628.532	91.5
628.738	83.5
628.945	77.5
629.151	79.5
629.357	81.5
629.564	80.5
629.77	91.5
629.976	90.5
630.183	69.5
630.389	81.5
630.595	75.5
630.802	94.5
631.008	86.5
631.214	76.5
631.42	84.5
631.627	94.5
631.833	88.5
632.039	89.5
632.245	93.5
632.451	90.5
632.657	92.5
632.863	85.5
633.069	73.5
633.275	88.5
633.481	76.5
633.688	72.5
633.893	91.5
634.099	78.5
634.305	88.5
634.511	99.5
634.717	99.5
634.923	94.5
635.129	79.5
635.335	98.5
635.541	77.5
635.747	104.5
635.952	135.5
636.158	238.5
636.364	940.5
636.57	779.5
636.775	220.5
636.981	132.5
637.187	104.5
637.392	87.5
637.598	96.5
637.804	96.5
638.009	84.5
638.215	82.5
638.421	92.5
638.626	80.5
638.832	90.5
639.037	76.5
639.243	82.5
639.448	86.5
639.654	85.5
639.859	72.5
640.065	90.5
640.27	96.5
640.475	79.5
640.681	81.5
640.886	76.5
641.091	83.5
641.297	91.5
641.502	75.5
641.707	90.5
641.913	85.5
642.118	94.5
642.323	90.5
642.528	81.5
642.733	93.5
642.939	84.5
643.144	91.5
643.349	83.5
643.554	101.5
643.759	72.5
643.964	84.5
644.169	68.5
644.374	71.5
644.579	88.5
644.784	97.5
644.989	88.5
645.194	80.5
645.399	77.5
645.604	87.5
645.809	85.5
646.014	86.5
646.219	90.5
646.423	80.5
646.628	79.5
646.833	84.5
647.038	97.5
647.243	99.5
647.447	80.5
647.652	78.5
647.857	83.5
648.062	90.5
648.266	89.5
648.471	97.5
648.676	81.5
648.88	75.5
649.085	93.5
649.289	78.5
649.494	92.5
649.698	130.5
649.903	104.5
650.107	77.5
650.312	88.5
650.516	77.5
650.721	87.5
650.925	86.5
651.13	87.5
651.334	100.5
651.539	84.5
651.743	73.5
651.947	77.5
652.152	83.5
652.356	95.5
652.56	86.5
652.764	77.5
652.969	65.5
653.173	101.5
653.377	91.5
653.581	77.5
653.785	93.5
653.99	85.5
654.194	79.5
654.398	87.5
654.602	89.5
654.806	83.5
655.01	107.5
655.214	89.5
655.418	69.5
655.622	81.5
655.826	72.5
656.03	85.5
656.234	89.5
656.438	98.5
656.642	114.5
656.846	83.5
657.049	91.5
657.253	97.5
657.457	81.5
657.661	76.5
657.865	80.5
658.068	73.5
658.272	79.5
658.476	76.5
658.68	81.5
658.883	69.5
659.087	100.5
659.291	74.5
659.494	86.5
659.698	82.5
659.901	72.5
660.105	87.5
660.309	86.5
660.512	88.5
660.716	85.5
660.919	75.5
661.123	77.5
661.326	79.5
661.53	83.5
661.733	87.5
661.936	78.5
662.14	92.5
662.343	81.5
662.546	77.5
662.75	87.5
662.953	87.5
663.156	78.5
663.36	88.5
663.563	79.5
663.766	85.5
663.969	72.5
664.173	67.5
664.376	86.5
664.579	74.5
664.782	72.5
664.985	75.5
665.188	83.5
665.391	86.5
665.594	82.5
665.797	87.5
666	85.5
666.203	88.5
666.406	72.5
666.609	82.5
666.812	93.5
667.015	91.5
667.218	85.5
667.421	74.5
667.624	79.5
667.827	66.5
668.03	79.5
668.232	72.5
668.435	80.5
668.638	79.5
668.841	83.5
669.043	75.5
669.246	80.5
669.449	73.5
669.651	80.5
669.854	81.5
670.057	78.5
670.259	77.5
670.462	86.5
670.665	86.5
670.867	87.5
671.07	81.5
671.272	72.5
671.475	62.5
671.677	83.5
671.88	75.5
672.082	85.5
672.284	92.5
672.487	87.5
672.689	83.5
672.892	82.5
