Data from Sand_2_HRD10591_00006.txt Node
Date: Mon Jan 19 13:33:18 EST 2026
User: Yrep
Spectrometer: HR+D1059
Trigger mode: 1
Integration Time (sec): 1.000000E-1
Scans to average: 1
Electric dark correction enabled: true
Nonlinearity correction enabled: false
Boxcar width: 0
XAxis mode: Wavelengths
Number of Pixels in Spectrum: 2048
>>>>>Begin Spectral Data<<<<<
223.165	-10.62
223.4	-10.62
223.635	-10.62
223.869	-13.62
224.104	-25.62
224.338	-27.62
224.573	-11.62
224.808	-9.62
225.042	-8.62
225.277	-14.62
225.511	-6.62
225.746	16.38
225.98	7.38
226.215	10.38
226.449	28.38
226.683	31.38
226.918	12.38
227.152	22.38
227.387	32.38
227.621	50.38
227.856	50.38
228.09	61.38
228.324	50.38
228.559	55.38
228.793	70.38
229.027	57.38
229.262	63.38
229.496	76.38
229.73	68.38
229.964	68.38
230.199	77.38
230.433	76.38
230.667	72.38
230.901	85.38
231.136	83.38
231.37	80.38
231.604	72.38
231.838	85.38
232.072	84.38
232.306	90.38
232.541	98.38
232.775	84.38
233.009	90.38
233.243	80.38
233.477	90.38
233.711	87.38
233.945	87.38
234.179	79.38
234.413	86.38
234.647	89.38
234.881	86.38
235.115	78.38
235.349	71.38
235.583	75.38
235.817	84.38
236.051	80.38
236.285	83.38
236.519	87.38
236.753	90.38
236.987	75.38
237.221	83.38
237.455	71.38
237.689	75.38
237.922	87.38
238.156	76.38
238.39	85.38
238.624	73.38
238.858	82.38
239.091	85.38
239.325	80.38
239.559	78.38
239.793	81.38
240.027	83.38
240.26	81.38
240.494	79.38
240.728	77.38
240.961	79.38
241.195	82.38
241.429	79.38
241.662	73.38
241.896	80.38
242.13	88.38
242.363	87.38
242.597	89.38
242.83	93.38
243.064	73.38
243.298	85.38
243.531	77.38
243.765	77.38
243.998	77.38
244.232	76.38
244.465	93.38
244.699	75.38
244.932	85.38
245.166	82.38
245.399	82.38
245.633	90.38
245.866	82.38
246.099	71.38
246.333	95.38
246.566	87.38
246.8	94.38
247.033	80.38
247.266	78.38
247.5	95.38
247.733	61.38
247.966	71.38
248.2	79.38
248.433	80.38
248.666	77.38
248.899	76.38
249.133	72.38
249.366	95.38
249.599	78.38
249.832	81.38
250.066	88.38
250.299	85.38
250.532	82.38
250.765	71.38
250.998	78.38
251.231	72.38
251.465	81.38
251.698	78.38
251.931	68.38
252.164	80.38
252.397	83.38
252.63	99.38
252.863	92.38
253.096	92.38
253.329	70.38
253.562	96.38
253.795	89.38
254.028	96.38
254.261	84.38
254.494	86.38
254.727	78.38
254.96	77.38
255.193	85.38
255.426	68.38
255.659	86.38
255.892	82.38
256.124	93.38
256.357	87.38
256.59	84.38
256.823	79.38
257.056	68.38
257.289	82.38
257.521	78.38
257.754	92.38
257.987	75.38
258.22	77.38
258.452	86.38
258.685	86.38
258.918	80.38
259.151	77.38
259.383	94.38
259.616	82.38
259.849	87.38
260.081	85.38
260.314	96.38
260.547	77.38
260.779	81.38
261.012	73.38
261.244	75.38
261.477	87.38
261.71	89.38
261.942	75.38
262.175	91.38
262.407	82.38
262.64	85.38
262.872	78.38
263.105	93.38
263.337	87.38
263.57	87.38
263.802	83.38
264.035	83.38
264.267	66.38
264.499	85.38
264.732	82.38
264.964	75.38
265.197	83.38
265.429	86.38
265.661	89.38
265.894	78.38
266.126	88.38
266.358	80.38
266.591	90.38
266.823	71.38
267.055	71.38
267.287	82.38
267.52	82.38
267.752	81.38
267.984	81.38
268.216	77.38
268.448	78.38
268.681	81.38
268.913	89.38
269.145	87.38
269.377	83.38
269.609	75.38
269.841	99.38
270.073	93.38
270.306	82.38
270.538	80.38
270.77	91.38
271.002	77.38
271.234	88.38
271.466	83.38
271.698	86.38
271.93	88.38
272.162	89.38
272.394	96.38
272.626	75.38
272.858	80.38
273.09	91.38
273.322	73.38
273.553	71.38
273.785	78.38
274.017	95.38
274.249	85.38
274.481	85.38
274.713	75.38
274.945	86.38
275.176	82.38
275.408	88.38
275.64	90.38
275.872	76.38
276.104	91.38
276.335	78.38
276.567	78.38
276.799	92.38
277.031	93.38
277.262	89.38
277.494	83.38
277.726	92.38
277.957	90.38
278.189	97.38
278.421	99.38
278.652	78.38
278.884	90.38
279.115	95.38
279.347	78.38
279.579	80.38
279.81	77.38
280.042	78.38
280.273	82.38
280.505	86.38
280.736	88.38
280.968	83.38
281.199	72.38
281.431	78.38
281.662	80.38
281.894	80.38
282.125	97.38
282.356	81.38
282.588	85.38
282.819	98.38
283.051	95.38
283.282	81.38
283.513	87.38
283.745	72.38
283.976	83.38
284.207	78.38
284.439	98.38
284.67	90.38
284.901	86.38
285.132	66.38
285.364	87.38
285.595	93.38
285.826	89.38
286.057	106.38
286.288	84.38
286.52	75.38
286.751	77.38
286.982	91.38
287.213	90.38
287.444	93.38
287.675	100.38
287.906	85.38
288.138	85.38
288.369	84.38
288.6	85.38
288.831	72.38
289.062	82.38
289.293	86.38
289.524	87.38
289.755	92.38
289.986	78.38
290.217	92.38
290.448	78.38
290.679	86.38
290.91	96.38
291.141	78.38
291.371	90.38
291.602	87.38
291.833	86.38
292.064	69.38
292.295	71.38
292.526	88.38
292.757	79.38
292.987	109.38
293.218	79.38
293.449	72.38
293.68	84.38
293.91	90.38
294.141	88.38
294.372	77.38
294.603	77.38
294.833	88.38
295.064	82.38
295.295	90.38
295.525	97.38
295.756	89.38
295.987	93.38
296.217	98.38
296.448	92.38
296.679	90.38
296.909	95.38
297.14	72.38
297.37	86.38
297.601	76.38
297.831	86.38
298.062	103.38
298.292	72.38
298.523	94.38
298.753	87.38
298.984	90.38
299.214	84.38
299.445	80.38
299.675	75.38
299.905	86.38
300.136	97.38
300.366	80.38
300.597	88.38
300.827	64.38
301.057	95.38
301.288	90.38
301.518	89.38
301.748	87.38
301.979	101.38
302.209	79.38
302.439	80.38
302.669	94.38
302.9	89.38
303.13	73.38
303.36	89.38
303.59	86.38
303.82	74.38
304.051	78.38
304.281	83.38
304.511	104.38
304.741	76.38
304.971	71.38
305.201	93.38
305.431	103.38
305.661	89.38
305.891	91.38
306.121	79.38
306.352	70.38
306.582	93.38
306.812	94.38
307.042	100.38
307.272	84.38
307.502	103.38
307.731	103.38
307.961	98.38
308.191	101.38
308.421	119.38
308.651	99.38
308.881	108.38
309.111	102.38
309.341	114.38
309.571	122.38
309.8	87.38
310.03	93.38
310.26	74.38
310.49	97.38
310.72	88.38
310.949	74.38
311.179	88.38
311.409	84.38
311.639	84.38
311.868	85.38
312.098	103.38
312.328	96.38
312.557	88.38
312.787	88.38
313.017	85.38
313.246	78.38
313.476	77.38
313.706	76.38
313.935	84.38
314.165	84.38
314.394	79.38
314.624	79.38
314.853	85.38
315.083	90.38
315.312	77.38
315.542	78.38
315.771	92.38
316.001	83.38
316.23	91.38
316.46	87.38
316.689	94.38
316.919	78.38
317.148	87.38
317.377	83.38
317.607	94.38
317.836	86.38
318.065	80.38
318.295	75.38
318.524	82.38
318.753	84.38
318.983	80.38
319.212	91.38
319.441	84.38
319.67	81.38
319.9	96.38
320.129	99.38
320.358	64.38
320.587	85.38
320.816	92.38
321.046	86.38
321.275	85.38
321.504	94.38
321.733	99.38
321.962	92.38
322.191	91.38
322.42	92.38
322.649	82.38
322.878	86.38
323.108	104.38
323.337	102.38
323.566	98.38
323.795	87.38
324.024	85.38
324.253	92.38
324.482	86.38
324.71	110.38
324.939	83.38
325.168	84.38
325.397	84.38
325.626	84.38
325.855	85.38
326.084	82.38
326.313	83.38
326.542	73.38
326.77	81.38
326.999	88.38
327.228	86.38
327.457	82.38
327.686	87.38
327.914	88.38
328.143	87.38
328.372	80.38
328.6	73.38
328.829	78.38
329.058	74.38
329.287	82.38
329.515	94.38
329.744	93.38
329.972	95.38
330.201	114.38
330.43	120.38
330.658	99.38
330.887	86.38
331.115	81.38
331.344	88.38
331.572	96.38
331.801	106.38
332.03	82.38
332.258	73.38
332.486	87.38
332.715	97.38
332.943	95.38
333.172	97.38
333.4	82.38
333.629	68.38
333.857	87.38
334.085	88.38
334.314	85.38
334.542	86.38
334.771	87.38
334.999	91.38
335.227	99.38
335.455	74.38
335.684	101.38
335.912	98.38
336.14	72.38
336.369	88.38
336.597	101.38
336.825	87.38
337.053	80.38
337.281	78.38
337.51	86.38
337.738	92.38
337.966	85.38
338.194	84.38
338.422	100.38
338.65	76.38
338.878	94.38
339.106	76.38
339.334	90.38
339.562	81.38
339.79	81.38
340.018	71.38
340.246	94.38
340.474	71.38
340.702	71.38
340.93	96.38
341.158	96.38
341.386	83.38
341.614	100.38
341.842	86.38
342.07	86.38
342.298	82.38
342.526	99.38
342.754	95.38
342.981	102.38
343.209	84.38
343.437	87.38
343.665	90.38
343.893	92.38
344.12	96.38
344.348	88.38
344.576	112.38
344.804	123.38
345.031	119.38
345.259	86.38
345.487	91.38
345.714	101.38
345.942	103.38
346.17	79.38
346.397	90.38
346.625	83.38
346.853	95.38
347.08	86.38
347.308	81.38
347.535	94.38
347.763	96.38
347.99	88.38
348.218	79.38
348.445	93.38
348.673	84.38
348.9	79.38
349.128	76.38
349.355	92.38
349.583	87.38
349.81	96.38
350.037	81.38
350.265	94.38
350.492	94.38
350.72	90.38
350.947	101.38
351.174	104.38
351.402	85.38
351.629	85.38
351.856	93.38
352.083	92.38
352.311	88.38
352.538	72.38
352.765	93.38
352.992	95.38
353.22	100.38
353.447	100.38
353.674	94.38
353.901	90.38
354.128	93.38
354.355	88.38
354.583	94.38
354.81	82.38
355.037	91.38
355.264	89.38
355.491	83.38
355.718	82.38
355.945	91.38
356.172	89.38
356.399	77.38
356.626	84.38
356.853	90.38
357.08	88.38
357.307	88.38
357.534	95.38
357.761	92.38
357.988	91.38
358.215	91.38
358.441	90.38
358.668	91.38
358.895	96.38
359.122	94.38
359.349	90.38
359.576	80.38
359.802	87.38
360.029	88.38
360.256	85.38
360.483	79.38
360.709	85.38
360.936	89.38
361.163	99.38
361.39	88.38
361.616	101.38
361.843	84.38
362.07	90.38
362.296	99.38
362.523	90.38
362.749	84.38
362.976	87.38
363.203	97.38
363.429	79.38
363.656	78.38
363.882	84.38
364.109	107.38
364.335	92.38
364.562	70.38
364.788	79.38
365.015	92.38
365.241	85.38
365.468	95.38
365.694	86.38
365.92	93.38
366.147	88.38
366.373	94.38
366.599	83.38
366.826	80.38
367.052	108.38
367.278	99.38
367.505	96.38
367.731	82.38
367.957	92.38
368.184	98.38
368.41	95.38
368.636	84.38
368.862	98.38
369.089	86.38
369.315	88.38
369.541	90.38
369.767	78.38
369.993	90.38
370.219	88.38
370.445	90.38
370.672	81.38
370.898	93.38
371.124	95.38
371.35	88.38
371.576	79.38
371.802	76.38
372.028	91.38
372.254	96.38
372.48	91.38
372.706	78.38
372.932	79.38
373.158	92.38
373.384	94.38
373.61	85.38
373.835	79.38
374.061	94.38
374.287	94.38
374.513	95.38
374.739	84.38
374.965	79.38
375.191	82.38
375.416	83.38
375.642	97.38
375.868	89.38
376.094	75.38
376.319	82.38
376.545	92.38
376.771	85.38
376.997	83.38
377.222	90.38
377.448	91.38
377.674	73.38
377.899	78.38
378.125	85.38
378.35	80.38
378.576	84.38
378.802	95.38
379.027	82.38
379.253	95.38
379.478	92.38
379.704	90.38
379.929	76.38
380.155	92.38
380.38	80.38
380.606	86.38
380.831	93.38
381.057	85.38
381.282	92.38
381.507	80.38
381.733	84.38
381.958	90.38
382.184	87.38
382.409	82.38
382.634	92.38
382.86	82.38
383.085	87.38
383.31	81.38
383.535	85.38
383.761	83.38
383.986	82.38
384.211	89.38
384.436	92.38
384.662	81.38
384.887	82.38
385.112	78.38
385.337	73.38
385.562	98.38
385.787	91.38
386.013	110.38
386.238	106.38
386.463	97.38
386.688	98.38
386.913	83.38
387.138	90.38
387.363	97.38
387.588	88.38
387.813	100.38
388.038	85.38
388.263	90.38
388.488	86.38
388.713	98.38
388.938	86.38
389.163	87.38
389.387	94.38
389.612	91.38
389.837	92.38
390.062	76.38
390.287	82.38
390.512	88.38
390.736	102.38
390.961	90.38
391.186	83.38
391.411	84.38
391.636	79.38
391.86	92.38
392.085	99.38
392.31	90.38
392.534	92.38
392.759	90.38
392.984	88.38
393.208	104.38
393.433	102.38
393.658	114.38
393.882	99.38
394.107	116.38
394.331	155.38
394.556	172.38
394.78	123.38
395.005	98.38
395.229	97.38
395.454	97.38
395.678	109.38
395.903	122.38
396.127	189.38
396.352	204.38
396.576	125.38
396.801	102.38
397.025	114.38
397.249	86.38
397.474	96.38
397.698	88.38
397.922	84.38
398.147	106.38
398.371	93.38
398.595	90.38
398.82	78.38
399.044	99.38
399.268	82.38
399.492	94.38
399.717	82.38
399.941	83.38
400.165	88.38
400.389	94.38
400.613	91.38
400.837	78.38
401.062	80.38
401.286	108.38
401.51	84.38
401.734	83.38
401.958	94.38
402.182	88.38
402.406	78.38
402.63	98.38
402.854	101.38
403.078	99.38
403.302	88.38
403.526	93.38
403.75	114.38
403.974	135.38
404.198	199.38
404.422	313.38
404.645	392.38
404.869	325.38
405.093	208.38
405.317	127.38
405.541	103.38
405.765	83.38
405.988	103.38
406.212	116.38
406.436	90.38
406.66	106.38
406.883	94.38
407.107	86.38
407.331	86.38
407.555	90.38
407.778	85.38
408.002	90.38
408.226	84.38
408.449	97.38
408.673	99.38
408.896	98.38
409.12	92.38
409.344	84.38
409.567	80.38
409.791	81.38
410.014	87.38
410.238	82.38
410.461	84.38
410.685	96.38
410.908	92.38
411.132	86.38
411.355	80.38
411.578	86.38
411.802	88.38
412.025	107.38
412.249	83.38
412.472	78.38
412.695	92.38
412.919	94.38
413.142	95.38
413.365	86.38
413.589	87.38
413.812	95.38
414.035	90.38
414.258	86.38
414.482	92.38
414.705	93.38
414.928	94.38
415.151	96.38
415.374	87.38
415.597	101.38
415.821	89.38
416.044	86.38
416.267	85.38
416.49	91.38
416.713	95.38
416.936	92.38
417.159	90.38
417.382	66.38
417.605	91.38
417.828	86.38
418.051	97.38
418.274	75.38
418.497	99.38
418.72	92.38
418.943	109.38
419.166	80.38
419.389	81.38
419.611	76.38
419.834	84.38
420.057	102.38
420.28	92.38
420.503	102.38
420.726	107.38
420.948	98.38
421.171	88.38
421.394	92.38
421.617	83.38
421.839	99.38
422.062	102.38
422.285	94.38
422.507	121.38
422.73	159.38
422.953	141.38
423.175	120.38
423.398	93.38
423.621	85.38
423.843	102.38
424.066	88.38
424.288	82.38
424.511	96.38
424.733	86.38
424.956	90.38
425.178	90.38
425.401	90.38
425.623	75.38
425.846	109.38
426.068	85.38
426.291	96.38
426.513	97.38
426.735	96.38
426.958	90.38
427.18	84.38
427.402	72.38
427.625	98.38
427.847	93.38
428.069	90.38
428.292	79.38
428.514	79.38
428.736	111.38
428.958	90.38
429.181	76.38
429.403	92.38
429.625	83.38
429.847	83.38
430.069	100.38
430.292	96.38
430.514	80.38
430.736	86.38
430.958	92.38
431.18	91.38
431.402	95.38
431.624	86.38
431.846	87.38
432.068	85.38
432.29	103.38
432.512	98.38
432.734	97.38
432.956	94.38
433.178	92.38
433.4	85.38
433.622	92.38
433.844	97.38
434.066	87.38
434.287	91.38
434.509	95.38
434.731	87.38
434.953	77.38
435.175	83.38
435.397	86.38
435.618	94.38
435.84	92.38
436.062	96.38
436.284	98.38
436.505	90.38
436.727	92.38
436.949	91.38
437.17	85.38
437.392	90.38
437.614	93.38
437.835	78.38
438.057	88.38
438.278	98.38
438.5	76.38
438.721	94.38
438.943	90.38
439.165	101.38
439.386	97.38
439.608	81.38
439.829	101.38
440.05	84.38
440.272	99.38
440.493	97.38
440.715	85.38
440.936	76.38
441.158	92.38
441.379	82.38
441.6	97.38
441.822	78.38
442.043	83.38
442.264	106.38
442.486	115.38
442.707	106.38
442.928	94.38
443.149	88.38
443.371	92.38
443.592	83.38
443.813	101.38
444.034	84.38
444.255	92.38
444.476	88.38
444.698	95.38
444.919	86.38
445.14	146.38
445.361	111.38
445.582	87.38
445.803	88.38
446.024	108.38
446.245	106.38
446.466	98.38
446.687	87.38
446.908	92.38
447.129	90.38
447.35	86.38
447.571	97.38
447.792	82.38
448.013	98.38
448.234	92.38
448.455	87.38
448.675	80.38
448.896	91.38
449.117	102.38
449.338	84.38
449.559	85.38
449.779	89.38
450	90.38
450.221	82.38
450.442	81.38
450.662	103.38
450.883	98.38
451.104	96.38
451.324	93.38
451.545	98.38
451.766	91.38
451.986	106.38
452.207	80.38
452.428	95.38
452.648	96.38
452.869	86.38
453.089	103.38
453.31	89.38
453.53	99.38
453.751	88.38
453.971	82.38
454.192	93.38
454.412	84.38
454.633	93.38
454.853	98.38
455.073	86.38
455.294	86.38
455.514	91.38
455.734	74.38
455.955	83.38
456.175	89.38
456.395	84.38
456.616	97.38
456.836	91.38
457.056	93.38
457.276	80.38
457.497	90.38
457.717	95.38
457.937	79.38
458.157	85.38
458.377	91.38
458.598	82.38
458.818	95.38
459.038	90.38
459.258	94.38
459.478	90.38
459.698	86.38
459.918	91.38
460.138	94.38
460.358	98.38
460.578	103.38
460.798	96.38
461.018	98.38
461.238	85.38
461.458	95.38
461.678	100.38
461.898	80.38
462.118	90.38
462.338	77.38
462.558	95.38
462.777	91.38
462.997	96.38
463.217	90.38
463.437	87.38
463.657	94.38
463.876	86.38
464.096	82.38
464.316	91.38
464.536	79.38
464.755	102.38
464.975	91.38
465.195	82.38
465.414	89.38
465.634	102.38
465.854	92.38
466.073	92.38
466.293	87.38
466.512	82.38
466.732	99.38
466.951	102.38
467.171	85.38
467.391	86.38
467.61	96.38
467.829	90.38
468.049	109.38
468.268	104.38
468.488	94.38
468.707	86.38
468.927	103.38
469.146	84.38
469.365	85.38
469.585	98.38
469.804	96.38
470.023	92.38
470.243	103.38
470.462	102.38
470.681	99.38
470.901	98.38
471.12	98.38
471.339	99.38
471.558	82.38
471.777	86.38
471.997	106.38
472.216	93.38
472.435	90.38
472.654	85.38
472.873	106.38
473.092	97.38
473.311	81.38
473.53	102.38
473.749	98.38
473.968	93.38
474.187	95.38
474.406	82.38
474.625	88.38
474.844	107.38
475.063	92.38
475.282	85.38
475.501	110.38
475.72	98.38
475.939	102.38
476.158	94.38
476.377	103.38
476.596	90.38
476.814	103.38
477.033	103.38
477.252	92.38
477.471	91.38
477.69	80.38
477.908	74.38
478.127	86.38
478.346	99.38
478.564	102.38
478.783	108.38
479.002	90.38
479.22	86.38
479.439	80.38
479.658	75.38
479.876	98.38
480.095	94.38
480.313	95.38
480.532	95.38
480.751	92.38
480.969	104.38
481.188	85.38
481.406	102.38
481.624	93.38
481.843	96.38
482.061	91.38
482.28	95.38
482.498	86.38
482.717	101.38
482.935	100.38
483.153	107.38
483.372	88.38
483.59	89.38
483.808	84.38
484.027	91.38
484.245	93.38
484.463	97.38
484.681	99.38
484.9	93.38
485.118	90.38
485.336	90.38
485.554	84.38
485.772	93.38
485.99	99.38
486.209	102.38
486.427	79.38
486.645	87.38
486.863	114.38
487.081	101.38
487.299	100.38
487.517	103.38
487.735	102.38
487.953	90.38
488.171	87.38
488.389	92.38
488.607	111.38
488.825	85.38
489.043	95.38
489.261	102.38
489.479	94.38
489.696	87.38
489.914	95.38
490.132	93.38
490.35	92.38
490.568	88.38
490.786	84.38
491.003	92.38
491.221	88.38
491.439	111.38
491.657	108.38
491.874	93.38
492.092	94.38
492.31	93.38
492.527	87.38
492.745	102.38
492.963	91.38
493.18	104.38
493.398	92.38
493.615	101.38
493.833	95.38
494.05	99.38
494.268	90.38
494.485	95.38
494.703	104.38
494.92	97.38
495.138	99.38
495.355	85.38
495.573	92.38
495.79	94.38
496.008	96.38
496.225	113.38
496.442	94.38
496.66	112.38
496.877	104.38
497.094	102.38
497.312	107.38
497.529	87.38
497.746	96.38
497.963	102.38
498.181	99.38
498.398	88.38
498.615	100.38
498.832	108.38
499.049	107.38
499.267	92.38
499.484	100.38
499.701	99.38
499.918	86.38
500.135	87.38
500.352	111.38
500.569	94.38
500.786	90.38
501.003	100.38
501.22	80.38
501.437	98.38
501.654	112.38
501.871	92.38
502.088	102.38
502.305	99.38
502.522	113.38
502.739	106.38
502.956	90.38
503.172	97.38
503.389	94.38
503.606	86.38
503.823	119.38
504.04	98.38
504.256	95.38
504.473	96.38
504.69	95.38
504.907	103.38
505.123	87.38
505.34	94.38
505.557	107.38
505.773	97.38
505.99	102.38
506.207	90.38
506.423	106.38
506.64	100.38
506.856	103.38
507.073	107.38
507.289	94.38
507.506	97.38
507.722	92.38
507.939	98.38
508.155	99.38
508.372	97.38
508.588	99.38
508.805	113.38
509.021	91.38
509.238	95.38
509.454	108.38
509.67	96.38
509.887	103.38
510.103	86.38
510.319	92.38
510.536	100.38
510.752	100.38
510.968	97.38
511.184	92.38
511.401	107.38
511.617	110.38
511.833	108.38
512.049	107.38
512.265	107.38
512.481	102.38
512.698	90.38
512.914	100.38
513.13	109.38
513.346	94.38
513.562	100.38
513.778	102.38
513.994	92.38
514.21	83.38
514.426	99.38
514.642	87.38
514.858	91.38
515.074	92.38
515.29	99.38
515.506	94.38
515.721	106.38
515.937	90.38
516.153	88.38
516.369	108.38
516.585	96.38
516.801	87.38
517.016	93.38
517.232	87.38
517.448	89.38
517.664	92.38
517.879	92.38
518.095	103.38
518.311	92.38
518.527	101.38
518.742	89.38
518.958	97.38
519.173	87.38
519.389	86.38
519.605	94.38
519.82	95.38
520.036	104.38
520.251	85.38
520.467	79.38
520.682	86.38
520.898	93.38
521.113	99.38
521.329	98.38
521.544	93.38
521.76	99.38
521.975	76.38
522.19	87.38
522.406	104.38
522.621	100.38
522.836	101.38
523.052	86.38
523.267	91.38
523.482	82.38
523.698	85.38
523.913	94.38
524.128	96.38
524.343	90.38
524.559	80.38
524.774	99.38
524.989	87.38
525.204	87.38
525.419	102.38
525.634	96.38
525.849	103.38
526.064	95.38
526.28	85.38
526.495	98.38
526.71	91.38
526.925	87.38
527.14	90.38
527.355	81.38
527.57	86.38
527.785	94.38
527.999	95.38
528.214	100.38
528.429	89.38
528.644	92.38
528.859	90.38
529.074	104.38
529.289	96.38
529.503	77.38
529.718	99.38
529.933	106.38
530.148	99.38
530.363	98.38
530.577	89.38
530.792	90.38
531.007	87.38
531.221	101.38
531.436	106.38
531.651	106.38
531.865	93.38
532.08	95.38
532.295	113.38
532.509	94.38
532.724	101.38
532.938	89.38
533.153	110.38
533.367	108.38
533.582	99.38
533.796	110.38
534.011	94.38
534.225	112.38
534.44	127.38
534.654	119.38
534.868	102.38
535.083	116.38
535.297	124.38
535.511	120.38
535.726	121.38
535.94	94.38
536.154	106.38
536.369	112.38
536.583	102.38
536.797	109.38
537.011	110.38
537.225	85.38
537.44	99.38
537.654	101.38
537.868	97.38
538.082	93.38
538.296	92.38
538.51	90.38
538.724	97.38
538.938	84.38
539.153	94.38
539.367	91.38
539.581	95.38
539.795	95.38
540.009	97.38
540.222	96.38
540.436	92.38
540.65	99.38
540.864	103.38
541.078	84.38
541.292	88.38
541.506	85.38
541.72	96.38
541.934	106.38
542.147	96.38
542.361	82.38
542.575	95.38
542.789	101.38
543.002	88.38
543.216	101.38
543.43	109.38
543.644	84.38
543.857	98.38
544.071	93.38
544.285	89.38
544.498	84.38
544.712	97.38
544.925	98.38
545.139	92.38
545.352	87.38
545.566	96.38
545.779	90.38
545.993	82.38
546.206	82.38
546.42	98.38
546.633	104.38
546.847	98.38
547.06	88.38
547.274	100.38
547.487	83.38
547.7	93.38
547.914	94.38
548.127	81.38
548.34	94.38
548.554	72.38
548.767	95.38
548.98	90.38
549.193	88.38
549.407	94.38
549.62	83.38
549.833	90.38
550.046	91.38
550.259	90.38
550.473	99.38
550.686	94.38
550.899	88.38
551.112	85.38
551.325	85.38
551.538	95.38
551.751	83.38
551.964	91.38
552.177	100.38
552.39	82.38
552.603	87.38
552.816	88.38
553.029	88.38
553.242	93.38
553.455	81.38
553.667	87.38
553.88	92.38
554.093	85.38
554.306	83.38
554.519	88.38
554.732	91.38
554.944	87.38
555.157	90.38
555.37	84.38
555.583	86.38
555.795	88.38
556.008	100.38
556.221	103.38
556.433	88.38
556.646	79.38
556.859	114.38
557.071	91.38
557.284	90.38
557.496	100.38
557.709	83.38
557.921	87.38
558.134	101.38
558.346	98.38
558.559	86.38
558.771	91.38
558.984	100.38
559.196	76.38
559.409	99.38
559.621	89.38
559.833	77.38
560.046	93.38
560.258	94.38
560.47	90.38
560.683	93.38
560.895	97.38
561.107	95.38
561.32	90.38
561.532	79.38
561.744	101.38
561.956	82.38
562.168	93.38
562.381	88.38
562.593	88.38
562.805	106.38
563.017	96.38
563.229	95.38
563.441	78.38
563.653	92.38
563.865	93.38
564.077	102.38
564.289	84.38
564.501	108.38
564.713	88.38
564.925	93.38
565.137	107.38
565.349	77.38
565.561	84.38
565.773	106.38
565.985	106.38
566.197	107.38
566.408	100.38
566.62	93.38
566.832	108.38
567.044	103.38
567.255	103.38
567.467	109.38
567.679	103.38
567.891	94.38
568.102	98.38
568.314	99.38
568.526	109.38
568.737	112.38
568.949	124.38
569.161	125.38
569.372	124.38
569.584	128.38
569.795	132.38
570.007	109.38
570.218	120.38
570.43	100.38
570.641	126.38
570.853	94.38
571.064	97.38
571.276	88.38
571.487	108.38
571.698	91.38
571.91	89.38
572.121	88.38
572.333	89.38
572.544	86.38
572.755	88.38
572.966	92.38
573.178	79.38
573.389	94.38
573.6	102.38
573.811	100.38
574.023	94.38
574.234	93.38
574.445	87.38
574.656	88.38
574.867	91.38
575.078	86.38
575.289	95.38
575.501	98.38
575.712	90.38
575.923	85.38
576.134	104.38
576.345	106.38
576.556	95.38
576.767	90.38
576.978	98.38
577.188	83.38
577.399	89.38
577.61	102.38
577.821	104.38
578.032	100.38
578.243	102.38
578.454	104.38
578.665	124.38
578.875	123.38
579.086	124.38
579.297	111.38
579.508	100.38
579.718	101.38
579.929	110.38
580.14	122.38
580.35	122.38
580.561	140.38
580.772	133.38
580.982	118.38
581.193	114.38
581.403	125.38
581.614	106.38
581.825	111.38
582.035	99.38
582.246	123.38
582.456	107.38
582.667	116.38
582.877	110.38
583.087	112.38
583.298	108.38
583.508	103.38
583.719	114.38
583.929	134.38
584.139	118.38
584.35	101.38
584.56	92.38
584.77	99.38
584.981	111.38
585.191	102.38
585.401	112.38
585.611	90.38
585.821	101.38
586.032	106.38
586.242	108.38
586.452	101.38
586.662	102.38
586.872	109.38
587.082	116.38
587.292	121.38
587.502	116.38
587.713	134.38
587.923	134.38
588.133	149.38
588.343	184.38
588.553	248.38
588.762	390.38
588.972	748.38
589.182	1080.38
589.392	1006.38
589.602	834.38
589.812	1019.38
590.022	744.38
590.232	374.38
590.441	229.38
590.651	170.38
590.861	145.38
591.071	132.38
591.281	130.38
591.49	112.38
591.7	107.38
591.91	112.38
592.119	115.38
592.329	110.38
592.539	96.38
592.748	88.38
592.958	114.38
593.167	112.38
593.377	104.38
593.587	102.38
593.796	101.38
594.006	82.38
594.215	91.38
594.424	86.38
594.634	78.38
594.843	95.38
595.053	105.38
595.262	100.38
595.472	96.38
595.681	80.38
595.89	89.38
596.1	103.38
596.309	93.38
596.518	86.38
596.727	92.38
596.937	96.38
597.146	91.38
597.355	83.38
597.564	89.38
597.774	100.38
597.983	101.38
598.192	95.38
598.401	86.38
598.61	86.38
598.819	96.38
599.028	100.38
599.237	95.38
599.446	86.38
599.655	96.38
599.864	87.38
600.073	91.38
600.282	95.38
600.491	98.38
600.7	97.38
600.909	87.38
601.118	93.38
601.327	98.38
601.536	83.38
601.745	90.38
601.953	86.38
602.162	86.38
602.371	91.38
602.58	92.38
602.789	88.38
602.997	90.38
603.206	93.38
603.415	95.38
603.623	73.38
603.832	86.38
604.041	92.38
604.249	81.38
604.458	94.38
604.666	90.38
604.875	94.38
605.084	85.38
605.292	88.38
605.501	91.38
605.709	87.38
605.918	95.38
606.126	95.38
606.334	81.38
606.543	96.38
606.751	88.38
606.96	77.38
607.168	109.38
607.376	80.38
607.585	90.38
607.793	98.38
608.001	95.38
608.21	84.38
608.418	97.38
608.626	109.38
608.834	79.38
609.043	106.38
609.251	84.38
609.459	98.38
609.667	92.38
609.875	90.38
610.083	89.38
610.291	87.38
610.499	89.38
610.707	83.38
610.916	101.38
611.124	101.38
611.332	106.38
611.54	89.38
611.748	90.38
611.955	98.38
612.163	101.38
612.371	108.38
612.579	92.38
612.787	102.38
612.995	102.38
613.203	104.38
613.411	103.38
613.618	95.38
613.826	100.38
614.034	96.38
614.242	86.38
614.449	92.38
614.657	75.38
614.865	85.38
615.072	95.38
615.28	88.38
615.488	83.38
615.695	90.38
615.903	103.38
616.111	104.38
616.318	98.38
616.526	112.38
616.733	94.38
616.941	108.38
617.148	92.38
617.356	90.38
617.563	99.38
617.771	102.38
617.978	87.38
618.185	100.38
618.393	80.38
618.6	91.38
618.807	89.38
619.015	98.38
619.222	81.38
619.429	87.38
619.637	80.38
619.844	94.38
620.051	89.38
620.258	95.38
620.466	95.38
620.673	86.38
620.88	98.38
621.087	93.38
621.294	92.38
621.501	101.38
621.708	95.38
621.915	84.38
622.122	94.38
622.329	86.38
622.536	92.38
622.743	94.38
622.95	88.38
623.157	96.38
623.364	89.38
623.571	79.38
623.778	102.38
623.985	95.38
624.192	91.38
624.399	91.38
624.606	87.38
624.812	86.38
625.019	92.38
625.226	85.38
625.433	71.38
625.639	91.38
625.846	83.38
626.053	92.38
626.259	95.38
626.466	91.38
626.673	82.38
626.879	91.38
627.086	100.38
627.293	91.38
627.499	82.38
627.706	83.38
627.912	86.38
628.119	99.38
628.325	80.38
628.532	86.38
628.738	95.38
628.945	99.38
629.151	84.38
629.357	102.38
629.564	86.38
629.77	82.38
629.976	72.38
630.183	78.38
630.389	94.38
630.595	90.38
630.802	85.38
631.008	93.38
631.214	84.38
631.42	83.38
631.627	88.38
631.833	80.38
632.039	101.38
632.245	91.38
632.451	87.38
632.657	100.38
632.863	86.38
633.069	91.38
633.275	84.38
633.481	78.38
633.688	80.38
633.893	83.38
634.099	78.38
634.305	89.38
634.511	92.38
634.717	98.38
634.923	93.38
635.129	89.38
635.335	83.38
635.541	95.38
635.747	90.38
635.952	75.38
636.158	93.38
636.364	88.38
636.57	88.38
636.775	91.38
636.981	83.38
637.187	84.38
637.392	85.38
637.598	95.38
637.804	88.38
638.009	82.38
638.215	94.38
638.421	103.38
638.626	86.38
638.832	81.38
639.037	79.38
639.243	81.38
639.448	89.38
639.654	95.38
639.859	87.38
640.065	86.38
640.27	93.38
640.475	87.38
640.681	89.38
640.886	87.38
641.091	87.38
641.297	110.38
641.502	73.38
641.707	83.38
641.913	97.38
642.118	92.38
642.323	82.38
642.528	101.38
642.733	74.38
642.939	84.38
643.144	80.38
643.349	95.38
643.554	82.38
643.759	101.38
643.964	90.38
644.169	92.38
644.374	85.38
644.579	81.38
644.784	86.38
644.989	88.38
645.194	81.38
645.399	94.38
645.604	81.38
645.809	87.38
646.014	95.38
646.219	77.38
646.423	83.38
646.628	95.38
646.833	90.38
647.038	93.38
647.243	95.38
647.447	96.38
647.652	84.38
647.857	89.38
648.062	93.38
648.266	82.38
648.471	94.38
648.676	76.38
648.88	75.38
649.085	77.38
649.289	72.38
649.494	84.38
649.698	94.38
649.903	94.38
650.107	92.38
650.312	90.38
650.516	82.38
650.721	81.38
650.925	94.38
651.13	89.38
651.334	100.38
651.539	97.38
651.743	94.38
651.947	80.38
652.152	90.38
652.356	79.38
652.56	84.38
652.764	89.38
652.969	88.38
653.173	87.38
653.377	81.38
653.581	89.38
653.785	82.38
653.99	92.38
654.194	94.38
654.398	86.38
654.602	90.38
654.806	71.38
655.01	84.38
655.214	83.38
655.418	79.38
655.622	86.38
655.826	83.38
656.03	86.38
656.234	69.38
656.438	71.38
656.642	79.38
656.846	79.38
657.049	86.38
657.253	99.38
657.457	95.38
657.661	83.38
657.865	89.38
658.068	91.38
658.272	95.38
658.476	72.38
658.68	83.38
658.883	93.38
659.087	87.38
659.291	76.38
659.494	85.38
659.698	97.38
659.901	82.38
660.105	67.38
660.309	88.38
660.512	82.38
660.716	73.38
660.919	86.38
661.123	81.38
661.326	85.38
661.53	85.38
661.733	83.38
661.936	87.38
662.14	82.38
662.343	103.38
662.546	86.38
662.75	87.38
662.953	92.38
663.156	83.38
663.36	102.38
663.563	85.38
663.766	82.38
663.969	67.38
664.173	84.38
664.376	85.38
664.579	82.38
664.782	79.38
664.985	81.38
665.188	80.38
665.391	93.38
665.594	76.38
665.797	83.38
666	90.38
666.203	84.38
666.406	80.38
666.609	79.38
666.812	78.38
667.015	76.38
667.218	76.38
667.421	92.38
667.624	91.38
667.827	92.38
668.03	75.38
668.232	72.38
668.435	95.38
668.638	77.38
668.841	92.38
669.043	87.38
669.246	88.38
669.449	89.38
669.651	90.38
669.854	78.38
670.057	84.38
670.259	85.38
670.462	80.38
670.665	76.38
670.867	81.38
671.07	82.38
671.272	93.38
671.475	85.38
671.677	89.38
671.88	89.38
672.082	85.38
672.284	74.38
672.487	78.38
672.689	79.38
672.892	96.38
