Data from Sand_2_HRD10591_00007.txt Node
Date: Mon Jan 19 13:33:18 EST 2026
User: Yrep
Spectrometer: HR+D1059
Trigger mode: 1
Integration Time (sec): 1.000000E-1
Scans to average: 1
Electric dark correction enabled: true
Nonlinearity correction enabled: false
Boxcar width: 0
XAxis mode: Wavelengths
Number of Pixels in Spectrum: 2048
>>>>>Begin Spectral Data<<<<<
223.165	-23
223.4	-23
223.635	-23
223.869	-25
224.104	-24
224.338	-9
224.573	-8
224.808	-18
225.042	-11
225.277	-1
225.511	9
225.746	8
225.98	1
226.215	15
226.449	10
226.683	20
226.918	15
227.152	41
227.387	46
227.621	39
227.856	49
228.09	52
228.324	49
228.559	59
228.793	62
229.027	72
229.262	72
229.496	71
229.73	69
229.964	80
230.199	76
230.433	77
230.667	77
230.901	90
231.136	88
231.37	86
231.604	82
231.838	81
232.072	87
232.306	68
232.541	96
232.775	86
233.009	95
233.243	76
233.477	79
233.711	84
233.945	71
234.179	87
234.413	88
234.647	78
234.881	90
235.115	72
235.349	94
235.583	74
235.817	82
236.051	92
236.285	85
236.519	92
236.753	92
236.987	94
237.221	84
237.455	81
237.689	84
237.922	84
238.156	85
238.39	66
238.624	75
238.858	81
239.091	90
239.325	86
239.559	87
239.793	74
240.027	70
240.26	78
240.494	84
240.728	66
240.961	86
241.195	89
241.429	69
241.662	80
241.896	84
242.13	87
242.363	66
242.597	82
242.83	83
243.064	84
243.298	77
243.531	80
243.765	77
243.998	78
244.232	74
244.465	95
244.699	78
244.932	81
245.166	85
245.399	73
245.633	87
245.866	89
246.099	88
246.333	73
246.566	80
246.8	87
247.033	78
247.266	79
247.5	80
247.733	82
247.966	73
248.2	74
248.433	87
248.666	81
248.899	85
249.133	76
249.366	85
249.599	88
249.832	72
250.066	84
250.299	94
250.532	84
250.765	84
250.998	83
251.231	92
251.465	78
251.698	81
251.931	82
252.164	86
252.397	79
252.63	82
252.863	74
253.096	88
253.329	73
253.562	86
253.795	79
254.028	78
254.261	89
254.494	97
254.727	86
254.96	81
255.193	73
255.426	71
255.659	79
255.892	84
256.124	85
256.357	80
256.59	96
256.823	87
257.056	78
257.289	82
257.521	81
257.754	85
257.987	89
258.22	80
258.452	74
258.685	86
258.918	72
259.151	80
259.383	91
259.616	83
259.849	82
260.081	87
260.314	100
260.547	87
260.779	88
261.012	87
261.244	88
261.477	86
261.71	83
261.942	79
262.175	71
262.407	82
262.64	90
262.872	87
263.105	86
263.337	90
263.57	98
263.802	102
264.035	96
264.267	89
264.499	88
264.732	89
264.964	93
265.197	82
265.429	73
265.661	89
265.894	82
266.126	87
266.358	86
266.591	82
266.823	108
267.055	74
267.287	99
267.52	87
267.752	87
267.984	70
268.216	103
268.448	94
268.681	90
268.913	102
269.145	82
269.377	92
269.609	70
269.841	95
270.073	78
270.306	74
270.538	87
270.77	67
271.002	84
271.234	89
271.466	102
271.698	91
271.93	81
272.162	96
272.394	87
272.626	86
272.858	89
273.09	89
273.322	81
273.553	76
273.785	86
274.017	95
274.249	78
274.481	87
274.713	95
274.945	77
275.176	81
275.408	81
275.64	103
275.872	84
276.104	94
276.335	89
276.567	86
276.799	92
277.031	76
277.262	89
277.494	91
277.726	96
277.957	85
278.189	90
278.421	83
278.652	93
278.884	88
279.115	73
279.347	85
279.579	103
279.81	91
280.042	98
280.273	83
280.505	84
280.736	68
280.968	80
281.199	78
281.431	80
281.662	96
281.894	88
282.125	78
282.356	78
282.588	79
282.819	96
283.051	84
283.282	105
283.513	92
283.745	82
283.976	81
284.207	94
284.439	93
284.67	93
284.901	102
285.132	88
285.364	84
285.595	92
285.826	80
286.057	70
286.288	93
286.52	88
286.751	86
286.982	77
287.213	77
287.444	88
287.675	84
287.906	98
288.138	96
288.369	88
288.6	95
288.831	82
289.062	83
289.293	69
289.524	85
289.755	87
289.986	86
290.217	82
290.448	81
290.679	104
290.91	87
291.141	90
291.371	82
291.602	80
291.833	92
292.064	88
292.295	97
292.526	81
292.757	95
292.987	88
293.218	95
293.449	87
293.68	86
293.91	75
294.141	89
294.372	89
294.603	84
294.833	96
295.064	101
295.295	70
295.525	72
295.756	90
295.987	94
296.217	82
296.448	92
296.679	92
296.909	96
297.14	85
297.37	104
297.601	104
297.831	80
298.062	93
298.292	89
298.523	75
298.753	90
298.984	88
299.214	80
299.445	85
299.675	81
299.905	84
300.136	104
300.366	87
300.597	89
300.827	105
301.057	95
301.288	93
301.518	89
301.748	90
301.979	92
302.209	97
302.439	83
302.669	88
302.9	86
303.13	80
303.36	92
303.59	84
303.82	74
304.051	72
304.281	84
304.511	97
304.741	84
304.971	85
305.201	88
305.431	87
305.661	89
305.891	100
306.121	93
306.352	81
306.582	78
306.812	97
307.042	88
307.272	95
307.502	92
307.731	96
307.961	88
308.191	111
308.421	102
308.651	86
308.881	96
309.111	97
309.341	129
309.571	110
309.8	100
310.03	101
310.26	94
310.49	80
310.72	83
310.949	100
311.179	102
311.409	86
311.639	96
311.868	84
312.098	86
312.328	83
312.557	73
312.787	88
313.017	102
313.246	90
313.476	89
313.706	92
313.935	87
314.165	89
314.394	94
314.624	98
314.853	80
315.083	81
315.312	83
315.542	92
315.771	98
316.001	87
316.23	88
316.46	91
316.689	92
316.919	95
317.148	89
317.377	101
317.607	102
317.836	90
318.065	100
318.295	88
318.524	82
318.753	101
318.983	86
319.212	95
319.441	82
319.67	81
319.9	90
320.129	99
320.358	92
320.587	84
320.816	83
321.046	95
321.275	109
321.504	97
321.733	82
321.962	81
322.191	101
322.42	102
322.649	86
322.878	88
323.108	95
323.337	92
323.566	75
323.795	96
324.024	102
324.253	96
324.482	92
324.71	96
324.939	81
325.168	97
325.397	101
325.626	76
325.855	89
326.084	100
326.313	87
326.542	78
326.77	93
326.999	86
327.228	82
327.457	97
327.686	92
327.914	101
328.143	86
328.372	98
328.6	99
328.829	87
329.058	79
329.287	94
329.515	84
329.744	100
329.972	109
330.201	110
330.43	125
330.658	103
330.887	94
331.115	94
331.344	86
331.572	93
331.801	96
332.03	93
332.258	100
332.486	92
332.715	94
332.943	97
333.172	99
333.4	78
333.629	89
333.857	90
334.085	88
334.314	90
334.542	85
334.771	94
334.999	84
335.227	75
335.455	84
335.684	78
335.912	103
336.14	96
336.369	93
336.597	100
336.825	93
337.053	92
337.281	75
337.51	96
337.738	91
337.966	99
338.194	100
338.422	79
338.65	86
338.878	89
339.106	85
339.334	87
339.562	100
339.79	80
340.018	94
340.246	87
340.474	96
340.702	89
340.93	86
341.158	80
341.386	77
341.614	100
341.842	88
342.07	88
342.298	103
342.526	92
342.754	95
342.981	97
343.209	89
343.437	118
343.665	92
343.893	89
344.12	126
344.348	107
344.576	99
344.804	96
345.031	104
345.259	100
345.487	85
345.714	101
345.942	83
346.17	88
346.397	81
346.625	100
346.853	80
347.08	90
347.308	82
347.535	86
347.763	86
347.99	88
348.218	94
348.445	92
348.673	96
348.9	97
349.128	89
349.355	86
349.583	92
349.81	91
350.037	100
350.265	96
350.492	110
350.72	88
350.947	88
351.174	95
351.402	87
351.629	93
351.856	76
352.083	101
352.311	104
352.538	86
352.765	97
352.992	95
353.22	100
353.447	96
353.674	96
353.901	94
354.128	99
354.355	94
354.583	85
354.81	90
355.037	93
355.264	92
355.491	84
355.718	84
355.945	94
356.172	84
356.399	94
356.626	96
356.853	80
357.08	96
357.307	98
357.534	88
357.761	97
357.988	93
358.215	103
358.441	86
358.668	96
358.895	101
359.122	92
359.349	95
359.576	96
359.802	78
360.029	84
360.256	82
360.483	94
360.709	88
360.936	90
361.163	74
361.39	85
361.616	98
361.843	95
362.07	94
362.296	101
362.523	104
362.749	93
362.976	93
363.203	104
363.429	79
363.656	86
363.882	98
364.109	95
364.335	97
364.562	85
364.788	89
365.015	79
365.241	98
365.468	101
365.694	88
365.92	90
366.147	100
366.373	88
366.599	87
366.826	88
367.052	93
367.278	84
367.505	82
367.731	87
367.957	80
368.184	93
368.41	111
368.636	92
368.862	93
369.089	89
369.315	93
369.541	93
369.767	101
369.993	102
370.219	97
370.445	90
370.672	93
370.898	93
371.124	101
371.35	89
371.576	100
371.802	98
372.028	95
372.254	93
372.48	84
372.706	106
372.932	98
373.158	89
373.384	92
373.61	105
373.835	95
374.061	89
374.287	89
374.513	112
374.739	91
374.965	88
375.191	91
375.416	100
375.642	98
375.868	98
376.094	80
376.319	91
376.545	90
376.771	82
376.997	89
377.222	86
377.448	84
377.674	85
377.899	89
378.125	83
378.35	84
378.576	95
378.802	81
379.027	94
379.253	93
379.478	92
379.704	94
379.929	87
380.155	84
380.38	88
380.606	88
380.831	86
381.057	97
381.282	87
381.507	95
381.733	84
381.958	100
382.184	89
382.409	87
382.634	96
382.86	89
383.085	99
383.31	92
383.535	86
383.761	96
383.986	102
384.211	95
384.436	81
384.662	78
384.887	88
385.112	92
385.337	88
385.562	84
385.787	87
386.013	82
386.238	96
386.463	85
386.688	98
386.913	92
387.138	97
387.363	86
387.588	92
387.813	91
388.038	90
388.263	101
388.488	87
388.713	85
388.938	84
389.163	86
389.387	94
389.612	82
389.837	94
390.062	85
390.287	95
390.512	87
390.736	91
390.961	81
391.186	96
391.411	99
391.636	96
391.86	90
392.085	88
392.31	100
392.534	86
392.759	93
392.984	102
393.208	109
393.433	108
393.658	109
393.882	94
394.107	101
394.331	134
394.556	165
394.78	142
395.005	100
395.229	99
395.454	87
395.678	99
395.903	123
396.127	173
396.352	204
396.576	117
396.801	109
397.025	98
397.249	103
397.474	97
397.698	108
397.922	100
398.147	90
398.371	89
398.595	86
398.82	80
399.044	92
399.268	102
399.492	80
399.717	84
399.941	90
400.165	90
400.389	90
400.613	94
400.837	96
401.062	87
401.286	94
401.51	98
401.734	97
401.958	105
402.182	97
402.406	86
402.63	96
402.854	89
403.078	110
403.302	110
403.526	111
403.75	103
403.974	143
404.198	165
404.422	276
404.645	334
404.869	295
405.093	194
405.317	111
405.541	118
405.765	118
405.988	101
406.212	94
406.436	88
406.66	112
406.883	109
407.107	86
407.331	85
407.555	92
407.778	104
408.002	100
408.226	87
408.449	98
408.673	89
408.896	88
409.12	79
409.344	89
409.567	95
409.791	86
410.014	93
410.238	96
410.461	94
410.685	91
410.908	99
411.132	77
411.355	94
411.578	96
411.802	95
412.025	81
412.249	83
412.472	89
412.695	102
412.919	94
413.142	95
413.365	90
413.589	91
413.812	82
414.035	98
414.258	85
414.482	77
414.705	100
414.928	93
415.151	92
415.374	95
415.597	117
415.821	100
416.044	92
416.267	84
416.49	92
416.713	86
416.936	91
417.159	90
417.382	84
417.605	84
417.828	96
418.051	90
418.274	94
418.497	94
418.72	78
418.943	96
419.166	92
419.389	82
419.611	96
419.834	99
420.057	95
420.28	80
420.503	88
420.726	77
420.948	102
421.171	95
421.394	106
421.617	96
421.839	93
422.062	104
422.285	99
422.507	114
422.73	153
422.953	135
423.175	97
423.398	94
423.621	105
423.843	91
424.066	93
424.288	85
424.511	91
424.733	85
424.956	92
425.178	85
425.401	106
425.623	80
425.846	86
426.068	84
426.291	80
426.513	74
426.735	102
426.958	93
427.18	84
427.402	86
427.625	88
427.847	96
428.069	94
428.292	96
428.514	86
428.736	94
428.958	88
429.181	90
429.403	92
429.625	84
429.847	89
430.069	103
430.292	101
430.514	87
430.736	96
430.958	93
431.18	108
431.402	98
431.624	97
431.846	85
432.068	92
432.29	87
432.512	80
432.734	102
432.956	90
433.178	97
433.4	100
433.622	97
433.844	86
434.066	92
434.287	81
434.509	96
434.731	76
434.953	89
435.175	95
435.397	88
435.618	93
435.84	90
436.062	102
436.284	74
436.505	81
436.727	94
436.949	103
437.17	85
437.392	109
437.614	84
437.835	84
438.057	84
438.278	79
438.5	95
438.721	102
438.943	77
439.165	90
439.386	88
439.608	97
439.829	85
440.05	87
440.272	87
440.493	97
440.715	77
440.936	80
441.158	95
441.379	89
441.6	85
441.822	72
442.043	80
442.264	100
442.486	86
442.707	85
442.928	80
443.149	93
443.371	84
443.592	92
443.813	94
444.034	90
444.255	103
444.476	92
444.698	101
444.919	99
445.14	149
445.361	116
445.582	84
445.803	100
446.024	95
446.245	110
446.466	86
446.687	103
446.908	99
447.129	99
447.35	101
447.571	81
447.792	81
448.013	93
448.234	83
448.455	90
448.675	108
448.896	97
449.117	94
449.338	95
449.559	87
449.779	84
450	87
450.221	80
450.442	100
450.662	104
450.883	80
451.104	84
451.324	101
451.545	78
451.766	92
451.986	73
452.207	76
452.428	89
452.648	94
452.869	84
453.089	96
453.31	92
453.53	77
453.751	100
453.971	93
454.192	105
454.412	80
454.633	92
454.853	94
455.073	94
455.294	103
455.514	95
455.734	101
455.955	82
456.175	87
456.395	86
456.616	81
456.836	87
457.056	97
457.276	85
457.497	83
457.717	89
457.937	102
458.157	81
458.377	93
458.598	106
458.818	70
459.038	80
459.258	86
459.478	100
459.698	97
459.918	87
460.138	75
460.358	93
460.578	100
460.798	110
461.018	86
461.238	97
461.458	110
461.678	94
461.898	94
462.118	112
462.338	94
462.558	85
462.777	93
462.997	97
463.217	71
463.437	84
463.657	94
463.876	94
464.096	83
464.316	92
464.536	102
464.755	96
464.975	87
465.195	92
465.414	102
465.634	78
465.854	101
466.073	90
466.293	101
466.512	80
466.732	92
466.951	86
467.171	96
467.391	95
467.61	91
467.829	88
468.049	84
468.268	89
468.488	95
468.707	96
468.927	86
469.146	98
469.365	101
469.585	94
469.804	97
470.023	92
470.243	89
470.462	90
470.681	96
470.901	100
471.12	87
471.339	82
471.558	89
471.777	85
471.997	88
472.216	91
472.435	82
472.654	97
472.873	103
473.092	89
473.311	87
473.53	97
473.749	103
473.968	88
474.187	104
474.406	85
474.625	95
474.844	100
475.063	82
475.282	98
475.501	102
475.72	89
475.939	90
476.158	83
476.377	81
476.596	101
476.814	85
477.033	98
477.252	90
477.471	101
477.69	102
477.908	98
478.127	97
478.346	90
478.564	100
478.783	103
479.002	82
479.22	96
479.439	119
479.658	92
479.876	79
480.095	84
480.313	92
480.532	102
480.751	111
480.969	97
481.188	87
481.406	87
481.624	93
481.843	85
482.061	90
482.28	93
482.498	74
482.717	101
482.935	92
483.153	91
483.372	83
483.59	85
483.808	80
484.027	102
484.245	98
484.463	105
484.681	99
484.9	90
485.118	104
485.336	110
485.554	94
485.772	98
485.99	92
486.209	91
486.427	84
486.645	80
486.863	80
487.081	97
487.299	98
487.517	108
487.735	102
487.953	89
488.171	104
488.389	89
488.607	88
488.825	89
489.043	109
489.261	93
489.479	109
489.696	94
489.914	112
490.132	108
490.35	97
490.568	102
490.786	85
491.003	96
491.221	100
491.439	96
491.657	95
491.874	105
492.092	101
492.31	110
492.527	102
492.745	84
492.963	105
493.18	109
493.398	103
493.615	109
493.833	85
494.05	96
494.268	108
494.485	94
494.703	104
494.92	110
495.138	100
495.355	100
495.573	103
495.79	84
496.008	105
496.225	97
496.442	92
496.66	103
496.877	101
497.094	108
497.312	100
497.529	92
497.746	105
497.963	98
498.181	100
498.398	101
498.615	112
498.832	102
499.049	97
499.267	104
499.484	97
499.701	102
499.918	105
500.135	89
500.352	101
500.569	94
500.786	92
501.003	88
501.22	95
501.437	103
501.654	99
501.871	105
502.088	108
502.305	96
502.522	93
502.739	88
502.956	97
503.172	88
503.389	96
503.606	85
503.823	94
504.04	94
504.256	89
504.473	97
504.69	108
504.907	84
505.123	115
505.34	92
505.557	92
505.773	83
505.99	89
506.207	91
506.423	93
506.64	90
506.856	98
507.073	98
507.289	113
507.506	96
507.722	96
507.939	104
508.155	98
508.372	88
508.588	89
508.805	104
509.021	96
509.238	101
509.454	82
509.67	84
509.887	98
510.103	104
510.319	106
510.536	101
510.752	96
510.968	96
511.184	117
511.401	98
511.617	104
511.833	112
512.049	93
512.265	106
512.481	99
512.698	118
512.914	99
513.13	105
513.346	94
513.562	97
513.778	99
513.994	84
514.21	99
514.426	100
514.642	86
514.858	106
515.074	99
515.29	97
515.506	100
515.721	92
515.937	95
516.153	94
516.369	97
516.585	98
516.801	92
517.016	93
517.232	102
517.448	99
517.664	94
517.879	95
518.095	98
518.311	86
518.527	99
518.742	86
518.958	89
519.173	101
519.389	93
519.605	98
519.82	102
520.036	96
520.251	95
520.467	86
520.682	85
520.898	87
521.113	92
521.329	96
521.544	86
521.76	97
521.975	85
522.19	89
522.406	100
522.621	89
522.836	103
523.052	80
523.267	105
523.482	96
523.698	85
523.913	94
524.128	84
524.343	87
524.559	104
524.774	95
524.989	95
525.204	106
525.419	94
525.634	88
525.849	87
526.064	104
526.28	96
526.495	80
526.71	91
526.925	112
527.14	87
527.355	89
527.57	94
527.785	97
527.999	95
528.214	103
528.429	99
528.644	114
528.859	93
529.074	82
529.289	104
529.503	95
529.718	109
529.933	98
530.148	103
530.363	97
530.577	87
530.792	97
531.007	112
531.221	88
531.436	71
531.651	96
531.865	100
532.08	95
532.295	109
532.509	109
532.724	104
532.938	102
533.153	112
533.367	114
533.582	109
533.796	96
534.011	88
534.225	111
534.44	108
534.654	110
534.868	105
535.083	112
535.297	109
535.511	114
535.726	111
535.94	107
536.154	97
536.369	104
536.583	112
536.797	114
537.011	113
537.225	112
537.44	97
537.654	108
537.868	91
538.082	92
538.296	92
538.51	90
538.724	100
538.938	90
539.153	94
539.367	88
539.581	90
539.795	93
540.009	94
540.222	111
540.436	95
540.65	105
540.864	101
541.078	97
541.292	95
541.506	88
541.72	92
541.934	98
542.147	99
542.361	92
542.575	90
542.789	99
543.002	89
543.216	96
543.43	89
543.644	89
543.857	89
544.071	98
544.285	90
544.498	93
544.712	103
544.925	84
545.139	110
545.352	92
545.566	86
545.779	84
545.993	103
546.206	97
546.42	95
546.633	102
546.847	96
547.06	81
547.274	102
547.487	99
547.7	97
547.914	89
548.127	100
548.34	89
548.554	93
548.767	101
548.98	94
549.193	101
549.407	72
549.62	90
549.833	88
550.046	95
550.259	94
550.473	92
550.686	97
550.899	103
551.112	117
551.325	98
551.538	96
551.751	87
551.964	96
552.177	95
552.39	87
552.603	96
552.816	92
553.029	77
553.242	90
553.455	88
553.667	95
553.88	97
554.093	99
554.306	99
554.519	90
554.732	88
554.944	82
555.157	98
555.37	98
555.583	98
555.795	97
556.008	92
556.221	100
556.433	90
556.646	99
556.859	95
557.071	94
557.284	92
557.496	97
557.709	88
557.921	93
558.134	117
558.346	96
558.559	94
558.771	95
558.984	95
559.196	84
559.409	85
559.621	92
559.833	92
560.046	107
560.258	82
560.47	89
560.683	86
560.895	92
561.107	104
561.32	82
561.532	93
561.744	90
561.956	94
562.168	101
562.381	88
562.593	100
562.805	87
563.017	90
563.229	83
563.441	93
563.653	89
563.865	92
564.077	102
564.289	94
564.501	93
564.713	102
564.925	108
565.137	112
565.349	97
565.561	86
565.773	106
565.985	86
566.197	93
566.408	84
566.62	105
566.832	85
567.044	93
567.255	98
567.467	111
567.679	113
567.891	93
568.102	110
568.314	109
568.526	115
568.737	136
568.949	112
569.161	133
569.372	120
569.584	130
569.795	117
570.007	119
570.218	117
570.43	98
570.641	110
570.853	111
571.064	109
571.276	103
571.487	110
571.698	101
571.91	101
572.121	89
572.333	101
572.544	97
572.755	100
572.966	104
573.178	93
573.389	102
573.6	71
573.811	89
574.023	90
574.234	103
574.445	90
574.656	87
574.867	89
575.078	86
575.289	114
575.501	108
575.712	98
575.923	77
576.134	96
576.345	80
576.556	104
576.767	102
576.978	99
577.188	87
577.399	90
577.61	92
577.821	96
578.032	98
578.243	112
578.454	106
578.665	116
578.875	109
579.086	101
579.297	118
579.508	105
579.718	116
579.929	100
580.14	103
580.35	112
580.561	152
580.772	140
580.982	121
581.193	116
581.403	112
581.614	110
581.825	121
582.035	99
582.246	114
582.456	98
582.667	102
582.877	100
583.087	118
583.298	110
583.508	125
583.719	120
583.929	120
584.139	111
584.35	106
584.56	103
584.77	100
584.981	83
585.191	110
585.401	100
585.611	87
585.821	105
586.032	104
586.242	99
586.452	102
586.662	114
586.872	111
587.082	116
587.292	118
587.502	122
587.713	134
587.923	137
588.133	164
588.343	211
588.553	254
588.762	380
588.972	708
589.182	989
589.392	940
589.602	792
589.812	956
590.022	714
590.232	369
590.441	242
590.651	184
590.861	160
591.071	133
591.281	133
591.49	128
591.7	112
591.91	117
592.119	111
592.329	104
592.539	97
592.748	107
592.958	97
593.167	98
593.377	111
593.587	100
593.796	96
594.006	95
594.215	109
594.424	101
594.634	114
594.843	92
595.053	86
595.262	99
595.472	82
595.681	96
595.89	105
596.1	98
596.309	110
596.518	94
596.727	98
596.937	93
597.146	99
597.355	106
597.564	92
597.774	102
597.983	97
598.192	89
598.401	92
598.61	104
598.819	96
599.028	102
599.237	92
599.446	93
599.655	96
599.864	89
600.073	76
600.282	91
600.491	84
600.7	85
600.909	95
601.118	92
601.327	96
601.536	97
601.745	86
601.953	100
602.162	93
602.371	101
602.58	82
602.789	96
602.997	93
603.206	97
603.415	100
603.623	100
603.832	95
604.041	88
604.249	98
604.458	87
604.666	92
604.875	82
605.084	88
605.292	103
605.501	107
605.709	97
605.918	93
606.126	98
606.334	91
606.543	88
606.751	88
606.96	98
607.168	101
607.376	104
607.585	94
607.793	80
608.001	95
608.21	99
608.418	98
608.626	84
608.834	90
609.043	93
609.251	101
609.459	112
609.667	97
609.875	92
610.083	95
610.291	99
610.499	99
610.707	93
610.916	96
611.124	91
611.332	96
611.54	101
611.748	94
611.955	92
612.163	97
612.371	84
612.579	85
612.787	88
612.995	114
613.203	94
613.411	85
613.618	93
613.826	98
614.034	103
614.242	87
614.449	101
614.657	102
614.865	88
615.072	88
615.28	94
615.488	97
615.695	110
615.903	95
616.111	96
616.318	89
616.526	113
616.733	101
616.941	103
617.148	101
617.356	87
617.563	98
617.771	89
617.978	97
618.185	102
618.393	96
618.6	114
618.807	107
619.015	101
619.222	99
619.429	108
619.637	87
619.844	85
620.051	99
620.258	94
620.466	95
620.673	97
620.88	102
621.087	94
621.294	96
621.501	97
621.708	81
621.915	102
622.122	91
622.329	75
622.536	85
622.743	84
622.95	88
623.157	95
623.364	105
623.571	96
623.778	98
623.985	109
624.192	86
624.399	114
624.606	101
624.812	100
625.019	101
625.226	98
625.433	103
625.639	90
625.846	98
626.053	95
626.259	90
626.466	88
626.673	97
626.879	98
627.086	94
627.293	89
627.499	94
627.706	86
627.912	93
628.119	98
628.325	101
628.532	90
628.738	95
628.945	86
629.151	90
629.357	90
629.564	84
629.77	93
629.976	87
630.183	91
630.389	92
630.595	108
630.802	96
631.008	96
631.214	85
631.42	85
631.627	86
631.833	93
632.039	88
632.245	88
632.451	114
632.657	82
632.863	87
633.069	90
633.275	103
633.481	80
633.688	86
633.893	74
634.099	94
634.305	85
634.511	90
634.717	100
634.923	92
635.129	86
635.335	90
635.541	93
635.747	100
635.952	75
636.158	94
636.364	91
636.57	73
636.775	94
636.981	89
637.187	99
637.392	92
637.598	100
637.804	105
638.009	86
638.215	99
638.421	89
638.626	112
638.832	102
639.037	94
639.243	84
639.448	92
639.654	98
639.859	97
640.065	102
640.27	91
640.475	78
640.681	87
640.886	104
641.091	100
641.297	86
641.502	100
641.707	98
641.913	77
642.118	84
642.323	68
642.528	88
642.733	86
642.939	91
643.144	92
643.349	78
643.554	87
643.759	87
643.964	104
644.169	100
644.374	87
644.579	100
644.784	93
644.989	93
645.194	88
645.399	89
645.604	92
645.809	84
646.014	104
646.219	96
646.423	83
646.628	88
646.833	96
647.038	88
647.243	94
647.447	97
647.652	82
647.857	92
648.062	92
648.266	99
648.471	95
648.676	77
648.88	86
649.085	101
649.289	100
649.494	92
649.698	88
649.903	90
650.107	90
650.312	89
650.516	89
650.721	83
650.925	89
651.13	79
651.334	83
651.539	86
651.743	68
651.947	94
652.152	80
652.356	80
652.56	90
652.764	108
652.969	78
653.173	88
653.377	82
653.581	90
653.785	87
653.99	92
654.194	92
654.398	93
654.602	79
654.806	86
655.01	88
655.214	81
655.418	103
655.622	96
655.826	89
656.03	104
656.234	90
656.438	93
656.642	98
656.846	90
657.049	97
657.253	81
657.457	85
657.661	86
657.865	87
658.068	72
658.272	85
658.476	96
658.68	88
658.883	88
659.087	100
659.291	94
659.494	80
659.698	89
659.901	77
660.105	88
660.309	86
660.512	78
660.716	84
660.919	76
661.123	88
661.326	101
661.53	90
661.733	100
661.936	80
662.14	75
662.343	78
662.546	88
662.75	93
662.953	84
663.156	90
663.36	82
663.563	84
663.766	85
663.969	86
664.173	82
664.376	89
664.579	82
664.782	105
664.985	74
665.188	65
665.391	81
665.594	74
665.797	71
666	84
666.203	88
666.406	88
666.609	79
666.812	93
667.015	104
667.218	86
667.421	91
667.624	75
667.827	81
668.03	81
668.232	81
668.435	82
668.638	79
668.841	91
669.043	92
669.246	84
669.449	86
669.651	80
669.854	78
670.057	80
670.259	90
670.462	98
670.665	80
670.867	89
671.07	83
671.272	81
671.475	88
671.677	89
671.88	93
672.082	86
672.284	86
672.487	80
672.689	83
672.892	86
