Data from Sand_2_HRD10591_00012.txt Node
Date: Mon Jan 19 13:33:21 EST 2026
User: Yrep
Spectrometer: HR+D1059
Trigger mode: 1
Integration Time (sec): 1.000000E-1
Scans to average: 1
Electric dark correction enabled: true
Nonlinearity correction enabled: false
Boxcar width: 0
XAxis mode: Wavelengths
Number of Pixels in Spectrum: 2048
>>>>>Begin Spectral Data<<<<<
223.165	-29.69
223.4	-29.69
223.635	-29.69
223.869	-21.69
224.104	-20.69
224.338	-0.69
224.573	-5.69
224.808	-0.69
225.042	-16.69
225.277	-9.69
225.511	-6.69
225.746	-1.69
225.98	3.31
226.215	3.31
226.449	23.31
226.683	29.31
226.918	29.31
227.152	25.31
227.387	35.31
227.621	40.31
227.856	37.31
228.09	49.31
228.324	67.31
228.559	58.31
228.793	57.31
229.027	68.31
229.262	61.31
229.496	74.31
229.73	75.31
229.964	66.31
230.199	60.31
230.433	55.31
230.667	74.31
230.901	70.31
231.136	80.31
231.37	81.31
231.604	81.31
231.838	85.31
232.072	63.31
232.306	79.31
232.541	75.31
232.775	75.31
233.009	83.31
233.243	87.31
233.477	66.31
233.711	90.31
233.945	68.31
234.179	63.31
234.413	88.31
234.647	81.31
234.881	77.31
235.115	88.31
235.349	78.31
235.583	76.31
235.817	78.31
236.051	86.31
236.285	60.31
236.519	77.31
236.753	92.31
236.987	79.31
237.221	62.31
237.455	83.31
237.689	67.31
237.922	77.31
238.156	95.31
238.39	68.31
238.624	68.31
238.858	90.31
239.091	69.31
239.325	60.31
239.559	77.31
239.793	71.31
240.027	79.31
240.26	70.31
240.494	64.31
240.728	79.31
240.961	75.31
241.195	80.31
241.429	82.31
241.662	77.31
241.896	83.31
242.13	73.31
242.363	72.31
242.597	69.31
242.83	70.31
243.064	91.31
243.298	87.31
243.531	78.31
243.765	65.31
243.998	77.31
244.232	77.31
244.465	89.31
244.699	74.31
244.932	77.31
245.166	67.31
245.399	84.31
245.633	80.31
245.866	89.31
246.099	74.31
246.333	92.31
246.566	82.31
246.8	82.31
247.033	64.31
247.266	68.31
247.5	72.31
247.733	66.31
247.966	80.31
248.2	57.31
248.433	68.31
248.666	74.31
248.899	64.31
249.133	86.31
249.366	73.31
249.599	79.31
249.832	83.31
250.066	84.31
250.299	63.31
250.532	81.31
250.765	82.31
250.998	90.31
251.231	95.31
251.465	89.31
251.698	67.31
251.931	91.31
252.164	81.31
252.397	78.31
252.63	75.31
252.863	73.31
253.096	75.31
253.329	82.31
253.562	83.31
253.795	78.31
254.028	86.31
254.261	70.31
254.494	78.31
254.727	85.31
254.96	85.31
255.193	76.31
255.426	77.31
255.659	70.31
255.892	72.31
256.124	85.31
256.357	80.31
256.59	92.31
256.823	66.31
257.056	79.31
257.289	77.31
257.521	87.31
257.754	75.31
257.987	76.31
258.22	72.31
258.452	73.31
258.685	72.31
258.918	77.31
259.151	83.31
259.383	73.31
259.616	75.31
259.849	73.31
260.081	79.31
260.314	84.31
260.547	75.31
260.779	87.31
261.012	76.31
261.244	80.31
261.477	80.31
261.71	82.31
261.942	83.31
262.175	63.31
262.407	84.31
262.64	79.31
262.872	71.31
263.105	85.31
263.337	82.31
263.57	82.31
263.802	80.31
264.035	89.31
264.267	84.31
264.499	80.31
264.732	88.31
264.964	75.31
265.197	74.31
265.429	77.31
265.661	76.31
265.894	68.31
266.126	83.31
266.358	76.31
266.591	79.31
266.823	87.31
267.055	74.31
267.287	89.31
267.52	78.31
267.752	66.31
267.984	80.31
268.216	85.31
268.448	77.31
268.681	91.31
268.913	89.31
269.145	90.31
269.377	79.31
269.609	91.31
269.841	78.31
270.073	84.31
270.306	65.31
270.538	87.31
270.77	83.31
271.002	84.31
271.234	77.31
271.466	80.31
271.698	80.31
271.93	90.31
272.162	89.31
272.394	94.31
272.626	85.31
272.858	90.31
273.09	88.31
273.322	80.31
273.553	81.31
273.785	69.31
274.017	70.31
274.249	84.31
274.481	87.31
274.713	60.31
274.945	88.31
275.176	98.31
275.408	81.31
275.64	82.31
275.872	85.31
276.104	88.31
276.335	80.31
276.567	79.31
276.799	76.31
277.031	65.31
277.262	69.31
277.494	75.31
277.726	89.31
277.957	79.31
278.189	69.31
278.421	91.31
278.652	82.31
278.884	78.31
279.115	92.31
279.347	83.31
279.579	82.31
279.81	86.31
280.042	89.31
280.273	99.31
280.505	83.31
280.736	73.31
280.968	77.31
281.199	76.31
281.431	87.31
281.662	84.31
281.894	84.31
282.125	79.31
282.356	82.31
282.588	75.31
282.819	76.31
283.051	74.31
283.282	77.31
283.513	81.31
283.745	65.31
283.976	66.31
284.207	90.31
284.439	75.31
284.67	81.31
284.901	86.31
285.132	90.31
285.364	84.31
285.595	99.31
285.826	90.31
286.057	76.31
286.288	85.31
286.52	81.31
286.751	89.31
286.982	86.31
287.213	83.31
287.444	79.31
287.675	82.31
287.906	75.31
288.138	83.31
288.369	78.31
288.6	83.31
288.831	79.31
289.062	89.31
289.293	90.31
289.524	85.31
289.755	87.31
289.986	91.31
290.217	86.31
290.448	79.31
290.679	103.31
290.91	89.31
291.141	74.31
291.371	85.31
291.602	86.31
291.833	82.31
292.064	82.31
292.295	84.31
292.526	92.31
292.757	82.31
292.987	89.31
293.218	77.31
293.449	81.31
293.68	84.31
293.91	88.31
294.141	78.31
294.372	80.31
294.603	78.31
294.833	83.31
295.064	93.31
295.295	76.31
295.525	96.31
295.756	98.31
295.987	83.31
296.217	82.31
296.448	86.31
296.679	80.31
296.909	88.31
297.14	87.31
297.37	83.31
297.601	83.31
297.831	83.31
298.062	95.31
298.292	88.31
298.523	80.31
298.753	89.31
298.984	77.31
299.214	77.31
299.445	105.31
299.675	95.31
299.905	70.31
300.136	73.31
300.366	94.31
300.597	81.31
300.827	94.31
301.057	89.31
301.288	86.31
301.518	74.31
301.748	85.31
301.979	88.31
302.209	82.31
302.439	86.31
302.669	90.31
302.9	75.31
303.13	83.31
303.36	87.31
303.59	78.31
303.82	55.31
304.051	92.31
304.281	87.31
304.511	84.31
304.741	94.31
304.971	91.31
305.201	77.31
305.431	82.31
305.661	69.31
305.891	96.31
306.121	90.31
306.352	84.31
306.582	75.31
306.812	89.31
307.042	86.31
307.272	91.31
307.502	78.31
307.731	92.31
307.961	85.31
308.191	87.31
308.421	83.31
308.651	85.31
308.881	95.31
309.111	91.31
309.341	80.31
309.571	87.31
309.8	75.31
310.03	88.31
310.26	92.31
310.49	75.31
310.72	100.31
310.949	85.31
311.179	87.31
311.409	82.31
311.639	88.31
311.868	89.31
312.098	100.31
312.328	90.31
312.557	83.31
312.787	76.31
313.017	96.31
313.246	80.31
313.476	83.31
313.706	95.31
313.935	81.31
314.165	90.31
314.394	81.31
314.624	82.31
314.853	97.31
315.083	94.31
315.312	83.31
315.542	79.31
315.771	107.31
316.001	80.31
316.23	93.31
316.46	93.31
316.689	82.31
316.919	98.31
317.148	90.31
317.377	84.31
317.607	108.31
317.836	88.31
318.065	84.31
318.295	90.31
318.524	70.31
318.753	89.31
318.983	91.31
319.212	103.31
319.441	67.31
319.67	85.31
319.9	81.31
320.129	69.31
320.358	74.31
320.587	90.31
320.816	94.31
321.046	96.31
321.275	87.31
321.504	93.31
321.733	79.31
321.962	84.31
322.191	103.31
322.42	82.31
322.649	84.31
322.878	80.31
323.108	97.31
323.337	84.31
323.566	78.31
323.795	106.31
324.024	91.31
324.253	86.31
324.482	80.31
324.71	81.31
324.939	88.31
325.168	83.31
325.397	93.31
325.626	104.31
325.855	77.31
326.084	87.31
326.313	75.31
326.542	79.31
326.77	95.31
326.999	77.31
327.228	96.31
327.457	84.31
327.686	88.31
327.914	82.31
328.143	105.31
328.372	100.31
328.6	91.31
328.829	75.31
329.058	86.31
329.287	75.31
329.515	87.31
329.744	92.31
329.972	77.31
330.201	97.31
330.43	105.31
330.658	103.31
330.887	99.31
331.115	89.31
331.344	82.31
331.572	83.31
331.801	83.31
332.03	83.31
332.258	95.31
332.486	85.31
332.715	100.31
332.943	103.31
333.172	77.31
333.4	81.31
333.629	85.31
333.857	92.31
334.085	103.31
334.314	87.31
334.542	82.31
334.771	80.31
334.999	80.31
335.227	99.31
335.455	83.31
335.684	92.31
335.912	92.31
336.14	90.31
336.369	87.31
336.597	72.31
336.825	91.31
337.053	69.31
337.281	103.31
337.51	79.31
337.738	94.31
337.966	91.31
338.194	89.31
338.422	87.31
338.65	76.31
338.878	87.31
339.106	82.31
339.334	92.31
339.562	82.31
339.79	83.31
340.018	88.31
340.246	90.31
340.474	85.31
340.702	87.31
340.93	78.31
341.158	87.31
341.386	99.31
341.614	82.31
341.842	93.31
342.07	85.31
342.298	76.31
342.526	79.31
342.754	87.31
342.981	94.31
343.209	85.31
343.437	99.31
343.665	89.31
343.893	96.31
344.12	92.31
344.348	92.31
344.576	89.31
344.804	96.31
345.031	104.31
345.259	84.31
345.487	82.31
345.714	93.31
345.942	93.31
346.17	101.31
346.397	93.31
346.625	90.31
346.853	89.31
347.08	96.31
347.308	90.31
347.535	97.31
347.763	107.31
347.99	90.31
348.218	85.31
348.445	83.31
348.673	88.31
348.9	89.31
349.128	86.31
349.355	82.31
349.583	92.31
349.81	80.31
350.037	90.31
350.265	83.31
350.492	90.31
350.72	70.31
350.947	87.31
351.174	83.31
351.402	81.31
351.629	91.31
351.856	94.31
352.083	88.31
352.311	86.31
352.538	76.31
352.765	89.31
352.992	90.31
353.22	96.31
353.447	89.31
353.674	92.31
353.901	83.31
354.128	78.31
354.355	87.31
354.583	81.31
354.81	89.31
355.037	94.31
355.264	89.31
355.491	104.31
355.718	77.31
355.945	83.31
356.172	88.31
356.399	81.31
356.626	69.31
356.853	96.31
357.08	93.31
357.307	98.31
357.534	101.31
357.761	89.31
357.988	104.31
358.215	85.31
358.441	81.31
358.668	88.31
358.895	85.31
359.122	95.31
359.349	93.31
359.576	83.31
359.802	93.31
360.029	83.31
360.256	88.31
360.483	94.31
360.709	77.31
360.936	94.31
361.163	98.31
361.39	104.31
361.616	97.31
361.843	85.31
362.07	92.31
362.296	91.31
362.523	76.31
362.749	84.31
362.976	76.31
363.203	77.31
363.429	78.31
363.656	85.31
363.882	87.31
364.109	89.31
364.335	88.31
364.562	96.31
364.788	78.31
365.015	96.31
365.241	88.31
365.468	95.31
365.694	87.31
365.92	73.31
366.147	96.31
366.373	81.31
366.599	97.31
366.826	106.31
367.052	78.31
367.278	91.31
367.505	89.31
367.731	97.31
367.957	72.31
368.184	90.31
368.41	80.31
368.636	84.31
368.862	97.31
369.089	84.31
369.315	83.31
369.541	80.31
369.767	87.31
369.993	85.31
370.219	94.31
370.445	89.31
370.672	92.31
370.898	92.31
371.124	79.31
371.35	90.31
371.576	83.31
371.802	78.31
372.028	79.31
372.254	88.31
372.48	95.31
372.706	92.31
372.932	79.31
373.158	93.31
373.384	80.31
373.61	77.31
373.835	84.31
374.061	79.31
374.287	93.31
374.513	89.31
374.739	80.31
374.965	85.31
375.191	91.31
375.416	93.31
375.642	80.31
375.868	89.31
376.094	79.31
376.319	81.31
376.545	95.31
376.771	86.31
376.997	83.31
377.222	93.31
377.448	97.31
377.674	91.31
377.899	83.31
378.125	76.31
378.35	83.31
378.576	87.31
378.802	81.31
379.027	91.31
379.253	83.31
379.478	91.31
379.704	96.31
379.929	80.31
380.155	76.31
380.38	86.31
380.606	91.31
380.831	82.31
381.057	93.31
381.282	93.31
381.507	76.31
381.733	87.31
381.958	80.31
382.184	87.31
382.409	91.31
382.634	94.31
382.86	99.31
383.085	83.31
383.31	93.31
383.535	99.31
383.761	93.31
383.986	86.31
384.211	84.31
384.436	83.31
384.662	79.31
384.887	78.31
385.112	85.31
385.337	80.31
385.562	88.31
385.787	88.31
386.013	75.31
386.238	87.31
386.463	69.31
386.688	96.31
386.913	86.31
387.138	84.31
387.363	79.31
387.588	96.31
387.813	90.31
388.038	85.31
388.263	92.31
388.488	90.31
388.713	82.31
388.938	88.31
389.163	87.31
389.387	80.31
389.612	78.31
389.837	80.31
390.062	88.31
390.287	92.31
390.512	88.31
390.736	88.31
390.961	92.31
391.186	90.31
391.411	91.31
391.636	80.31
391.86	90.31
392.085	87.31
392.31	93.31
392.534	87.31
392.759	103.31
392.984	95.31
393.208	117.31
393.433	132.31
393.658	131.31
393.882	79.31
394.107	86.31
394.331	113.31
394.556	133.31
394.78	114.31
395.005	91.31
395.229	85.31
395.454	97.31
395.678	95.31
395.903	98.31
396.127	132.31
396.352	154.31
396.576	118.31
396.801	116.31
397.025	127.31
397.249	84.31
397.474	82.31
397.698	89.31
397.922	89.31
398.147	82.31
398.371	78.31
398.595	77.31
398.82	75.31
399.044	86.31
399.268	93.31
399.492	78.31
399.717	97.31
399.941	83.31
400.165	94.31
400.389	83.31
400.613	72.31
400.837	84.31
401.062	89.31
401.286	87.31
401.51	88.31
401.734	113.31
401.958	77.31
402.182	91.31
402.406	82.31
402.63	70.31
402.854	94.31
403.078	85.31
403.302	84.31
403.526	98.31
403.75	107.31
403.974	118.31
404.198	174.31
404.422	245.31
404.645	315.31
404.869	271.31
405.093	196.31
405.317	136.31
405.541	84.31
405.765	99.31
405.988	96.31
406.212	83.31
406.436	90.31
406.66	89.31
406.883	85.31
407.107	91.31
407.331	71.31
407.555	81.31
407.778	84.31
408.002	79.31
408.226	77.31
408.449	83.31
408.673	83.31
408.896	83.31
409.12	80.31
409.344	79.31
409.567	84.31
409.791	79.31
410.014	85.31
410.238	81.31
410.461	88.31
410.685	80.31
410.908	79.31
411.132	92.31
411.355	89.31
411.578	99.31
411.802	87.31
412.025	78.31
412.249	84.31
412.472	97.31
412.695	88.31
412.919	101.31
413.142	88.31
413.365	79.31
413.589	89.31
413.812	80.31
414.035	99.31
414.258	90.31
414.482	74.31
414.705	86.31
414.928	90.31
415.151	89.31
415.374	88.31
415.597	98.31
415.821	91.31
416.044	80.31
416.267	101.31
416.49	86.31
416.713	77.31
416.936	89.31
417.159	80.31
417.382	81.31
417.605	95.31
417.828	93.31
418.051	74.31
418.274	79.31
418.497	93.31
418.72	82.31
418.943	77.31
419.166	79.31
419.389	90.31
419.611	77.31
419.834	88.31
420.057	93.31
420.28	77.31
420.503	83.31
420.726	92.31
420.948	68.31
421.171	84.31
421.394	79.31
421.617	87.31
421.839	95.31
422.062	92.31
422.285	99.31
422.507	131.31
422.73	178.31
422.953	160.31
423.175	96.31
423.398	80.31
423.621	91.31
423.843	93.31
424.066	79.31
424.288	85.31
424.511	82.31
424.733	69.31
424.956	90.31
425.178	97.31
425.401	87.31
425.623	91.31
425.846	89.31
426.068	75.31
426.291	75.31
426.513	82.31
426.735	81.31
426.958	96.31
427.18	89.31
427.402	82.31
427.625	74.31
427.847	95.31
428.069	97.31
428.292	82.31
428.514	93.31
428.736	90.31
428.958	83.31
429.181	97.31
429.403	97.31
429.625	94.31
429.847	75.31
430.069	83.31
430.292	97.31
430.514	94.31
430.736	84.31
430.958	101.31
431.18	77.31
431.402	88.31
431.624	81.31
431.846	86.31
432.068	97.31
432.29	92.31
432.512	92.31
432.734	97.31
432.956	81.31
433.178	94.31
433.4	75.31
433.622	89.31
433.844	88.31
434.066	76.31
434.287	74.31
434.509	77.31
434.731	100.31
434.953	100.31
435.175	74.31
435.397	85.31
435.618	85.31
435.84	85.31
436.062	85.31
436.284	73.31
436.505	83.31
436.727	86.31
436.949	97.31
437.17	84.31
437.392	94.31
437.614	92.31
437.835	91.31
438.057	81.31
438.278	84.31
438.5	82.31
438.721	93.31
438.943	86.31
439.165	85.31
439.386	98.31
439.608	80.31
439.829	86.31
440.05	93.31
440.272	96.31
440.493	76.31
440.715	98.31
440.936	87.31
441.158	97.31
441.379	84.31
441.6	87.31
441.822	88.31
442.043	80.31
442.264	84.31
442.486	76.31
442.707	86.31
442.928	88.31
443.149	82.31
443.371	84.31
443.592	91.31
443.813	106.31
444.034	94.31
444.255	90.31
444.476	91.31
444.698	84.31
444.919	84.31
445.14	146.31
445.361	108.31
445.582	105.31
445.803	101.31
446.024	88.31
446.245	87.31
446.466	91.31
446.687	90.31
446.908	93.31
447.129	93.31
447.35	93.31
447.571	99.31
447.792	78.31
448.013	88.31
448.234	83.31
448.455	81.31
448.675	93.31
448.896	78.31
449.117	87.31
449.338	99.31
449.559	91.31
449.779	88.31
450	96.31
450.221	93.31
450.442	98.31
450.662	83.31
450.883	96.31
451.104	86.31
451.324	87.31
451.545	88.31
451.766	81.31
451.986	79.31
452.207	80.31
452.428	79.31
452.648	67.31
452.869	89.31
453.089	93.31
453.31	81.31
453.53	87.31
453.751	84.31
453.971	79.31
454.192	112.31
454.412	80.31
454.633	98.31
454.853	79.31
455.073	83.31
455.294	88.31
455.514	94.31
455.734	79.31
455.955	98.31
456.175	79.31
456.395	83.31
456.616	91.31
456.836	78.31
457.056	80.31
457.276	77.31
457.497	83.31
457.717	79.31
457.937	89.31
458.157	90.31
458.377	87.31
458.598	87.31
458.818	95.31
459.038	91.31
459.258	80.31
459.478	90.31
459.698	81.31
459.918	81.31
460.138	76.31
460.358	76.31
460.578	82.31
460.798	83.31
461.018	90.31
461.238	80.31
461.458	87.31
461.678	87.31
461.898	94.31
462.118	99.31
462.338	88.31
462.558	87.31
462.777	87.31
462.997	75.31
463.217	85.31
463.437	81.31
463.657	82.31
463.876	79.31
464.096	80.31
464.316	83.31
464.536	84.31
464.755	99.31
464.975	74.31
465.195	99.31
465.414	97.31
465.634	96.31
465.854	68.31
466.073	80.31
466.293	74.31
466.512	82.31
466.732	82.31
466.951	89.31
467.171	85.31
467.391	86.31
467.61	93.31
467.829	97.31
468.049	90.31
468.268	74.31
468.488	79.31
468.707	100.31
468.927	86.31
469.146	84.31
469.365	93.31
469.585	85.31
469.804	81.31
470.023	75.31
470.243	90.31
470.462	94.31
470.681	84.31
470.901	103.31
471.12	89.31
471.339	96.31
471.558	98.31
471.777	84.31
471.997	87.31
472.216	84.31
472.435	95.31
472.654	103.31
472.873	86.31
473.092	83.31
473.311	76.31
473.53	74.31
473.749	88.31
473.968	81.31
474.187	90.31
474.406	80.31
474.625	85.31
474.844	82.31
475.063	70.31
475.282	91.31
475.501	81.31
475.72	95.31
475.939	82.31
476.158	80.31
476.377	85.31
476.596	89.31
476.814	79.31
477.033	90.31
477.252	79.31
477.471	81.31
477.69	89.31
477.908	95.31
478.127	91.31
478.346	90.31
478.564	101.31
478.783	73.31
479.002	100.31
479.22	93.31
479.439	82.31
479.658	85.31
479.876	86.31
480.095	87.31
480.313	92.31
480.532	99.31
480.751	67.31
480.969	84.31
481.188	89.31
481.406	85.31
481.624	88.31
481.843	75.31
482.061	93.31
482.28	91.31
482.498	77.31
482.717	85.31
482.935	84.31
483.153	98.31
483.372	94.31
483.59	88.31
483.808	97.31
484.027	97.31
484.245	90.31
484.463	84.31
484.681	88.31
484.9	85.31
485.118	101.31
485.336	93.31
485.554	91.31
485.772	94.31
485.99	92.31
486.209	96.31
486.427	92.31
486.645	76.31
486.863	83.31
487.081	91.31
487.299	104.31
487.517	91.31
487.735	91.31
487.953	83.31
488.171	91.31
488.389	100.31
488.607	84.31
488.825	88.31
489.043	93.31
489.261	88.31
489.479	93.31
489.696	94.31
489.914	96.31
490.132	101.31
490.35	83.31
490.568	86.31
490.786	91.31
491.003	93.31
491.221	90.31
491.439	89.31
491.657	97.31
491.874	97.31
492.092	88.31
492.31	104.31
492.527	81.31
492.745	93.31
492.963	90.31
493.18	102.31
493.398	94.31
493.615	89.31
493.833	89.31
494.05	86.31
494.268	105.31
494.485	98.31
494.703	96.31
494.92	93.31
495.138	95.31
495.355	88.31
495.573	100.31
495.79	101.31
496.008	93.31
496.225	100.31
496.442	98.31
496.66	92.31
496.877	84.31
497.094	99.31
497.312	94.31
497.529	77.31
497.746	94.31
497.963	93.31
498.181	100.31
498.398	108.31
498.615	85.31
498.832	91.31
499.049	91.31
499.267	93.31
499.484	90.31
499.701	85.31
499.918	96.31
500.135	92.31
500.352	77.31
500.569	85.31
500.786	111.31
501.003	89.31
501.22	85.31
501.437	93.31
501.654	91.31
501.871	99.31
502.088	95.31
502.305	78.31
502.522	84.31
502.739	89.31
502.956	73.31
503.172	81.31
503.389	81.31
503.606	97.31
503.823	84.31
504.04	90.31
504.256	94.31
504.473	99.31
504.69	103.31
504.907	97.31
505.123	75.31
505.34	83.31
505.557	80.31
505.773	97.31
505.99	95.31
506.207	79.31
506.423	85.31
506.64	90.31
506.856	93.31
507.073	87.31
507.289	100.31
507.506	81.31
507.722	82.31
507.939	84.31
508.155	97.31
508.372	89.31
508.588	98.31
508.805	100.31
509.021	93.31
509.238	99.31
509.454	92.31
509.67	93.31
509.887	96.31
510.103	84.31
510.319	92.31
510.536	94.31
510.752	97.31
510.968	89.31
511.184	91.31
511.401	95.31
511.617	86.31
511.833	93.31
512.049	95.31
512.265	98.31
512.481	92.31
512.698	80.31
512.914	95.31
513.13	99.31
513.346	73.31
513.562	98.31
513.778	94.31
513.994	72.31
514.21	84.31
514.426	80.31
514.642	88.31
514.858	80.31
515.074	83.31
515.29	95.31
515.506	90.31
515.721	91.31
515.937	88.31
516.153	81.31
516.369	90.31
516.585	83.31
516.801	91.31
517.016	87.31
517.232	89.31
517.448	89.31
517.664	87.31
517.879	78.31
518.095	91.31
518.311	81.31
518.527	95.31
518.742	95.31
518.958	90.31
519.173	86.31
519.389	84.31
519.605	79.31
519.82	95.31
520.036	92.31
520.251	96.31
520.467	95.31
520.682	83.31
520.898	85.31
521.113	86.31
521.329	95.31
521.544	92.31
521.76	71.31
521.975	69.31
522.19	94.31
522.406	86.31
522.621	90.31
522.836	82.31
523.052	96.31
523.267	87.31
523.482	91.31
523.698	84.31
523.913	90.31
524.128	100.31
524.343	103.31
524.559	88.31
524.774	81.31
524.989	91.31
525.204	89.31
525.419	91.31
525.634	68.31
525.849	83.31
526.064	83.31
526.28	107.31
526.495	102.31
526.71	104.31
526.925	89.31
527.14	91.31
527.355	83.31
527.57	78.31
527.785	82.31
527.999	93.31
528.214	83.31
528.429	91.31
528.644	89.31
528.859	96.31
529.074	91.31
529.289	94.31
529.503	80.31
529.718	88.31
529.933	94.31
530.148	83.31
530.363	89.31
530.577	82.31
530.792	85.31
531.007	90.31
531.221	93.31
531.436	79.31
531.651	88.31
531.865	94.31
532.08	88.31
532.295	98.31
532.509	92.31
532.724	106.31
532.938	97.31
533.153	96.31
533.367	95.31
533.582	96.31
533.796	100.31
534.011	91.31
534.225	99.31
534.44	102.31
534.654	105.31
534.868	114.31
535.083	114.31
535.297	117.31
535.511	100.31
535.726	94.31
535.94	111.31
536.154	109.31
536.369	103.31
536.583	99.31
536.797	113.31
537.011	98.31
537.225	77.31
537.44	109.31
537.654	94.31
537.868	96.31
538.082	104.31
538.296	92.31
538.51	78.31
538.724	92.31
538.938	80.31
539.153	81.31
539.367	93.31
539.581	93.31
539.795	88.31
540.009	81.31
540.222	75.31
540.436	83.31
540.65	99.31
540.864	93.31
541.078	81.31
541.292	91.31
541.506	95.31
541.72	85.31
541.934	96.31
542.147	95.31
542.361	101.31
542.575	99.31
542.789	76.31
543.002	83.31
543.216	94.31
543.43	84.31
543.644	82.31
543.857	80.31
544.071	92.31
544.285	103.31
544.498	87.31
544.712	78.31
544.925	94.31
545.139	97.31
545.352	91.31
545.566	84.31
545.779	93.31
545.993	79.31
546.206	87.31
546.42	90.31
546.633	85.31
546.847	96.31
547.06	85.31
547.274	81.31
547.487	96.31
547.7	92.31
547.914	88.31
548.127	100.31
548.34	106.31
548.554	87.31
548.767	80.31
548.98	89.31
549.193	87.31
549.407	93.31
549.62	96.31
549.833	85.31
550.046	88.31
550.259	95.31
550.473	81.31
550.686	80.31
550.899	96.31
551.112	91.31
551.325	88.31
551.538	69.31
551.751	77.31
551.964	95.31
552.177	93.31
552.39	91.31
552.603	91.31
552.816	84.31
553.029	91.31
553.242	90.31
553.455	87.31
553.667	99.31
553.88	96.31
554.093	88.31
554.306	95.31
554.519	101.31
554.732	81.31
554.944	92.31
555.157	91.31
555.37	95.31
555.583	74.31
555.795	91.31
556.008	93.31
556.221	114.31
556.433	90.31
556.646	97.31
556.859	98.31
557.071	102.31
557.284	93.31
557.496	88.31
557.709	89.31
557.921	82.31
558.134	87.31
558.346	93.31
558.559	94.31
558.771	81.31
558.984	98.31
559.196	107.31
559.409	100.31
559.621	103.31
559.833	86.31
560.046	98.31
560.258	90.31
560.47	101.31
560.683	85.31
560.895	78.31
561.107	105.31
561.32	89.31
561.532	91.31
561.744	91.31
561.956	94.31
562.168	80.31
562.381	90.31
562.593	92.31
562.805	80.31
563.017	84.31
563.229	93.31
563.441	88.31
563.653	92.31
563.865	75.31
564.077	84.31
564.289	90.31
564.501	93.31
564.713	76.31
564.925	80.31
565.137	95.31
565.349	98.31
565.561	92.31
565.773	92.31
565.985	80.31
566.197	95.31
566.408	92.31
566.62	92.31
566.832	92.31
567.044	92.31
567.255	108.31
567.467	95.31
567.679	85.31
567.891	79.31
568.102	93.31
568.314	105.31
568.526	113.31
568.737	105.31
568.949	99.31
569.161	102.31
569.372	116.31
569.584	103.31
569.795	103.31
570.007	99.31
570.218	97.31
570.43	87.31
570.641	85.31
570.853	90.31
571.064	92.31
571.276	96.31
571.487	83.31
571.698	93.31
571.91	103.31
572.121	76.31
572.333	81.31
572.544	79.31
572.755	92.31
572.966	93.31
573.178	92.31
573.389	98.31
573.6	81.31
573.811	84.31
574.023	84.31
574.234	101.31
574.445	92.31
574.656	84.31
574.867	102.31
575.078	93.31
575.289	102.31
575.501	89.31
575.712	88.31
575.923	94.31
576.134	95.31
576.345	85.31
576.556	97.31
576.767	74.31
576.978	95.31
577.188	84.31
577.399	70.31
577.61	89.31
577.821	66.31
578.032	84.31
578.243	108.31
578.454	115.31
578.665	123.31
578.875	112.31
579.086	112.31
579.297	95.31
579.508	94.31
579.718	111.31
579.929	110.31
580.14	105.31
580.35	127.31
580.561	137.31
580.772	156.31
580.982	127.31
581.193	128.31
581.403	103.31
581.614	109.31
581.825	98.31
582.035	107.31
582.246	93.31
582.456	104.31
582.667	115.31
582.877	94.31
583.087	111.31
583.298	109.31
583.508	105.31
583.719	121.31
583.929	118.31
584.139	94.31
584.35	106.31
584.56	109.31
584.77	104.31
584.981	98.31
585.191	103.31
585.401	113.31
585.611	95.31
585.821	99.31
586.032	85.31
586.242	99.31
586.452	107.31
586.662	95.31
586.872	105.31
587.082	103.31
587.292	111.31
587.502	100.31
587.713	119.31
587.923	117.31
588.133	152.31
588.343	150.31
588.553	191.31
588.762	319.31
588.972	569.31
589.182	763.31
589.392	735.31
589.602	623.31
589.812	740.31
590.022	561.31
590.232	325.31
590.441	194.31
590.651	157.31
590.861	135.31
591.071	113.31
591.281	126.31
591.49	118.31
591.7	100.31
591.91	113.31
592.119	103.31
592.329	96.31
592.539	105.31
592.748	88.31
592.958	89.31
593.167	95.31
593.377	98.31
593.587	85.31
593.796	97.31
594.006	104.31
594.215	90.31
594.424	89.31
594.634	90.31
594.843	86.31
595.053	96.31
595.262	103.31
595.472	85.31
595.681	97.31
595.89	86.31
596.1	95.31
596.309	93.31
596.518	91.31
596.727	78.31
596.937	85.31
597.146	100.31
597.355	97.31
597.564	84.31
597.774	73.31
597.983	74.31
598.192	78.31
598.401	80.31
598.61	83.31
598.819	77.31
599.028	100.31
599.237	78.31
599.446	79.31
599.655	84.31
599.864	97.31
600.073	94.31
600.282	82.31
600.491	88.31
600.7	81.31
600.909	95.31
601.118	93.31
601.327	105.31
601.536	90.31
601.745	81.31
601.953	97.31
602.162	90.31
602.371	84.31
602.58	97.31
602.789	100.31
602.997	86.31
603.206	92.31
603.415	94.31
603.623	87.31
603.832	83.31
604.041	78.31
604.249	77.31
604.458	92.31
604.666	90.31
604.875	94.31
605.084	92.31
605.292	82.31
605.501	100.31
605.709	96.31
605.918	88.31
606.126	83.31
606.334	90.31
606.543	97.31
606.751	96.31
606.96	83.31
607.168	99.31
607.376	104.31
607.585	93.31
607.793	86.31
608.001	83.31
608.21	88.31
608.418	93.31
608.626	93.31
608.834	92.31
609.043	91.31
609.251	89.31
609.459	80.31
609.667	88.31
609.875	87.31
610.083	108.31
610.291	100.31
610.499	96.31
610.707	90.31
610.916	95.31
611.124	91.31
611.332	86.31
611.54	80.31
611.748	93.31
611.955	95.31
612.163	89.31
612.371	107.31
612.579	98.31
612.787	87.31
612.995	90.31
613.203	104.31
613.411	98.31
613.618	93.31
613.826	96.31
614.034	75.31
614.242	73.31
614.449	100.31
614.657	93.31
614.865	97.31
615.072	100.31
615.28	89.31
615.488	95.31
615.695	103.31
615.903	91.31
616.111	93.31
616.318	119.31
616.526	114.31
616.733	107.31
616.941	91.31
617.148	93.31
617.356	104.31
617.563	82.31
617.771	95.31
617.978	79.31
618.185	93.31
618.393	97.31
618.6	90.31
618.807	92.31
619.015	87.31
619.222	91.31
619.429	98.31
619.637	98.31
619.844	89.31
620.051	87.31
620.258	85.31
620.466	91.31
620.673	92.31
620.88	81.31
621.087	90.31
621.294	78.31
621.501	81.31
621.708	87.31
621.915	90.31
622.122	87.31
622.329	88.31
622.536	104.31
622.743	79.31
622.95	86.31
623.157	95.31
623.364	81.31
623.571	85.31
623.778	91.31
623.985	92.31
624.192	93.31
624.399	83.31
624.606	89.31
624.812	82.31
625.019	85.31
625.226	88.31
625.433	87.31
625.639	79.31
625.846	78.31
626.053	97.31
626.259	96.31
626.466	80.31
626.673	64.31
626.879	82.31
627.086	90.31
627.293	89.31
627.499	93.31
627.706	103.31
627.912	87.31
628.119	98.31
628.325	84.31
628.532	84.31
628.738	89.31
628.945	80.31
629.151	111.31
629.357	83.31
629.564	92.31
629.77	98.31
629.976	68.31
630.183	88.31
630.389	93.31
630.595	89.31
630.802	85.31
631.008	84.31
631.214	79.31
631.42	77.31
631.627	84.31
631.833	95.31
632.039	71.31
632.245	89.31
632.451	85.31
632.657	75.31
632.863	83.31
633.069	85.31
633.275	100.31
633.481	106.31
633.688	75.31
633.893	85.31
634.099	74.31
634.305	84.31
634.511	79.31
634.717	90.31
634.923	83.31
635.129	85.31
635.335	91.31
635.541	81.31
635.747	97.31
635.952	83.31
636.158	87.31
636.364	96.31
636.57	88.31
636.775	75.31
636.981	100.31
637.187	100.31
637.392	93.31
637.598	83.31
637.804	87.31
638.009	91.31
638.215	77.31
638.421	92.31
638.626	82.31
638.832	90.31
639.037	94.31
639.243	85.31
639.448	89.31
639.654	84.31
639.859	81.31
640.065	69.31
640.27	91.31
640.475	97.31
640.681	88.31
640.886	100.31
641.091	76.31
641.297	93.31
641.502	77.31
641.707	83.31
641.913	100.31
642.118	92.31
642.323	87.31
642.528	75.31
642.733	94.31
642.939	79.31
643.144	85.31
643.349	85.31
643.554	84.31
643.759	69.31
643.964	90.31
644.169	89.31
644.374	78.31
644.579	87.31
644.784	86.31
644.989	101.31
645.194	77.31
645.399	91.31
645.604	69.31
645.809	79.31
646.014	77.31
646.219	89.31
646.423	97.31
646.628	99.31
646.833	92.31
647.038	95.31
647.243	89.31
647.447	78.31
647.652	87.31
647.857	104.31
648.062	87.31
648.266	92.31
648.471	99.31
648.676	87.31
648.88	94.31
649.085	84.31
649.289	80.31
649.494	88.31
649.698	85.31
649.903	92.31
650.107	88.31
650.312	81.31
650.516	89.31
650.721	78.31
650.925	81.31
651.13	81.31
651.334	84.31
651.539	98.31
651.743	76.31
651.947	74.31
652.152	83.31
652.356	67.31
652.56	75.31
652.764	72.31
652.969	67.31
653.173	73.31
653.377	79.31
653.581	76.31
653.785	89.31
653.99	76.31
654.194	107.31
654.398	80.31
654.602	93.31
654.806	65.31
655.01	94.31
655.214	75.31
655.418	82.31
655.622	78.31
655.826	72.31
656.03	62.31
656.234	91.31
656.438	89.31
656.642	79.31
656.846	87.31
657.049	84.31
657.253	75.31
657.457	80.31
657.661	76.31
657.865	68.31
658.068	98.31
658.272	81.31
658.476	87.31
658.68	84.31
658.883	93.31
659.087	81.31
659.291	71.31
659.494	75.31
659.698	67.31
659.901	68.31
660.105	75.31
660.309	75.31
660.512	75.31
660.716	88.31
660.919	79.31
661.123	83.31
661.326	98.31
661.53	78.31
661.733	101.31
661.936	73.31
662.14	73.31
662.343	85.31
662.546	85.31
662.75	80.31
662.953	75.31
663.156	76.31
663.36	88.31
663.563	83.31
663.766	87.31
663.969	89.31
664.173	84.31
664.376	71.31
664.579	79.31
664.782	75.31
664.985	89.31
665.188	89.31
665.391	92.31
665.594	78.31
665.797	82.31
666	73.31
666.203	86.31
666.406	91.31
666.609	83.31
666.812	79.31
667.015	77.31
667.218	78.31
667.421	73.31
667.624	72.31
667.827	98.31
668.03	84.31
668.232	70.31
668.435	87.31
668.638	73.31
668.841	98.31
669.043	85.31
669.246	87.31
669.449	89.31
669.651	80.31
669.854	88.31
670.057	84.31
670.259	91.31
670.462	83.31
670.665	71.31
670.867	76.31
671.07	74.31
671.272	83.31
671.475	83.31
671.677	82.31
671.88	77.31
672.082	80.31
672.284	83.31
672.487	92.31
672.689	80.31
672.892	83.31
