Data from Sand_2_HRD10591_00015.txt Node
Date: Mon Jan 19 13:33:22 EST 2026
User: Yrep
Spectrometer: HR+D1059
Trigger mode: 1
Integration Time (sec): 1.000000E-1
Scans to average: 1
Electric dark correction enabled: true
Nonlinearity correction enabled: false
Boxcar width: 0
XAxis mode: Wavelengths
Number of Pixels in Spectrum: 2048
>>>>>Begin Spectral Data<<<<<
223.165	-31.81
223.4	-31.81
223.635	-31.81
223.869	-29.81
224.104	-28.81
224.338	-14.81
224.573	-13.81
224.808	-19.81
225.042	-0.81
225.277	6.19
225.511	-5.81
225.746	9.19
225.98	2.19
226.215	14.19
226.449	26.19
226.683	17.19
226.918	23.19
227.152	47.19
227.387	52.19
227.621	54.19
227.856	60.19
228.09	48.19
228.324	58.19
228.559	62.19
228.793	66.19
229.027	58.19
229.262	63.19
229.496	66.19
229.73	67.19
229.964	80.19
230.199	85.19
230.433	78.19
230.667	85.19
230.901	92.19
231.136	88.19
231.37	92.19
231.604	76.19
231.838	85.19
232.072	87.19
232.306	81.19
232.541	62.19
232.775	60.19
233.009	90.19
233.243	100.19
233.477	96.19
233.711	84.19
233.945	80.19
234.179	75.19
234.413	91.19
234.647	102.19
234.881	80.19
235.115	75.19
235.349	83.19
235.583	70.19
235.817	72.19
236.051	84.19
236.285	63.19
236.519	72.19
236.753	78.19
236.987	80.19
237.221	67.19
237.455	76.19
237.689	78.19
237.922	86.19
238.156	82.19
238.39	77.19
238.624	90.19
238.858	76.19
239.091	73.19
239.325	91.19
239.559	85.19
239.793	82.19
240.027	79.19
240.26	76.19
240.494	82.19
240.728	74.19
240.961	67.19
241.195	78.19
241.429	81.19
241.662	87.19
241.896	77.19
242.13	65.19
242.363	78.19
242.597	68.19
242.83	58.19
243.064	73.19
243.298	81.19
243.531	78.19
243.765	78.19
243.998	72.19
244.232	81.19
244.465	73.19
244.699	64.19
244.932	95.19
245.166	74.19
245.399	82.19
245.633	92.19
245.866	70.19
246.099	81.19
246.333	86.19
246.566	80.19
246.8	80.19
247.033	78.19
247.266	91.19
247.5	73.19
247.733	87.19
247.966	77.19
248.2	85.19
248.433	82.19
248.666	89.19
248.899	86.19
249.133	90.19
249.366	85.19
249.599	81.19
249.832	75.19
250.066	83.19
250.299	78.19
250.532	84.19
250.765	84.19
250.998	74.19
251.231	89.19
251.465	86.19
251.698	87.19
251.931	91.19
252.164	85.19
252.397	73.19
252.63	85.19
252.863	82.19
253.096	90.19
253.329	84.19
253.562	86.19
253.795	88.19
254.028	84.19
254.261	84.19
254.494	88.19
254.727	83.19
254.96	76.19
255.193	83.19
255.426	72.19
255.659	96.19
255.892	71.19
256.124	87.19
256.357	76.19
256.59	85.19
256.823	91.19
257.056	87.19
257.289	83.19
257.521	86.19
257.754	83.19
257.987	81.19
258.22	70.19
258.452	68.19
258.685	88.19
258.918	89.19
259.151	79.19
259.383	100.19
259.616	76.19
259.849	85.19
260.081	83.19
260.314	97.19
260.547	86.19
260.779	83.19
261.012	77.19
261.244	81.19
261.477	77.19
261.71	90.19
261.942	79.19
262.175	78.19
262.407	78.19
262.64	79.19
262.872	86.19
263.105	81.19
263.337	102.19
263.57	77.19
263.802	86.19
264.035	84.19
264.267	78.19
264.499	104.19
264.732	87.19
264.964	70.19
265.197	69.19
265.429	88.19
265.661	84.19
265.894	91.19
266.126	87.19
266.358	84.19
266.591	85.19
266.823	90.19
267.055	85.19
267.287	82.19
267.52	76.19
267.752	82.19
267.984	79.19
268.216	87.19
268.448	93.19
268.681	76.19
268.913	82.19
269.145	82.19
269.377	86.19
269.609	93.19
269.841	83.19
270.073	81.19
270.306	83.19
270.538	88.19
270.77	86.19
271.002	78.19
271.234	90.19
271.466	77.19
271.698	80.19
271.93	89.19
272.162	96.19
272.394	97.19
272.626	72.19
272.858	74.19
273.09	86.19
273.322	82.19
273.553	88.19
273.785	75.19
274.017	90.19
274.249	83.19
274.481	78.19
274.713	90.19
274.945	101.19
275.176	76.19
275.408	98.19
275.64	77.19
275.872	96.19
276.104	95.19
276.335	84.19
276.567	101.19
276.799	79.19
277.031	91.19
277.262	78.19
277.494	93.19
277.726	87.19
277.957	86.19
278.189	78.19
278.421	111.19
278.652	82.19
278.884	91.19
279.115	85.19
279.347	93.19
279.579	99.19
279.81	69.19
280.042	96.19
280.273	94.19
280.505	94.19
280.736	93.19
280.968	96.19
281.199	89.19
281.431	70.19
281.662	87.19
281.894	88.19
282.125	96.19
282.356	91.19
282.588	99.19
282.819	84.19
283.051	85.19
283.282	81.19
283.513	80.19
283.745	90.19
283.976	83.19
284.207	90.19
284.439	88.19
284.67	85.19
284.901	79.19
285.132	101.19
285.364	106.19
285.595	83.19
285.826	78.19
286.057	85.19
286.288	88.19
286.52	83.19
286.751	80.19
286.982	81.19
287.213	90.19
287.444	84.19
287.675	97.19
287.906	87.19
288.138	86.19
288.369	90.19
288.6	97.19
288.831	80.19
289.062	86.19
289.293	77.19
289.524	89.19
289.755	76.19
289.986	94.19
290.217	87.19
290.448	87.19
290.679	93.19
290.91	102.19
291.141	92.19
291.371	112.19
291.602	95.19
291.833	80.19
292.064	97.19
292.295	89.19
292.526	89.19
292.757	104.19
292.987	80.19
293.218	90.19
293.449	98.19
293.68	86.19
293.91	75.19
294.141	95.19
294.372	87.19
294.603	92.19
294.833	100.19
295.064	87.19
295.295	88.19
295.525	80.19
295.756	82.19
295.987	88.19
296.217	92.19
296.448	82.19
296.679	94.19
296.909	90.19
297.14	80.19
297.37	79.19
297.601	96.19
297.831	90.19
298.062	97.19
298.292	80.19
298.523	95.19
298.753	80.19
298.984	88.19
299.214	83.19
299.445	85.19
299.675	86.19
299.905	82.19
300.136	82.19
300.366	86.19
300.597	86.19
300.827	78.19
301.057	93.19
301.288	86.19
301.518	94.19
301.748	82.19
301.979	83.19
302.209	82.19
302.439	90.19
302.669	84.19
302.9	96.19
303.13	93.19
303.36	108.19
303.59	85.19
303.82	88.19
304.051	84.19
304.281	75.19
304.511	88.19
304.741	90.19
304.971	94.19
305.201	95.19
305.431	92.19
305.661	89.19
305.891	88.19
306.121	86.19
306.352	86.19
306.582	87.19
306.812	90.19
307.042	96.19
307.272	95.19
307.502	77.19
307.731	85.19
307.961	101.19
308.191	101.19
308.421	99.19
308.651	96.19
308.881	89.19
309.111	92.19
309.341	96.19
309.571	101.19
309.8	91.19
310.03	82.19
310.26	101.19
310.49	84.19
310.72	78.19
310.949	81.19
311.179	90.19
311.409	82.19
311.639	94.19
311.868	93.19
312.098	94.19
312.328	91.19
312.557	90.19
312.787	96.19
313.017	87.19
313.246	90.19
313.476	92.19
313.706	94.19
313.935	79.19
314.165	82.19
314.394	93.19
314.624	85.19
314.853	84.19
315.083	94.19
315.312	83.19
315.542	95.19
315.771	90.19
316.001	81.19
316.23	82.19
316.46	90.19
316.689	93.19
316.919	102.19
317.148	93.19
317.377	101.19
317.607	86.19
317.836	76.19
318.065	92.19
318.295	85.19
318.524	87.19
318.753	91.19
318.983	80.19
319.212	92.19
319.441	99.19
319.67	87.19
319.9	93.19
320.129	93.19
320.358	87.19
320.587	91.19
320.816	103.19
321.046	97.19
321.275	100.19
321.504	89.19
321.733	79.19
321.962	81.19
322.191	77.19
322.42	89.19
322.649	87.19
322.878	98.19
323.108	83.19
323.337	86.19
323.566	89.19
323.795	86.19
324.024	92.19
324.253	82.19
324.482	80.19
324.71	87.19
324.939	89.19
325.168	90.19
325.397	91.19
325.626	84.19
325.855	82.19
326.084	90.19
326.313	100.19
326.542	77.19
326.77	74.19
326.999	90.19
327.228	92.19
327.457	90.19
327.686	93.19
327.914	99.19
328.143	86.19
328.372	85.19
328.6	88.19
328.829	91.19
329.058	101.19
329.287	94.19
329.515	83.19
329.744	92.19
329.972	104.19
330.201	115.19
330.43	149.19
330.658	111.19
330.887	108.19
331.115	81.19
331.344	94.19
331.572	100.19
331.801	108.19
332.03	87.19
332.258	94.19
332.486	108.19
332.715	82.19
332.943	87.19
333.172	79.19
333.4	93.19
333.629	79.19
333.857	94.19
334.085	82.19
334.314	83.19
334.542	92.19
334.771	78.19
334.999	95.19
335.227	87.19
335.455	88.19
335.684	91.19
335.912	92.19
336.14	91.19
336.369	96.19
336.597	77.19
336.825	86.19
337.053	85.19
337.281	99.19
337.51	88.19
337.738	80.19
337.966	94.19
338.194	72.19
338.422	94.19
338.65	90.19
338.878	90.19
339.106	102.19
339.334	82.19
339.562	94.19
339.79	82.19
340.018	93.19
340.246	89.19
340.474	96.19
340.702	99.19
340.93	95.19
341.158	80.19
341.386	83.19
341.614	92.19
341.842	83.19
342.07	82.19
342.298	83.19
342.526	84.19
342.754	91.19
342.981	93.19
343.209	87.19
343.437	97.19
343.665	85.19
343.893	74.19
344.12	88.19
344.348	109.19
344.576	92.19
344.804	109.19
345.031	96.19
345.259	91.19
345.487	100.19
345.714	101.19
345.942	71.19
346.17	82.19
346.397	79.19
346.625	84.19
346.853	106.19
347.08	90.19
347.308	96.19
347.535	86.19
347.763	90.19
347.99	78.19
348.218	80.19
348.445	78.19
348.673	92.19
348.9	94.19
349.128	90.19
349.355	91.19
349.583	86.19
349.81	80.19
350.037	83.19
350.265	87.19
350.492	78.19
350.72	91.19
350.947	88.19
351.174	101.19
351.402	79.19
351.629	83.19
351.856	81.19
352.083	88.19
352.311	86.19
352.538	98.19
352.765	92.19
352.992	100.19
353.22	99.19
353.447	103.19
353.674	93.19
353.901	90.19
354.128	81.19
354.355	86.19
354.583	83.19
354.81	86.19
355.037	97.19
355.264	95.19
355.491	92.19
355.718	85.19
355.945	79.19
356.172	83.19
356.399	90.19
356.626	87.19
356.853	88.19
357.08	99.19
357.307	96.19
357.534	94.19
357.761	91.19
357.988	92.19
358.215	98.19
358.441	92.19
358.668	97.19
358.895	96.19
359.122	79.19
359.349	96.19
359.576	106.19
359.802	97.19
360.029	92.19
360.256	84.19
360.483	96.19
360.709	88.19
360.936	83.19
361.163	95.19
361.39	93.19
361.616	104.19
361.843	87.19
362.07	84.19
362.296	90.19
362.523	96.19
362.749	106.19
362.976	89.19
363.203	96.19
363.429	96.19
363.656	97.19
363.882	86.19
364.109	91.19
364.335	80.19
364.562	98.19
364.788	93.19
365.015	87.19
365.241	78.19
365.468	101.19
365.694	96.19
365.92	89.19
366.147	81.19
366.373	85.19
366.599	83.19
366.826	100.19
367.052	93.19
367.278	88.19
367.505	101.19
367.731	101.19
367.957	90.19
368.184	82.19
368.41	95.19
368.636	91.19
368.862	92.19
369.089	88.19
369.315	98.19
369.541	94.19
369.767	93.19
369.993	94.19
370.219	82.19
370.445	76.19
370.672	89.19
370.898	86.19
371.124	76.19
371.35	81.19
371.576	93.19
371.802	95.19
372.028	91.19
372.254	94.19
372.48	91.19
372.706	85.19
372.932	94.19
373.158	74.19
373.384	99.19
373.61	114.19
373.835	110.19
374.061	95.19
374.287	86.19
374.513	102.19
374.739	101.19
374.965	89.19
375.191	88.19
375.416	88.19
375.642	97.19
375.868	102.19
376.094	91.19
376.319	82.19
376.545	94.19
376.771	77.19
376.997	82.19
377.222	94.19
377.448	83.19
377.674	88.19
377.899	91.19
378.125	85.19
378.35	90.19
378.576	88.19
378.802	77.19
379.027	70.19
379.253	101.19
379.478	96.19
379.704	91.19
379.929	97.19
380.155	87.19
380.38	94.19
380.606	78.19
380.831	91.19
381.057	93.19
381.282	90.19
381.507	81.19
381.733	91.19
381.958	81.19
382.184	96.19
382.409	97.19
382.634	93.19
382.86	86.19
383.085	75.19
383.31	99.19
383.535	93.19
383.761	95.19
383.986	72.19
384.211	91.19
384.436	85.19
384.662	99.19
384.887	95.19
385.112	83.19
385.337	94.19
385.562	95.19
385.787	79.19
386.013	91.19
386.238	95.19
386.463	87.19
386.688	90.19
386.913	87.19
387.138	87.19
387.363	94.19
387.588	106.19
387.813	79.19
388.038	100.19
388.263	103.19
388.488	92.19
388.713	94.19
388.938	79.19
389.163	70.19
389.387	93.19
389.612	103.19
389.837	89.19
390.062	93.19
390.287	83.19
390.512	92.19
390.736	88.19
390.961	93.19
391.186	90.19
391.411	92.19
391.636	101.19
391.86	86.19
392.085	94.19
392.31	108.19
392.534	106.19
392.759	88.19
392.984	105.19
393.208	112.19
393.433	125.19
393.658	137.19
393.882	110.19
394.107	108.19
394.331	154.19
394.556	180.19
394.78	122.19
395.005	98.19
395.229	99.19
395.454	103.19
395.678	97.19
395.903	135.19
396.127	180.19
396.352	207.19
396.576	138.19
396.801	108.19
397.025	142.19
397.249	99.19
397.474	91.19
397.698	80.19
397.922	94.19
398.147	89.19
398.371	96.19
398.595	99.19
398.82	89.19
399.044	73.19
399.268	80.19
399.492	82.19
399.717	95.19
399.941	88.19
400.165	102.19
400.389	96.19
400.613	70.19
400.837	93.19
401.062	100.19
401.286	86.19
401.51	89.19
401.734	88.19
401.958	83.19
402.182	91.19
402.406	96.19
402.63	98.19
402.854	84.19
403.078	103.19
403.302	98.19
403.526	108.19
403.75	93.19
403.974	115.19
404.198	159.19
404.422	250.19
404.645	302.19
404.869	247.19
405.093	171.19
405.317	98.19
405.541	92.19
405.765	100.19
405.988	111.19
406.212	92.19
406.436	83.19
406.66	85.19
406.883	90.19
407.107	88.19
407.331	86.19
407.555	80.19
407.778	97.19
408.002	74.19
408.226	87.19
408.449	109.19
408.673	90.19
408.896	98.19
409.12	88.19
409.344	99.19
409.567	80.19
409.791	101.19
410.014	86.19
410.238	99.19
410.461	78.19
410.685	96.19
410.908	77.19
411.132	77.19
411.355	86.19
411.578	87.19
411.802	85.19
412.025	87.19
412.249	94.19
412.472	84.19
412.695	91.19
412.919	83.19
413.142	98.19
413.365	84.19
413.589	98.19
413.812	94.19
414.035	94.19
414.258	97.19
414.482	87.19
414.705	78.19
414.928	95.19
415.151	109.19
415.374	66.19
415.597	91.19
415.821	82.19
416.044	74.19
416.267	88.19
416.49	78.19
416.713	93.19
416.936	86.19
417.159	77.19
417.382	82.19
417.605	68.19
417.828	88.19
418.051	93.19
418.274	87.19
418.497	86.19
418.72	99.19
418.943	94.19
419.166	79.19
419.389	95.19
419.611	87.19
419.834	80.19
420.057	90.19
420.28	85.19
420.503	99.19
420.726	83.19
420.948	79.19
421.171	77.19
421.394	76.19
421.617	95.19
421.839	91.19
422.062	88.19
422.285	108.19
422.507	138.19
422.73	184.19
422.953	169.19
423.175	114.19
423.398	94.19
423.621	85.19
423.843	88.19
424.066	85.19
424.288	92.19
424.511	96.19
424.733	86.19
424.956	91.19
425.178	85.19
425.401	73.19
425.623	78.19
425.846	87.19
426.068	77.19
426.291	83.19
426.513	80.19
426.735	79.19
426.958	87.19
427.18	109.19
427.402	78.19
427.625	90.19
427.847	84.19
428.069	94.19
428.292	83.19
428.514	81.19
428.736	99.19
428.958	92.19
429.181	85.19
429.403	86.19
429.625	99.19
429.847	92.19
430.069	108.19
430.292	97.19
430.514	106.19
430.736	95.19
430.958	100.19
431.18	97.19
431.402	80.19
431.624	81.19
431.846	85.19
432.068	100.19
432.29	83.19
432.512	80.19
432.734	90.19
432.956	85.19
433.178	84.19
433.4	94.19
433.622	84.19
433.844	88.19
434.066	85.19
434.287	85.19
434.509	89.19
434.731	66.19
434.953	92.19
435.175	81.19
435.397	76.19
435.618	83.19
435.84	90.19
436.062	89.19
436.284	91.19
436.505	83.19
436.727	86.19
436.949	90.19
437.17	86.19
437.392	86.19
437.614	76.19
437.835	86.19
438.057	94.19
438.278	80.19
438.5	95.19
438.721	97.19
438.943	89.19
439.165	102.19
439.386	87.19
439.608	100.19
439.829	82.19
440.05	81.19
440.272	72.19
440.493	80.19
440.715	109.19
440.936	90.19
441.158	90.19
441.379	90.19
441.6	90.19
441.822	86.19
442.043	71.19
442.264	98.19
442.486	92.19
442.707	94.19
442.928	110.19
443.149	97.19
443.371	94.19
443.592	104.19
443.813	96.19
444.034	97.19
444.255	95.19
444.476	95.19
444.698	98.19
444.919	100.19
445.14	147.19
445.361	102.19
445.582	102.19
445.803	100.19
446.024	87.19
446.245	95.19
446.466	82.19
446.687	86.19
446.908	86.19
447.129	85.19
447.35	92.19
447.571	89.19
447.792	70.19
448.013	91.19
448.234	78.19
448.455	93.19
448.675	78.19
448.896	88.19
449.117	88.19
449.338	97.19
449.559	91.19
449.779	88.19
450	89.19
450.221	92.19
450.442	78.19
450.662	96.19
450.883	90.19
451.104	80.19
451.324	78.19
451.545	87.19
451.766	79.19
451.986	91.19
452.207	86.19
452.428	90.19
452.648	85.19
452.869	90.19
453.089	79.19
453.31	81.19
453.53	95.19
453.751	88.19
453.971	84.19
454.192	94.19
454.412	74.19
454.633	80.19
454.853	85.19
455.073	76.19
455.294	99.19
455.514	95.19
455.734	69.19
455.955	78.19
456.175	81.19
456.395	84.19
456.616	87.19
456.836	95.19
457.056	80.19
457.276	71.19
457.497	82.19
457.717	104.19
457.937	91.19
458.157	92.19
458.377	96.19
458.598	78.19
458.818	87.19
459.038	86.19
459.258	78.19
459.478	81.19
459.698	74.19
459.918	91.19
460.138	86.19
460.358	82.19
460.578	89.19
460.798	100.19
461.018	93.19
461.238	90.19
461.458	91.19
461.678	86.19
461.898	94.19
462.118	99.19
462.338	88.19
462.558	91.19
462.777	84.19
462.997	94.19
463.217	92.19
463.437	86.19
463.657	82.19
463.876	85.19
464.096	78.19
464.316	90.19
464.536	96.19
464.755	87.19
464.975	82.19
465.195	88.19
465.414	80.19
465.634	99.19
465.854	95.19
466.073	86.19
466.293	96.19
466.512	86.19
466.732	81.19
466.951	86.19
467.171	96.19
467.391	79.19
467.61	89.19
467.829	91.19
468.049	101.19
468.268	99.19
468.488	95.19
468.707	87.19
468.927	96.19
469.146	91.19
469.365	86.19
469.585	84.19
469.804	108.19
470.023	93.19
470.243	92.19
470.462	93.19
470.681	82.19
470.901	88.19
471.12	76.19
471.339	83.19
471.558	90.19
471.777	99.19
471.997	88.19
472.216	107.19
472.435	87.19
472.654	103.19
472.873	88.19
473.092	91.19
473.311	84.19
473.53	88.19
473.749	100.19
473.968	96.19
474.187	97.19
474.406	103.19
474.625	90.19
474.844	96.19
475.063	85.19
475.282	96.19
475.501	101.19
475.72	101.19
475.939	102.19
476.158	90.19
476.377	94.19
476.596	92.19
476.814	88.19
477.033	88.19
477.252	85.19
477.471	90.19
477.69	82.19
477.908	84.19
478.127	95.19
478.346	94.19
478.564	90.19
478.783	92.19
479.002	89.19
479.22	97.19
479.439	96.19
479.658	97.19
479.876	97.19
480.095	93.19
480.313	82.19
480.532	85.19
480.751	79.19
480.969	96.19
481.188	99.19
481.406	92.19
481.624	100.19
481.843	97.19
482.061	90.19
482.28	87.19
482.498	84.19
482.717	107.19
482.935	86.19
483.153	90.19
483.372	92.19
483.59	98.19
483.808	90.19
484.027	80.19
484.245	91.19
484.463	86.19
484.681	86.19
484.9	82.19
485.118	94.19
485.336	108.19
485.554	88.19
485.772	102.19
485.99	93.19
486.209	81.19
486.427	88.19
486.645	100.19
486.863	109.19
487.081	88.19
487.299	92.19
487.517	100.19
487.735	101.19
487.953	88.19
488.171	99.19
488.389	94.19
488.607	99.19
488.825	100.19
489.043	77.19
489.261	81.19
489.479	99.19
489.696	102.19
489.914	78.19
490.132	88.19
490.35	97.19
490.568	94.19
490.786	98.19
491.003	100.19
491.221	94.19
491.439	97.19
491.657	95.19
491.874	100.19
492.092	90.19
492.31	84.19
492.527	94.19
492.745	101.19
492.963	101.19
493.18	94.19
493.398	86.19
493.615	99.19
493.833	101.19
494.05	90.19
494.268	82.19
494.485	97.19
494.703	103.19
494.92	95.19
495.138	94.19
495.355	92.19
495.573	87.19
495.79	103.19
496.008	85.19
496.225	111.19
496.442	98.19
496.66	102.19
496.877	84.19
497.094	97.19
497.312	102.19
497.529	99.19
497.746	90.19
497.963	102.19
498.181	115.19
498.398	118.19
498.615	119.19
498.832	96.19
499.049	94.19
499.267	95.19
499.484	94.19
499.701	88.19
499.918	94.19
500.135	80.19
500.352	104.19
500.569	103.19
500.786	102.19
501.003	93.19
501.22	87.19
501.437	91.19
501.654	90.19
501.871	95.19
502.088	87.19
502.305	101.19
502.522	81.19
502.739	93.19
502.956	96.19
503.172	87.19
503.389	86.19
503.606	96.19
503.823	92.19
504.04	99.19
504.256	98.19
504.473	80.19
504.69	93.19
504.907	87.19
505.123	86.19
505.34	85.19
505.557	85.19
505.773	83.19
505.99	78.19
506.207	83.19
506.423	109.19
506.64	84.19
506.856	88.19
507.073	99.19
507.289	91.19
507.506	95.19
507.722	77.19
507.939	81.19
508.155	88.19
508.372	108.19
508.588	91.19
508.805	99.19
509.021	110.19
509.238	99.19
509.454	82.19
509.67	94.19
509.887	102.19
510.103	89.19
510.319	101.19
510.536	109.19
510.752	108.19
510.968	78.19
511.184	104.19
511.401	101.19
511.617	103.19
511.833	101.19
512.049	99.19
512.265	104.19
512.481	90.19
512.698	95.19
512.914	101.19
513.13	82.19
513.346	98.19
513.562	93.19
513.778	101.19
513.994	104.19
514.21	102.19
514.426	86.19
514.642	94.19
514.858	89.19
515.074	87.19
515.29	82.19
515.506	101.19
515.721	81.19
515.937	93.19
516.153	85.19
516.369	74.19
516.585	88.19
516.801	73.19
517.016	79.19
517.232	83.19
517.448	91.19
517.664	76.19
517.879	102.19
518.095	80.19
518.311	84.19
518.527	80.19
518.742	92.19
518.958	90.19
519.173	98.19
519.389	92.19
519.605	96.19
519.82	92.19
520.036	82.19
520.251	80.19
520.467	94.19
520.682	95.19
520.898	84.19
521.113	88.19
521.329	95.19
521.544	89.19
521.76	88.19
521.975	96.19
522.19	95.19
522.406	85.19
522.621	79.19
522.836	103.19
523.052	90.19
523.267	100.19
523.482	64.19
523.698	94.19
523.913	99.19
524.128	86.19
524.343	85.19
524.559	86.19
524.774	101.19
524.989	94.19
525.204	94.19
525.419	97.19
525.634	94.19
525.849	101.19
526.064	90.19
526.28	93.19
526.495	102.19
526.71	98.19
526.925	94.19
527.14	100.19
527.355	92.19
527.57	101.19
527.785	104.19
527.999	87.19
528.214	78.19
528.429	81.19
528.644	96.19
528.859	99.19
529.074	92.19
529.289	90.19
529.503	102.19
529.718	98.19
529.933	79.19
530.148	86.19
530.363	90.19
530.577	89.19
530.792	86.19
531.007	87.19
531.221	87.19
531.436	93.19
531.651	86.19
531.865	92.19
532.08	116.19
532.295	96.19
532.509	82.19
532.724	97.19
532.938	98.19
533.153	92.19
533.367	96.19
533.582	96.19
533.796	85.19
534.011	96.19
534.225	114.19
534.44	106.19
534.654	102.19
534.868	116.19
535.083	106.19
535.297	110.19
535.511	114.19
535.726	110.19
535.94	99.19
536.154	101.19
536.369	103.19
536.583	100.19
536.797	88.19
537.011	106.19
537.225	79.19
537.44	85.19
537.654	96.19
537.868	103.19
538.082	105.19
538.296	96.19
538.51	112.19
538.724	88.19
538.938	80.19
539.153	110.19
539.367	86.19
539.581	89.19
539.795	100.19
540.009	90.19
540.222	82.19
540.436	93.19
540.65	84.19
540.864	102.19
541.078	98.19
541.292	90.19
541.506	104.19
541.72	96.19
541.934	85.19
542.147	78.19
542.361	96.19
542.575	84.19
542.789	100.19
543.002	96.19
543.216	92.19
543.43	85.19
543.644	90.19
543.857	102.19
544.071	86.19
544.285	106.19
544.498	98.19
544.712	110.19
544.925	88.19
545.139	93.19
545.352	90.19
545.566	85.19
545.779	89.19
545.993	103.19
546.206	87.19
546.42	86.19
546.633	97.19
546.847	85.19
547.06	78.19
547.274	89.19
547.487	94.19
547.7	93.19
547.914	93.19
548.127	95.19
548.34	96.19
548.554	90.19
548.767	93.19
548.98	82.19
549.193	85.19
549.407	87.19
549.62	86.19
549.833	80.19
550.046	104.19
550.259	86.19
550.473	95.19
550.686	101.19
550.899	97.19
551.112	91.19
551.325	97.19
551.538	86.19
551.751	85.19
551.964	95.19
552.177	95.19
552.39	88.19
552.603	92.19
552.816	102.19
553.029	95.19
553.242	83.19
553.455	96.19
553.667	100.19
553.88	95.19
554.093	107.19
554.306	94.19
554.519	99.19
554.732	90.19
554.944	90.19
555.157	86.19
555.37	87.19
555.583	86.19
555.795	87.19
556.008	83.19
556.221	87.19
556.433	83.19
556.646	83.19
556.859	95.19
557.071	89.19
557.284	88.19
557.496	106.19
557.709	95.19
557.921	94.19
558.134	88.19
558.346	95.19
558.559	102.19
558.771	88.19
558.984	111.19
559.196	95.19
559.409	97.19
559.621	100.19
559.833	98.19
560.046	87.19
560.258	88.19
560.47	94.19
560.683	100.19
560.895	90.19
561.107	86.19
561.32	88.19
561.532	98.19
561.744	79.19
561.956	80.19
562.168	99.19
562.381	88.19
562.593	78.19
562.805	96.19
563.017	85.19
563.229	96.19
563.441	86.19
563.653	82.19
563.865	106.19
564.077	95.19
564.289	96.19
564.501	88.19
564.713	93.19
564.925	97.19
565.137	91.19
565.349	91.19
565.561	90.19
565.773	86.19
565.985	102.19
566.197	101.19
566.408	97.19
566.62	112.19
566.832	108.19
567.044	98.19
567.255	121.19
567.467	98.19
567.679	87.19
567.891	104.19
568.102	112.19
568.314	97.19
568.526	138.19
568.737	133.19
568.949	151.19
569.161	148.19
569.372	139.19
569.584	137.19
569.795	124.19
570.007	124.19
570.218	130.19
570.43	105.19
570.641	102.19
570.853	104.19
571.064	94.19
571.276	100.19
571.487	92.19
571.698	92.19
571.91	87.19
572.121	90.19
572.333	97.19
572.544	87.19
572.755	102.19
572.966	86.19
573.178	77.19
573.389	98.19
573.6	94.19
573.811	98.19
574.023	86.19
574.234	90.19
574.445	92.19
574.656	87.19
574.867	84.19
575.078	75.19
575.289	82.19
575.501	89.19
575.712	89.19
575.923	101.19
576.134	92.19
576.345	80.19
576.556	78.19
576.767	81.19
576.978	78.19
577.188	85.19
577.399	91.19
577.61	104.19
577.821	108.19
578.032	112.19
578.243	108.19
578.454	114.19
578.665	114.19
578.875	92.19
579.086	106.19
579.297	114.19
579.508	91.19
579.718	100.19
579.929	104.19
580.14	109.19
580.35	116.19
580.561	112.19
580.772	117.19
580.982	115.19
581.193	100.19
581.403	100.19
581.614	92.19
581.825	103.19
582.035	103.19
582.246	112.19
582.456	99.19
582.667	102.19
582.877	112.19
583.087	114.19
583.298	112.19
583.508	114.19
583.719	124.19
583.929	113.19
584.139	97.19
584.35	113.19
584.56	97.19
584.77	99.19
584.981	94.19
585.191	107.19
585.401	108.19
585.611	100.19
585.821	99.19
586.032	102.19
586.242	103.19
586.452	122.19
586.662	119.19
586.872	110.19
587.082	130.19
587.292	129.19
587.502	133.19
587.713	153.19
587.923	161.19
588.133	197.19
588.343	214.19
588.553	307.19
588.762	482.19
588.972	840.19
589.182	989.19
589.392	1012.19
589.602	915.19
589.812	975.19
590.022	817.19
590.232	429.19
590.441	295.19
590.651	219.19
590.861	167.19
591.071	134.19
591.281	136.19
591.49	128.19
591.7	114.19
591.91	130.19
592.119	107.19
592.329	118.19
592.539	110.19
592.748	114.19
592.958	82.19
593.167	89.19
593.377	94.19
593.587	110.19
593.796	89.19
594.006	93.19
594.215	95.19
594.424	101.19
594.634	93.19
594.843	106.19
595.053	95.19
595.262	85.19
595.472	94.19
595.681	93.19
595.89	102.19
596.1	84.19
596.309	91.19
596.518	99.19
596.727	94.19
596.937	101.19
597.146	96.19
597.355	88.19
597.564	85.19
597.774	98.19
597.983	87.19
598.192	94.19
598.401	85.19
598.61	89.19
598.819	90.19
599.028	99.19
599.237	95.19
599.446	94.19
599.655	95.19
599.864	94.19
600.073	95.19
600.282	96.19
600.491	98.19
600.7	88.19
600.909	97.19
601.118	91.19
601.327	107.19
601.536	82.19
601.745	87.19
601.953	96.19
602.162	92.19
602.371	103.19
602.58	97.19
602.789	96.19
602.997	94.19
603.206	80.19
603.415	86.19
603.623	96.19
603.832	94.19
604.041	80.19
604.249	98.19
604.458	104.19
604.666	86.19
604.875	91.19
605.084	98.19
605.292	87.19
605.501	86.19
605.709	103.19
605.918	87.19
606.126	101.19
606.334	78.19
606.543	94.19
606.751	110.19
606.96	108.19
607.168	80.19
607.376	96.19
607.585	97.19
607.793	103.19
608.001	91.19
608.21	95.19
608.418	96.19
608.626	94.19
608.834	83.19
609.043	92.19
609.251	91.19
609.459	92.19
609.667	94.19
609.875	95.19
610.083	97.19
610.291	93.19
610.499	112.19
610.707	95.19
610.916	92.19
611.124	102.19
611.332	89.19
611.54	105.19
611.748	93.19
611.955	86.19
612.163	100.19
612.371	114.19
612.579	94.19
612.787	95.19
612.995	93.19
613.203	95.19
613.411	87.19
613.618	101.19
613.826	108.19
614.034	88.19
614.242	95.19
614.449	104.19
614.657	90.19
614.865	93.19
615.072	95.19
615.28	93.19
615.488	99.19
615.695	96.19
615.903	82.19
616.111	102.19
616.318	123.19
616.526	126.19
616.733	111.19
616.941	80.19
617.148	101.19
617.356	87.19
617.563	92.19
617.771	90.19
617.978	93.19
618.185	102.19
618.393	92.19
618.6	98.19
618.807	95.19
619.015	87.19
619.222	98.19
619.429	90.19
619.637	95.19
619.844	81.19
620.051	93.19
620.258	89.19
620.466	82.19
620.673	96.19
620.88	91.19
621.087	92.19
621.294	88.19
621.501	95.19
621.708	87.19
621.915	96.19
622.122	98.19
622.329	92.19
622.536	93.19
622.743	90.19
622.95	96.19
623.157	92.19
623.364	106.19
623.571	85.19
623.778	94.19
623.985	106.19
624.192	94.19
624.399	76.19
624.606	99.19
624.812	88.19
625.019	76.19
625.226	96.19
625.433	91.19
625.639	78.19
625.846	87.19
626.053	88.19
626.259	104.19
626.466	97.19
626.673	87.19
626.879	81.19
627.086	86.19
627.293	94.19
627.499	85.19
627.706	88.19
627.912	96.19
628.119	90.19
628.325	97.19
628.532	87.19
628.738	90.19
628.945	92.19
629.151	84.19
629.357	90.19
629.564	89.19
629.77	88.19
629.976	84.19
630.183	89.19
630.389	92.19
630.595	82.19
630.802	78.19
631.008	96.19
631.214	98.19
631.42	90.19
631.627	94.19
631.833	91.19
632.039	89.19
632.245	78.19
632.451	82.19
632.657	96.19
632.863	84.19
633.069	86.19
633.275	86.19
633.481	103.19
633.688	90.19
633.893	92.19
634.099	97.19
634.305	87.19
634.511	102.19
634.717	94.19
634.923	93.19
635.129	93.19
635.335	81.19
635.541	74.19
635.747	84.19
635.952	86.19
636.158	92.19
636.364	106.19
636.57	81.19
636.775	86.19
636.981	100.19
637.187	91.19
637.392	84.19
637.598	83.19
637.804	80.19
638.009	87.19
638.215	93.19
638.421	85.19
638.626	99.19
638.832	83.19
639.037	83.19
639.243	71.19
639.448	91.19
639.654	90.19
639.859	93.19
640.065	93.19
640.27	88.19
640.475	86.19
640.681	84.19
640.886	92.19
641.091	83.19
641.297	99.19
641.502	83.19
641.707	100.19
641.913	79.19
642.118	89.19
642.323	90.19
642.528	98.19
642.733	107.19
642.939	88.19
643.144	91.19
643.349	93.19
643.554	89.19
643.759	89.19
643.964	101.19
644.169	100.19
644.374	92.19
644.579	81.19
644.784	100.19
644.989	104.19
645.194	85.19
645.399	83.19
645.604	88.19
645.809	99.19
646.014	95.19
646.219	80.19
646.423	101.19
646.628	90.19
646.833	94.19
647.038	86.19
647.243	82.19
647.447	87.19
647.652	107.19
647.857	76.19
648.062	89.19
648.266	86.19
648.471	73.19
648.676	93.19
648.88	106.19
649.085	84.19
649.289	89.19
649.494	107.19
649.698	80.19
649.903	97.19
650.107	100.19
650.312	93.19
650.516	90.19
650.721	95.19
650.925	97.19
651.13	90.19
651.334	72.19
651.539	80.19
651.743	84.19
651.947	83.19
652.152	85.19
652.356	82.19
652.56	82.19
652.764	80.19
652.969	88.19
653.173	94.19
653.377	94.19
653.581	88.19
653.785	88.19
653.99	79.19
654.194	91.19
654.398	73.19
654.602	100.19
654.806	95.19
655.01	95.19
655.214	76.19
655.418	95.19
655.622	86.19
655.826	79.19
656.03	97.19
656.234	90.19
656.438	80.19
656.642	88.19
656.846	93.19
657.049	79.19
657.253	93.19
657.457	87.19
657.661	85.19
657.865	99.19
658.068	79.19
658.272	89.19
658.476	96.19
658.68	94.19
658.883	92.19
659.087	87.19
659.291	90.19
659.494	82.19
659.698	81.19
659.901	85.19
660.105	79.19
660.309	86.19
660.512	91.19
660.716	82.19
660.919	94.19
661.123	90.19
661.326	86.19
661.53	90.19
661.733	91.19
661.936	88.19
662.14	86.19
662.343	85.19
662.546	78.19
662.75	69.19
662.953	81.19
663.156	77.19
663.36	83.19
663.563	85.19
663.766	101.19
663.969	81.19
664.173	92.19
664.376	91.19
664.579	82.19
664.782	85.19
664.985	76.19
665.188	95.19
665.391	97.19
665.594	98.19
665.797	77.19
666	82.19
666.203	80.19
666.406	82.19
666.609	69.19
666.812	91.19
667.015	84.19
667.218	89.19
667.421	85.19
667.624	78.19
667.827	86.19
668.03	92.19
668.232	82.19
668.435	90.19
668.638	80.19
668.841	91.19
669.043	90.19
669.246	95.19
669.449	75.19
669.651	79.19
669.854	95.19
670.057	78.19
670.259	85.19
670.462	80.19
670.665	86.19
670.867	93.19
671.07	99.19
671.272	88.19
671.475	95.19
671.677	90.19
671.88	82.19
672.082	82.19
672.284	85.19
672.487	96.19
672.689	82.19
672.892	70.19
