Data from Sand_2_HRD10591_00008.txt Node
Date: Mon Jan 19 13:33:19 EST 2026
User: Yrep
Spectrometer: HR+D1059
Trigger mode: 1
Integration Time (sec): 1.000000E-1
Scans to average: 1
Electric dark correction enabled: true
Nonlinearity correction enabled: false
Boxcar width: 0
XAxis mode: Wavelengths
Number of Pixels in Spectrum: 2048
>>>>>Begin Spectral Data<<<<<
223.165	-28.06
223.4	-28.06
223.635	-28.06
223.869	-15.06
224.104	-16.06
224.338	-4.06
224.573	-11.06
224.808	11.94
225.042	-8.06
225.277	-17.06
225.511	-15.06
225.746	-0.06
225.98	-2.06
226.215	9.94
226.449	6.94
226.683	20.94
226.918	22.94
227.152	43.94
227.387	18.94
227.621	29.94
227.856	49.94
228.09	58.94
228.324	68.94
228.559	57.94
228.793	57.94
229.027	81.94
229.262	75.94
229.496	74.94
229.73	79.94
229.964	70.94
230.199	73.94
230.433	56.94
230.667	74.94
230.901	74.94
231.136	82.94
231.37	80.94
231.604	75.94
231.838	90.94
232.072	95.94
232.306	61.94
232.541	79.94
232.775	91.94
233.009	82.94
233.243	70.94
233.477	85.94
233.711	79.94
233.945	81.94
234.179	90.94
234.413	64.94
234.647	70.94
234.881	75.94
235.115	68.94
235.349	81.94
235.583	84.94
235.817	80.94
236.051	73.94
236.285	80.94
236.519	77.94
236.753	75.94
236.987	71.94
237.221	72.94
237.455	78.94
237.689	71.94
237.922	80.94
238.156	83.94
238.39	73.94
238.624	62.94
238.858	71.94
239.091	63.94
239.325	63.94
239.559	61.94
239.793	70.94
240.027	70.94
240.26	78.94
240.494	81.94
240.728	67.94
240.961	73.94
241.195	67.94
241.429	69.94
241.662	64.94
241.896	73.94
242.13	86.94
242.363	81.94
242.597	62.94
242.83	62.94
243.064	67.94
243.298	85.94
243.531	69.94
243.765	85.94
243.998	56.94
244.232	91.94
244.465	74.94
244.699	75.94
244.932	61.94
245.166	65.94
245.399	79.94
245.633	68.94
245.866	84.94
246.099	92.94
246.333	94.94
246.566	77.94
246.8	79.94
247.033	82.94
247.266	74.94
247.5	80.94
247.733	67.94
247.966	77.94
248.2	74.94
248.433	83.94
248.666	77.94
248.899	70.94
249.133	73.94
249.366	85.94
249.599	77.94
249.832	61.94
250.066	78.94
250.299	80.94
250.532	74.94
250.765	81.94
250.998	81.94
251.231	73.94
251.465	77.94
251.698	67.94
251.931	90.94
252.164	78.94
252.397	78.94
252.63	70.94
252.863	81.94
253.096	70.94
253.329	56.94
253.562	79.94
253.795	67.94
254.028	71.94
254.261	78.94
254.494	75.94
254.727	73.94
254.96	77.94
255.193	72.94
255.426	74.94
255.659	75.94
255.892	74.94
256.124	64.94
256.357	77.94
256.59	89.94
256.823	72.94
257.056	73.94
257.289	76.94
257.521	74.94
257.754	82.94
257.987	76.94
258.22	86.94
258.452	79.94
258.685	77.94
258.918	73.94
259.151	75.94
259.383	70.94
259.616	67.94
259.849	82.94
260.081	86.94
260.314	75.94
260.547	81.94
260.779	67.94
261.012	87.94
261.244	75.94
261.477	82.94
261.71	72.94
261.942	82.94
262.175	78.94
262.407	83.94
262.64	86.94
262.872	93.94
263.105	81.94
263.337	80.94
263.57	78.94
263.802	77.94
264.035	81.94
264.267	71.94
264.499	96.94
264.732	78.94
264.964	75.94
265.197	71.94
265.429	77.94
265.661	86.94
265.894	83.94
266.126	72.94
266.358	64.94
266.591	66.94
266.823	78.94
267.055	79.94
267.287	85.94
267.52	97.94
267.752	86.94
267.984	88.94
268.216	75.94
268.448	100.94
268.681	79.94
268.913	95.94
269.145	81.94
269.377	91.94
269.609	77.94
269.841	74.94
270.073	79.94
270.306	81.94
270.538	79.94
270.77	77.94
271.002	78.94
271.234	71.94
271.466	82.94
271.698	77.94
271.93	83.94
272.162	85.94
272.394	82.94
272.626	67.94
272.858	86.94
273.09	79.94
273.322	71.94
273.553	73.94
273.785	89.94
274.017	92.94
274.249	85.94
274.481	85.94
274.713	86.94
274.945	85.94
275.176	77.94
275.408	87.94
275.64	95.94
275.872	90.94
276.104	70.94
276.335	71.94
276.567	80.94
276.799	69.94
277.031	85.94
277.262	83.94
277.494	65.94
277.726	85.94
277.957	84.94
278.189	67.94
278.421	90.94
278.652	82.94
278.884	77.94
279.115	67.94
279.347	86.94
279.579	92.94
279.81	84.94
280.042	77.94
280.273	84.94
280.505	71.94
280.736	82.94
280.968	81.94
281.199	91.94
281.431	84.94
281.662	91.94
281.894	81.94
282.125	91.94
282.356	74.94
282.588	95.94
282.819	85.94
283.051	73.94
283.282	90.94
283.513	78.94
283.745	87.94
283.976	82.94
284.207	87.94
284.439	93.94
284.67	90.94
284.901	88.94
285.132	81.94
285.364	92.94
285.595	74.94
285.826	84.94
286.057	88.94
286.288	78.94
286.52	97.94
286.751	73.94
286.982	81.94
287.213	68.94
287.444	74.94
287.675	59.94
287.906	82.94
288.138	92.94
288.369	77.94
288.6	81.94
288.831	71.94
289.062	93.94
289.293	67.94
289.524	92.94
289.755	75.94
289.986	89.94
290.217	90.94
290.448	89.94
290.679	77.94
290.91	79.94
291.141	76.94
291.371	90.94
291.602	82.94
291.833	77.94
292.064	93.94
292.295	86.94
292.526	83.94
292.757	85.94
292.987	77.94
293.218	83.94
293.449	86.94
293.68	78.94
293.91	93.94
294.141	78.94
294.372	90.94
294.603	77.94
294.833	81.94
295.064	67.94
295.295	85.94
295.525	82.94
295.756	95.94
295.987	87.94
296.217	74.94
296.448	88.94
296.679	68.94
296.909	86.94
297.14	77.94
297.37	73.94
297.601	72.94
297.831	77.94
298.062	84.94
298.292	77.94
298.523	80.94
298.753	73.94
298.984	87.94
299.214	94.94
299.445	97.94
299.675	80.94
299.905	89.94
300.136	80.94
300.366	73.94
300.597	81.94
300.827	88.94
301.057	89.94
301.288	81.94
301.518	82.94
301.748	80.94
301.979	98.94
302.209	87.94
302.439	79.94
302.669	88.94
302.9	78.94
303.13	85.94
303.36	91.94
303.59	84.94
303.82	75.94
304.051	68.94
304.281	77.94
304.511	81.94
304.741	82.94
304.971	90.94
305.201	84.94
305.431	83.94
305.661	74.94
305.891	78.94
306.121	85.94
306.352	78.94
306.582	90.94
306.812	97.94
307.042	90.94
307.272	84.94
307.502	85.94
307.731	91.94
307.961	75.94
308.191	94.94
308.421	93.94
308.651	85.94
308.881	83.94
309.111	114.94
309.341	100.94
309.571	101.94
309.8	78.94
310.03	71.94
310.26	82.94
310.49	67.94
310.72	92.94
310.949	92.94
311.179	85.94
311.409	83.94
311.639	83.94
311.868	81.94
312.098	82.94
312.328	85.94
312.557	68.94
312.787	85.94
313.017	90.94
313.246	73.94
313.476	94.94
313.706	85.94
313.935	80.94
314.165	89.94
314.394	72.94
314.624	88.94
314.853	80.94
315.083	87.94
315.312	84.94
315.542	94.94
315.771	89.94
316.001	102.94
316.23	71.94
316.46	75.94
316.689	74.94
316.919	75.94
317.148	80.94
317.377	78.94
317.607	58.94
317.836	80.94
318.065	92.94
318.295	87.94
318.524	83.94
318.753	83.94
318.983	82.94
319.212	77.94
319.441	101.94
319.67	81.94
319.9	74.94
320.129	91.94
320.358	75.94
320.587	77.94
320.816	75.94
321.046	86.94
321.275	79.94
321.504	85.94
321.733	90.94
321.962	99.94
322.191	83.94
322.42	89.94
322.649	82.94
322.878	95.94
323.108	71.94
323.337	84.94
323.566	79.94
323.795	87.94
324.024	83.94
324.253	90.94
324.482	88.94
324.71	85.94
324.939	67.94
325.168	85.94
325.397	80.94
325.626	81.94
325.855	80.94
326.084	84.94
326.313	86.94
326.542	72.94
326.77	83.94
326.999	68.94
327.228	87.94
327.457	96.94
327.686	78.94
327.914	81.94
328.143	94.94
328.372	78.94
328.6	80.94
328.829	87.94
329.058	81.94
329.287	77.94
329.515	87.94
329.744	93.94
329.972	96.94
330.201	107.94
330.43	116.94
330.658	84.94
330.887	84.94
331.115	79.94
331.344	72.94
331.572	81.94
331.801	87.94
332.03	90.94
332.258	82.94
332.486	77.94
332.715	76.94
332.943	82.94
333.172	86.94
333.4	83.94
333.629	73.94
333.857	85.94
334.085	90.94
334.314	83.94
334.542	79.94
334.771	89.94
334.999	87.94
335.227	81.94
335.455	88.94
335.684	84.94
335.912	86.94
336.14	91.94
336.369	95.94
336.597	84.94
336.825	74.94
337.053	91.94
337.281	83.94
337.51	83.94
337.738	90.94
337.966	83.94
338.194	82.94
338.422	90.94
338.65	85.94
338.878	76.94
339.106	77.94
339.334	92.94
339.562	85.94
339.79	77.94
340.018	89.94
340.246	90.94
340.474	79.94
340.702	79.94
340.93	78.94
341.158	78.94
341.386	76.94
341.614	91.94
341.842	75.94
342.07	78.94
342.298	79.94
342.526	102.94
342.754	94.94
342.981	92.94
343.209	76.94
343.437	88.94
343.665	83.94
343.893	83.94
344.12	94.94
344.348	85.94
344.576	99.94
344.804	94.94
345.031	91.94
345.259	89.94
345.487	87.94
345.714	85.94
345.942	92.94
346.17	91.94
346.397	80.94
346.625	80.94
346.853	75.94
347.08	83.94
347.308	80.94
347.535	78.94
347.763	101.94
347.99	81.94
348.218	80.94
348.445	86.94
348.673	79.94
348.9	81.94
349.128	86.94
349.355	85.94
349.583	70.94
349.81	91.94
350.037	96.94
350.265	77.94
350.492	77.94
350.72	90.94
350.947	81.94
351.174	81.94
351.402	78.94
351.629	57.94
351.856	80.94
352.083	86.94
352.311	81.94
352.538	73.94
352.765	82.94
352.992	89.94
353.22	96.94
353.447	86.94
353.674	105.94
353.901	94.94
354.128	82.94
354.355	92.94
354.583	80.94
354.81	85.94
355.037	89.94
355.264	85.94
355.491	89.94
355.718	67.94
355.945	79.94
356.172	86.94
356.399	90.94
356.626	94.94
356.853	92.94
357.08	79.94
357.307	93.94
357.534	74.94
357.761	88.94
357.988	83.94
358.215	89.94
358.441	85.94
358.668	81.94
358.895	80.94
359.122	82.94
359.349	75.94
359.576	87.94
359.802	81.94
360.029	91.94
360.256	79.94
360.483	81.94
360.709	93.94
360.936	87.94
361.163	81.94
361.39	89.94
361.616	86.94
361.843	93.94
362.07	90.94
362.296	86.94
362.523	79.94
362.749	79.94
362.976	88.94
363.203	85.94
363.429	77.94
363.656	88.94
363.882	82.94
364.109	84.94
364.335	83.94
364.562	93.94
364.788	97.94
365.015	86.94
365.241	78.94
365.468	92.94
365.694	84.94
365.92	77.94
366.147	92.94
366.373	85.94
366.599	69.94
366.826	84.94
367.052	84.94
367.278	97.94
367.505	88.94
367.731	78.94
367.957	81.94
368.184	83.94
368.41	68.94
368.636	92.94
368.862	96.94
369.089	88.94
369.315	87.94
369.541	86.94
369.767	80.94
369.993	75.94
370.219	81.94
370.445	81.94
370.672	75.94
370.898	80.94
371.124	78.94
371.35	80.94
371.576	97.94
371.802	81.94
372.028	75.94
372.254	74.94
372.48	78.94
372.706	86.94
372.932	71.94
373.158	86.94
373.384	97.94
373.61	91.94
373.835	85.94
374.061	76.94
374.287	94.94
374.513	72.94
374.739	91.94
374.965	105.94
375.191	85.94
375.416	89.94
375.642	101.94
375.868	74.94
376.094	90.94
376.319	80.94
376.545	83.94
376.771	86.94
376.997	82.94
377.222	72.94
377.448	83.94
377.674	77.94
377.899	82.94
378.125	87.94
378.35	83.94
378.576	96.94
378.802	83.94
379.027	84.94
379.253	74.94
379.478	83.94
379.704	101.94
379.929	80.94
380.155	69.94
380.38	86.94
380.606	94.94
380.831	78.94
381.057	102.94
381.282	90.94
381.507	78.94
381.733	87.94
381.958	105.94
382.184	95.94
382.409	78.94
382.634	85.94
382.86	78.94
383.085	90.94
383.31	74.94
383.535	93.94
383.761	82.94
383.986	90.94
384.211	85.94
384.436	70.94
384.662	83.94
384.887	78.94
385.112	98.94
385.337	86.94
385.562	84.94
385.787	93.94
386.013	75.94
386.238	82.94
386.463	89.94
386.688	97.94
386.913	74.94
387.138	79.94
387.363	86.94
387.588	103.94
387.813	90.94
388.038	88.94
388.263	93.94
388.488	88.94
388.713	88.94
388.938	80.94
389.163	77.94
389.387	93.94
389.612	113.94
389.837	87.94
390.062	79.94
390.287	88.94
390.512	69.94
390.736	75.94
390.961	82.94
391.186	80.94
391.411	78.94
391.636	90.94
391.86	73.94
392.085	115.94
392.31	87.94
392.534	102.94
392.759	76.94
392.984	109.94
393.208	131.94
393.433	151.94
393.658	132.94
393.882	85.94
394.107	103.94
394.331	139.94
394.556	169.94
394.78	119.94
395.005	85.94
395.229	87.94
395.454	101.94
395.678	95.94
395.903	131.94
396.127	164.94
396.352	174.94
396.576	130.94
396.801	119.94
397.025	122.94
397.249	110.94
397.474	114.94
397.698	78.94
397.922	94.94
398.147	96.94
398.371	89.94
398.595	101.94
398.82	93.94
399.044	80.94
399.268	91.94
399.492	94.94
399.717	79.94
399.941	76.94
400.165	83.94
400.389	85.94
400.613	89.94
400.837	82.94
401.062	87.94
401.286	92.94
401.51	94.94
401.734	89.94
401.958	83.94
402.182	86.94
402.406	81.94
402.63	89.94
402.854	89.94
403.078	105.94
403.302	104.94
403.526	97.94
403.75	113.94
403.974	127.94
404.198	185.94
404.422	293.94
404.645	365.94
404.869	286.94
405.093	185.94
405.317	114.94
405.541	101.94
405.765	91.94
405.988	96.94
406.212	90.94
406.436	78.94
406.66	95.94
406.883	97.94
407.107	90.94
407.331	84.94
407.555	86.94
407.778	74.94
408.002	89.94
408.226	97.94
408.449	79.94
408.673	79.94
408.896	75.94
409.12	82.94
409.344	87.94
409.567	85.94
409.791	71.94
410.014	87.94
410.238	73.94
410.461	80.94
410.685	79.94
410.908	75.94
411.132	92.94
411.355	73.94
411.578	78.94
411.802	94.94
412.025	79.94
412.249	80.94
412.472	85.94
412.695	81.94
412.919	87.94
413.142	82.94
413.365	75.94
413.589	76.94
413.812	69.94
414.035	90.94
414.258	78.94
414.482	81.94
414.705	89.94
414.928	64.94
415.151	94.94
415.374	82.94
415.597	85.94
415.821	68.94
416.044	89.94
416.267	98.94
416.49	89.94
416.713	94.94
416.936	82.94
417.159	73.94
417.382	77.94
417.605	87.94
417.828	92.94
418.051	83.94
418.274	85.94
418.497	81.94
418.72	67.94
418.943	86.94
419.166	83.94
419.389	94.94
419.611	78.94
419.834	87.94
420.057	97.94
420.28	87.94
420.503	77.94
420.726	81.94
420.948	63.94
421.171	77.94
421.394	82.94
421.617	79.94
421.839	76.94
422.062	97.94
422.285	94.94
422.507	149.94
422.73	232.94
422.953	196.94
423.175	124.94
423.398	85.94
423.621	91.94
423.843	82.94
424.066	74.94
424.288	79.94
424.511	67.94
424.733	85.94
424.956	77.94
425.178	93.94
425.401	78.94
425.623	91.94
425.846	84.94
426.068	98.94
426.291	93.94
426.513	81.94
426.735	62.94
426.958	75.94
427.18	84.94
427.402	85.94
427.625	76.94
427.847	72.94
428.069	83.94
428.292	93.94
428.514	102.94
428.736	86.94
428.958	95.94
429.181	98.94
429.403	86.94
429.625	81.94
429.847	91.94
430.069	105.94
430.292	99.94
430.514	86.94
430.736	95.94
430.958	89.94
431.18	97.94
431.402	82.94
431.624	85.94
431.846	81.94
432.068	97.94
432.29	107.94
432.512	86.94
432.734	87.94
432.956	88.94
433.178	86.94
433.4	105.94
433.622	90.94
433.844	78.94
434.066	82.94
434.287	78.94
434.509	83.94
434.731	97.94
434.953	73.94
435.175	91.94
435.397	93.94
435.618	81.94
435.84	68.94
436.062	75.94
436.284	85.94
436.505	79.94
436.727	88.94
436.949	83.94
437.17	88.94
437.392	94.94
437.614	93.94
437.835	76.94
438.057	85.94
438.278	90.94
438.5	81.94
438.721	79.94
438.943	84.94
439.165	89.94
439.386	78.94
439.608	71.94
439.829	88.94
440.05	81.94
440.272	79.94
440.493	98.94
440.715	93.94
440.936	86.94
441.158	101.94
441.379	93.94
441.6	75.94
441.822	82.94
442.043	93.94
442.264	79.94
442.486	87.94
442.707	95.94
442.928	80.94
443.149	90.94
443.371	85.94
443.592	106.94
443.813	110.94
444.034	96.94
444.255	82.94
444.476	92.94
444.698	89.94
444.919	85.94
445.14	159.94
445.361	138.94
445.582	117.94
445.803	112.94
446.024	79.94
446.245	82.94
446.466	84.94
446.687	81.94
446.908	80.94
447.129	78.94
447.35	77.94
447.571	81.94
447.792	95.94
448.013	81.94
448.234	94.94
448.455	90.94
448.675	92.94
448.896	70.94
449.117	87.94
449.338	87.94
449.559	92.94
449.779	90.94
450	77.94
450.221	87.94
450.442	103.94
450.662	79.94
450.883	78.94
451.104	87.94
451.324	87.94
451.545	99.94
451.766	85.94
451.986	91.94
452.207	88.94
452.428	82.94
452.648	79.94
452.869	75.94
453.089	93.94
453.31	96.94
453.53	82.94
453.751	101.94
453.971	86.94
454.192	94.94
454.412	75.94
454.633	88.94
454.853	105.94
455.073	78.94
455.294	81.94
455.514	73.94
455.734	72.94
455.955	82.94
456.175	94.94
456.395	104.94
456.616	102.94
456.836	84.94
457.056	90.94
457.276	71.94
457.497	80.94
457.717	89.94
457.937	82.94
458.157	77.94
458.377	66.94
458.598	76.94
458.818	81.94
459.038	81.94
459.258	78.94
459.478	80.94
459.698	85.94
459.918	77.94
460.138	55.94
460.358	94.94
460.578	85.94
460.798	86.94
461.018	92.94
461.238	89.94
461.458	87.94
461.678	94.94
461.898	75.94
462.118	81.94
462.338	78.94
462.558	88.94
462.777	98.94
462.997	98.94
463.217	83.94
463.437	78.94
463.657	81.94
463.876	81.94
464.096	78.94
464.316	87.94
464.536	82.94
464.755	98.94
464.975	91.94
465.195	90.94
465.414	94.94
465.634	83.94
465.854	89.94
466.073	93.94
466.293	81.94
466.512	91.94
466.732	91.94
466.951	81.94
467.171	86.94
467.391	91.94
467.61	83.94
467.829	86.94
468.049	92.94
468.268	103.94
468.488	90.94
468.707	87.94
468.927	97.94
469.146	103.94
469.365	105.94
469.585	101.94
469.804	93.94
470.023	79.94
470.243	94.94
470.462	87.94
470.681	97.94
470.901	83.94
471.12	88.94
471.339	83.94
471.558	90.94
471.777	101.94
471.997	96.94
472.216	89.94
472.435	100.94
472.654	91.94
472.873	92.94
473.092	97.94
473.311	83.94
473.53	82.94
473.749	81.94
473.968	85.94
474.187	82.94
474.406	84.94
474.625	73.94
474.844	82.94
475.063	103.94
475.282	90.94
475.501	90.94
475.72	82.94
475.939	92.94
476.158	92.94
476.377	111.94
476.596	73.94
476.814	78.94
477.033	69.94
477.252	89.94
477.471	87.94
477.69	85.94
477.908	86.94
478.127	93.94
478.346	82.94
478.564	79.94
478.783	86.94
479.002	82.94
479.22	91.94
479.439	90.94
479.658	73.94
479.876	88.94
480.095	81.94
480.313	90.94
480.532	81.94
480.751	83.94
480.969	81.94
481.188	75.94
481.406	72.94
481.624	83.94
481.843	82.94
482.061	85.94
482.28	91.94
482.498	95.94
482.717	106.94
482.935	82.94
483.153	92.94
483.372	90.94
483.59	91.94
483.808	74.94
484.027	82.94
484.245	87.94
484.463	89.94
484.681	95.94
484.9	93.94
485.118	76.94
485.336	96.94
485.554	80.94
485.772	84.94
485.99	94.94
486.209	97.94
486.427	85.94
486.645	95.94
486.863	107.94
487.081	87.94
487.299	92.94
487.517	89.94
487.735	97.94
487.953	105.94
488.171	95.94
488.389	85.94
488.607	86.94
488.825	89.94
489.043	81.94
489.261	83.94
489.479	83.94
489.696	95.94
489.914	92.94
490.132	84.94
490.35	86.94
490.568	95.94
490.786	79.94
491.003	104.94
491.221	88.94
491.439	85.94
491.657	103.94
491.874	98.94
492.092	88.94
492.31	89.94
492.527	105.94
492.745	103.94
492.963	84.94
493.18	101.94
493.398	91.94
493.615	95.94
493.833	82.94
494.05	90.94
494.268	95.94
494.485	76.94
494.703	105.94
494.92	89.94
495.138	81.94
495.355	88.94
495.573	102.94
495.79	95.94
496.008	103.94
496.225	101.94
496.442	102.94
496.66	112.94
496.877	92.94
497.094	113.94
497.312	93.94
497.529	90.94
497.746	90.94
497.963	93.94
498.181	76.94
498.398	97.94
498.615	92.94
498.832	87.94
499.049	91.94
499.267	108.94
499.484	94.94
499.701	94.94
499.918	79.94
500.135	90.94
500.352	98.94
500.569	94.94
500.786	85.94
501.003	101.94
501.22	107.94
501.437	88.94
501.654	85.94
501.871	78.94
502.088	96.94
502.305	89.94
502.522	96.94
502.739	88.94
502.956	86.94
503.172	79.94
503.389	79.94
503.606	97.94
503.823	97.94
504.04	105.94
504.256	101.94
504.473	94.94
504.69	81.94
504.907	95.94
505.123	86.94
505.34	102.94
505.557	93.94
505.773	88.94
505.99	97.94
506.207	79.94
506.423	103.94
506.64	88.94
506.856	77.94
507.073	94.94
507.289	97.94
507.506	93.94
507.722	88.94
507.939	91.94
508.155	111.94
508.372	85.94
508.588	80.94
508.805	87.94
509.021	96.94
509.238	106.94
509.454	92.94
509.67	105.94
509.887	89.94
510.103	101.94
510.319	94.94
510.536	91.94
510.752	99.94
510.968	102.94
511.184	101.94
511.401	73.94
511.617	85.94
511.833	108.94
512.049	79.94
512.265	94.94
512.481	101.94
512.698	77.94
512.914	79.94
513.13	101.94
513.346	79.94
513.562	77.94
513.778	92.94
513.994	86.94
514.21	81.94
514.426	105.94
514.642	97.94
514.858	96.94
515.074	96.94
515.29	84.94
515.506	87.94
515.721	104.94
515.937	89.94
516.153	97.94
516.369	99.94
516.585	93.94
516.801	72.94
517.016	73.94
517.232	101.94
517.448	80.94
517.664	89.94
517.879	84.94
518.095	88.94
518.311	88.94
518.527	98.94
518.742	71.94
518.958	85.94
519.173	96.94
519.389	95.94
519.605	97.94
519.82	99.94
520.036	90.94
520.251	83.94
520.467	82.94
520.682	65.94
520.898	78.94
521.113	77.94
521.329	72.94
521.544	92.94
521.76	87.94
521.975	90.94
522.19	80.94
522.406	98.94
522.621	90.94
522.836	91.94
523.052	97.94
523.267	95.94
523.482	89.94
523.698	84.94
523.913	90.94
524.128	86.94
524.343	73.94
524.559	89.94
524.774	103.94
524.989	77.94
525.204	98.94
525.419	93.94
525.634	101.94
525.849	79.94
526.064	80.94
526.28	84.94
526.495	89.94
526.71	95.94
526.925	80.94
527.14	96.94
527.355	107.94
527.57	83.94
527.785	69.94
527.999	79.94
528.214	98.94
528.429	90.94
528.644	103.94
528.859	88.94
529.074	84.94
529.289	94.94
529.503	88.94
529.718	102.94
529.933	76.94
530.148	95.94
530.363	77.94
530.577	89.94
530.792	88.94
531.007	87.94
531.221	86.94
531.436	86.94
531.651	76.94
531.865	97.94
532.08	86.94
532.295	93.94
532.509	106.94
532.724	103.94
532.938	80.94
533.153	109.94
533.367	122.94
533.582	98.94
533.796	99.94
534.011	110.94
534.225	101.94
534.44	117.94
534.654	121.94
534.868	99.94
535.083	109.94
535.297	97.94
535.511	92.94
535.726	105.94
535.94	93.94
536.154	104.94
536.369	105.94
536.583	110.94
536.797	111.94
537.011	96.94
537.225	105.94
537.44	101.94
537.654	90.94
537.868	73.94
538.082	99.94
538.296	101.94
538.51	90.94
538.724	91.94
538.938	91.94
539.153	90.94
539.367	76.94
539.581	92.94
539.795	89.94
540.009	89.94
540.222	81.94
540.436	90.94
540.65	69.94
540.864	94.94
541.078	95.94
541.292	83.94
541.506	81.94
541.72	94.94
541.934	90.94
542.147	95.94
542.361	91.94
542.575	86.94
542.789	84.94
543.002	85.94
543.216	83.94
543.43	93.94
543.644	72.94
543.857	75.94
544.071	95.94
544.285	87.94
544.498	81.94
544.712	86.94
544.925	97.94
545.139	94.94
545.352	89.94
545.566	73.94
545.779	76.94
545.993	88.94
546.206	83.94
546.42	97.94
546.633	76.94
546.847	92.94
547.06	81.94
547.274	78.94
547.487	101.94
547.7	97.94
547.914	98.94
548.127	97.94
548.34	91.94
548.554	82.94
548.767	89.94
548.98	89.94
549.193	80.94
549.407	101.94
549.62	79.94
549.833	88.94
550.046	94.94
550.259	89.94
550.473	97.94
550.686	98.94
550.899	84.94
551.112	91.94
551.325	86.94
551.538	85.94
551.751	98.94
551.964	85.94
552.177	91.94
552.39	100.94
552.603	94.94
552.816	91.94
553.029	94.94
553.242	87.94
553.455	75.94
553.667	87.94
553.88	86.94
554.093	88.94
554.306	99.94
554.519	91.94
554.732	97.94
554.944	90.94
555.157	103.94
555.37	72.94
555.583	95.94
555.795	96.94
556.008	89.94
556.221	95.94
556.433	83.94
556.646	86.94
556.859	95.94
557.071	90.94
557.284	86.94
557.496	88.94
557.709	101.94
557.921	91.94
558.134	86.94
558.346	110.94
558.559	92.94
558.771	82.94
558.984	106.94
559.196	113.94
559.409	91.94
559.621	97.94
559.833	103.94
560.046	98.94
560.258	89.94
560.47	86.94
560.683	94.94
560.895	73.94
561.107	94.94
561.32	104.94
561.532	88.94
561.744	93.94
561.956	96.94
562.168	93.94
562.381	84.94
562.593	94.94
562.805	90.94
563.017	90.94
563.229	90.94
563.441	86.94
563.653	79.94
563.865	94.94
564.077	77.94
564.289	91.94
564.501	101.94
564.713	73.94
564.925	100.94
565.137	80.94
565.349	96.94
565.561	82.94
565.773	94.94
565.985	96.94
566.197	83.94
566.408	100.94
566.62	76.94
566.832	92.94
567.044	98.94
567.255	81.94
567.467	89.94
567.679	96.94
567.891	99.94
568.102	96.94
568.314	101.94
568.526	98.94
568.737	111.94
568.949	121.94
569.161	133.94
569.372	120.94
569.584	115.94
569.795	107.94
570.007	117.94
570.218	107.94
570.43	98.94
570.641	97.94
570.853	98.94
571.064	98.94
571.276	91.94
571.487	70.94
571.698	106.94
571.91	98.94
572.121	75.94
572.333	70.94
572.544	88.94
572.755	79.94
572.966	99.94
573.178	86.94
573.389	89.94
573.6	80.94
573.811	92.94
574.023	89.94
574.234	82.94
574.445	81.94
574.656	97.94
574.867	80.94
575.078	81.94
575.289	81.94
575.501	77.94
575.712	89.94
575.923	75.94
576.134	93.94
576.345	81.94
576.556	90.94
576.767	104.94
576.978	86.94
577.188	89.94
577.399	96.94
577.61	97.94
577.821	82.94
578.032	82.94
578.243	105.94
578.454	112.94
578.665	119.94
578.875	109.94
579.086	130.94
579.297	106.94
579.508	101.94
579.718	104.94
579.929	112.94
580.14	97.94
580.35	117.94
580.561	143.94
580.772	130.94
580.982	127.94
581.193	115.94
581.403	108.94
581.614	113.94
581.825	108.94
582.035	103.94
582.246	107.94
582.456	104.94
582.667	89.94
582.877	89.94
583.087	100.94
583.298	107.94
583.508	114.94
583.719	110.94
583.929	104.94
584.139	113.94
584.35	99.94
584.56	94.94
584.77	100.94
584.981	90.94
585.191	99.94
585.401	95.94
585.611	100.94
585.821	96.94
586.032	96.94
586.242	105.94
586.452	105.94
586.662	117.94
586.872	103.94
587.082	106.94
587.292	114.94
587.502	115.94
587.713	125.94
587.923	132.94
588.133	152.94
588.343	192.94
588.553	254.94
588.762	387.94
588.972	701.94
589.182	987.94
589.392	957.94
589.602	822.94
589.812	953.94
590.022	718.94
590.232	365.94
590.441	236.94
590.651	185.94
590.861	158.94
591.071	137.94
591.281	121.94
591.49	111.94
591.7	101.94
591.91	122.94
592.119	119.94
592.329	95.94
592.539	113.94
592.748	97.94
592.958	105.94
593.167	89.94
593.377	113.94
593.587	113.94
593.796	97.94
594.006	82.94
594.215	107.94
594.424	95.94
594.634	91.94
594.843	95.94
595.053	89.94
595.262	89.94
595.472	94.94
595.681	83.94
595.89	90.94
596.1	78.94
596.309	86.94
596.518	95.94
596.727	102.94
596.937	86.94
597.146	95.94
597.355	92.94
597.564	90.94
597.774	94.94
597.983	91.94
598.192	83.94
598.401	86.94
598.61	80.94
598.819	85.94
599.028	93.94
599.237	86.94
599.446	85.94
599.655	89.94
599.864	97.94
600.073	81.94
600.282	81.94
600.491	92.94
600.7	96.94
600.909	92.94
601.118	87.94
601.327	85.94
601.536	89.94
601.745	100.94
601.953	85.94
602.162	77.94
602.371	83.94
602.58	103.94
602.789	93.94
602.997	91.94
603.206	83.94
603.415	80.94
603.623	89.94
603.832	93.94
604.041	87.94
604.249	80.94
604.458	94.94
604.666	93.94
604.875	92.94
605.084	105.94
605.292	88.94
605.501	87.94
605.709	84.94
605.918	103.94
606.126	90.94
606.334	86.94
606.543	83.94
606.751	88.94
606.96	86.94
607.168	77.94
607.376	89.94
607.585	103.94
607.793	90.94
608.001	86.94
608.21	90.94
608.418	81.94
608.626	86.94
608.834	67.94
609.043	103.94
609.251	85.94
609.459	88.94
609.667	90.94
609.875	96.94
610.083	77.94
610.291	86.94
610.499	98.94
610.707	105.94
610.916	100.94
611.124	97.94
611.332	96.94
611.54	86.94
611.748	86.94
611.955	75.94
612.163	94.94
612.371	88.94
612.579	79.94
612.787	99.94
612.995	96.94
613.203	94.94
613.411	89.94
613.618	98.94
613.826	76.94
614.034	93.94
614.242	76.94
614.449	78.94
614.657	83.94
614.865	101.94
615.072	93.94
615.28	93.94
615.488	102.94
615.695	87.94
615.903	85.94
616.111	97.94
616.318	115.94
616.526	122.94
616.733	122.94
616.941	99.94
617.148	83.94
617.356	76.94
617.563	87.94
617.771	85.94
617.978	89.94
618.185	110.94
618.393	68.94
618.6	91.94
618.807	94.94
619.015	99.94
619.222	73.94
619.429	87.94
619.637	77.94
619.844	89.94
620.051	81.94
620.258	93.94
620.466	88.94
620.673	79.94
620.88	80.94
621.087	90.94
621.294	92.94
621.501	85.94
621.708	83.94
621.915	80.94
622.122	97.94
622.329	84.94
622.536	89.94
622.743	74.94
622.95	92.94
623.157	85.94
623.364	81.94
623.571	89.94
623.778	90.94
623.985	72.94
624.192	94.94
624.399	94.94
624.606	105.94
624.812	82.94
625.019	91.94
625.226	79.94
625.433	93.94
625.639	85.94
625.846	102.94
626.053	80.94
626.259	77.94
626.466	99.94
626.673	97.94
626.879	86.94
627.086	89.94
627.293	95.94
627.499	75.94
627.706	103.94
627.912	87.94
628.119	99.94
628.325	94.94
628.532	93.94
628.738	101.94
628.945	79.94
629.151	99.94
629.357	89.94
629.564	87.94
629.77	93.94
629.976	96.94
630.183	80.94
630.389	101.94
630.595	89.94
630.802	73.94
631.008	95.94
631.214	79.94
631.42	80.94
631.627	76.94
631.833	76.94
632.039	89.94
632.245	85.94
632.451	89.94
632.657	90.94
632.863	89.94
633.069	92.94
633.275	86.94
633.481	79.94
633.688	86.94
633.893	88.94
634.099	77.94
634.305	85.94
634.511	105.94
634.717	82.94
634.923	91.94
635.129	76.94
635.335	75.94
635.541	98.94
635.747	91.94
635.952	90.94
636.158	82.94
636.364	82.94
636.57	78.94
636.775	81.94
636.981	83.94
637.187	87.94
637.392	89.94
637.598	76.94
637.804	77.94
638.009	97.94
638.215	81.94
638.421	96.94
638.626	76.94
638.832	87.94
639.037	90.94
639.243	83.94
639.448	82.94
639.654	94.94
639.859	79.94
640.065	87.94
640.27	80.94
640.475	86.94
640.681	90.94
640.886	73.94
641.091	80.94
641.297	85.94
641.502	87.94
641.707	68.94
641.913	68.94
642.118	83.94
642.323	81.94
642.528	77.94
642.733	73.94
642.939	70.94
643.144	94.94
643.349	62.94
643.554	74.94
643.759	97.94
643.964	74.94
644.169	101.94
644.374	81.94
644.579	77.94
644.784	86.94
644.989	89.94
645.194	70.94
645.399	89.94
645.604	88.94
645.809	82.94
646.014	85.94
646.219	88.94
646.423	76.94
646.628	86.94
646.833	89.94
647.038	85.94
647.243	90.94
647.447	84.94
647.652	88.94
647.857	79.94
648.062	83.94
648.266	85.94
648.471	76.94
648.676	79.94
648.88	81.94
649.085	101.94
649.289	87.94
649.494	78.94
649.698	85.94
649.903	84.94
650.107	78.94
650.312	93.94
650.516	91.94
650.721	93.94
650.925	80.94
651.13	69.94
651.334	85.94
651.539	92.94
651.743	71.94
651.947	83.94
652.152	81.94
652.356	89.94
652.56	85.94
652.764	84.94
652.969	80.94
653.173	77.94
653.377	75.94
653.581	81.94
653.785	94.94
653.99	81.94
654.194	85.94
654.398	85.94
654.602	87.94
654.806	84.94
655.01	65.94
655.214	76.94
655.418	75.94
655.622	81.94
655.826	77.94
656.03	76.94
656.234	71.94
656.438	98.94
656.642	82.94
656.846	93.94
657.049	91.94
657.253	74.94
657.457	74.94
657.661	81.94
657.865	89.94
658.068	87.94
658.272	74.94
658.476	92.94
658.68	82.94
658.883	78.94
659.087	89.94
659.291	74.94
659.494	82.94
659.698	81.94
659.901	79.94
660.105	87.94
660.309	85.94
660.512	66.94
660.716	81.94
660.919	72.94
661.123	88.94
661.326	71.94
661.53	61.94
661.733	80.94
661.936	98.94
662.14	78.94
662.343	61.94
662.546	77.94
662.75	86.94
662.953	81.94
663.156	84.94
663.36	75.94
663.563	84.94
663.766	71.94
663.969	71.94
664.173	75.94
664.376	79.94
664.579	89.94
664.782	67.94
664.985	75.94
665.188	73.94
665.391	70.94
665.594	82.94
665.797	83.94
666	75.94
666.203	72.94
666.406	70.94
666.609	77.94
666.812	77.94
667.015	84.94
667.218	79.94
667.421	82.94
667.624	69.94
667.827	78.94
668.03	87.94
668.232	67.94
668.435	63.94
668.638	77.94
668.841	73.94
669.043	67.94
669.246	79.94
669.449	88.94
669.651	80.94
669.854	79.94
670.057	81.94
670.259	89.94
670.462	75.94
670.665	70.94
670.867	91.94
671.07	87.94
671.272	80.94
671.475	80.94
671.677	75.94
671.88	67.94
672.082	79.94
672.284	79.94
672.487	74.94
672.689	67.94
672.892	87.94
