Data from Uncirc_1980_H10_HRD10591_00048.txt Node
Date: Wed Jan 03 12:37:05 EST 2024
User: Yrep
Spectrometer: HR+D1059
Trigger mode: 1
Integration Time (sec): 1.000000E-1
Scans to average: 1
Electric dark correction enabled: true
Nonlinearity correction enabled: false
Boxcar width: 0
XAxis mode: Wavelengths
Number of Pixels in Spectrum: 2048
>>>>>Begin Spectral Data<<<<<
223.165	-18.81
223.4	-18.81
223.635	-18.81
223.869	-23.81
224.104	-17.81
224.338	-7.81
224.573	-21.81
224.808	-14.81
225.042	-20.81
225.277	-13.81
225.511	3.19
225.746	10.19
225.98	15.19
226.215	27.19
226.449	17.19
226.683	32.19
226.918	17.19
227.152	17.19
227.387	36.19
227.621	47.19
227.856	38.19
228.09	44.19
228.324	63.19
228.559	56.19
228.793	52.19
229.027	82.19
229.262	56.19
229.496	61.19
229.73	75.19
229.964	71.19
230.199	77.19
230.433	79.19
230.667	71.19
230.901	80.19
231.136	83.19
231.37	68.19
231.604	87.19
231.838	75.19
232.072	83.19
232.306	72.19
232.541	95.19
232.775	79.19
233.009	76.19
233.243	81.19
233.477	60.19
233.711	94.19
233.945	74.19
234.179	88.19
234.413	76.19
234.647	79.19
234.881	70.19
235.115	86.19
235.349	84.19
235.583	75.19
235.817	83.19
236.051	79.19
236.285	68.19
236.519	83.19
236.753	86.19
236.987	70.19
237.221	81.19
237.455	73.19
237.689	58.19
237.922	78.19
238.156	71.19
238.39	79.19
238.624	75.19
238.858	77.19
239.091	70.19
239.325	87.19
239.559	69.19
239.793	74.19
240.027	85.19
240.26	74.19
240.494	66.19
240.728	77.19
240.961	71.19
241.195	95.19
241.429	67.19
241.662	72.19
241.896	72.19
242.13	70.19
242.363	67.19
242.597	68.19
242.83	80.19
243.064	74.19
243.298	68.19
243.531	84.19
243.765	66.19
243.998	60.19
244.232	96.19
244.465	76.19
244.699	76.19
244.932	75.19
245.166	85.19
245.399	64.19
245.633	74.19
245.866	92.19
246.099	76.19
246.333	67.19
246.566	77.19
246.8	86.19
247.033	73.19
247.266	82.19
247.5	79.19
247.733	83.19
247.966	74.19
248.2	84.19
248.433	71.19
248.666	76.19
248.899	80.19
249.133	74.19
249.366	92.19
249.599	85.19
249.832	75.19
250.066	77.19
250.299	79.19
250.532	72.19
250.765	81.19
250.998	85.19
251.231	85.19
251.465	77.19
251.698	73.19
251.931	70.19
252.164	70.19
252.397	92.19
252.63	91.19
252.863	72.19
253.096	70.19
253.329	73.19
253.562	81.19
253.795	75.19
254.028	81.19
254.261	74.19
254.494	88.19
254.727	83.19
254.96	80.19
255.193	76.19
255.426	83.19
255.659	72.19
255.892	81.19
256.124	81.19
256.357	71.19
256.59	69.19
256.823	79.19
257.056	84.19
257.289	70.19
257.521	78.19
257.754	87.19
257.987	67.19
258.22	79.19
258.452	84.19
258.685	75.19
258.918	69.19
259.151	81.19
259.383	84.19
259.616	76.19
259.849	82.19
260.081	73.19
260.314	72.19
260.547	73.19
260.779	90.19
261.012	66.19
261.244	75.19
261.477	79.19
261.71	93.19
261.942	98.19
262.175	96.19
262.407	91.19
262.64	83.19
262.872	84.19
263.105	74.19
263.337	76.19
263.57	79.19
263.802	69.19
264.035	76.19
264.267	61.19
264.499	90.19
264.732	95.19
264.964	80.19
265.197	87.19
265.429	80.19
265.661	77.19
265.894	72.19
266.126	76.19
266.358	91.19
266.591	85.19
266.823	73.19
267.055	67.19
267.287	83.19
267.52	81.19
267.752	77.19
267.984	75.19
268.216	78.19
268.448	89.19
268.681	95.19
268.913	79.19
269.145	82.19
269.377	89.19
269.609	80.19
269.841	76.19
270.073	81.19
270.306	88.19
270.538	87.19
270.77	97.19
271.002	84.19
271.234	74.19
271.466	74.19
271.698	87.19
271.93	88.19
272.162	86.19
272.394	67.19
272.626	93.19
272.858	80.19
273.09	78.19
273.322	89.19
273.553	90.19
273.785	77.19
274.017	96.19
274.249	69.19
274.481	81.19
274.713	83.19
274.945	84.19
275.176	102.19
275.408	103.19
275.64	82.19
275.872	87.19
276.104	73.19
276.335	86.19
276.567	107.19
276.799	103.19
277.031	96.19
277.262	82.19
277.494	92.19
277.726	84.19
277.957	87.19
278.189	89.19
278.421	73.19
278.652	82.19
278.884	83.19
279.115	93.19
279.347	91.19
279.579	73.19
279.81	93.19
280.042	82.19
280.273	86.19
280.505	88.19
280.736	81.19
280.968	73.19
281.199	87.19
281.431	89.19
281.662	92.19
281.894	101.19
282.125	96.19
282.356	98.19
282.588	126.19
282.819	88.19
283.051	86.19
283.282	83.19
283.513	76.19
283.745	74.19
283.976	89.19
284.207	89.19
284.439	74.19
284.67	83.19
284.901	84.19
285.132	93.19
285.364	89.19
285.595	78.19
285.826	83.19
286.057	93.19
286.288	101.19
286.52	88.19
286.751	84.19
286.982	69.19
287.213	95.19
287.444	95.19
287.675	85.19
287.906	79.19
288.138	92.19
288.369	84.19
288.6	91.19
288.831	84.19
289.062	75.19
289.293	83.19
289.524	90.19
289.755	79.19
289.986	83.19
290.217	82.19
290.448	89.19
290.679	89.19
290.91	98.19
291.141	81.19
291.371	89.19
291.602	77.19
291.833	89.19
292.064	80.19
292.295	82.19
292.526	78.19
292.757	88.19
292.987	103.19
293.218	85.19
293.449	76.19
293.68	93.19
293.91	87.19
294.141	83.19
294.372	86.19
294.603	71.19
294.833	96.19
295.064	94.19
295.295	73.19
295.525	82.19
295.756	87.19
295.987	104.19
296.217	116.19
296.448	95.19
296.679	98.19
296.909	83.19
297.14	90.19
297.37	84.19
297.601	79.19
297.831	87.19
298.062	82.19
298.292	89.19
298.523	92.19
298.753	90.19
298.984	88.19
299.214	85.19
299.445	81.19
299.675	86.19
299.905	98.19
300.136	97.19
300.366	81.19
300.597	93.19
300.827	90.19
301.057	79.19
301.288	89.19
301.518	89.19
301.748	84.19
301.979	107.19
302.209	94.19
302.439	90.19
302.669	92.19
302.9	88.19
303.13	87.19
303.36	90.19
303.59	94.19
303.82	91.19
304.051	90.19
304.281	86.19
304.511	96.19
304.741	90.19
304.971	76.19
305.201	67.19
305.431	77.19
305.661	81.19
305.891	80.19
306.121	88.19
306.352	96.19
306.582	90.19
306.812	96.19
307.042	95.19
307.272	96.19
307.502	91.19
307.731	97.19
307.961	92.19
308.191	91.19
308.421	102.19
308.651	85.19
308.881	74.19
309.111	101.19
309.341	92.19
309.571	89.19
309.8	95.19
310.03	90.19
310.26	92.19
310.49	98.19
310.72	94.19
310.949	91.19
311.179	97.19
311.409	83.19
311.639	95.19
311.868	87.19
312.098	93.19
312.328	93.19
312.557	98.19
312.787	108.19
313.017	96.19
313.246	76.19
313.476	65.19
313.706	84.19
313.935	84.19
314.165	89.19
314.394	104.19
314.624	95.19
314.853	98.19
315.083	96.19
315.312	89.19
315.542	94.19
315.771	95.19
316.001	82.19
316.23	87.19
316.46	107.19
316.689	84.19
316.919	89.19
317.148	87.19
317.377	78.19
317.607	102.19
317.836	97.19
318.065	93.19
318.295	91.19
318.524	100.19
318.753	117.19
318.983	98.19
319.212	84.19
319.441	98.19
319.67	100.19
319.9	100.19
320.129	99.19
320.358	85.19
320.587	82.19
320.816	86.19
321.046	87.19
321.275	94.19
321.504	85.19
321.733	86.19
321.962	84.19
322.191	94.19
322.42	100.19
322.649	106.19
322.878	103.19
323.108	111.19
323.337	111.19
323.566	109.19
323.795	152.19
324.024	150.19
324.253	303.19
324.482	575.19
324.71	1184.19
324.939	1594.19
325.168	618.19
325.397	210.19
325.626	136.19
325.855	117.19
326.084	116.19
326.313	131.19
326.542	124.19
326.77	181.19
326.999	342.19
327.228	663.19
327.457	1215.19
327.686	979.19
327.914	284.19
328.143	163.19
328.372	126.19
328.6	101.19
328.829	93.19
329.058	116.19
329.287	101.19
329.515	112.19
329.744	98.19
329.972	115.19
330.201	112.19
330.43	114.19
330.658	109.19
330.887	117.19
331.115	99.19
331.344	92.19
331.572	88.19
331.801	92.19
332.03	90.19
332.258	94.19
332.486	92.19
332.715	70.19
332.943	87.19
333.172	94.19
333.4	89.19
333.629	114.19
333.857	98.19
334.085	90.19
334.314	109.19
334.542	127.19
334.771	113.19
334.999	105.19
335.227	88.19
335.455	88.19
335.684	76.19
335.912	82.19
336.14	107.19
336.369	88.19
336.597	88.19
336.825	91.19
337.053	75.19
337.281	90.19
337.51	79.19
337.738	93.19
337.966	102.19
338.194	85.19
338.422	83.19
338.65	87.19
338.878	101.19
339.106	86.19
339.334	91.19
339.562	85.19
339.79	76.19
340.018	85.19
340.246	83.19
340.474	94.19
340.702	87.19
340.93	92.19
341.158	91.19
341.386	94.19
341.614	79.19
341.842	81.19
342.07	92.19
342.298	88.19
342.526	82.19
342.754	59.19
342.981	91.19
343.209	83.19
343.437	94.19
343.665	91.19
343.893	81.19
344.12	82.19
344.348	83.19
344.576	86.19
344.804	82.19
345.031	92.19
345.259	84.19
345.487	87.19
345.714	99.19
345.942	93.19
346.17	105.19
346.397	92.19
346.625	87.19
346.853	90.19
347.08	75.19
347.308	82.19
347.535	96.19
347.763	95.19
347.99	79.19
348.218	102.19
348.445	88.19
348.673	101.19
348.9	102.19
349.128	98.19
349.355	89.19
349.583	88.19
349.81	85.19
350.037	104.19
350.265	100.19
350.492	95.19
350.72	99.19
350.947	102.19
351.174	111.19
351.402	92.19
351.629	91.19
351.856	97.19
352.083	100.19
352.311	88.19
352.538	101.19
352.765	99.19
352.992	107.19
353.22	105.19
353.447	97.19
353.674	98.19
353.901	115.19
354.128	88.19
354.355	103.19
354.583	98.19
354.81	103.19
355.037	103.19
355.264	85.19
355.491	93.19
355.718	81.19
355.945	95.19
356.172	94.19
356.399	102.19
356.626	98.19
356.853	88.19
357.08	90.19
357.307	95.19
357.534	90.19
357.761	93.19
357.988	87.19
358.215	103.19
358.441	98.19
358.668	85.19
358.895	85.19
359.122	85.19
359.349	85.19
359.576	81.19
359.802	88.19
360.029	95.19
360.256	98.19
360.483	96.19
360.709	84.19
360.936	84.19
361.163	100.19
361.39	86.19
361.616	89.19
361.843	69.19
362.07	93.19
362.296	83.19
362.523	89.19
362.749	92.19
362.976	90.19
363.203	96.19
363.429	92.19
363.656	103.19
363.882	83.19
364.109	91.19
364.335	86.19
364.562	90.19
364.788	95.19
365.015	82.19
365.241	95.19
365.468	99.19
365.694	87.19
365.92	80.19
366.147	85.19
366.373	91.19
366.599	89.19
366.826	76.19
367.052	87.19
367.278	88.19
367.505	82.19
367.731	87.19
367.957	81.19
368.184	82.19
368.41	103.19
368.636	93.19
368.862	112.19
369.089	87.19
369.315	92.19
369.541	84.19
369.767	100.19
369.993	84.19
370.219	83.19
370.445	83.19
370.672	96.19
370.898	71.19
371.124	85.19
371.35	90.19
371.576	76.19
371.802	96.19
372.028	92.19
372.254	87.19
372.48	73.19
372.706	73.19
372.932	95.19
373.158	68.19
373.384	90.19
373.61	74.19
373.835	89.19
374.061	85.19
374.287	83.19
374.513	86.19
374.739	90.19
374.965	89.19
375.191	96.19
375.416	79.19
375.642	83.19
375.868	92.19
376.094	84.19
376.319	92.19
376.545	79.19
376.771	83.19
376.997	84.19
377.222	95.19
377.448	95.19
377.674	86.19
377.899	89.19
378.125	86.19
378.35	98.19
378.576	104.19
378.802	83.19
379.027	77.19
379.253	90.19
379.478	85.19
379.704	77.19
379.929	88.19
380.155	92.19
380.38	99.19
380.606	87.19
380.831	91.19
381.057	99.19
381.282	89.19
381.507	98.19
381.733	95.19
381.958	106.19
382.184	97.19
382.409	89.19
382.634	121.19
382.86	111.19
383.085	103.19
383.31	93.19
383.535	92.19
383.761	85.19
383.986	97.19
384.211	96.19
384.436	104.19
384.662	100.19
384.887	105.19
385.112	98.19
385.337	104.19
385.562	108.19
385.787	107.19
386.013	114.19
386.238	109.19
386.463	104.19
386.688	107.19
386.913	120.19
387.138	119.19
387.363	96.19
387.588	95.19
387.813	98.19
388.038	108.19
388.263	115.19
388.488	104.19
388.713	84.19
388.938	95.19
389.163	73.19
389.387	106.19
389.612	86.19
389.837	100.19
390.062	91.19
390.287	87.19
390.512	70.19
390.736	88.19
390.961	84.19
391.186	89.19
391.411	96.19
391.636	104.19
391.86	105.19
392.085	88.19
392.31	68.19
392.534	71.19
392.759	73.19
392.984	83.19
393.208	100.19
393.433	104.19
393.658	90.19
393.882	71.19
394.107	71.19
394.331	92.19
394.556	71.19
394.78	87.19
395.005	86.19
395.229	95.19
395.454	82.19
395.678	87.19
395.903	87.19
396.127	86.19
396.352	92.19
396.576	80.19
396.801	87.19
397.025	84.19
397.249	81.19
397.474	101.19
397.698	78.19
397.922	68.19
398.147	89.19
398.371	85.19
398.595	82.19
398.82	86.19
399.044	90.19
399.268	80.19
399.492	87.19
399.717	88.19
399.941	85.19
400.165	90.19
400.389	113.19
400.613	88.19
400.837	98.19
401.062	97.19
401.286	79.19
401.51	85.19
401.734	87.19
401.958	90.19
402.182	98.19
402.406	117.19
402.63	87.19
402.854	80.19
403.078	84.19
403.302	96.19
403.526	83.19
403.75	76.19
403.974	79.19
404.198	72.19
404.422	89.19
404.645	93.19
404.869	84.19
405.093	92.19
405.317	98.19
405.541	87.19
405.765	91.19
405.988	108.19
406.212	138.19
406.436	183.19
406.66	117.19
406.883	99.19
407.107	86.19
407.331	92.19
407.555	79.19
407.778	94.19
408.002	104.19
408.226	87.19
408.449	79.19
408.673	97.19
408.896	90.19
409.12	90.19
409.344	86.19
409.567	64.19
409.791	82.19
410.014	105.19
410.238	96.19
410.461	87.19
410.685	101.19
410.908	96.19
411.132	98.19
411.355	91.19
411.578	83.19
411.802	85.19
412.025	88.19
412.249	83.19
412.472	83.19
412.695	103.19
412.919	75.19
413.142	86.19
413.365	98.19
413.589	92.19
413.812	76.19
414.035	101.19
414.258	103.19
414.482	99.19
414.705	87.19
414.928	86.19
415.151	91.19
415.374	85.19
415.597	83.19
415.821	86.19
416.044	85.19
416.267	76.19
416.49	68.19
416.713	95.19
416.936	84.19
417.159	77.19
417.382	95.19
417.605	72.19
417.828	81.19
418.051	88.19
418.274	95.19
418.497	96.19
418.72	88.19
418.943	75.19
419.166	87.19
419.389	87.19
419.611	87.19
419.834	85.19
420.057	86.19
420.28	91.19
420.503	86.19
420.726	81.19
420.948	89.19
421.171	90.19
421.394	102.19
421.617	90.19
421.839	87.19
422.062	87.19
422.285	92.19
422.507	100.19
422.73	105.19
422.953	92.19
423.175	100.19
423.398	84.19
423.621	82.19
423.843	91.19
424.066	89.19
424.288	85.19
424.511	90.19
424.733	87.19
424.956	93.19
425.178	102.19
425.401	94.19
425.623	89.19
425.846	87.19
426.068	87.19
426.291	91.19
426.513	88.19
426.735	98.19
426.958	81.19
427.18	103.19
427.402	107.19
427.625	137.19
427.847	103.19
428.069	105.19
428.292	88.19
428.514	94.19
428.736	79.19
428.958	87.19
429.181	85.19
429.403	100.19
429.625	79.19
429.847	86.19
430.069	88.19
430.292	90.19
430.514	81.19
430.736	81.19
430.958	70.19
431.18	79.19
431.402	80.19
431.624	84.19
431.846	81.19
432.068	90.19
432.29	91.19
432.512	96.19
432.734	79.19
432.956	89.19
433.178	79.19
433.4	105.19
433.622	85.19
433.844	81.19
434.066	80.19
434.287	83.19
434.509	76.19
434.731	69.19
434.953	91.19
435.175	88.19
435.397	76.19
435.618	89.19
435.84	87.19
436.062	103.19
436.284	119.19
436.505	95.19
436.727	95.19
436.949	98.19
437.17	88.19
437.392	95.19
437.614	95.19
437.835	104.19
438.057	99.19
438.278	92.19
438.5	97.19
438.721	105.19
438.943	105.19
439.165	86.19
439.386	83.19
439.608	88.19
439.829	95.19
440.05	102.19
440.272	114.19
440.493	84.19
440.715	79.19
440.936	88.19
441.158	88.19
441.379	84.19
441.6	81.19
441.822	84.19
442.043	87.19
442.264	87.19
442.486	93.19
442.707	80.19
442.928	100.19
443.149	113.19
443.371	113.19
443.592	102.19
443.813	98.19
444.034	95.19
444.255	82.19
444.476	72.19
444.698	81.19
444.919	85.19
445.14	132.19
445.361	130.19
445.582	95.19
445.803	103.19
446.024	112.19
446.245	116.19
446.466	99.19
446.687	92.19
446.908	86.19
447.129	84.19
447.35	74.19
447.571	86.19
447.792	89.19
448.013	93.19
448.234	97.19
448.455	95.19
448.675	103.19
448.896	91.19
449.117	86.19
449.338	93.19
449.559	111.19
449.779	106.19
450	82.19
450.221	89.19
450.442	87.19
450.662	83.19
450.883	98.19
451.104	86.19
451.324	90.19
451.545	74.19
451.766	87.19
451.986	97.19
452.207	79.19
452.428	84.19
452.648	76.19
452.869	96.19
453.089	105.19
453.31	88.19
453.53	90.19
453.751	86.19
453.971	94.19
454.192	93.19
454.412	84.19
454.633	76.19
454.853	89.19
455.073	103.19
455.294	84.19
455.514	83.19
455.734	86.19
455.955	88.19
456.175	89.19
456.395	103.19
456.616	88.19
456.836	84.19
457.056	94.19
457.276	91.19
457.497	81.19
457.717	85.19
457.937	89.19
458.157	73.19
458.377	82.19
458.598	87.19
458.818	114.19
459.038	126.19
459.258	102.19
459.478	75.19
459.698	83.19
459.918	80.19
460.138	76.19
460.358	76.19
460.578	102.19
460.798	76.19
461.018	89.19
461.238	86.19
461.458	88.19
461.678	73.19
461.898	76.19
462.118	76.19
462.338	90.19
462.558	85.19
462.777	88.19
462.997	80.19
463.217	73.19
463.437	74.19
463.657	89.19
463.876	81.19
464.096	91.19
464.316	87.19
464.536	89.19
464.755	94.19
464.975	93.19
465.195	130.19
465.414	140.19
465.634	89.19
465.854	81.19
466.073	79.19
466.293	77.19
466.512	89.19
466.732	81.19
466.951	84.19
467.171	90.19
467.391	97.19
467.61	101.19
467.829	81.19
468.049	92.19
468.268	104.19
468.488	75.19
468.707	89.19
468.927	86.19
469.146	84.19
469.365	92.19
469.585	95.19
469.804	87.19
470.023	83.19
470.243	93.19
470.462	102.19
470.681	95.19
470.901	92.19
471.12	88.19
471.339	77.19
471.558	87.19
471.777	87.19
471.997	72.19
472.216	108.19
472.435	119.19
472.654	80.19
472.873	89.19
473.092	90.19
473.311	81.19
473.53	83.19
473.749	97.19
473.968	113.19
474.187	76.19
474.406	86.19
474.625	104.19
474.844	77.19
475.063	93.19
475.282	76.19
475.501	72.19
475.72	85.19
475.939	77.19
476.158	87.19
476.377	86.19
476.596	86.19
476.814	92.19
477.033	92.19
477.252	64.19
477.471	99.19
477.69	75.19
477.908	86.19
478.127	72.19
478.346	81.19
478.564	82.19
478.783	85.19
479.002	75.19
479.22	83.19
479.439	97.19
479.658	86.19
479.876	88.19
480.095	94.19
480.313	84.19
480.532	82.19
480.751	87.19
480.969	94.19
481.188	156.19
481.406	121.19
481.624	100.19
481.843	105.19
482.061	94.19
482.28	95.19
482.498	87.19
482.717	83.19
482.935	82.19
483.153	97.19
483.372	91.19
483.59	76.19
483.808	74.19
484.027	101.19
484.245	100.19
484.463	98.19
484.681	95.19
484.9	86.19
485.118	98.19
485.336	92.19
485.554	103.19
485.772	96.19
485.99	108.19
486.209	87.19
486.427	101.19
486.645	103.19
486.863	99.19
487.081	92.19
487.299	99.19
487.517	86.19
487.735	91.19
487.953	90.19
488.171	101.19
488.389	95.19
488.607	89.19
488.825	87.19
489.043	89.19
489.261	82.19
489.479	82.19
489.696	83.19
489.914	90.19
490.132	91.19
490.35	84.19
490.568	88.19
490.786	93.19
491.003	95.19
491.221	83.19
491.439	83.19
491.657	81.19
491.874	98.19
492.092	84.19
492.31	89.19
492.527	88.19
492.745	86.19
492.963	106.19
493.18	89.19
493.398	102.19
493.615	95.19
493.833	89.19
494.05	81.19
494.268	101.19
494.485	89.19
494.703	81.19
494.92	81.19
495.138	90.19
495.355	91.19
495.573	97.19
495.79	76.19
496.008	89.19
496.225	90.19
496.442	79.19
496.66	90.19
496.877	87.19
497.094	82.19
497.312	65.19
497.529	95.19
497.746	91.19
497.963	96.19
498.181	94.19
498.398	99.19
498.615	105.19
498.832	98.19
499.049	108.19
499.267	88.19
499.484	89.19
499.701	99.19
499.918	70.19
500.135	94.19
500.352	85.19
500.569	86.19
500.786	95.19
501.003	83.19
501.22	96.19
501.437	79.19
501.654	83.19
501.871	97.19
502.088	92.19
502.305	85.19
502.522	90.19
502.739	99.19
502.956	86.19
503.172	89.19
503.389	81.19
503.606	103.19
503.823	104.19
504.04	100.19
504.256	88.19
504.473	84.19
504.69	86.19
504.907	97.19
505.123	91.19
505.34	94.19
505.557	80.19
505.773	102.19
505.99	92.19
506.207	84.19
506.423	87.19
506.64	95.19
506.856	80.19
507.073	87.19
507.289	92.19
507.506	96.19
507.722	104.19
507.939	107.19
508.155	90.19
508.372	84.19
508.588	82.19
508.805	87.19
509.021	88.19
509.238	75.19
509.454	99.19
509.67	85.19
509.887	107.19
510.103	105.19
510.319	181.19
510.536	557.19
510.752	1689.19
510.968	477.19
511.184	143.19
511.401	107.19
511.617	98.19
511.833	90.19
512.049	87.19
512.265	83.19
512.481	82.19
512.698	84.19
512.914	83.19
513.13	84.19
513.346	95.19
513.562	99.19
513.778	89.19
513.994	104.19
514.21	100.19
514.426	96.19
514.642	114.19
514.858	104.19
515.074	126.19
515.29	311.19
515.506	976.19
515.721	369.19
515.937	120.19
516.153	88.19
516.369	86.19
516.585	95.19
516.801	93.19
517.016	91.19
517.232	85.19
517.448	93.19
517.664	100.19
517.879	91.19
518.095	94.19
518.311	91.19
518.527	85.19
518.742	85.19
518.958	93.19
519.173	89.19
519.389	97.19
519.605	103.19
519.82	101.19
520.036	77.19
520.251	113.19
520.467	100.19
520.682	96.19
520.898	101.19
521.113	108.19
521.329	134.19
521.544	154.19
521.76	388.19
521.975	1569.19
522.19	947.19
522.406	227.19
522.621	100.19
522.836	105.19
523.052	100.19
523.267	100.19
523.482	86.19
523.698	83.19
523.913	84.19
524.128	81.19
524.343	82.19
524.559	86.19
524.774	97.19
524.989	91.19
525.204	87.19
525.419	95.19
525.634	82.19
525.849	85.19
526.064	95.19
526.28	90.19
526.495	87.19
526.71	89.19
526.925	93.19
527.14	87.19
527.355	90.19
527.57	99.19
527.785	97.19
527.999	99.19
528.214	85.19
528.429	87.19
528.644	90.19
528.859	85.19
529.074	92.19
529.289	117.19
529.503	129.19
529.718	95.19
529.933	104.19
530.148	87.19
530.363	90.19
530.577	105.19
530.792	82.19
531.007	91.19
531.221	91.19
531.436	69.19
531.651	72.19
531.865	80.19
532.08	77.19
532.295	79.19
532.509	93.19
532.724	96.19
532.938	97.19
533.153	91.19
533.367	88.19
533.582	99.19
533.796	94.19
534.011	84.19
534.225	110.19
534.44	97.19
534.654	84.19
534.868	80.19
535.083	91.19
535.297	80.19
535.511	97.19
535.726	104.19
535.94	92.19
536.154	98.19
536.369	88.19
536.583	96.19
536.797	87.19
537.011	92.19
537.225	88.19
537.44	73.19
537.654	91.19
537.868	91.19
538.082	80.19
538.296	78.19
538.51	87.19
538.724	90.19
538.938	91.19
539.153	87.19
539.367	105.19
539.581	91.19
539.795	101.19
540.009	101.19
540.222	90.19
540.436	83.19
540.65	98.19
540.864	87.19
541.078	98.19
541.292	91.19
541.506	91.19
541.72	97.19
541.934	91.19
542.147	90.19
542.361	91.19
542.575	79.19
542.789	83.19
543.002	93.19
543.216	98.19
543.43	93.19
543.644	92.19
543.857	88.19
544.071	84.19
544.285	100.19
544.498	77.19
544.712	72.19
544.925	75.19
545.139	83.19
545.352	84.19
545.566	90.19
545.779	97.19
545.993	81.19
546.206	87.19
546.42	87.19
546.633	74.19
546.847	99.19
547.06	82.19
547.274	87.19
547.487	77.19
547.7	84.19
547.914	81.19
548.127	89.19
548.34	99.19
548.554	72.19
548.767	91.19
548.98	82.19
549.193	88.19
549.407	97.19
549.62	88.19
549.833	82.19
550.046	81.19
550.259	85.19
550.473	83.19
550.686	82.19
550.899	90.19
551.112	100.19
551.325	95.19
551.538	69.19
551.751	97.19
551.964	86.19
552.177	86.19
552.39	90.19
552.603	86.19
552.816	81.19
553.029	101.19
553.242	101.19
553.455	96.19
553.667	98.19
553.88	101.19
554.093	100.19
554.306	82.19
554.519	92.19
554.732	95.19
554.944	104.19
555.157	88.19
555.37	102.19
555.583	84.19
555.795	90.19
556.008	105.19
556.221	85.19
556.433	84.19
556.646	89.19
556.859	74.19
557.071	105.19
557.284	104.19
557.496	74.19
557.709	88.19
557.921	76.19
558.134	79.19
558.346	83.19
558.559	92.19
558.771	90.19
558.984	92.19
559.196	98.19
559.409	79.19
559.621	90.19
559.833	89.19
560.046	77.19
560.258	82.19
560.47	87.19
560.683	79.19
560.895	88.19
561.107	98.19
561.32	96.19
561.532	90.19
561.744	75.19
561.956	95.19
562.168	87.19
562.381	97.19
562.593	90.19
562.805	88.19
563.017	95.19
563.229	79.19
563.441	90.19
563.653	98.19
563.865	100.19
564.077	80.19
564.289	100.19
564.501	97.19
564.713	98.19
564.925	101.19
565.137	87.19
565.349	89.19
565.561	80.19
565.773	96.19
565.985	99.19
566.197	84.19
566.408	84.19
566.62	77.19
566.832	88.19
567.044	93.19
567.255	92.19
567.467	92.19
567.679	96.19
567.891	85.19
568.102	79.19
568.314	76.19
568.526	86.19
568.737	104.19
568.949	82.19
569.161	75.19
569.372	107.19
569.584	81.19
569.795	94.19
570.007	123.19
570.218	203.19
570.43	127.19
570.641	84.19
570.853	83.19
571.064	67.19
571.276	85.19
571.487	84.19
571.698	88.19
571.91	82.19
572.121	93.19
572.333	81.19
572.544	73.19
572.755	97.19
572.966	83.19
573.178	89.19
573.389	92.19
573.6	73.19
573.811	97.19
574.023	93.19
574.234	103.19
574.445	85.19
574.656	84.19
574.867	94.19
575.078	87.19
575.289	91.19
575.501	84.19
575.712	85.19
575.923	82.19
576.134	87.19
576.345	88.19
576.556	86.19
576.767	87.19
576.978	76.19
577.188	101.19
577.399	107.19
577.61	89.19
577.821	97.19
578.032	95.19
578.243	220.19
578.454	565.19
578.665	165.19
578.875	95.19
579.086	91.19
579.297	94.19
579.508	101.19
579.718	95.19
579.929	91.19
580.14	98.19
580.35	87.19
580.561	74.19
580.772	87.19
580.982	91.19
581.193	76.19
581.403	83.19
581.614	90.19
581.825	105.19
582.035	79.19
582.246	89.19
582.456	84.19
582.667	90.19
582.877	85.19
583.087	81.19
583.298	85.19
583.508	86.19
583.719	103.19
583.929	85.19
584.139	87.19
584.35	78.19
584.56	102.19
584.77	77.19
584.981	84.19
585.191	98.19
585.401	90.19
585.611	81.19
585.821	69.19
586.032	73.19
586.242	95.19
586.452	88.19
586.662	81.19
586.872	85.19
587.082	97.19
587.292	97.19
587.502	88.19
587.713	83.19
587.923	94.19
588.133	92.19
588.343	92.19
588.553	91.19
588.762	87.19
588.972	80.19
589.182	93.19
589.392	92.19
589.602	75.19
589.812	80.19
590.022	96.19
590.232	93.19
590.441	76.19
590.651	91.19
590.861	89.19
591.071	85.19
591.281	95.19
591.49	85.19
591.7	85.19
591.91	79.19
592.119	84.19
592.329	96.19
592.539	96.19
592.748	97.19
592.958	85.19
593.167	102.19
593.377	87.19
593.587	90.19
593.796	88.19
594.006	68.19
594.215	95.19
594.424	82.19
594.634	76.19
594.843	79.19
595.053	87.19
595.262	75.19
595.472	76.19
595.681	84.19
595.89	87.19
596.1	78.19
596.309	95.19
596.518	88.19
596.727	77.19
596.937	80.19
597.146	67.19
597.355	86.19
597.564	74.19
597.774	75.19
597.983	90.19
598.192	92.19
598.401	80.19
598.61	82.19
598.819	84.19
599.028	81.19
599.237	93.19
599.446	90.19
599.655	90.19
599.864	87.19
600.073	86.19
600.282	103.19
600.491	89.19
600.7	91.19
600.909	79.19
601.118	90.19
601.327	100.19
601.536	90.19
601.745	99.19
601.953	91.19
602.162	88.19
602.371	83.19
602.58	81.19
602.789	92.19
602.997	90.19
603.206	85.19
603.415	83.19
603.623	68.19
603.832	75.19
604.041	85.19
604.249	70.19
604.458	88.19
604.666	87.19
604.875	82.19
605.084	81.19
605.292	95.19
605.501	81.19
605.709	88.19
605.918	85.19
606.126	85.19
606.334	85.19
606.543	81.19
606.751	76.19
606.96	84.19
607.168	87.19
607.376	87.19
607.585	84.19
607.793	83.19
608.001	73.19
608.21	71.19
608.418	73.19
608.626	87.19
608.834	95.19
609.043	81.19
609.251	87.19
609.459	84.19
609.667	74.19
609.875	70.19
610.083	98.19
610.291	75.19
610.499	99.19
610.707	93.19
610.916	84.19
611.124	80.19
611.332	79.19
611.54	84.19
611.748	76.19
611.955	91.19
612.163	74.19
612.371	91.19
612.579	88.19
612.787	90.19
612.995	91.19
613.203	84.19
613.411	93.19
613.618	75.19
613.826	73.19
614.034	83.19
614.242	74.19
614.449	75.19
614.657	75.19
614.865	79.19
615.072	70.19
615.28	73.19
615.488	96.19
615.695	87.19
615.903	92.19
616.111	99.19
616.318	96.19
616.526	95.19
616.733	106.19
616.941	80.19
617.148	82.19
617.356	85.19
617.563	90.19
617.771	74.19
617.978	80.19
618.185	85.19
618.393	99.19
618.6	73.19
618.807	86.19
619.015	71.19
619.222	77.19
619.429	84.19
619.637	79.19
619.844	83.19
620.051	76.19
620.258	87.19
620.466	93.19
620.673	80.19
620.88	72.19
621.087	75.19
621.294	67.19
621.501	85.19
621.708	81.19
621.915	91.19
622.122	88.19
622.329	74.19
622.536	79.19
622.743	89.19
622.95	69.19
623.157	82.19
623.364	94.19
623.571	92.19
623.778	74.19
623.985	80.19
624.192	79.19
624.399	77.19
624.606	85.19
624.812	68.19
625.019	88.19
625.226	81.19
625.433	91.19
625.639	92.19
625.846	79.19
626.053	79.19
626.259	72.19
626.466	92.19
626.673	84.19
626.879	68.19
627.086	82.19
627.293	84.19
627.499	79.19
627.706	73.19
627.912	90.19
628.119	69.19
628.325	87.19
628.532	83.19
628.738	72.19
628.945	79.19
629.151	83.19
629.357	79.19
629.564	86.19
629.77	74.19
629.976	72.19
630.183	84.19
630.389	70.19
630.595	77.19
630.802	87.19
631.008	87.19
631.214	77.19
631.42	81.19
631.627	81.19
631.833	85.19
632.039	80.19
632.245	86.19
632.451	79.19
632.657	85.19
632.863	85.19
633.069	100.19
633.275	86.19
633.481	84.19
633.688	56.19
633.893	77.19
634.099	101.19
634.305	89.19
634.511	81.19
634.717	80.19
634.923	76.19
635.129	85.19
635.335	64.19
635.541	84.19
635.747	89.19
635.952	93.19
636.158	82.19
636.364	83.19
636.57	82.19
636.775	97.19
636.981	84.19
637.187	71.19
637.392	76.19
637.598	89.19
637.804	83.19
638.009	76.19
638.215	79.19
638.421	76.19
638.626	75.19
638.832	83.19
639.037	78.19
639.243	77.19
639.448	69.19
639.654	89.19
639.859	88.19
640.065	77.19
640.27	86.19
640.475	89.19
640.681	74.19
640.886	76.19
641.091	87.19
641.297	93.19
641.502	86.19
641.707	80.19
641.913	91.19
642.118	77.19
642.323	82.19
642.528	75.19
642.733	95.19
642.939	70.19
643.144	83.19
643.349	75.19
643.554	73.19
643.759	84.19
643.964	99.19
644.169	84.19
644.374	91.19
644.579	83.19
644.784	81.19
644.989	84.19
645.194	75.19
645.399	82.19
645.604	89.19
645.809	83.19
646.014	82.19
646.219	81.19
646.423	70.19
646.628	91.19
646.833	104.19
647.038	88.19
647.243	79.19
647.447	84.19
647.652	75.19
647.857	88.19
648.062	81.19
648.266	77.19
648.471	103.19
648.676	88.19
648.88	79.19
649.085	96.19
649.289	91.19
649.494	91.19
649.698	127.19
649.903	88.19
650.107	97.19
650.312	95.19
650.516	62.19
650.721	74.19
650.925	79.19
651.13	83.19
651.334	73.19
651.539	83.19
651.743	65.19
651.947	91.19
652.152	77.19
652.356	83.19
652.56	72.19
652.764	79.19
652.969	66.19
653.173	82.19
653.377	77.19
653.581	77.19
653.785	95.19
653.99	67.19
654.194	80.19
654.398	88.19
654.602	92.19
654.806	79.19
655.01	91.19
655.214	93.19
655.418	84.19
655.622	86.19
655.826	81.19
656.03	92.19
656.234	76.19
656.438	99.19
656.642	91.19
656.846	85.19
657.049	85.19
657.253	88.19
657.457	78.19
657.661	92.19
657.865	71.19
658.068	67.19
658.272	82.19
658.476	84.19
658.68	82.19
658.883	71.19
659.087	79.19
659.291	89.19
659.494	79.19
659.698	69.19
659.901	87.19
660.105	73.19
660.309	72.19
660.512	85.19
660.716	72.19
660.919	66.19
661.123	60.19
661.326	80.19
661.53	80.19
661.733	81.19
661.936	83.19
662.14	82.19
662.343	90.19
662.546	83.19
662.75	94.19
662.953	86.19
663.156	81.19
663.36	83.19
663.563	74.19
663.766	89.19
663.969	95.19
664.173	75.19
664.376	71.19
664.579	71.19
664.782	65.19
664.985	77.19
665.188	78.19
665.391	89.19
665.594	85.19
665.797	78.19
666	65.19
666.203	97.19
666.406	71.19
666.609	82.19
666.812	81.19
667.015	80.19
667.218	81.19
667.421	65.19
667.624	72.19
667.827	80.19
668.03	80.19
668.232	69.19
668.435	81.19
668.638	73.19
668.841	76.19
669.043	83.19
669.246	72.19
669.449	85.19
669.651	76.19
669.854	78.19
670.057	77.19
670.259	64.19
670.462	81.19
670.665	78.19
670.867	79.19
671.07	73.19
671.272	92.19
671.475	75.19
671.677	91.19
671.88	95.19
672.082	77.19
672.284	81.19
672.487	74.19
672.689	75.19
672.892	72.19
