Data from Uncirc_1980_H10_HRD10591_00010.txt Node
Date: Wed Jan 03 12:36:57 EST 2024
User: Yrep
Spectrometer: HR+D1059
Trigger mode: 1
Integration Time (sec): 1.000000E-1
Scans to average: 1
Electric dark correction enabled: true
Nonlinearity correction enabled: false
Boxcar width: 0
XAxis mode: Wavelengths
Number of Pixels in Spectrum: 2048
>>>>>Begin Spectral Data<<<<<
223.165	-6.06
223.4	-6.06
223.635	-6.06
223.869	-29.06
224.104	-24.06
224.338	-23.06
224.573	-9.06
224.808	-18.06
225.042	7.94
225.277	4.94
225.511	5.94
225.746	7.94
225.98	-6.06
226.215	0.94
226.449	17.94
226.683	15.94
226.918	22.94
227.152	30.94
227.387	31.94
227.621	34.94
227.856	42.94
228.09	46.94
228.324	40.94
228.559	52.94
228.793	73.94
229.027	61.94
229.262	61.94
229.496	70.94
229.73	91.94
229.964	69.94
230.199	66.94
230.433	79.94
230.667	78.94
230.901	72.94
231.136	77.94
231.37	77.94
231.604	73.94
231.838	86.94
232.072	87.94
232.306	86.94
232.541	79.94
232.775	76.94
233.009	71.94
233.243	86.94
233.477	73.94
233.711	84.94
233.945	74.94
234.179	91.94
234.413	87.94
234.647	87.94
234.881	93.94
235.115	77.94
235.349	95.94
235.583	80.94
235.817	91.94
236.051	80.94
236.285	84.94
236.519	86.94
236.753	81.94
236.987	84.94
237.221	83.94
237.455	85.94
237.689	78.94
237.922	70.94
238.156	87.94
238.39	80.94
238.624	72.94
238.858	77.94
239.091	71.94
239.325	86.94
239.559	75.94
239.793	82.94
240.027	92.94
240.26	67.94
240.494	75.94
240.728	87.94
240.961	76.94
241.195	78.94
241.429	68.94
241.662	77.94
241.896	67.94
242.13	73.94
242.363	87.94
242.597	89.94
242.83	73.94
243.064	87.94
243.298	76.94
243.531	76.94
243.765	82.94
243.998	82.94
244.232	80.94
244.465	80.94
244.699	84.94
244.932	84.94
245.166	70.94
245.399	88.94
245.633	85.94
245.866	92.94
246.099	70.94
246.333	68.94
246.566	70.94
246.8	73.94
247.033	74.94
247.266	90.94
247.5	75.94
247.733	73.94
247.966	87.94
248.2	77.94
248.433	76.94
248.666	71.94
248.899	89.94
249.133	78.94
249.366	75.94
249.599	75.94
249.832	85.94
250.066	81.94
250.299	88.94
250.532	83.94
250.765	69.94
250.998	71.94
251.231	82.94
251.465	97.94
251.698	84.94
251.931	96.94
252.164	67.94
252.397	84.94
252.63	82.94
252.863	89.94
253.096	79.94
253.329	77.94
253.562	74.94
253.795	91.94
254.028	86.94
254.261	84.94
254.494	82.94
254.727	76.94
254.96	79.94
255.193	79.94
255.426	90.94
255.659	79.94
255.892	72.94
256.124	91.94
256.357	75.94
256.59	82.94
256.823	98.94
257.056	80.94
257.289	71.94
257.521	85.94
257.754	83.94
257.987	78.94
258.22	77.94
258.452	73.94
258.685	87.94
258.918	73.94
259.151	88.94
259.383	91.94
259.616	75.94
259.849	90.94
260.081	90.94
260.314	90.94
260.547	85.94
260.779	89.94
261.012	90.94
261.244	81.94
261.477	75.94
261.71	97.94
261.942	89.94
262.175	107.94
262.407	74.94
262.64	74.94
262.872	95.94
263.105	84.94
263.337	82.94
263.57	78.94
263.802	91.94
264.035	86.94
264.267	92.94
264.499	91.94
264.732	85.94
264.964	66.94
265.197	84.94
265.429	74.94
265.661	73.94
265.894	83.94
266.126	102.94
266.358	99.94
266.591	82.94
266.823	79.94
267.055	71.94
267.287	82.94
267.52	90.94
267.752	81.94
267.984	75.94
268.216	86.94
268.448	82.94
268.681	100.94
268.913	68.94
269.145	92.94
269.377	97.94
269.609	83.94
269.841	84.94
270.073	83.94
270.306	87.94
270.538	76.94
270.77	86.94
271.002	79.94
271.234	66.94
271.466	98.94
271.698	107.94
271.93	88.94
272.162	84.94
272.394	87.94
272.626	90.94
272.858	87.94
273.09	79.94
273.322	87.94
273.553	75.94
273.785	90.94
274.017	71.94
274.249	82.94
274.481	67.94
274.713	84.94
274.945	95.94
275.176	85.94
275.408	92.94
275.64	93.94
275.872	93.94
276.104	88.94
276.335	90.94
276.567	103.94
276.799	108.94
277.031	105.94
277.262	98.94
277.494	88.94
277.726	82.94
277.957	82.94
278.189	72.94
278.421	87.94
278.652	79.94
278.884	82.94
279.115	70.94
279.347	82.94
279.579	94.94
279.81	82.94
280.042	89.94
280.273	90.94
280.505	83.94
280.736	77.94
280.968	86.94
281.199	70.94
281.431	68.94
281.662	76.94
281.894	94.94
282.125	100.94
282.356	103.94
282.588	136.94
282.819	100.94
283.051	73.94
283.282	88.94
283.513	96.94
283.745	84.94
283.976	72.94
284.207	94.94
284.439	86.94
284.67	85.94
284.901	90.94
285.132	93.94
285.364	89.94
285.595	93.94
285.826	88.94
286.057	84.94
286.288	97.94
286.52	108.94
286.751	98.94
286.982	83.94
287.213	70.94
287.444	86.94
287.675	88.94
287.906	103.94
288.138	85.94
288.369	98.94
288.6	79.94
288.831	97.94
289.062	95.94
289.293	100.94
289.524	83.94
289.755	78.94
289.986	81.94
290.217	82.94
290.448	78.94
290.679	86.94
290.91	79.94
291.141	90.94
291.371	88.94
291.602	97.94
291.833	85.94
292.064	82.94
292.295	89.94
292.526	87.94
292.757	89.94
292.987	96.94
293.218	86.94
293.449	87.94
293.68	77.94
293.91	92.94
294.141	91.94
294.372	88.94
294.603	92.94
294.833	108.94
295.064	79.94
295.295	83.94
295.525	84.94
295.756	88.94
295.987	102.94
296.217	136.94
296.448	106.94
296.679	82.94
296.909	97.94
297.14	89.94
297.37	100.94
297.601	94.94
297.831	94.94
298.062	95.94
298.292	91.94
298.523	89.94
298.753	107.94
298.984	91.94
299.214	75.94
299.445	89.94
299.675	92.94
299.905	91.94
300.136	84.94
300.366	78.94
300.597	93.94
300.827	88.94
301.057	95.94
301.288	96.94
301.518	105.94
301.748	104.94
301.979	107.94
302.209	95.94
302.439	69.94
302.669	106.94
302.9	80.94
303.13	89.94
303.36	80.94
303.59	93.94
303.82	109.94
304.051	100.94
304.281	98.94
304.511	111.94
304.741	90.94
304.971	72.94
305.201	95.94
305.431	109.94
305.661	95.94
305.891	84.94
306.121	79.94
306.352	100.94
306.582	103.94
306.812	111.94
307.042	88.94
307.272	89.94
307.502	103.94
307.731	88.94
307.961	94.94
308.191	76.94
308.421	83.94
308.651	96.94
308.881	97.94
309.111	98.94
309.341	95.94
309.571	96.94
309.8	88.94
310.03	112.94
310.26	99.94
310.49	77.94
310.72	90.94
310.949	98.94
311.179	106.94
311.409	85.94
311.639	89.94
311.868	103.94
312.098	106.94
312.328	99.94
312.557	93.94
312.787	117.94
313.017	110.94
313.246	85.94
313.476	90.94
313.706	83.94
313.935	84.94
314.165	88.94
314.394	94.94
314.624	96.94
314.853	96.94
315.083	100.94
315.312	98.94
315.542	85.94
315.771	99.94
316.001	83.94
316.23	88.94
316.46	91.94
316.689	92.94
316.919	95.94
317.148	96.94
317.377	107.94
317.607	92.94
317.836	91.94
318.065	81.94
318.295	95.94
318.524	72.94
318.753	93.94
318.983	89.94
319.212	100.94
319.441	107.94
319.67	92.94
319.9	103.94
320.129	79.94
320.358	91.94
320.587	85.94
320.816	97.94
321.046	94.94
321.275	99.94
321.504	92.94
321.733	103.94
321.962	108.94
322.191	98.94
322.42	102.94
322.649	108.94
322.878	97.94
323.108	94.94
323.337	103.94
323.566	127.94
323.795	150.94
324.024	178.94
324.253	311.94
324.482	670.94
324.71	1399.94
324.939	1840.94
325.168	685.94
325.397	222.94
325.626	142.94
325.855	132.94
326.084	122.94
326.313	126.94
326.542	134.94
326.77	198.94
326.999	396.94
327.228	760.94
327.457	1400.94
327.686	1139.94
327.914	320.94
328.143	175.94
328.372	148.94
328.6	115.94
328.829	119.94
329.058	130.94
329.287	128.94
329.515	106.94
329.744	106.94
329.972	107.94
330.201	103.94
330.43	118.94
330.658	110.94
330.887	137.94
331.115	120.94
331.344	101.94
331.572	111.94
331.801	88.94
332.03	91.94
332.258	102.94
332.486	91.94
332.715	96.94
332.943	105.94
333.172	100.94
333.4	75.94
333.629	82.94
333.857	104.94
334.085	119.94
334.314	108.94
334.542	121.94
334.771	123.94
334.999	101.94
335.227	92.94
335.455	95.94
335.684	121.94
335.912	92.94
336.14	96.94
336.369	109.94
336.597	99.94
336.825	93.94
337.053	109.94
337.281	112.94
337.51	82.94
337.738	104.94
337.966	99.94
338.194	64.94
338.422	88.94
338.65	85.94
338.878	102.94
339.106	97.94
339.334	94.94
339.562	94.94
339.79	105.94
340.018	83.94
340.246	80.94
340.474	103.94
340.702	86.94
340.93	97.94
341.158	92.94
341.386	105.94
341.614	79.94
341.842	104.94
342.07	93.94
342.298	82.94
342.526	84.94
342.754	104.94
342.981	84.94
343.209	96.94
343.437	108.94
343.665	94.94
343.893	73.94
344.12	94.94
344.348	89.94
344.576	111.94
344.804	104.94
345.031	80.94
345.259	106.94
345.487	92.94
345.714	91.94
345.942	90.94
346.17	95.94
346.397	82.94
346.625	91.94
346.853	83.94
347.08	89.94
347.308	94.94
347.535	98.94
347.763	111.94
347.99	106.94
348.218	102.94
348.445	80.94
348.673	105.94
348.9	90.94
349.128	103.94
349.355	88.94
349.583	106.94
349.81	96.94
350.037	92.94
350.265	90.94
350.492	110.94
350.72	92.94
350.947	78.94
351.174	109.94
351.402	105.94
351.629	104.94
351.856	96.94
352.083	101.94
352.311	109.94
352.538	114.94
352.765	112.94
352.992	118.94
353.22	99.94
353.447	102.94
353.674	103.94
353.901	100.94
354.128	100.94
354.355	86.94
354.583	77.94
354.81	104.94
355.037	102.94
355.264	100.94
355.491	97.94
355.718	92.94
355.945	95.94
356.172	91.94
356.399	108.94
356.626	106.94
356.853	107.94
357.08	92.94
357.307	113.94
357.534	102.94
357.761	112.94
357.988	105.94
358.215	107.94
358.441	116.94
358.668	99.94
358.895	115.94
359.122	100.94
359.349	92.94
359.576	102.94
359.802	103.94
360.029	97.94
360.256	98.94
360.483	97.94
360.709	83.94
360.936	94.94
361.163	87.94
361.39	103.94
361.616	90.94
361.843	92.94
362.07	106.94
362.296	90.94
362.523	94.94
362.749	88.94
362.976	83.94
363.203	78.94
363.429	95.94
363.656	95.94
363.882	84.94
364.109	77.94
364.335	79.94
364.562	81.94
364.788	94.94
365.015	95.94
365.241	100.94
365.468	103.94
365.694	98.94
365.92	94.94
366.147	86.94
366.373	82.94
366.599	91.94
366.826	93.94
367.052	75.94
367.278	89.94
367.505	99.94
367.731	88.94
367.957	91.94
368.184	100.94
368.41	94.94
368.636	102.94
368.862	105.94
369.089	111.94
369.315	93.94
369.541	108.94
369.767	86.94
369.993	90.94
370.219	100.94
370.445	82.94
370.672	79.94
370.898	96.94
371.124	95.94
371.35	83.94
371.576	83.94
371.802	110.94
372.028	90.94
372.254	94.94
372.48	92.94
372.706	99.94
372.932	87.94
373.158	105.94
373.384	108.94
373.61	111.94
373.835	84.94
374.061	95.94
374.287	104.94
374.513	77.94
374.739	78.94
374.965	83.94
375.191	98.94
375.416	95.94
375.642	100.94
375.868	100.94
376.094	95.94
376.319	80.94
376.545	94.94
376.771	90.94
376.997	88.94
377.222	98.94
377.448	96.94
377.674	101.94
377.899	99.94
378.125	93.94
378.35	110.94
378.576	110.94
378.802	83.94
379.027	110.94
379.253	115.94
379.478	95.94
379.704	91.94
379.929	76.94
380.155	99.94
380.38	104.94
380.606	109.94
380.831	98.94
381.057	98.94
381.282	111.94
381.507	96.94
381.733	109.94
381.958	125.94
382.184	112.94
382.409	135.94
382.634	109.94
382.86	106.94
383.085	120.94
383.31	113.94
383.535	121.94
383.761	124.94
383.986	122.94
384.211	102.94
384.436	124.94
384.662	131.94
384.887	126.94
385.112	152.94
385.337	133.94
385.562	140.94
385.787	127.94
386.013	151.94
386.238	140.94
386.463	125.94
386.688	135.94
386.913	128.94
387.138	129.94
387.363	128.94
387.588	140.94
387.813	118.94
388.038	140.94
388.263	170.94
388.488	168.94
388.713	103.94
388.938	112.94
389.163	90.94
389.387	83.94
389.612	106.94
389.837	94.94
390.062	110.94
390.287	77.94
390.512	94.94
390.736	93.94
390.961	89.94
391.186	90.94
391.411	98.94
391.636	104.94
391.86	83.94
392.085	87.94
392.31	86.94
392.534	87.94
392.759	88.94
392.984	95.94
393.208	79.94
393.433	110.94
393.658	93.94
393.882	84.94
394.107	88.94
394.331	77.94
394.556	100.94
394.78	94.94
395.005	99.94
395.229	92.94
395.454	88.94
395.678	91.94
395.903	83.94
396.127	79.94
396.352	98.94
396.576	86.94
396.801	87.94
397.025	108.94
397.249	89.94
397.474	97.94
397.698	91.94
397.922	84.94
398.147	84.94
398.371	105.94
398.595	92.94
398.82	93.94
399.044	107.94
399.268	89.94
399.492	93.94
399.717	87.94
399.941	93.94
400.165	78.94
400.389	79.94
400.613	96.94
400.837	78.94
401.062	94.94
401.286	95.94
401.51	93.94
401.734	85.94
401.958	105.94
402.182	119.94
402.406	142.94
402.63	116.94
402.854	107.94
403.078	76.94
403.302	94.94
403.526	105.94
403.75	98.94
403.974	83.94
404.198	93.94
404.422	79.94
404.645	95.94
404.869	107.94
405.093	95.94
405.317	94.94
405.541	94.94
405.765	103.94
405.988	103.94
406.212	142.94
406.436	189.94
406.66	128.94
406.883	97.94
407.107	88.94
407.331	106.94
407.555	101.94
407.778	97.94
408.002	90.94
408.226	105.94
408.449	88.94
408.673	96.94
408.896	94.94
409.12	104.94
409.344	83.94
409.567	91.94
409.791	90.94
410.014	100.94
410.238	98.94
410.461	95.94
410.685	89.94
410.908	98.94
411.132	110.94
411.355	95.94
411.578	94.94
411.802	106.94
412.025	77.94
412.249	90.94
412.472	92.94
412.695	98.94
412.919	82.94
413.142	86.94
413.365	94.94
413.589	94.94
413.812	88.94
414.035	94.94
414.258	98.94
414.482	102.94
414.705	96.94
414.928	95.94
415.151	98.94
415.374	109.94
415.597	87.94
415.821	92.94
416.044	84.94
416.267	101.94
416.49	100.94
416.713	94.94
416.936	103.94
417.159	97.94
417.382	98.94
417.605	112.94
417.828	114.94
418.051	102.94
418.274	94.94
418.497	89.94
418.72	96.94
418.943	89.94
419.166	92.94
419.389	99.94
419.611	83.94
419.834	94.94
420.057	106.94
420.28	97.94
420.503	90.94
420.726	74.94
420.948	90.94
421.171	87.94
421.394	94.94
421.617	105.94
421.839	95.94
422.062	77.94
422.285	90.94
422.507	100.94
422.73	103.94
422.953	104.94
423.175	94.94
423.398	96.94
423.621	89.94
423.843	75.94
424.066	78.94
424.288	94.94
424.511	86.94
424.733	96.94
424.956	112.94
425.178	114.94
425.401	100.94
425.623	96.94
425.846	93.94
426.068	106.94
426.291	86.94
426.513	97.94
426.735	90.94
426.958	85.94
427.18	100.94
427.402	126.94
427.625	139.94
427.847	117.94
428.069	119.94
428.292	96.94
428.514	80.94
428.736	75.94
428.958	84.94
429.181	101.94
429.403	92.94
429.625	77.94
429.847	79.94
430.069	102.94
430.292	92.94
430.514	90.94
430.736	102.94
430.958	84.94
431.18	90.94
431.402	74.94
431.624	89.94
431.846	90.94
432.068	90.94
432.29	80.94
432.512	100.94
432.734	101.94
432.956	86.94
433.178	99.94
433.4	104.94
433.622	100.94
433.844	82.94
434.066	98.94
434.287	94.94
434.509	87.94
434.731	77.94
434.953	91.94
435.175	66.94
435.397	95.94
435.618	100.94
435.84	116.94
436.062	122.94
436.284	105.94
436.505	103.94
436.727	111.94
436.949	98.94
437.17	93.94
437.392	83.94
437.614	80.94
437.835	88.94
438.057	112.94
438.278	107.94
438.5	110.94
438.721	120.94
438.943	95.94
439.165	87.94
439.386	77.94
439.608	82.94
439.829	90.94
440.05	123.94
440.272	126.94
440.493	97.94
440.715	99.94
440.936	93.94
441.158	84.94
441.379	87.94
441.6	75.94
441.822	84.94
442.043	90.94
442.264	96.94
442.486	107.94
442.707	91.94
442.928	98.94
443.149	129.94
443.371	120.94
443.592	110.94
443.813	106.94
444.034	99.94
444.255	91.94
444.476	68.94
444.698	90.94
444.919	91.94
445.14	129.94
445.361	139.94
445.582	103.94
445.803	125.94
446.024	125.94
446.245	134.94
446.466	103.94
446.687	94.94
446.908	91.94
447.129	91.94
447.35	89.94
447.571	77.94
447.792	84.94
448.013	94.94
448.234	94.94
448.455	106.94
448.675	113.94
448.896	124.94
449.117	92.94
449.338	104.94
449.559	116.94
449.779	134.94
450	95.94
450.221	99.94
450.442	85.94
450.662	90.94
450.883	102.94
451.104	95.94
451.324	101.94
451.545	96.94
451.766	83.94
451.986	79.94
452.207	95.94
452.428	84.94
452.648	103.94
452.869	112.94
453.089	112.94
453.31	105.94
453.53	90.94
453.751	92.94
453.971	101.94
454.192	102.94
454.412	92.94
454.633	78.94
454.853	88.94
455.073	90.94
455.294	96.94
455.514	89.94
455.734	95.94
455.955	91.94
456.175	87.94
456.395	77.94
456.616	85.94
456.836	79.94
457.056	90.94
457.276	104.94
457.497	91.94
457.717	87.94
457.937	91.94
458.157	105.94
458.377	84.94
458.598	100.94
458.818	126.94
459.038	151.94
459.258	110.94
459.478	86.94
459.698	89.94
459.918	92.94
460.138	76.94
460.358	106.94
460.578	78.94
460.798	94.94
461.018	82.94
461.238	102.94
461.458	96.94
461.678	79.94
461.898	84.94
462.118	93.94
462.338	103.94
462.558	87.94
462.777	82.94
462.997	82.94
463.217	96.94
463.437	92.94
463.657	89.94
463.876	99.94
464.096	86.94
464.316	84.94
464.536	86.94
464.755	103.94
464.975	102.94
465.195	162.94
465.414	150.94
465.634	98.94
465.854	74.94
466.073	80.94
466.293	100.94
466.512	98.94
466.732	86.94
466.951	85.94
467.171	104.94
467.391	88.94
467.61	118.94
467.829	92.94
468.049	90.94
468.268	100.94
468.488	90.94
468.707	87.94
468.927	88.94
469.146	86.94
469.365	98.94
469.585	76.94
469.804	85.94
470.023	111.94
470.243	87.94
470.462	82.94
470.681	104.94
470.901	86.94
471.12	88.94
471.339	82.94
471.558	94.94
471.777	99.94
471.997	82.94
472.216	120.94
472.435	127.94
472.654	99.94
472.873	84.94
473.092	95.94
473.311	94.94
473.53	69.94
473.749	86.94
473.968	105.94
474.187	105.94
474.406	100.94
474.625	82.94
474.844	83.94
475.063	87.94
475.282	90.94
475.501	74.94
475.72	91.94
475.939	95.94
476.158	97.94
476.377	85.94
476.596	102.94
476.814	91.94
477.033	92.94
477.252	101.94
477.471	82.94
477.69	85.94
477.908	99.94
478.127	93.94
478.346	94.94
478.564	98.94
478.783	92.94
479.002	93.94
479.22	92.94
479.439	93.94
479.658	98.94
479.876	107.94
480.095	83.94
480.313	91.94
480.532	92.94
480.751	95.94
480.969	107.94
481.188	191.94
481.406	139.94
481.624	103.94
481.843	95.94
482.061	103.94
482.28	84.94
482.498	82.94
482.717	85.94
482.935	86.94
483.153	94.94
483.372	99.94
483.59	89.94
483.808	100.94
484.027	92.94
484.245	91.94
484.463	103.94
484.681	99.94
484.9	96.94
485.118	88.94
485.336	110.94
485.554	94.94
485.772	101.94
485.99	109.94
486.209	101.94
486.427	111.94
486.645	117.94
486.863	114.94
487.081	99.94
487.299	106.94
487.517	88.94
487.735	84.94
487.953	86.94
488.171	83.94
488.389	95.94
488.607	106.94
488.825	91.94
489.043	86.94
489.261	91.94
489.479	106.94
489.696	99.94
489.914	80.94
490.132	80.94
490.35	101.94
490.568	84.94
490.786	94.94
491.003	86.94
491.221	85.94
491.439	95.94
491.657	95.94
491.874	91.94
492.092	94.94
492.31	92.94
492.527	77.94
492.745	102.94
492.963	92.94
493.18	100.94
493.398	103.94
493.615	95.94
493.833	88.94
494.05	82.94
494.268	99.94
494.485	100.94
494.703	82.94
494.92	98.94
495.138	97.94
495.355	90.94
495.573	91.94
495.79	97.94
496.008	110.94
496.225	90.94
496.442	83.94
496.66	102.94
496.877	94.94
497.094	86.94
497.312	90.94
497.529	98.94
497.746	93.94
497.963	99.94
498.181	100.94
498.398	100.94
498.615	120.94
498.832	94.94
499.049	91.94
499.267	83.94
499.484	83.94
499.701	94.94
499.918	94.94
500.135	92.94
500.352	92.94
500.569	83.94
500.786	95.94
501.003	98.94
501.22	98.94
501.437	98.94
501.654	99.94
501.871	93.94
502.088	85.94
502.305	99.94
502.522	99.94
502.739	100.94
502.956	91.94
503.172	92.94
503.389	96.94
503.606	104.94
503.823	107.94
504.04	99.94
504.256	95.94
504.473	89.94
504.69	89.94
504.907	103.94
505.123	86.94
505.34	85.94
505.557	94.94
505.773	85.94
505.99	90.94
506.207	87.94
506.423	104.94
506.64	94.94
506.856	90.94
507.073	93.94
507.289	86.94
507.506	87.94
507.722	112.94
507.939	105.94
508.155	92.94
508.372	99.94
508.588	104.94
508.805	96.94
509.021	93.94
509.238	92.94
509.454	102.94
509.67	101.94
509.887	103.94
510.103	134.94
510.319	191.94
510.536	622.94
510.752	1962.94
510.968	551.94
511.184	116.94
511.401	116.94
511.617	85.94
511.833	96.94
512.049	90.94
512.265	93.94
512.481	92.94
512.698	82.94
512.914	99.94
513.13	87.94
513.346	95.94
513.562	93.94
513.778	115.94
513.994	86.94
514.21	98.94
514.426	110.94
514.642	119.94
514.858	114.94
515.074	158.94
515.29	374.94
515.506	1261.94
515.721	466.94
515.937	156.94
516.153	109.94
516.369	99.94
516.585	94.94
516.801	93.94
517.016	93.94
517.232	99.94
517.448	90.94
517.664	78.94
517.879	97.94
518.095	103.94
518.311	89.94
518.527	73.94
518.742	82.94
518.958	95.94
519.173	76.94
519.389	99.94
519.605	84.94
519.82	93.94
520.036	107.94
520.251	108.94
520.467	113.94
520.682	94.94
520.898	90.94
521.113	94.94
521.329	124.94
521.544	176.94
521.76	454.94
521.975	2008.94
522.19	1204.94
522.406	268.94
522.621	128.94
522.836	90.94
523.052	96.94
523.267	95.94
523.482	99.94
523.698	98.94
523.913	112.94
524.128	103.94
524.343	99.94
524.559	102.94
524.774	99.94
524.989	91.94
525.204	95.94
525.419	94.94
525.634	90.94
525.849	96.94
526.064	94.94
526.28	95.94
526.495	90.94
526.71	80.94
526.925	86.94
527.14	97.94
527.355	96.94
527.57	91.94
527.785	100.94
527.999	103.94
528.214	107.94
528.429	100.94
528.644	97.94
528.859	108.94
529.074	105.94
529.289	114.94
529.503	165.94
529.718	102.94
529.933	97.94
530.148	71.94
530.363	107.94
530.577	87.94
530.792	87.94
531.007	103.94
531.221	86.94
531.436	95.94
531.651	84.94
531.865	77.94
532.08	107.94
532.295	110.94
532.509	120.94
532.724	93.94
532.938	94.94
533.153	112.94
533.367	100.94
533.582	89.94
533.796	84.94
534.011	82.94
534.225	106.94
534.44	96.94
534.654	115.94
534.868	93.94
535.083	99.94
535.297	90.94
535.511	100.94
535.726	113.94
535.94	80.94
536.154	96.94
536.369	102.94
536.583	91.94
536.797	77.94
537.011	86.94
537.225	93.94
537.44	90.94
537.654	90.94
537.868	92.94
538.082	103.94
538.296	91.94
538.51	86.94
538.724	67.94
538.938	106.94
539.153	114.94
539.367	100.94
539.581	99.94
539.795	94.94
540.009	90.94
540.222	90.94
540.436	74.94
540.65	93.94
540.864	85.94
541.078	100.94
541.292	98.94
541.506	95.94
541.72	90.94
541.934	103.94
542.147	88.94
542.361	96.94
542.575	93.94
542.789	82.94
543.002	83.94
543.216	100.94
543.43	96.94
543.644	84.94
543.857	76.94
544.071	77.94
544.285	96.94
544.498	80.94
544.712	92.94
544.925	84.94
545.139	80.94
545.352	92.94
545.566	95.94
545.779	91.94
545.993	99.94
546.206	86.94
546.42	82.94
546.633	102.94
546.847	99.94
547.06	90.94
547.274	95.94
547.487	83.94
547.7	74.94
547.914	89.94
548.127	104.94
548.34	89.94
548.554	88.94
548.767	84.94
548.98	93.94
549.193	90.94
549.407	95.94
549.62	92.94
549.833	95.94
550.046	97.94
550.259	96.94
550.473	96.94
550.686	79.94
550.899	73.94
551.112	92.94
551.325	93.94
551.538	77.94
551.751	92.94
551.964	94.94
552.177	94.94
552.39	88.94
552.603	84.94
552.816	69.94
553.029	94.94
553.242	97.94
553.455	94.94
553.667	108.94
553.88	89.94
554.093	88.94
554.306	76.94
554.519	98.94
554.732	86.94
554.944	87.94
555.157	77.94
555.37	106.94
555.583	93.94
555.795	91.94
556.008	86.94
556.221	96.94
556.433	111.94
556.646	102.94
556.859	101.94
557.071	91.94
557.284	84.94
557.496	84.94
557.709	110.94
557.921	83.94
558.134	87.94
558.346	102.94
558.559	70.94
558.771	83.94
558.984	94.94
559.196	99.94
559.409	100.94
559.621	96.94
559.833	88.94
560.046	93.94
560.258	97.94
560.47	89.94
560.683	86.94
560.895	92.94
561.107	98.94
561.32	80.94
561.532	89.94
561.744	94.94
561.956	86.94
562.168	93.94
562.381	80.94
562.593	87.94
562.805	86.94
563.017	77.94
563.229	84.94
563.441	96.94
563.653	92.94
563.865	71.94
564.077	87.94
564.289	92.94
564.501	100.94
564.713	91.94
564.925	90.94
565.137	100.94
565.349	85.94
565.561	80.94
565.773	95.94
565.985	93.94
566.197	85.94
566.408	84.94
566.62	89.94
566.832	92.94
567.044	111.94
567.255	87.94
567.467	98.94
567.679	92.94
567.891	88.94
568.102	99.94
568.314	90.94
568.526	88.94
568.737	85.94
568.949	90.94
569.161	90.94
569.372	95.94
569.584	83.94
569.795	93.94
570.007	97.94
570.218	200.94
570.43	121.94
570.641	110.94
570.853	85.94
571.064	90.94
571.276	84.94
571.487	101.94
571.698	100.94
571.91	98.94
572.121	83.94
572.333	95.94
572.544	84.94
572.755	91.94
572.966	86.94
573.178	85.94
573.389	93.94
573.6	84.94
573.811	87.94
574.023	92.94
574.234	95.94
574.445	99.94
574.656	81.94
574.867	89.94
575.078	101.94
575.289	93.94
575.501	94.94
575.712	78.94
575.923	88.94
576.134	85.94
576.345	87.94
576.556	86.94
576.767	89.94
576.978	92.94
577.188	99.94
577.399	100.94
577.61	90.94
577.821	109.94
578.032	113.94
578.243	242.94
578.454	672.94
578.665	201.94
578.875	100.94
579.086	99.94
579.297	91.94
579.508	90.94
579.718	83.94
579.929	95.94
580.14	94.94
580.35	92.94
580.561	85.94
580.772	82.94
580.982	84.94
581.193	94.94
581.403	91.94
581.614	94.94
581.825	91.94
582.035	88.94
582.246	89.94
582.456	84.94
582.667	96.94
582.877	70.94
583.087	97.94
583.298	87.94
583.508	102.94
583.719	77.94
583.929	89.94
584.139	98.94
584.35	94.94
584.56	83.94
584.77	87.94
584.981	96.94
585.191	88.94
585.401	83.94
585.611	82.94
585.821	77.94
586.032	82.94
586.242	90.94
586.452	82.94
586.662	85.94
586.872	102.94
587.082	82.94
587.292	83.94
587.502	91.94
587.713	87.94
587.923	86.94
588.133	84.94
588.343	103.94
588.553	101.94
588.762	101.94
588.972	102.94
589.182	158.94
589.392	109.94
589.602	100.94
589.812	111.94
590.022	104.94
590.232	92.94
590.441	84.94
590.651	68.94
590.861	87.94
591.071	85.94
591.281	94.94
591.49	79.94
591.7	94.94
591.91	64.94
592.119	84.94
592.329	67.94
592.539	103.94
592.748	94.94
592.958	92.94
593.167	86.94
593.377	92.94
593.587	100.94
593.796	93.94
594.006	91.94
594.215	88.94
594.424	76.94
594.634	87.94
594.843	90.94
595.053	95.94
595.262	76.94
595.472	91.94
595.681	90.94
595.89	91.94
596.1	82.94
596.309	79.94
596.518	107.94
596.727	101.94
596.937	84.94
597.146	92.94
597.355	92.94
597.564	91.94
597.774	79.94
597.983	80.94
598.192	88.94
598.401	89.94
598.61	83.94
598.819	87.94
599.028	79.94
599.237	92.94
599.446	84.94
599.655	90.94
599.864	90.94
600.073	96.94
600.282	89.94
600.491	93.94
600.7	89.94
600.909	82.94
601.118	77.94
601.327	90.94
601.536	78.94
601.745	92.94
601.953	74.94
602.162	86.94
602.371	85.94
602.58	86.94
602.789	83.94
602.997	86.94
603.206	84.94
603.415	99.94
603.623	79.94
603.832	87.94
604.041	91.94
604.249	72.94
604.458	94.94
604.666	73.94
604.875	84.94
605.084	82.94
605.292	80.94
605.501	90.94
605.709	79.94
605.918	85.94
606.126	84.94
606.334	98.94
606.543	89.94
606.751	86.94
606.96	91.94
607.168	59.94
607.376	78.94
607.585	83.94
607.793	78.94
608.001	84.94
608.21	84.94
608.418	95.94
608.626	93.94
608.834	93.94
609.043	90.94
609.251	86.94
609.459	95.94
609.667	71.94
609.875	83.94
610.083	86.94
610.291	76.94
610.499	90.94
610.707	76.94
610.916	86.94
611.124	76.94
611.332	80.94
611.54	89.94
611.748	91.94
611.955	89.94
612.163	85.94
612.371	94.94
612.579	77.94
612.787	91.94
612.995	70.94
613.203	90.94
613.411	83.94
613.618	90.94
613.826	94.94
614.034	84.94
614.242	94.94
614.449	100.94
614.657	86.94
614.865	98.94
615.072	93.94
615.28	94.94
615.488	86.94
615.695	90.94
615.903	99.94
616.111	98.94
616.318	99.94
616.526	95.94
616.733	91.94
616.941	94.94
617.148	79.94
617.356	77.94
617.563	99.94
617.771	101.94
617.978	85.94
618.185	93.94
618.393	79.94
618.6	88.94
618.807	91.94
619.015	84.94
619.222	83.94
619.429	74.94
619.637	85.94
619.844	93.94
620.051	76.94
620.258	82.94
620.466	94.94
620.673	103.94
620.88	83.94
621.087	90.94
621.294	99.94
621.501	84.94
621.708	88.94
621.915	91.94
622.122	70.94
622.329	95.94
622.536	88.94
622.743	76.94
622.95	94.94
623.157	90.94
623.364	76.94
623.571	85.94
623.778	99.94
623.985	88.94
624.192	90.94
624.399	94.94
624.606	95.94
624.812	86.94
625.019	88.94
625.226	84.94
625.433	100.94
625.639	77.94
625.846	98.94
626.053	94.94
626.259	91.94
626.466	91.94
626.673	91.94
626.879	94.94
627.086	90.94
627.293	82.94
627.499	84.94
627.706	74.94
627.912	90.94
628.119	79.94
628.325	82.94
628.532	93.94
628.738	91.94
628.945	82.94
629.151	77.94
629.357	82.94
629.564	79.94
629.77	86.94
629.976	90.94
630.183	110.94
630.389	95.94
630.595	74.94
630.802	78.94
631.008	95.94
631.214	82.94
631.42	96.94
631.627	78.94
631.833	93.94
632.039	96.94
632.245	90.94
632.451	84.94
632.657	82.94
632.863	86.94
633.069	88.94
633.275	81.94
633.481	86.94
633.688	87.94
633.893	95.94
634.099	91.94
634.305	82.94
634.511	82.94
634.717	86.94
634.923	85.94
635.129	87.94
635.335	94.94
635.541	87.94
635.747	96.94
635.952	94.94
636.158	79.94
636.364	77.94
636.57	87.94
636.775	75.94
636.981	82.94
637.187	87.94
637.392	75.94
637.598	82.94
637.804	84.94
638.009	89.94
638.215	63.94
638.421	92.94
638.626	87.94
638.832	76.94
639.037	76.94
639.243	70.94
639.448	82.94
639.654	70.94
639.859	80.94
640.065	95.94
640.27	91.94
640.475	85.94
640.681	94.94
640.886	88.94
641.091	83.94
641.297	91.94
641.502	78.94
641.707	93.94
641.913	87.94
642.118	68.94
642.323	98.94
642.528	96.94
642.733	97.94
642.939	79.94
643.144	86.94
643.349	89.94
643.554	84.94
643.759	88.94
643.964	89.94
644.169	91.94
644.374	75.94
644.579	84.94
644.784	84.94
644.989	93.94
645.194	87.94
645.399	84.94
645.604	82.94
645.809	94.94
646.014	84.94
646.219	82.94
646.423	91.94
646.628	84.94
646.833	74.94
647.038	77.94
647.243	87.94
647.447	62.94
647.652	89.94
647.857	101.94
648.062	87.94
648.266	90.94
648.471	99.94
648.676	92.94
648.88	94.94
649.085	93.94
649.289	93.94
649.494	83.94
649.698	116.94
649.903	90.94
650.107	100.94
650.312	85.94
650.516	92.94
650.721	66.94
650.925	79.94
651.13	68.94
651.334	92.94
651.539	79.94
651.743	86.94
651.947	89.94
652.152	95.94
652.356	95.94
652.56	79.94
652.764	75.94
652.969	74.94
653.173	69.94
653.377	88.94
653.581	85.94
653.785	81.94
653.99	103.94
654.194	85.94
654.398	83.94
654.602	80.94
654.806	93.94
655.01	92.94
655.214	94.94
655.418	86.94
655.622	77.94
655.826	98.94
656.03	75.94
656.234	90.94
656.438	95.94
656.642	103.94
656.846	85.94
657.049	70.94
657.253	90.94
657.457	80.94
657.661	79.94
657.865	87.94
658.068	94.94
658.272	70.94
658.476	96.94
658.68	88.94
658.883	87.94
659.087	78.94
659.291	73.94
659.494	75.94
659.698	81.94
659.901	69.94
660.105	73.94
660.309	78.94
660.512	68.94
660.716	81.94
660.919	78.94
661.123	77.94
661.326	72.94
661.53	83.94
661.733	87.94
661.936	81.94
662.14	87.94
662.343	76.94
662.546	93.94
662.75	99.94
662.953	84.94
663.156	85.94
663.36	92.94
663.563	84.94
663.766	84.94
663.969	88.94
664.173	79.94
664.376	80.94
664.579	88.94
664.782	71.94
664.985	85.94
665.188	68.94
665.391	82.94
665.594	83.94
665.797	97.94
666	77.94
666.203	88.94
666.406	66.94
666.609	72.94
666.812	96.94
667.015	84.94
667.218	80.94
667.421	67.94
667.624	73.94
667.827	75.94
668.03	89.94
668.232	97.94
668.435	94.94
668.638	75.94
668.841	68.94
669.043	72.94
669.246	80.94
669.449	80.94
669.651	85.94
669.854	82.94
670.057	78.94
670.259	82.94
670.462	74.94
670.665	92.94
670.867	77.94
671.07	77.94
671.272	88.94
671.475	82.94
671.677	92.94
671.88	84.94
672.082	69.94
672.284	88.94
672.487	85.94
672.689	77.94
672.892	85.94
