Data from Dirtheat1_HRD10591_00011.txt Node
Date: Fri Dec 27 15:13:34 EST 2024
User: Yrep
Spectrometer: HR+D1059
Trigger mode: 1
Integration Time (sec): 1.000000E-1
Scans to average: 1
Electric dark correction enabled: true
Nonlinearity correction enabled: false
Boxcar width: 0
XAxis mode: Wavelengths
Number of Pixels in Spectrum: 2048
>>>>>Begin Spectral Data<<<<<
223.165	-18.38
223.4	-18.38
223.635	-18.38
223.869	-29.38
224.104	-28.38
224.338	-10.38
224.573	-10.38
224.808	-4.38
225.042	-4.38
225.277	2.62
225.511	-15.38
225.746	9.62
225.98	9.62
226.215	0.62
226.449	14.62
226.683	21.62
226.918	21.62
227.152	40.62
227.387	47.62
227.621	26.62
227.856	57.62
228.09	54.62
228.324	48.62
228.559	57.62
228.793	58.62
229.027	62.62
229.262	65.62
229.496	49.62
229.73	71.62
229.964	58.62
230.199	81.62
230.433	74.62
230.667	81.62
230.901	89.62
231.136	78.62
231.37	77.62
231.604	99.62
231.838	73.62
232.072	71.62
232.306	86.62
232.541	80.62
232.775	88.62
233.009	82.62
233.243	71.62
233.477	71.62
233.711	83.62
233.945	86.62
234.179	76.62
234.413	90.62
234.647	88.62
234.881	77.62
235.115	76.62
235.349	90.62
235.583	89.62
235.817	85.62
236.051	82.62
236.285	54.62
236.519	87.62
236.753	71.62
236.987	69.62
237.221	58.62
237.455	86.62
237.689	86.62
237.922	84.62
238.156	69.62
238.39	72.62
238.624	79.62
238.858	78.62
239.091	83.62
239.325	94.62
239.559	84.62
239.793	85.62
240.027	88.62
240.26	81.62
240.494	73.62
240.728	92.62
240.961	61.62
241.195	78.62
241.429	77.62
241.662	69.62
241.896	61.62
242.13	82.62
242.363	77.62
242.597	84.62
242.83	88.62
243.064	89.62
243.298	84.62
243.531	85.62
243.765	68.62
243.998	77.62
244.232	83.62
244.465	67.62
244.699	75.62
244.932	65.62
245.166	86.62
245.399	74.62
245.633	77.62
245.866	74.62
246.099	79.62
246.333	67.62
246.566	82.62
246.8	80.62
247.033	77.62
247.266	79.62
247.5	67.62
247.733	87.62
247.966	87.62
248.2	77.62
248.433	84.62
248.666	73.62
248.899	89.62
249.133	83.62
249.366	83.62
249.599	77.62
249.832	92.62
250.066	76.62
250.299	94.62
250.532	86.62
250.765	81.62
250.998	88.62
251.231	88.62
251.465	78.62
251.698	83.62
251.931	69.62
252.164	77.62
252.397	86.62
252.63	85.62
252.863	65.62
253.096	73.62
253.329	76.62
253.562	78.62
253.795	90.62
254.028	93.62
254.261	81.62
254.494	73.62
254.727	80.62
254.96	93.62
255.193	80.62
255.426	84.62
255.659	92.62
255.892	90.62
256.124	81.62
256.357	93.62
256.59	84.62
256.823	78.62
257.056	83.62
257.289	86.62
257.521	81.62
257.754	92.62
257.987	88.62
258.22	90.62
258.452	79.62
258.685	81.62
258.918	74.62
259.151	88.62
259.383	76.62
259.616	90.62
259.849	77.62
260.081	73.62
260.314	69.62
260.547	94.62
260.779	88.62
261.012	75.62
261.244	86.62
261.477	83.62
261.71	95.62
261.942	86.62
262.175	93.62
262.407	89.62
262.64	81.62
262.872	80.62
263.105	92.62
263.337	89.62
263.57	81.62
263.802	75.62
264.035	86.62
264.267	75.62
264.499	82.62
264.732	82.62
264.964	75.62
265.197	91.62
265.429	95.62
265.661	88.62
265.894	90.62
266.126	94.62
266.358	88.62
266.591	71.62
266.823	103.62
267.055	81.62
267.287	96.62
267.52	81.62
267.752	87.62
267.984	95.62
268.216	78.62
268.448	96.62
268.681	86.62
268.913	78.62
269.145	73.62
269.377	94.62
269.609	75.62
269.841	80.62
270.073	84.62
270.306	79.62
270.538	76.62
270.77	81.62
271.002	91.62
271.234	86.62
271.466	85.62
271.698	82.62
271.93	84.62
272.162	85.62
272.394	80.62
272.626	81.62
272.858	80.62
273.09	87.62
273.322	85.62
273.553	73.62
273.785	89.62
274.017	85.62
274.249	85.62
274.481	86.62
274.713	84.62
274.945	83.62
275.176	92.62
275.408	82.62
275.64	85.62
275.872	87.62
276.104	89.62
276.335	80.62
276.567	87.62
276.799	80.62
277.031	76.62
277.262	93.62
277.494	84.62
277.726	77.62
277.957	94.62
278.189	91.62
278.421	86.62
278.652	88.62
278.884	79.62
279.115	85.62
279.347	89.62
279.579	82.62
279.81	89.62
280.042	87.62
280.273	86.62
280.505	94.62
280.736	91.62
280.968	94.62
281.199	87.62
281.431	85.62
281.662	83.62
281.894	81.62
282.125	93.62
282.356	78.62
282.588	93.62
282.819	85.62
283.051	78.62
283.282	81.62
283.513	92.62
283.745	74.62
283.976	86.62
284.207	95.62
284.439	95.62
284.67	89.62
284.901	82.62
285.132	93.62
285.364	79.62
285.595	93.62
285.826	88.62
286.057	85.62
286.288	71.62
286.52	80.62
286.751	108.62
286.982	83.62
287.213	92.62
287.444	85.62
287.675	93.62
287.906	74.62
288.138	75.62
288.369	68.62
288.6	97.62
288.831	81.62
289.062	88.62
289.293	73.62
289.524	91.62
289.755	94.62
289.986	85.62
290.217	98.62
290.448	89.62
290.679	89.62
290.91	91.62
291.141	108.62
291.371	92.62
291.602	86.62
291.833	92.62
292.064	93.62
292.295	102.62
292.526	76.62
292.757	93.62
292.987	95.62
293.218	83.62
293.449	82.62
293.68	92.62
293.91	90.62
294.141	89.62
294.372	87.62
294.603	88.62
294.833	93.62
295.064	78.62
295.295	96.62
295.525	94.62
295.756	73.62
295.987	82.62
296.217	80.62
296.448	83.62
296.679	89.62
296.909	91.62
297.14	89.62
297.37	80.62
297.601	86.62
297.831	93.62
298.062	89.62
298.292	91.62
298.523	93.62
298.753	96.62
298.984	85.62
299.214	83.62
299.445	94.62
299.675	87.62
299.905	89.62
300.136	85.62
300.366	89.62
300.597	101.62
300.827	91.62
301.057	93.62
301.288	85.62
301.518	85.62
301.748	92.62
301.979	96.62
302.209	87.62
302.439	100.62
302.669	93.62
302.9	90.62
303.13	84.62
303.36	87.62
303.59	80.62
303.82	73.62
304.051	87.62
304.281	78.62
304.511	97.62
304.741	79.62
304.971	84.62
305.201	87.62
305.431	70.62
305.661	75.62
305.891	82.62
306.121	85.62
306.352	81.62
306.582	81.62
306.812	92.62
307.042	87.62
307.272	93.62
307.502	69.62
307.731	89.62
307.961	81.62
308.191	96.62
308.421	88.62
308.651	88.62
308.881	87.62
309.111	75.62
309.341	75.62
309.571	74.62
309.8	86.62
310.03	94.62
310.26	92.62
310.49	95.62
310.72	90.62
310.949	93.62
311.179	91.62
311.409	85.62
311.639	102.62
311.868	99.62
312.098	83.62
312.328	83.62
312.557	89.62
312.787	87.62
313.017	88.62
313.246	91.62
313.476	71.62
313.706	96.62
313.935	91.62
314.165	87.62
314.394	92.62
314.624	86.62
314.853	85.62
315.083	74.62
315.312	91.62
315.542	77.62
315.771	98.62
316.001	80.62
316.23	87.62
316.46	82.62
316.689	95.62
316.919	76.62
317.148	89.62
317.377	93.62
317.607	79.62
317.836	88.62
318.065	85.62
318.295	91.62
318.524	74.62
318.753	79.62
318.983	80.62
319.212	98.62
319.441	93.62
319.67	92.62
319.9	97.62
320.129	76.62
320.358	88.62
320.587	84.62
320.816	85.62
321.046	97.62
321.275	88.62
321.504	100.62
321.733	73.62
321.962	79.62
322.191	81.62
322.42	82.62
322.649	89.62
322.878	79.62
323.108	85.62
323.337	87.62
323.566	94.62
323.795	89.62
324.024	93.62
324.253	89.62
324.482	90.62
324.71	103.62
324.939	97.62
325.168	85.62
325.397	93.62
325.626	89.62
325.855	92.62
326.084	88.62
326.313	85.62
326.542	83.62
326.77	78.62
326.999	91.62
327.228	88.62
327.457	77.62
327.686	91.62
327.914	94.62
328.143	88.62
328.372	97.62
328.6	80.62
328.829	89.62
329.058	101.62
329.287	84.62
329.515	94.62
329.744	72.62
329.972	71.62
330.201	64.62
330.43	95.62
330.658	74.62
330.887	88.62
331.115	99.62
331.344	85.62
331.572	92.62
331.801	80.62
332.03	99.62
332.258	84.62
332.486	96.62
332.715	95.62
332.943	99.62
333.172	78.62
333.4	84.62
333.629	97.62
333.857	87.62
334.085	84.62
334.314	94.62
334.542	88.62
334.771	88.62
334.999	93.62
335.227	84.62
335.455	74.62
335.684	93.62
335.912	89.62
336.14	82.62
336.369	91.62
336.597	88.62
336.825	104.62
337.053	89.62
337.281	97.62
337.51	84.62
337.738	82.62
337.966	86.62
338.194	83.62
338.422	96.62
338.65	83.62
338.878	85.62
339.106	78.62
339.334	107.62
339.562	91.62
339.79	82.62
340.018	81.62
340.246	77.62
340.474	87.62
340.702	84.62
340.93	89.62
341.158	78.62
341.386	77.62
341.614	83.62
341.842	83.62
342.07	94.62
342.298	79.62
342.526	80.62
342.754	73.62
342.981	85.62
343.209	86.62
343.437	96.62
343.665	87.62
343.893	77.62
344.12	85.62
344.348	85.62
344.576	73.62
344.804	98.62
345.031	92.62
345.259	78.62
345.487	83.62
345.714	80.62
345.942	98.62
346.17	87.62
346.397	97.62
346.625	58.62
346.853	83.62
347.08	95.62
347.308	79.62
347.535	83.62
347.763	98.62
347.99	79.62
348.218	90.62
348.445	88.62
348.673	88.62
348.9	105.62
349.128	91.62
349.355	85.62
349.583	94.62
349.81	61.62
350.037	87.62
350.265	84.62
350.492	77.62
350.72	77.62
350.947	82.62
351.174	84.62
351.402	105.62
351.629	86.62
351.856	95.62
352.083	83.62
352.311	86.62
352.538	85.62
352.765	92.62
352.992	92.62
353.22	84.62
353.447	91.62
353.674	91.62
353.901	85.62
354.128	94.62
354.355	79.62
354.583	85.62
354.81	92.62
355.037	99.62
355.264	93.62
355.491	81.62
355.718	62.62
355.945	103.62
356.172	90.62
356.399	87.62
356.626	90.62
356.853	82.62
357.08	92.62
357.307	76.62
357.534	88.62
357.761	94.62
357.988	92.62
358.215	95.62
358.441	90.62
358.668	78.62
358.895	96.62
359.122	85.62
359.349	98.62
359.576	90.62
359.802	89.62
360.029	86.62
360.256	94.62
360.483	96.62
360.709	77.62
360.936	88.62
361.163	90.62
361.39	81.62
361.616	82.62
361.843	74.62
362.07	84.62
362.296	91.62
362.523	97.62
362.749	85.62
362.976	82.62
363.203	85.62
363.429	88.62
363.656	106.62
363.882	77.62
364.109	89.62
364.335	91.62
364.562	93.62
364.788	86.62
365.015	82.62
365.241	96.62
365.468	102.62
365.694	87.62
365.92	93.62
366.147	90.62
366.373	78.62
366.599	89.62
366.826	76.62
367.052	79.62
367.278	89.62
367.505	82.62
367.731	106.62
367.957	76.62
368.184	82.62
368.41	72.62
368.636	97.62
368.862	85.62
369.089	95.62
369.315	89.62
369.541	87.62
369.767	88.62
369.993	97.62
370.219	78.62
370.445	69.62
370.672	78.62
370.898	97.62
371.124	75.62
371.35	95.62
371.576	103.62
371.802	91.62
372.028	74.62
372.254	90.62
372.48	92.62
372.706	86.62
372.932	85.62
373.158	65.62
373.384	89.62
373.61	86.62
373.835	80.62
374.061	78.62
374.287	88.62
374.513	85.62
374.739	81.62
374.965	95.62
375.191	79.62
375.416	87.62
375.642	90.62
375.868	83.62
376.094	78.62
376.319	85.62
376.545	88.62
376.771	93.62
376.997	94.62
377.222	89.62
377.448	83.62
377.674	68.62
377.899	88.62
378.125	93.62
378.35	94.62
378.576	98.62
378.802	83.62
379.027	93.62
379.253	80.62
379.478	94.62
379.704	81.62
379.929	78.62
380.155	80.62
380.38	87.62
380.606	88.62
380.831	86.62
381.057	96.62
381.282	86.62
381.507	94.62
381.733	94.62
381.958	88.62
382.184	83.62
382.409	83.62
382.634	94.62
382.86	83.62
383.085	83.62
383.31	87.62
383.535	74.62
383.761	79.62
383.986	99.62
384.211	76.62
384.436	75.62
384.662	94.62
384.887	85.62
385.112	80.62
385.337	88.62
385.562	73.62
385.787	83.62
386.013	91.62
386.238	83.62
386.463	85.62
386.688	89.62
386.913	96.62
387.138	85.62
387.363	78.62
387.588	82.62
387.813	91.62
388.038	94.62
388.263	84.62
388.488	83.62
388.713	84.62
388.938	81.62
389.163	83.62
389.387	86.62
389.612	72.62
389.837	88.62
390.062	93.62
390.287	90.62
390.512	101.62
390.736	95.62
390.961	83.62
391.186	83.62
391.411	83.62
391.636	78.62
391.86	65.62
392.085	83.62
392.31	76.62
392.534	91.62
392.759	93.62
392.984	93.62
393.208	87.62
393.433	92.62
393.658	88.62
393.882	96.62
394.107	84.62
394.331	102.62
394.556	102.62
394.78	89.62
395.005	92.62
395.229	80.62
395.454	88.62
395.678	84.62
395.903	92.62
396.127	81.62
396.352	83.62
396.576	89.62
396.801	84.62
397.025	84.62
397.249	86.62
397.474	90.62
397.698	92.62
397.922	87.62
398.147	85.62
398.371	77.62
398.595	94.62
398.82	92.62
399.044	89.62
399.268	77.62
399.492	78.62
399.717	86.62
399.941	81.62
400.165	102.62
400.389	87.62
400.613	90.62
400.837	91.62
401.062	76.62
401.286	76.62
401.51	77.62
401.734	81.62
401.958	93.62
402.182	93.62
402.406	74.62
402.63	77.62
402.854	71.62
403.078	91.62
403.302	81.62
403.526	65.62
403.75	87.62
403.974	80.62
404.198	79.62
404.422	88.62
404.645	77.62
404.869	74.62
405.093	92.62
405.317	83.62
405.541	86.62
405.765	80.62
405.988	87.62
406.212	84.62
406.436	82.62
406.66	91.62
406.883	81.62
407.107	87.62
407.331	90.62
407.555	81.62
407.778	81.62
408.002	78.62
408.226	85.62
408.449	84.62
408.673	88.62
408.896	91.62
409.12	83.62
409.344	85.62
409.567	91.62
409.791	86.62
410.014	88.62
410.238	92.62
410.461	93.62
410.685	77.62
410.908	70.62
411.132	83.62
411.355	96.62
411.578	93.62
411.802	96.62
412.025	85.62
412.249	83.62
412.472	78.62
412.695	89.62
412.919	90.62
413.142	87.62
413.365	99.62
413.589	81.62
413.812	73.62
414.035	89.62
414.258	74.62
414.482	98.62
414.705	81.62
414.928	74.62
415.151	76.62
415.374	84.62
415.597	82.62
415.821	77.62
416.044	94.62
416.267	102.62
416.49	91.62
416.713	85.62
416.936	97.62
417.159	95.62
417.382	79.62
417.605	89.62
417.828	85.62
418.051	90.62
418.274	82.62
418.497	77.62
418.72	85.62
418.943	82.62
419.166	83.62
419.389	92.62
419.611	84.62
419.834	92.62
420.057	97.62
420.28	63.62
420.503	77.62
420.726	79.62
420.948	90.62
421.171	79.62
421.394	100.62
421.617	80.62
421.839	82.62
422.062	88.62
422.285	78.62
422.507	96.62
422.73	101.62
422.953	75.62
423.175	77.62
423.398	94.62
423.621	85.62
423.843	90.62
424.066	85.62
424.288	78.62
424.511	85.62
424.733	80.62
424.956	85.62
425.178	103.62
425.401	93.62
425.623	89.62
425.846	83.62
426.068	79.62
426.291	83.62
426.513	78.62
426.735	77.62
426.958	90.62
427.18	95.62
427.402	85.62
427.625	88.62
427.847	92.62
428.069	82.62
428.292	89.62
428.514	86.62
428.736	87.62
428.958	78.62
429.181	72.62
429.403	85.62
429.625	97.62
429.847	76.62
430.069	81.62
430.292	89.62
430.514	74.62
430.736	75.62
430.958	71.62
431.18	82.62
431.402	87.62
431.624	85.62
431.846	85.62
432.068	82.62
432.29	83.62
432.512	81.62
432.734	79.62
432.956	73.62
433.178	84.62
433.4	85.62
433.622	90.62
433.844	91.62
434.066	86.62
434.287	82.62
434.509	88.62
434.731	92.62
434.953	92.62
435.175	87.62
435.397	88.62
435.618	88.62
435.84	93.62
436.062	81.62
436.284	79.62
436.505	73.62
436.727	86.62
436.949	69.62
437.17	84.62
437.392	65.62
437.614	85.62
437.835	81.62
438.057	93.62
438.278	88.62
438.5	94.62
438.721	91.62
438.943	91.62
439.165	86.62
439.386	92.62
439.608	83.62
439.829	83.62
440.05	78.62
440.272	71.62
440.493	83.62
440.715	92.62
440.936	75.62
441.158	73.62
441.379	71.62
441.6	93.62
441.822	104.62
442.043	91.62
442.264	82.62
442.486	77.62
442.707	85.62
442.928	71.62
443.149	75.62
443.371	90.62
443.592	79.62
443.813	82.62
444.034	86.62
444.255	80.62
444.476	86.62
444.698	93.62
444.919	84.62
445.14	153.62
445.361	101.62
445.582	89.62
445.803	83.62
446.024	97.62
446.245	83.62
446.466	86.62
446.687	73.62
446.908	87.62
447.129	82.62
447.35	75.62
447.571	81.62
447.792	80.62
448.013	80.62
448.234	88.62
448.455	77.62
448.675	73.62
448.896	79.62
449.117	89.62
449.338	79.62
449.559	93.62
449.779	90.62
450	82.62
450.221	88.62
450.442	85.62
450.662	64.62
450.883	93.62
451.104	97.62
451.324	80.62
451.545	97.62
451.766	95.62
451.986	90.62
452.207	88.62
452.428	82.62
452.648	93.62
452.869	88.62
453.089	88.62
453.31	90.62
453.53	79.62
453.751	74.62
453.971	93.62
454.192	80.62
454.412	76.62
454.633	81.62
454.853	83.62
455.073	98.62
455.294	83.62
455.514	74.62
455.734	88.62
455.955	85.62
456.175	89.62
456.395	83.62
456.616	77.62
456.836	87.62
457.056	82.62
457.276	81.62
457.497	78.62
457.717	85.62
457.937	87.62
458.157	74.62
458.377	66.62
458.598	96.62
458.818	82.62
459.038	67.62
459.258	75.62
459.478	89.62
459.698	98.62
459.918	75.62
460.138	81.62
460.358	87.62
460.578	88.62
460.798	87.62
461.018	89.62
461.238	102.62
461.458	71.62
461.678	80.62
461.898	77.62
462.118	90.62
462.338	83.62
462.558	85.62
462.777	70.62
462.997	89.62
463.217	85.62
463.437	75.62
463.657	73.62
463.876	88.62
464.096	87.62
464.316	81.62
464.536	81.62
464.755	72.62
464.975	83.62
465.195	96.62
465.414	83.62
465.634	89.62
465.854	78.62
466.073	87.62
466.293	84.62
466.512	81.62
466.732	90.62
466.951	86.62
467.171	78.62
467.391	79.62
467.61	80.62
467.829	79.62
468.049	85.62
468.268	76.62
468.488	83.62
468.707	86.62
468.927	89.62
469.146	95.62
469.365	84.62
469.585	82.62
469.804	85.62
470.023	75.62
470.243	89.62
470.462	84.62
470.681	79.62
470.901	85.62
471.12	98.62
471.339	78.62
471.558	98.62
471.777	75.62
471.997	77.62
472.216	84.62
472.435	90.62
472.654	88.62
472.873	81.62
473.092	78.62
473.311	81.62
473.53	82.62
473.749	73.62
473.968	86.62
474.187	86.62
474.406	78.62
474.625	76.62
474.844	79.62
475.063	98.62
475.282	87.62
475.501	86.62
475.72	75.62
475.939	78.62
476.158	73.62
476.377	83.62
476.596	82.62
476.814	91.62
477.033	84.62
477.252	88.62
477.471	95.62
477.69	80.62
477.908	74.62
478.127	97.62
478.346	86.62
478.564	82.62
478.783	93.62
479.002	91.62
479.22	88.62
479.439	82.62
479.658	83.62
479.876	82.62
480.095	83.62
480.313	98.62
480.532	102.62
480.751	93.62
480.969	83.62
481.188	87.62
481.406	77.62
481.624	77.62
481.843	86.62
482.061	70.62
482.28	84.62
482.498	84.62
482.717	85.62
482.935	82.62
483.153	83.62
483.372	92.62
483.59	86.62
483.808	94.62
484.027	85.62
484.245	91.62
484.463	81.62
484.681	76.62
484.9	85.62
485.118	87.62
485.336	81.62
485.554	102.62
485.772	90.62
485.99	81.62
486.209	90.62
486.427	93.62
486.645	85.62
486.863	93.62
487.081	93.62
487.299	86.62
487.517	81.62
487.735	86.62
487.953	94.62
488.171	93.62
488.389	82.62
488.607	95.62
488.825	79.62
489.043	78.62
489.261	93.62
489.479	83.62
489.696	76.62
489.914	87.62
490.132	81.62
490.35	89.62
490.568	95.62
490.786	80.62
491.003	79.62
491.221	83.62
491.439	98.62
491.657	78.62
491.874	91.62
492.092	92.62
492.31	87.62
492.527	91.62
492.745	86.62
492.963	93.62
493.18	82.62
493.398	83.62
493.615	80.62
493.833	90.62
494.05	79.62
494.268	86.62
494.485	86.62
494.703	91.62
494.92	83.62
495.138	92.62
495.355	80.62
495.573	78.62
495.79	85.62
496.008	75.62
496.225	91.62
496.442	83.62
496.66	86.62
496.877	83.62
497.094	94.62
497.312	90.62
497.529	90.62
497.746	102.62
497.963	80.62
498.181	85.62
498.398	67.62
498.615	87.62
498.832	83.62
499.049	81.62
499.267	78.62
499.484	86.62
499.701	78.62
499.918	89.62
500.135	88.62
500.352	82.62
500.569	86.62
500.786	84.62
501.003	83.62
501.22	79.62
501.437	83.62
501.654	81.62
501.871	82.62
502.088	93.62
502.305	58.62
502.522	77.62
502.739	93.62
502.956	90.62
503.172	83.62
503.389	88.62
503.606	79.62
503.823	101.62
504.04	90.62
504.256	80.62
504.473	96.62
504.69	77.62
504.907	92.62
505.123	82.62
505.34	85.62
505.557	87.62
505.773	80.62
505.99	88.62
506.207	103.62
506.423	91.62
506.64	72.62
506.856	83.62
507.073	81.62
507.289	83.62
507.506	78.62
507.722	74.62
507.939	81.62
508.155	89.62
508.372	83.62
508.588	74.62
508.805	90.62
509.021	88.62
509.238	92.62
509.454	82.62
509.67	87.62
509.887	91.62
510.103	88.62
510.319	91.62
510.536	83.62
510.752	95.62
510.968	82.62
511.184	72.62
511.401	95.62
511.617	93.62
511.833	84.62
512.049	104.62
512.265	85.62
512.481	80.62
512.698	85.62
512.914	85.62
513.13	96.62
513.346	79.62
513.562	94.62
513.778	81.62
513.994	79.62
514.21	80.62
514.426	92.62
514.642	91.62
514.858	89.62
515.074	79.62
515.29	75.62
515.506	74.62
515.721	90.62
515.937	87.62
516.153	71.62
516.369	89.62
516.585	90.62
516.801	94.62
517.016	84.62
517.232	87.62
517.448	90.62
517.664	94.62
517.879	89.62
518.095	91.62
518.311	84.62
518.527	88.62
518.742	88.62
518.958	90.62
519.173	92.62
519.389	85.62
519.605	79.62
519.82	82.62
520.036	88.62
520.251	83.62
520.467	94.62
520.682	90.62
520.898	82.62
521.113	77.62
521.329	85.62
521.544	83.62
521.76	75.62
521.975	87.62
522.19	81.62
522.406	96.62
522.621	94.62
522.836	93.62
523.052	84.62
523.267	82.62
523.482	90.62
523.698	87.62
523.913	95.62
524.128	66.62
524.343	73.62
524.559	88.62
524.774	94.62
524.989	85.62
525.204	78.62
525.419	83.62
525.634	78.62
525.849	71.62
526.064	98.62
526.28	86.62
526.495	102.62
526.71	97.62
526.925	91.62
527.14	105.62
527.355	83.62
527.57	79.62
527.785	88.62
527.999	91.62
528.214	74.62
528.429	89.62
528.644	78.62
528.859	91.62
529.074	91.62
529.289	82.62
529.503	95.62
529.718	90.62
529.933	88.62
530.148	81.62
530.363	98.62
530.577	93.62
530.792	82.62
531.007	84.62
531.221	78.62
531.436	82.62
531.651	91.62
531.865	85.62
532.08	92.62
532.295	82.62
532.509	96.62
532.724	82.62
532.938	92.62
533.153	83.62
533.367	89.62
533.582	81.62
533.796	82.62
534.011	107.62
534.225	94.62
534.44	85.62
534.654	91.62
534.868	92.62
535.083	86.62
535.297	110.62
535.511	94.62
535.726	104.62
535.94	83.62
536.154	113.62
536.369	77.62
536.583	95.62
536.797	89.62
537.011	83.62
537.225	91.62
537.44	75.62
537.654	83.62
537.868	87.62
538.082	83.62
538.296	79.62
538.51	86.62
538.724	93.62
538.938	87.62
539.153	94.62
539.367	78.62
539.581	87.62
539.795	91.62
540.009	89.62
540.222	97.62
540.436	81.62
540.65	106.62
540.864	94.62
541.078	87.62
541.292	101.62
541.506	97.62
541.72	90.62
541.934	72.62
542.147	101.62
542.361	91.62
542.575	95.62
542.789	109.62
543.002	95.62
543.216	79.62
543.43	93.62
543.644	89.62
543.857	98.62
544.071	98.62
544.285	93.62
544.498	99.62
544.712	99.62
544.925	104.62
545.139	81.62
545.352	88.62
545.566	81.62
545.779	91.62
545.993	77.62
546.206	101.62
546.42	91.62
546.633	100.62
546.847	105.62
547.06	81.62
547.274	95.62
547.487	105.62
547.7	88.62
547.914	101.62
548.127	112.62
548.34	109.62
548.554	103.62
548.767	95.62
548.98	101.62
549.193	93.62
549.407	94.62
549.62	94.62
549.833	96.62
550.046	94.62
550.259	103.62
550.473	109.62
550.686	117.62
550.899	121.62
551.112	121.62
551.325	130.62
551.538	119.62
551.751	136.62
551.964	121.62
552.177	122.62
552.39	121.62
552.603	140.62
552.816	113.62
553.029	123.62
553.242	115.62
553.455	126.62
553.667	145.62
553.88	120.62
554.093	125.62
554.306	134.62
554.519	133.62
554.732	144.62
554.944	143.62
555.157	133.62
555.37	117.62
555.583	124.62
555.795	124.62
556.008	113.62
556.221	121.62
556.433	109.62
556.646	113.62
556.859	114.62
557.071	108.62
557.284	112.62
557.496	98.62
557.709	123.62
557.921	98.62
558.134	98.62
558.346	97.62
558.559	109.62
558.771	95.62
558.984	101.62
559.196	108.62
559.409	93.62
559.621	101.62
559.833	91.62
560.046	99.62
560.258	97.62
560.47	88.62
560.683	91.62
560.895	92.62
561.107	99.62
561.32	103.62
561.532	83.62
561.744	86.62
561.956	92.62
562.168	90.62
562.381	88.62
562.593	97.62
562.805	95.62
563.017	100.62
563.229	81.62
563.441	86.62
563.653	77.62
563.865	80.62
564.077	77.62
564.289	93.62
564.501	96.62
564.713	88.62
564.925	77.62
565.137	95.62
565.349	107.62
565.561	96.62
565.773	96.62
565.985	111.62
566.197	92.62
566.408	82.62
566.62	77.62
566.832	88.62
567.044	103.62
567.255	105.62
567.467	102.62
567.679	83.62
567.891	87.62
568.102	91.62
568.314	96.62
568.526	103.62
568.737	89.62
568.949	90.62
569.161	98.62
569.372	82.62
569.584	97.62
569.795	96.62
570.007	98.62
570.218	78.62
570.43	94.62
570.641	83.62
570.853	101.62
571.064	96.62
571.276	101.62
571.487	102.62
571.698	84.62
571.91	78.62
572.121	88.62
572.333	95.62
572.544	83.62
572.755	91.62
572.966	86.62
573.178	91.62
573.389	99.62
573.6	102.62
573.811	105.62
574.023	77.62
574.234	87.62
574.445	93.62
574.656	79.62
574.867	88.62
575.078	82.62
575.289	92.62
575.501	92.62
575.712	85.62
575.923	85.62
576.134	78.62
576.345	85.62
576.556	93.62
576.767	108.62
576.978	60.62
577.188	75.62
577.399	86.62
577.61	85.62
577.821	106.62
578.032	87.62
578.243	84.62
578.454	87.62
578.665	89.62
578.875	97.62
579.086	88.62
579.297	91.62
579.508	97.62
579.718	97.62
579.929	113.62
580.14	90.62
580.35	102.62
580.561	88.62
580.772	95.62
580.982	95.62
581.193	91.62
581.403	87.62
581.614	79.62
581.825	73.62
582.035	81.62
582.246	81.62
582.456	87.62
582.667	90.62
582.877	78.62
583.087	99.62
583.298	77.62
583.508	97.62
583.719	101.62
583.929	89.62
584.139	98.62
584.35	82.62
584.56	79.62
584.77	98.62
584.981	101.62
585.191	103.62
585.401	96.62
585.611	80.62
585.821	96.62
586.032	90.62
586.242	82.62
586.452	87.62
586.662	87.62
586.872	83.62
587.082	83.62
587.292	94.62
587.502	85.62
587.713	89.62
587.923	92.62
588.133	94.62
588.343	89.62
588.553	95.62
588.762	93.62
588.972	99.62
589.182	136.62
589.392	107.62
589.602	99.62
589.812	113.62
590.022	96.62
590.232	99.62
590.441	87.62
590.651	74.62
590.861	85.62
591.071	90.62
591.281	96.62
591.49	74.62
591.7	95.62
591.91	112.62
592.119	95.62
592.329	89.62
592.539	96.62
592.748	94.62
592.958	96.62
593.167	96.62
593.377	79.62
593.587	105.62
593.796	85.62
594.006	94.62
594.215	101.62
594.424	99.62
594.634	103.62
594.843	87.62
595.053	101.62
595.262	93.62
595.472	112.62
595.681	96.62
595.89	100.62
596.1	88.62
596.309	97.62
596.518	114.62
596.727	114.62
596.937	103.62
597.146	103.62
597.355	99.62
597.564	109.62
597.774	104.62
597.983	103.62
598.192	97.62
598.401	103.62
598.61	108.62
598.819	108.62
599.028	107.62
599.237	90.62
599.446	99.62
599.655	117.62
599.864	113.62
600.073	88.62
600.282	104.62
600.491	101.62
600.7	102.62
600.909	105.62
601.118	95.62
601.327	113.62
601.536	103.62
601.745	96.62
601.953	109.62
602.162	110.62
602.371	91.62
602.58	98.62
602.789	115.62
602.997	101.62
603.206	111.62
603.415	107.62
603.623	110.62
603.832	96.62
604.041	104.62
604.249	107.62
604.458	105.62
604.666	96.62
604.875	109.62
605.084	115.62
605.292	114.62
605.501	94.62
605.709	115.62
605.918	101.62
606.126	117.62
606.334	117.62
606.543	101.62
606.751	127.62
606.96	119.62
607.168	105.62
607.376	106.62
607.585	104.62
607.793	103.62
608.001	112.62
608.21	105.62
608.418	117.62
608.626	117.62
608.834	107.62
609.043	107.62
609.251	104.62
609.459	106.62
609.667	118.62
609.875	109.62
610.083	110.62
610.291	115.62
610.499	118.62
610.707	102.62
610.916	104.62
611.124	115.62
611.332	105.62
611.54	99.62
611.748	103.62
611.955	113.62
612.163	115.62
612.371	120.62
612.579	121.62
612.787	98.62
612.995	112.62
613.203	110.62
613.411	113.62
613.618	103.62
613.826	112.62
614.034	111.62
614.242	112.62
614.449	115.62
614.657	112.62
614.865	109.62
615.072	124.62
615.28	115.62
615.488	114.62
615.695	113.62
615.903	120.62
616.111	126.62
616.318	132.62
616.526	118.62
616.733	109.62
616.941	121.62
617.148	113.62
617.356	123.62
617.563	120.62
617.771	130.62
617.978	113.62
618.185	125.62
618.393	131.62
618.6	129.62
618.807	110.62
619.015	113.62
619.222	117.62
619.429	121.62
619.637	118.62
619.844	120.62
620.051	119.62
620.258	118.62
620.466	117.62
620.673	115.62
620.88	110.62
621.087	105.62
621.294	122.62
621.501	132.62
621.708	132.62
621.915	115.62
622.122	99.62
622.329	113.62
622.536	112.62
622.743	126.62
622.95	125.62
623.157	106.62
623.364	126.62
623.571	119.62
623.778	122.62
623.985	108.62
624.192	111.62
624.399	114.62
624.606	111.62
624.812	118.62
625.019	129.62
625.226	109.62
625.433	112.62
625.639	117.62
625.846	105.62
626.053	110.62
626.259	87.62
626.466	108.62
626.673	104.62
626.879	109.62
627.086	93.62
627.293	105.62
627.499	100.62
627.706	96.62
627.912	90.62
628.119	91.62
628.325	89.62
628.532	108.62
628.738	89.62
628.945	93.62
629.151	81.62
629.357	87.62
629.564	82.62
629.77	98.62
629.976	86.62
630.183	70.62
630.389	89.62
630.595	86.62
630.802	83.62
631.008	80.62
631.214	96.62
631.42	90.62
631.627	93.62
631.833	85.62
632.039	79.62
632.245	85.62
632.451	77.62
632.657	90.62
632.863	98.62
633.069	86.62
633.275	105.62
633.481	89.62
633.688	89.62
633.893	88.62
634.099	86.62
634.305	109.62
634.511	97.62
634.717	81.62
634.923	77.62
635.129	83.62
635.335	82.62
635.541	89.62
635.747	100.62
635.952	94.62
636.158	80.62
636.364	88.62
636.57	90.62
636.775	93.62
636.981	83.62
637.187	102.62
637.392	92.62
637.598	103.62
637.804	98.62
638.009	97.62
638.215	82.62
638.421	88.62
638.626	92.62
638.832	93.62
639.037	96.62
639.243	88.62
639.448	92.62
639.654	98.62
639.859	88.62
640.065	98.62
640.27	103.62
640.475	93.62
640.681	103.62
640.886	87.62
641.091	96.62
641.297	95.62
641.502	78.62
641.707	82.62
641.913	90.62
642.118	97.62
642.323	71.62
642.528	103.62
642.733	81.62
642.939	77.62
643.144	94.62
643.349	105.62
643.554	88.62
643.759	90.62
643.964	81.62
644.169	89.62
644.374	81.62
644.579	90.62
644.784	83.62
644.989	80.62
645.194	80.62
645.399	83.62
645.604	86.62
645.809	96.62
646.014	102.62
646.219	77.62
646.423	85.62
646.628	90.62
646.833	90.62
647.038	102.62
647.243	102.62
647.447	90.62
647.652	99.62
647.857	89.62
648.062	91.62
648.266	84.62
648.471	94.62
648.676	93.62
648.88	82.62
649.085	77.62
649.289	90.62
649.494	96.62
649.698	109.62
649.903	90.62
650.107	93.62
650.312	94.62
650.516	81.62
650.721	99.62
650.925	94.62
651.13	67.62
651.334	91.62
651.539	73.62
651.743	77.62
651.947	89.62
652.152	97.62
652.356	88.62
652.56	92.62
652.764	81.62
652.969	88.62
653.173	88.62
653.377	90.62
653.581	102.62
653.785	83.62
653.99	100.62
654.194	82.62
654.398	93.62
654.602	78.62
654.806	87.62
655.01	92.62
655.214	77.62
655.418	75.62
655.622	90.62
655.826	98.62
656.03	86.62
656.234	94.62
656.438	88.62
656.642	85.62
656.846	77.62
657.049	82.62
657.253	83.62
657.457	85.62
657.661	79.62
657.865	92.62
658.068	103.62
658.272	85.62
658.476	92.62
658.68	91.62
658.883	75.62
659.087	84.62
659.291	84.62
659.494	80.62
659.698	80.62
659.901	81.62
660.105	77.62
660.309	89.62
660.512	93.62
660.716	99.62
660.919	85.62
661.123	87.62
661.326	88.62
661.53	88.62
661.733	89.62
661.936	77.62
662.14	90.62
662.343	88.62
662.546	85.62
662.75	85.62
662.953	86.62
663.156	94.62
663.36	92.62
663.563	89.62
663.766	94.62
663.969	94.62
664.173	79.62
664.376	88.62
664.579	83.62
664.782	80.62
664.985	89.62
665.188	91.62
665.391	80.62
665.594	86.62
665.797	77.62
666	84.62
666.203	83.62
666.406	91.62
666.609	81.62
666.812	94.62
667.015	69.62
667.218	81.62
667.421	98.62
667.624	93.62
667.827	89.62
668.03	78.62
668.232	77.62
668.435	61.62
668.638	81.62
668.841	85.62
669.043	83.62
669.246	70.62
669.449	88.62
669.651	87.62
669.854	90.62
670.057	74.62
670.259	82.62
670.462	96.62
670.665	90.62
670.867	90.62
671.07	83.62
671.272	86.62
671.475	89.62
671.677	76.62
671.88	80.62
672.082	75.62
672.284	81.62
672.487	99.62
672.689	79.62
672.892	89.62
