Data from Circ_2015_H10_HRD10591_00012.txt Node
Date: Wed Jan 03 10:00:25 EST 2024
User: Yrep
Spectrometer: HR+D1059
Trigger mode: 1
Integration Time (sec): 1.000000E-1
Scans to average: 1
Electric dark correction enabled: true
Nonlinearity correction enabled: false
Boxcar width: 0
XAxis mode: Wavelengths
Number of Pixels in Spectrum: 2048
>>>>>Begin Spectral Data<<<<<
223.165	-25.94
223.4	-25.94
223.635	-25.94
223.869	-10.94
224.104	-17.94
224.338	-16.94
224.573	-18.94
224.808	-6.94
225.042	-5.94
225.277	-9.94
225.511	-9.94
225.746	2.06
225.98	3.06
226.215	16.06
226.449	8.06
226.683	27.06
226.918	34.06
227.152	33.06
227.387	38.06
227.621	41.06
227.856	50.06
228.09	54.06
228.324	48.06
228.559	82.06
228.793	59.06
229.027	62.06
229.262	48.06
229.496	75.06
229.73	71.06
229.964	75.06
230.199	74.06
230.433	76.06
230.667	77.06
230.901	80.06
231.136	71.06
231.37	83.06
231.604	75.06
231.838	77.06
232.072	84.06
232.306	69.06
232.541	75.06
232.775	70.06
233.009	89.06
233.243	93.06
233.477	80.06
233.711	84.06
233.945	81.06
234.179	70.06
234.413	89.06
234.647	82.06
234.881	81.06
235.115	78.06
235.349	76.06
235.583	71.06
235.817	85.06
236.051	77.06
236.285	76.06
236.519	86.06
236.753	53.06
236.987	81.06
237.221	75.06
237.455	93.06
237.689	80.06
237.922	72.06
238.156	77.06
238.39	78.06
238.624	68.06
238.858	85.06
239.091	72.06
239.325	58.06
239.559	77.06
239.793	77.06
240.027	84.06
240.26	68.06
240.494	77.06
240.728	71.06
240.961	73.06
241.195	75.06
241.429	64.06
241.662	73.06
241.896	77.06
242.13	75.06
242.363	72.06
242.597	69.06
242.83	68.06
243.064	77.06
243.298	64.06
243.531	77.06
243.765	78.06
243.998	81.06
244.232	78.06
244.465	98.06
244.699	72.06
244.932	69.06
245.166	77.06
245.399	87.06
245.633	88.06
245.866	68.06
246.099	72.06
246.333	64.06
246.566	65.06
246.8	79.06
247.033	73.06
247.266	76.06
247.5	77.06
247.733	86.06
247.966	85.06
248.2	100.06
248.433	87.06
248.666	79.06
248.899	98.06
249.133	87.06
249.366	85.06
249.599	81.06
249.832	74.06
250.066	84.06
250.299	69.06
250.532	77.06
250.765	86.06
250.998	78.06
251.231	80.06
251.465	84.06
251.698	72.06
251.931	77.06
252.164	76.06
252.397	72.06
252.63	81.06
252.863	78.06
253.096	72.06
253.329	73.06
253.562	78.06
253.795	64.06
254.028	77.06
254.261	81.06
254.494	87.06
254.727	82.06
254.96	92.06
255.193	89.06
255.426	75.06
255.659	69.06
255.892	84.06
256.124	77.06
256.357	80.06
256.59	88.06
256.823	85.06
257.056	80.06
257.289	78.06
257.521	83.06
257.754	72.06
257.987	91.06
258.22	86.06
258.452	84.06
258.685	74.06
258.918	80.06
259.151	78.06
259.383	72.06
259.616	75.06
259.849	78.06
260.081	82.06
260.314	85.06
260.547	88.06
260.779	66.06
261.012	78.06
261.244	103.06
261.477	94.06
261.71	91.06
261.942	91.06
262.175	90.06
262.407	69.06
262.64	69.06
262.872	85.06
263.105	71.06
263.337	93.06
263.57	86.06
263.802	89.06
264.035	76.06
264.267	94.06
264.499	74.06
264.732	87.06
264.964	80.06
265.197	78.06
265.429	73.06
265.661	76.06
265.894	74.06
266.126	69.06
266.358	80.06
266.591	91.06
266.823	97.06
267.055	84.06
267.287	68.06
267.52	71.06
267.752	83.06
267.984	77.06
268.216	90.06
268.448	87.06
268.681	80.06
268.913	90.06
269.145	78.06
269.377	55.06
269.609	86.06
269.841	88.06
270.073	76.06
270.306	101.06
270.538	78.06
270.77	96.06
271.002	75.06
271.234	89.06
271.466	88.06
271.698	83.06
271.93	82.06
272.162	82.06
272.394	82.06
272.626	90.06
272.858	93.06
273.09	91.06
273.322	89.06
273.553	90.06
273.785	89.06
274.017	77.06
274.249	70.06
274.481	81.06
274.713	100.06
274.945	73.06
275.176	77.06
275.408	77.06
275.64	84.06
275.872	76.06
276.104	101.06
276.335	89.06
276.567	97.06
276.799	97.06
277.031	91.06
277.262	75.06
277.494	77.06
277.726	91.06
277.957	83.06
278.189	83.06
278.421	74.06
278.652	77.06
278.884	88.06
279.115	97.06
279.347	82.06
279.579	90.06
279.81	85.06
280.042	80.06
280.273	78.06
280.505	89.06
280.736	71.06
280.968	82.06
281.199	78.06
281.431	88.06
281.662	92.06
281.894	83.06
282.125	94.06
282.356	92.06
282.588	117.06
282.819	98.06
283.051	94.06
283.282	80.06
283.513	98.06
283.745	90.06
283.976	94.06
284.207	93.06
284.439	97.06
284.67	90.06
284.901	95.06
285.132	72.06
285.364	83.06
285.595	83.06
285.826	88.06
286.057	111.06
286.288	84.06
286.52	80.06
286.751	84.06
286.982	98.06
287.213	90.06
287.444	88.06
287.675	100.06
287.906	88.06
288.138	95.06
288.369	97.06
288.6	95.06
288.831	81.06
289.062	77.06
289.293	79.06
289.524	86.06
289.755	80.06
289.986	81.06
290.217	82.06
290.448	87.06
290.679	79.06
290.91	100.06
291.141	86.06
291.371	96.06
291.602	80.06
291.833	90.06
292.064	80.06
292.295	84.06
292.526	98.06
292.757	81.06
292.987	76.06
293.218	88.06
293.449	84.06
293.68	85.06
293.91	93.06
294.141	98.06
294.372	84.06
294.603	89.06
294.833	86.06
295.064	82.06
295.295	87.06
295.525	74.06
295.756	90.06
295.987	99.06
296.217	107.06
296.448	108.06
296.679	99.06
296.909	102.06
297.14	91.06
297.37	95.06
297.601	77.06
297.831	79.06
298.062	103.06
298.292	86.06
298.523	79.06
298.753	87.06
298.984	81.06
299.214	86.06
299.445	99.06
299.675	87.06
299.905	109.06
300.136	82.06
300.366	74.06
300.597	97.06
300.827	78.06
301.057	101.06
301.288	86.06
301.518	84.06
301.748	89.06
301.979	105.06
302.209	85.06
302.439	82.06
302.669	86.06
302.9	86.06
303.13	89.06
303.36	96.06
303.59	81.06
303.82	93.06
304.051	91.06
304.281	93.06
304.511	88.06
304.741	83.06
304.971	68.06
305.201	78.06
305.431	91.06
305.661	89.06
305.891	88.06
306.121	88.06
306.352	89.06
306.582	102.06
306.812	80.06
307.042	81.06
307.272	85.06
307.502	87.06
307.731	86.06
307.961	90.06
308.191	82.06
308.421	91.06
308.651	90.06
308.881	98.06
309.111	92.06
309.341	98.06
309.571	107.06
309.8	93.06
310.03	100.06
310.26	101.06
310.49	91.06
310.72	95.06
310.949	96.06
311.179	89.06
311.409	88.06
311.639	79.06
311.868	84.06
312.098	78.06
312.328	81.06
312.557	102.06
312.787	98.06
313.017	89.06
313.246	88.06
313.476	106.06
313.706	87.06
313.935	82.06
314.165	98.06
314.394	100.06
314.624	98.06
314.853	99.06
315.083	92.06
315.312	94.06
315.542	98.06
315.771	89.06
316.001	104.06
316.23	88.06
316.46	97.06
316.689	86.06
316.919	81.06
317.148	100.06
317.377	101.06
317.607	88.06
317.836	87.06
318.065	89.06
318.295	82.06
318.524	97.06
318.753	76.06
318.983	78.06
319.212	84.06
319.441	109.06
319.67	97.06
319.9	82.06
320.129	100.06
320.358	103.06
320.587	92.06
320.816	88.06
321.046	109.06
321.275	89.06
321.504	92.06
321.733	87.06
321.962	82.06
322.191	101.06
322.42	101.06
322.649	93.06
322.878	107.06
323.108	123.06
323.337	119.06
323.566	102.06
323.795	136.06
324.024	170.06
324.253	332.06
324.482	685.06
324.71	1397.06
324.939	1838.06
325.168	694.06
325.397	224.06
325.626	141.06
325.855	110.06
326.084	128.06
326.313	126.06
326.542	134.06
326.77	203.06
326.999	397.06
327.228	820.06
327.457	1472.06
327.686	1178.06
327.914	308.06
328.143	167.06
328.372	140.06
328.6	137.06
328.829	106.06
329.058	105.06
329.287	115.06
329.515	105.06
329.744	105.06
329.972	102.06
330.201	109.06
330.43	125.06
330.658	105.06
330.887	118.06
331.115	119.06
331.344	84.06
331.572	96.06
331.801	89.06
332.03	100.06
332.258	94.06
332.486	94.06
332.715	93.06
332.943	82.06
333.172	91.06
333.4	87.06
333.629	96.06
333.857	115.06
334.085	94.06
334.314	118.06
334.542	117.06
334.771	133.06
334.999	86.06
335.227	87.06
335.455	93.06
335.684	99.06
335.912	100.06
336.14	90.06
336.369	101.06
336.597	77.06
336.825	90.06
337.053	99.06
337.281	99.06
337.51	101.06
337.738	104.06
337.966	86.06
338.194	98.06
338.422	88.06
338.65	81.06
338.878	93.06
339.106	89.06
339.334	92.06
339.562	91.06
339.79	91.06
340.018	83.06
340.246	99.06
340.474	86.06
340.702	96.06
340.93	89.06
341.158	95.06
341.386	77.06
341.614	83.06
341.842	78.06
342.07	87.06
342.298	88.06
342.526	86.06
342.754	94.06
342.981	84.06
343.209	83.06
343.437	98.06
343.665	92.06
343.893	98.06
344.12	90.06
344.348	88.06
344.576	88.06
344.804	89.06
345.031	107.06
345.259	92.06
345.487	85.06
345.714	99.06
345.942	82.06
346.17	71.06
346.397	88.06
346.625	102.06
346.853	103.06
347.08	102.06
347.308	86.06
347.535	91.06
347.763	107.06
347.99	84.06
348.218	95.06
348.445	107.06
348.673	105.06
348.9	91.06
349.128	94.06
349.355	98.06
349.583	108.06
349.81	100.06
350.037	73.06
350.265	86.06
350.492	96.06
350.72	95.06
350.947	92.06
351.174	104.06
351.402	97.06
351.629	90.06
351.856	98.06
352.083	91.06
352.311	101.06
352.538	96.06
352.765	94.06
352.992	106.06
353.22	94.06
353.447	106.06
353.674	90.06
353.901	89.06
354.128	96.06
354.355	91.06
354.583	88.06
354.81	100.06
355.037	95.06
355.264	103.06
355.491	97.06
355.718	100.06
355.945	91.06
356.172	86.06
356.399	92.06
356.626	91.06
356.853	96.06
357.08	94.06
357.307	106.06
357.534	86.06
357.761	93.06
357.988	101.06
358.215	108.06
358.441	108.06
358.668	101.06
358.895	101.06
359.122	86.06
359.349	73.06
359.576	104.06
359.802	90.06
360.029	103.06
360.256	103.06
360.483	93.06
360.709	81.06
360.936	84.06
361.163	90.06
361.39	81.06
361.616	99.06
361.843	91.06
362.07	92.06
362.296	95.06
362.523	87.06
362.749	93.06
362.976	99.06
363.203	77.06
363.429	90.06
363.656	106.06
363.882	100.06
364.109	92.06
364.335	93.06
364.562	97.06
364.788	92.06
365.015	76.06
365.241	90.06
365.468	104.06
365.694	107.06
365.92	88.06
366.147	82.06
366.373	92.06
366.599	93.06
366.826	88.06
367.052	91.06
367.278	100.06
367.505	89.06
367.731	72.06
367.957	81.06
368.184	100.06
368.41	102.06
368.636	115.06
368.862	102.06
369.089	98.06
369.315	97.06
369.541	83.06
369.767	85.06
369.993	76.06
370.219	104.06
370.445	82.06
370.672	99.06
370.898	89.06
371.124	89.06
371.35	95.06
371.576	87.06
371.802	82.06
372.028	99.06
372.254	88.06
372.48	79.06
372.706	81.06
372.932	89.06
373.158	101.06
373.384	83.06
373.61	90.06
373.835	86.06
374.061	89.06
374.287	92.06
374.513	100.06
374.739	76.06
374.965	86.06
375.191	83.06
375.416	98.06
375.642	100.06
375.868	87.06
376.094	83.06
376.319	95.06
376.545	82.06
376.771	79.06
376.997	89.06
377.222	89.06
377.448	99.06
377.674	101.06
377.899	87.06
378.125	91.06
378.35	96.06
378.576	105.06
378.802	101.06
379.027	97.06
379.253	100.06
379.478	91.06
379.704	102.06
379.929	86.06
380.155	80.06
380.38	92.06
380.606	98.06
380.831	92.06
381.057	116.06
381.282	104.06
381.507	86.06
381.733	86.06
381.958	101.06
382.184	99.06
382.409	98.06
382.634	105.06
382.86	94.06
383.085	114.06
383.31	106.06
383.535	105.06
383.761	123.06
383.986	102.06
384.211	118.06
384.436	109.06
384.662	118.06
384.887	115.06
385.112	112.06
385.337	112.06
385.562	125.06
385.787	114.06
386.013	109.06
386.238	110.06
386.463	106.06
386.688	123.06
386.913	118.06
387.138	136.06
387.363	117.06
387.588	104.06
387.813	100.06
388.038	127.06
388.263	128.06
388.488	122.06
388.713	96.06
388.938	101.06
389.163	91.06
389.387	84.06
389.612	93.06
389.837	92.06
390.062	102.06
390.287	96.06
390.512	91.06
390.736	72.06
390.961	86.06
391.186	103.06
391.411	103.06
391.636	91.06
391.86	84.06
392.085	76.06
392.31	79.06
392.534	88.06
392.759	89.06
392.984	89.06
393.208	97.06
393.433	100.06
393.658	94.06
393.882	89.06
394.107	87.06
394.331	84.06
394.556	82.06
394.78	83.06
395.005	90.06
395.229	88.06
395.454	76.06
395.678	87.06
395.903	91.06
396.127	85.06
396.352	92.06
396.576	90.06
396.801	108.06
397.025	99.06
397.249	98.06
397.474	76.06
397.698	82.06
397.922	94.06
398.147	89.06
398.371	81.06
398.595	77.06
398.82	88.06
399.044	80.06
399.268	76.06
399.492	90.06
399.717	96.06
399.941	85.06
400.165	80.06
400.389	83.06
400.613	75.06
400.837	84.06
401.062	101.06
401.286	84.06
401.51	83.06
401.734	79.06
401.958	100.06
402.182	113.06
402.406	132.06
402.63	115.06
402.854	88.06
403.078	86.06
403.302	88.06
403.526	89.06
403.75	87.06
403.974	85.06
404.198	89.06
404.422	85.06
404.645	94.06
404.869	94.06
405.093	90.06
405.317	102.06
405.541	93.06
405.765	86.06
405.988	108.06
406.212	134.06
406.436	181.06
406.66	119.06
406.883	100.06
407.107	87.06
407.331	88.06
407.555	102.06
407.778	99.06
408.002	87.06
408.226	85.06
408.449	83.06
408.673	91.06
408.896	83.06
409.12	90.06
409.344	83.06
409.567	80.06
409.791	94.06
410.014	101.06
410.238	104.06
410.461	80.06
410.685	93.06
410.908	94.06
411.132	100.06
411.355	112.06
411.578	92.06
411.802	81.06
412.025	97.06
412.249	99.06
412.472	89.06
412.695	87.06
412.919	99.06
413.142	99.06
413.365	97.06
413.589	81.06
413.812	78.06
414.035	89.06
414.258	87.06
414.482	92.06
414.705	93.06
414.928	86.06
415.151	94.06
415.374	94.06
415.597	88.06
415.821	72.06
416.044	85.06
416.267	88.06
416.49	89.06
416.713	95.06
416.936	92.06
417.159	93.06
417.382	80.06
417.605	91.06
417.828	94.06
418.051	89.06
418.274	101.06
418.497	89.06
418.72	99.06
418.943	92.06
419.166	78.06
419.389	85.06
419.611	104.06
419.834	97.06
420.057	84.06
420.28	84.06
420.503	88.06
420.726	88.06
420.948	90.06
421.171	98.06
421.394	99.06
421.617	83.06
421.839	92.06
422.062	95.06
422.285	98.06
422.507	100.06
422.73	101.06
422.953	92.06
423.175	91.06
423.398	85.06
423.621	85.06
423.843	78.06
424.066	75.06
424.288	82.06
424.511	82.06
424.733	88.06
424.956	92.06
425.178	102.06
425.401	82.06
425.623	90.06
425.846	89.06
426.068	91.06
426.291	88.06
426.513	91.06
426.735	89.06
426.958	79.06
427.18	92.06
427.402	121.06
427.625	134.06
427.847	130.06
428.069	119.06
428.292	100.06
428.514	99.06
428.736	83.06
428.958	71.06
429.181	84.06
429.403	87.06
429.625	76.06
429.847	98.06
430.069	96.06
430.292	103.06
430.514	79.06
430.736	107.06
430.958	84.06
431.18	84.06
431.402	102.06
431.624	74.06
431.846	89.06
432.068	83.06
432.29	89.06
432.512	94.06
432.734	81.06
432.956	82.06
433.178	98.06
433.4	83.06
433.622	100.06
433.844	72.06
434.066	75.06
434.287	81.06
434.509	95.06
434.731	93.06
434.953	78.06
435.175	86.06
435.397	86.06
435.618	98.06
435.84	119.06
436.062	123.06
436.284	105.06
436.505	102.06
436.727	105.06
436.949	103.06
437.17	93.06
437.392	76.06
437.614	95.06
437.835	91.06
438.057	105.06
438.278	105.06
438.5	91.06
438.721	108.06
438.943	94.06
439.165	88.06
439.386	88.06
439.608	85.06
439.829	97.06
440.05	106.06
440.272	117.06
440.493	93.06
440.715	89.06
440.936	96.06
441.158	94.06
441.379	96.06
441.6	88.06
441.822	84.06
442.043	76.06
442.264	90.06
442.486	89.06
442.707	106.06
442.928	93.06
443.149	109.06
443.371	114.06
443.592	120.06
443.813	98.06
444.034	103.06
444.255	99.06
444.476	97.06
444.698	83.06
444.919	95.06
445.14	115.06
445.361	129.06
445.582	103.06
445.803	103.06
446.024	100.06
446.245	118.06
446.466	98.06
446.687	102.06
446.908	96.06
447.129	85.06
447.35	88.06
447.571	85.06
447.792	83.06
448.013	93.06
448.234	100.06
448.455	100.06
448.675	110.06
448.896	101.06
449.117	86.06
449.338	93.06
449.559	118.06
449.779	119.06
450	85.06
450.221	85.06
450.442	96.06
450.662	89.06
450.883	82.06
451.104	89.06
451.324	102.06
451.545	83.06
451.766	74.06
451.986	79.06
452.207	76.06
452.428	90.06
452.648	94.06
452.869	101.06
453.089	100.06
453.31	102.06
453.53	74.06
453.751	72.06
453.971	112.06
454.192	102.06
454.412	81.06
454.633	90.06
454.853	79.06
455.073	76.06
455.294	83.06
455.514	96.06
455.734	90.06
455.955	91.06
456.175	74.06
456.395	77.06
456.616	81.06
456.836	87.06
457.056	94.06
457.276	92.06
457.497	81.06
457.717	85.06
457.937	81.06
458.157	86.06
458.377	98.06
458.598	99.06
458.818	131.06
459.038	117.06
459.258	92.06
459.478	98.06
459.698	89.06
459.918	95.06
460.138	72.06
460.358	77.06
460.578	89.06
460.798	90.06
461.018	85.06
461.238	78.06
461.458	76.06
461.678	80.06
461.898	91.06
462.118	91.06
462.338	85.06
462.558	99.06
462.777	78.06
462.997	87.06
463.217	82.06
463.437	77.06
463.657	87.06
463.876	91.06
464.096	91.06
464.316	80.06
464.536	101.06
464.755	99.06
464.975	106.06
465.195	128.06
465.414	125.06
465.634	93.06
465.854	97.06
466.073	87.06
466.293	92.06
466.512	81.06
466.732	82.06
466.951	83.06
467.171	89.06
467.391	91.06
467.61	93.06
467.829	97.06
468.049	96.06
468.268	101.06
468.488	82.06
468.707	86.06
468.927	77.06
469.146	91.06
469.365	82.06
469.585	91.06
469.804	90.06
470.023	97.06
470.243	83.06
470.462	92.06
470.681	87.06
470.901	106.06
471.12	96.06
471.339	84.06
471.558	83.06
471.777	92.06
471.997	94.06
472.216	112.06
472.435	143.06
472.654	101.06
472.873	83.06
473.092	80.06
473.311	74.06
473.53	86.06
473.749	83.06
473.968	89.06
474.187	96.06
474.406	90.06
474.625	85.06
474.844	75.06
475.063	77.06
475.282	91.06
475.501	84.06
475.72	94.06
475.939	93.06
476.158	86.06
476.377	94.06
476.596	92.06
476.814	83.06
477.033	85.06
477.252	96.06
477.471	88.06
477.69	82.06
477.908	91.06
478.127	103.06
478.346	83.06
478.564	89.06
478.783	92.06
479.002	89.06
479.22	99.06
479.439	98.06
479.658	95.06
479.876	99.06
480.095	88.06
480.313	99.06
480.532	80.06
480.751	95.06
480.969	99.06
481.188	191.06
481.406	152.06
481.624	87.06
481.843	69.06
482.061	82.06
482.28	85.06
482.498	98.06
482.717	86.06
482.935	93.06
483.153	84.06
483.372	91.06
483.59	91.06
483.808	97.06
484.027	77.06
484.245	94.06
484.463	97.06
484.681	91.06
484.9	94.06
485.118	104.06
485.336	100.06
485.554	101.06
485.772	100.06
485.99	96.06
486.209	100.06
486.427	114.06
486.645	96.06
486.863	101.06
487.081	95.06
487.299	84.06
487.517	82.06
487.735	103.06
487.953	99.06
488.171	101.06
488.389	84.06
488.607	90.06
488.825	95.06
489.043	86.06
489.261	103.06
489.479	103.06
489.696	85.06
489.914	77.06
490.132	75.06
490.35	97.06
490.568	73.06
490.786	100.06
491.003	95.06
491.221	67.06
491.439	81.06
491.657	88.06
491.874	86.06
492.092	83.06
492.31	101.06
492.527	82.06
492.745	82.06
492.963	98.06
493.18	82.06
493.398	91.06
493.615	91.06
493.833	94.06
494.05	81.06
494.268	83.06
494.485	93.06
494.703	89.06
494.92	95.06
495.138	98.06
495.355	62.06
495.573	88.06
495.79	91.06
496.008	108.06
496.225	103.06
496.442	80.06
496.66	81.06
496.877	99.06
497.094	94.06
497.312	96.06
497.529	81.06
497.746	95.06
497.963	99.06
498.181	97.06
498.398	101.06
498.615	113.06
498.832	103.06
499.049	94.06
499.267	79.06
499.484	77.06
499.701	77.06
499.918	92.06
500.135	79.06
500.352	80.06
500.569	75.06
500.786	84.06
501.003	74.06
501.22	95.06
501.437	109.06
501.654	92.06
501.871	89.06
502.088	89.06
502.305	85.06
502.522	86.06
502.739	88.06
502.956	99.06
503.172	103.06
503.389	78.06
503.606	93.06
503.823	101.06
504.04	87.06
504.256	92.06
504.473	83.06
504.69	82.06
504.907	103.06
505.123	94.06
505.34	80.06
505.557	85.06
505.773	96.06
505.99	90.06
506.207	98.06
506.423	99.06
506.64	86.06
506.856	92.06
507.073	96.06
507.289	91.06
507.506	87.06
507.722	116.06
507.939	107.06
508.155	80.06
508.372	93.06
508.588	107.06
508.805	95.06
509.021	97.06
509.238	91.06
509.454	90.06
509.67	96.06
509.887	105.06
510.103	127.06
510.319	185.06
510.536	564.06
510.752	1842.06
510.968	553.06
511.184	147.06
511.401	104.06
511.617	96.06
511.833	73.06
512.049	76.06
512.265	80.06
512.481	84.06
512.698	91.06
512.914	92.06
513.13	80.06
513.346	76.06
513.562	97.06
513.778	101.06
513.994	94.06
514.21	103.06
514.426	114.06
514.642	132.06
514.858	114.06
515.074	126.06
515.29	318.06
515.506	1038.06
515.721	420.06
515.937	136.06
516.153	102.06
516.369	89.06
516.585	96.06
516.801	99.06
517.016	81.06
517.232	78.06
517.448	86.06
517.664	81.06
517.879	93.06
518.095	93.06
518.311	94.06
518.527	84.06
518.742	88.06
518.958	95.06
519.173	85.06
519.389	87.06
519.605	96.06
519.82	86.06
520.036	85.06
520.251	112.06
520.467	98.06
520.682	98.06
520.898	102.06
521.113	106.06
521.329	116.06
521.544	157.06
521.76	408.06
521.975	1678.06
522.19	1092.06
522.406	246.06
522.621	109.06
522.836	85.06
523.052	89.06
523.267	86.06
523.482	96.06
523.698	92.06
523.913	112.06
524.128	93.06
524.343	86.06
524.559	83.06
524.774	82.06
524.989	93.06
525.204	101.06
525.419	99.06
525.634	92.06
525.849	92.06
526.064	90.06
526.28	90.06
526.495	99.06
526.71	80.06
526.925	81.06
527.14	91.06
527.355	90.06
527.57	97.06
527.785	87.06
527.999	72.06
528.214	96.06
528.429	92.06
528.644	91.06
528.859	86.06
529.074	90.06
529.289	110.06
529.503	141.06
529.718	96.06
529.933	78.06
530.148	91.06
530.363	87.06
530.577	93.06
530.792	93.06
531.007	75.06
531.221	93.06
531.436	85.06
531.651	72.06
531.865	85.06
532.08	84.06
532.295	100.06
532.509	92.06
532.724	91.06
532.938	82.06
533.153	94.06
533.367	84.06
533.582	101.06
533.796	85.06
534.011	68.06
534.225	94.06
534.44	88.06
534.654	97.06
534.868	105.06
535.083	92.06
535.297	93.06
535.511	86.06
535.726	94.06
535.94	100.06
536.154	91.06
536.369	94.06
536.583	87.06
536.797	96.06
537.011	97.06
537.225	93.06
537.44	92.06
537.654	83.06
537.868	83.06
538.082	87.06
538.296	89.06
538.51	94.06
538.724	89.06
538.938	97.06
539.153	98.06
539.367	84.06
539.581	91.06
539.795	90.06
540.009	90.06
540.222	99.06
540.436	91.06
540.65	86.06
540.864	100.06
541.078	112.06
541.292	102.06
541.506	113.06
541.72	83.06
541.934	86.06
542.147	95.06
542.361	76.06
542.575	88.06
542.789	96.06
543.002	90.06
543.216	89.06
543.43	108.06
543.644	112.06
543.857	91.06
544.071	78.06
544.285	100.06
544.498	88.06
544.712	107.06
544.925	94.06
545.139	91.06
545.352	89.06
545.566	84.06
545.779	93.06
545.993	78.06
546.206	91.06
546.42	86.06
546.633	83.06
546.847	82.06
547.06	95.06
547.274	90.06
547.487	88.06
547.7	83.06
547.914	99.06
548.127	94.06
548.34	78.06
548.554	88.06
548.767	98.06
548.98	88.06
549.193	77.06
549.407	94.06
549.62	91.06
549.833	81.06
550.046	83.06
550.259	90.06
550.473	75.06
550.686	88.06
550.899	78.06
551.112	84.06
551.325	76.06
551.538	77.06
551.751	92.06
551.964	98.06
552.177	80.06
552.39	89.06
552.603	80.06
552.816	93.06
553.029	95.06
553.242	97.06
553.455	99.06
553.667	77.06
553.88	94.06
554.093	84.06
554.306	93.06
554.519	102.06
554.732	108.06
554.944	93.06
555.157	82.06
555.37	94.06
555.583	86.06
555.795	86.06
556.008	108.06
556.221	92.06
556.433	92.06
556.646	102.06
556.859	84.06
557.071	88.06
557.284	104.06
557.496	92.06
557.709	88.06
557.921	92.06
558.134	94.06
558.346	85.06
558.559	82.06
558.771	80.06
558.984	86.06
559.196	107.06
559.409	93.06
559.621	95.06
559.833	91.06
560.046	68.06
560.258	81.06
560.47	76.06
560.683	90.06
560.895	93.06
561.107	90.06
561.32	78.06
561.532	78.06
561.744	102.06
561.956	88.06
562.168	91.06
562.381	88.06
562.593	112.06
562.805	85.06
563.017	88.06
563.229	91.06
563.441	87.06
563.653	83.06
563.865	101.06
564.077	97.06
564.289	93.06
564.501	97.06
564.713	101.06
564.925	96.06
565.137	97.06
565.349	85.06
565.561	93.06
565.773	99.06
565.985	101.06
566.197	93.06
566.408	84.06
566.62	85.06
566.832	88.06
567.044	88.06
567.255	85.06
567.467	72.06
567.679	96.06
567.891	87.06
568.102	93.06
568.314	83.06
568.526	82.06
568.737	97.06
568.949	105.06
569.161	92.06
569.372	78.06
569.584	99.06
569.795	91.06
570.007	108.06
570.218	194.06
570.43	121.06
570.641	83.06
570.853	102.06
571.064	93.06
571.276	88.06
571.487	90.06
571.698	81.06
571.91	76.06
572.121	86.06
572.333	79.06
572.544	84.06
572.755	89.06
572.966	83.06
573.178	76.06
573.389	103.06
573.6	83.06
573.811	90.06
574.023	87.06
574.234	78.06
574.445	82.06
574.656	70.06
574.867	85.06
575.078	78.06
575.289	86.06
575.501	78.06
575.712	80.06
575.923	91.06
576.134	94.06
576.345	85.06
576.556	104.06
576.767	98.06
576.978	92.06
577.188	88.06
577.399	102.06
577.61	102.06
577.821	92.06
578.032	97.06
578.243	210.06
578.454	588.06
578.665	180.06
578.875	97.06
579.086	95.06
579.297	89.06
579.508	81.06
579.718	82.06
579.929	87.06
580.14	89.06
580.35	87.06
580.561	84.06
580.772	88.06
580.982	86.06
581.193	84.06
581.403	94.06
581.614	102.06
581.825	93.06
582.035	101.06
582.246	86.06
582.456	76.06
582.667	87.06
582.877	104.06
583.087	98.06
583.298	101.06
583.508	92.06
583.719	81.06
583.929	91.06
584.139	102.06
584.35	82.06
584.56	100.06
584.77	79.06
584.981	90.06
585.191	87.06
585.401	93.06
585.611	93.06
585.821	85.06
586.032	89.06
586.242	91.06
586.452	84.06
586.662	88.06
586.872	87.06
587.082	98.06
587.292	97.06
587.502	86.06
587.713	84.06
587.923	81.06
588.133	86.06
588.343	86.06
588.553	94.06
588.762	90.06
588.972	95.06
589.182	146.06
589.392	117.06
589.602	95.06
589.812	116.06
590.022	99.06
590.232	84.06
590.441	94.06
590.651	86.06
590.861	91.06
591.071	92.06
591.281	84.06
591.49	77.06
591.7	81.06
591.91	72.06
592.119	90.06
592.329	85.06
592.539	90.06
592.748	85.06
592.958	93.06
593.167	74.06
593.377	79.06
593.587	75.06
593.796	93.06
594.006	76.06
594.215	86.06
594.424	76.06
594.634	76.06
594.843	94.06
595.053	97.06
595.262	81.06
595.472	77.06
595.681	88.06
595.89	86.06
596.1	94.06
596.309	92.06
596.518	65.06
596.727	78.06
596.937	108.06
597.146	77.06
597.355	92.06
597.564	76.06
597.774	71.06
597.983	101.06
598.192	80.06
598.401	83.06
598.61	80.06
598.819	84.06
599.028	88.06
599.237	94.06
599.446	84.06
599.655	86.06
599.864	86.06
600.073	84.06
600.282	93.06
600.491	78.06
600.7	87.06
600.909	80.06
601.118	79.06
601.327	82.06
601.536	94.06
601.745	91.06
601.953	90.06
602.162	75.06
602.371	86.06
602.58	74.06
602.789	88.06
602.997	77.06
603.206	88.06
603.415	86.06
603.623	96.06
603.832	88.06
604.041	87.06
604.249	81.06
604.458	90.06
604.666	86.06
604.875	82.06
605.084	74.06
605.292	94.06
605.501	104.06
605.709	89.06
605.918	83.06
606.126	83.06
606.334	90.06
606.543	83.06
606.751	91.06
606.96	74.06
607.168	90.06
607.376	97.06
607.585	82.06
607.793	90.06
608.001	90.06
608.21	76.06
608.418	85.06
608.626	89.06
608.834	96.06
609.043	90.06
609.251	70.06
609.459	82.06
609.667	93.06
609.875	92.06
610.083	83.06
610.291	92.06
610.499	77.06
610.707	89.06
610.916	88.06
611.124	79.06
611.332	93.06
611.54	84.06
611.748	89.06
611.955	79.06
612.163	82.06
612.371	99.06
612.579	80.06
612.787	104.06
612.995	68.06
613.203	93.06
613.411	95.06
613.618	88.06
613.826	93.06
614.034	94.06
614.242	99.06
614.449	96.06
614.657	90.06
614.865	81.06
615.072	69.06
615.28	99.06
615.488	77.06
615.695	107.06
615.903	95.06
616.111	97.06
616.318	101.06
616.526	91.06
616.733	85.06
616.941	84.06
617.148	76.06
617.356	82.06
617.563	98.06
617.771	81.06
617.978	80.06
618.185	85.06
618.393	91.06
618.6	94.06
618.807	76.06
619.015	96.06
619.222	90.06
619.429	79.06
619.637	65.06
619.844	77.06
620.051	93.06
620.258	78.06
620.466	87.06
620.673	80.06
620.88	88.06
621.087	82.06
621.294	78.06
621.501	96.06
621.708	76.06
621.915	76.06
622.122	72.06
622.329	82.06
622.536	82.06
622.743	76.06
622.95	86.06
623.157	78.06
623.364	80.06
623.571	76.06
623.778	103.06
623.985	69.06
624.192	94.06
624.399	91.06
624.606	89.06
624.812	81.06
625.019	72.06
625.226	89.06
625.433	103.06
625.639	90.06
625.846	90.06
626.053	88.06
626.259	87.06
626.466	77.06
626.673	74.06
626.879	80.06
627.086	81.06
627.293	99.06
627.499	68.06
627.706	91.06
627.912	87.06
628.119	87.06
628.325	94.06
628.532	90.06
628.738	82.06
628.945	97.06
629.151	76.06
629.357	96.06
629.564	85.06
629.77	91.06
629.976	93.06
630.183	76.06
630.389	78.06
630.595	73.06
630.802	87.06
631.008	78.06
631.214	90.06
631.42	80.06
631.627	86.06
631.833	91.06
632.039	104.06
632.245	87.06
632.451	84.06
632.657	83.06
632.863	74.06
633.069	77.06
633.275	77.06
633.481	100.06
633.688	83.06
633.893	75.06
634.099	82.06
634.305	77.06
634.511	98.06
634.717	93.06
634.923	86.06
635.129	75.06
635.335	69.06
635.541	86.06
635.747	83.06
635.952	77.06
636.158	83.06
636.364	84.06
636.57	88.06
636.775	90.06
636.981	95.06
637.187	86.06
637.392	73.06
637.598	82.06
637.804	86.06
638.009	79.06
638.215	85.06
638.421	75.06
638.626	84.06
638.832	88.06
639.037	77.06
639.243	69.06
639.448	92.06
639.654	70.06
639.859	74.06
640.065	86.06
640.27	94.06
640.475	85.06
640.681	83.06
640.886	90.06
641.091	86.06
641.297	86.06
641.502	78.06
641.707	84.06
641.913	89.06
642.118	84.06
642.323	88.06
642.528	85.06
642.733	86.06
642.939	89.06
643.144	87.06
643.349	92.06
643.554	93.06
643.759	98.06
643.964	84.06
644.169	92.06
644.374	83.06
644.579	77.06
644.784	88.06
644.989	89.06
645.194	88.06
645.399	79.06
645.604	78.06
645.809	75.06
646.014	88.06
646.219	74.06
646.423	83.06
646.628	81.06
646.833	80.06
647.038	81.06
647.243	76.06
647.447	81.06
647.652	86.06
647.857	86.06
648.062	97.06
648.266	84.06
648.471	83.06
648.676	86.06
648.88	93.06
649.085	95.06
649.289	81.06
649.494	92.06
649.698	134.06
649.903	74.06
650.107	86.06
650.312	90.06
650.516	81.06
650.721	65.06
650.925	93.06
651.13	70.06
651.334	90.06
651.539	87.06
651.743	83.06
651.947	67.06
652.152	85.06
652.356	96.06
652.56	84.06
652.764	78.06
652.969	72.06
653.173	77.06
653.377	84.06
653.581	82.06
653.785	68.06
653.99	83.06
654.194	80.06
654.398	84.06
654.602	75.06
654.806	88.06
655.01	102.06
655.214	88.06
655.418	86.06
655.622	71.06
655.826	82.06
656.03	84.06
656.234	83.06
656.438	98.06
656.642	107.06
656.846	86.06
657.049	76.06
657.253	81.06
657.457	77.06
657.661	76.06
657.865	64.06
658.068	93.06
658.272	78.06
658.476	84.06
658.68	87.06
658.883	70.06
659.087	82.06
659.291	77.06
659.494	83.06
659.698	101.06
659.901	93.06
660.105	77.06
660.309	75.06
660.512	78.06
660.716	97.06
660.919	76.06
661.123	70.06
661.326	78.06
661.53	96.06
661.733	89.06
661.936	90.06
662.14	81.06
662.343	91.06
662.546	80.06
662.75	97.06
662.953	81.06
663.156	90.06
663.36	81.06
663.563	85.06
663.766	83.06
663.969	78.06
664.173	77.06
664.376	77.06
664.579	82.06
664.782	88.06
664.985	78.06
665.188	81.06
665.391	76.06
665.594	79.06
665.797	81.06
666	97.06
666.203	84.06
666.406	94.06
666.609	83.06
666.812	73.06
667.015	81.06
667.218	78.06
667.421	99.06
667.624	78.06
667.827	77.06
668.03	80.06
668.232	78.06
668.435	77.06
668.638	77.06
668.841	64.06
669.043	88.06
669.246	84.06
669.449	80.06
669.651	80.06
669.854	84.06
670.057	90.06
670.259	92.06
670.462	80.06
670.665	81.06
670.867	76.06
671.07	75.06
671.272	81.06
671.475	76.06
671.677	82.06
671.88	82.06
672.082	67.06
672.284	69.06
672.487	88.06
672.689	82.06
672.892	93.06
