Data from Circ_2015_H10_HRD10591_00064.txt Node
Date: Wed Jan 03 10:00:35 EST 2024
User: Yrep
Spectrometer: HR+D1059
Trigger mode: 1
Integration Time (sec): 1.000000E-1
Scans to average: 1
Electric dark correction enabled: true
Nonlinearity correction enabled: false
Boxcar width: 0
XAxis mode: Wavelengths
Number of Pixels in Spectrum: 2048
>>>>>Begin Spectral Data<<<<<
223.165	-10.88
223.4	-10.88
223.635	-10.88
223.869	-14.88
224.104	-20.88
224.338	1.12
224.573	-11.88
224.808	-16.88
225.042	-6.88
225.277	-12.88
225.511	-14.88
225.746	9.12
225.98	11.12
226.215	5.12
226.449	11.12
226.683	17.12
226.918	23.12
227.152	32.12
227.387	25.12
227.621	50.12
227.856	34.12
228.09	37.12
228.324	57.12
228.559	55.12
228.793	57.12
229.027	72.12
229.262	47.12
229.496	50.12
229.73	66.12
229.964	90.12
230.199	66.12
230.433	56.12
230.667	75.12
230.901	91.12
231.136	78.12
231.37	65.12
231.604	85.12
231.838	78.12
232.072	71.12
232.306	78.12
232.541	81.12
232.775	73.12
233.009	81.12
233.243	85.12
233.477	81.12
233.711	82.12
233.945	90.12
234.179	81.12
234.413	97.12
234.647	94.12
234.881	63.12
235.115	75.12
235.349	73.12
235.583	81.12
235.817	80.12
236.051	79.12
236.285	62.12
236.519	72.12
236.753	79.12
236.987	78.12
237.221	98.12
237.455	79.12
237.689	69.12
237.922	75.12
238.156	62.12
238.39	87.12
238.624	74.12
238.858	72.12
239.091	87.12
239.325	73.12
239.559	90.12
239.793	72.12
240.027	80.12
240.26	73.12
240.494	75.12
240.728	72.12
240.961	70.12
241.195	77.12
241.429	74.12
241.662	73.12
241.896	84.12
242.13	74.12
242.363	78.12
242.597	83.12
242.83	73.12
243.064	71.12
243.298	81.12
243.531	70.12
243.765	83.12
243.998	90.12
244.232	87.12
244.465	80.12
244.699	78.12
244.932	77.12
245.166	54.12
245.399	86.12
245.633	74.12
245.866	57.12
246.099	67.12
246.333	84.12
246.566	67.12
246.8	86.12
247.033	94.12
247.266	75.12
247.5	78.12
247.733	81.12
247.966	83.12
248.2	94.12
248.433	90.12
248.666	71.12
248.899	77.12
249.133	70.12
249.366	71.12
249.599	101.12
249.832	78.12
250.066	81.12
250.299	65.12
250.532	77.12
250.765	79.12
250.998	72.12
251.231	76.12
251.465	82.12
251.698	68.12
251.931	70.12
252.164	69.12
252.397	74.12
252.63	79.12
252.863	71.12
253.096	77.12
253.329	79.12
253.562	68.12
253.795	81.12
254.028	84.12
254.261	80.12
254.494	79.12
254.727	82.12
254.96	70.12
255.193	69.12
255.426	79.12
255.659	85.12
255.892	67.12
256.124	87.12
256.357	84.12
256.59	92.12
256.823	76.12
257.056	87.12
257.289	77.12
257.521	64.12
257.754	77.12
257.987	73.12
258.22	74.12
258.452	87.12
258.685	75.12
258.918	83.12
259.151	71.12
259.383	81.12
259.616	71.12
259.849	74.12
260.081	79.12
260.314	75.12
260.547	78.12
260.779	86.12
261.012	90.12
261.244	82.12
261.477	74.12
261.71	77.12
261.942	93.12
262.175	102.12
262.407	76.12
262.64	83.12
262.872	84.12
263.105	75.12
263.337	85.12
263.57	75.12
263.802	88.12
264.035	74.12
264.267	82.12
264.499	80.12
264.732	78.12
264.964	75.12
265.197	84.12
265.429	88.12
265.661	81.12
265.894	79.12
266.126	89.12
266.358	90.12
266.591	72.12
266.823	73.12
267.055	73.12
267.287	64.12
267.52	76.12
267.752	82.12
267.984	87.12
268.216	75.12
268.448	79.12
268.681	82.12
268.913	81.12
269.145	87.12
269.377	89.12
269.609	71.12
269.841	79.12
270.073	86.12
270.306	89.12
270.538	94.12
270.77	82.12
271.002	75.12
271.234	83.12
271.466	85.12
271.698	81.12
271.93	88.12
272.162	78.12
272.394	76.12
272.626	80.12
272.858	81.12
273.09	83.12
273.322	86.12
273.553	87.12
273.785	87.12
274.017	97.12
274.249	89.12
274.481	78.12
274.713	65.12
274.945	86.12
275.176	82.12
275.408	79.12
275.64	91.12
275.872	68.12
276.104	79.12
276.335	89.12
276.567	92.12
276.799	98.12
277.031	110.12
277.262	82.12
277.494	93.12
277.726	93.12
277.957	79.12
278.189	77.12
278.421	88.12
278.652	72.12
278.884	78.12
279.115	80.12
279.347	88.12
279.579	91.12
279.81	97.12
280.042	91.12
280.273	97.12
280.505	106.12
280.736	80.12
280.968	71.12
281.199	73.12
281.431	85.12
281.662	82.12
281.894	87.12
282.125	89.12
282.356	103.12
282.588	124.12
282.819	89.12
283.051	84.12
283.282	85.12
283.513	86.12
283.745	88.12
283.976	74.12
284.207	78.12
284.439	95.12
284.67	79.12
284.901	75.12
285.132	70.12
285.364	78.12
285.595	72.12
285.826	93.12
286.057	84.12
286.288	91.12
286.52	88.12
286.751	88.12
286.982	87.12
287.213	72.12
287.444	78.12
287.675	85.12
287.906	88.12
288.138	86.12
288.369	90.12
288.6	91.12
288.831	94.12
289.062	78.12
289.293	84.12
289.524	81.12
289.755	78.12
289.986	89.12
290.217	79.12
290.448	82.12
290.679	85.12
290.91	71.12
291.141	72.12
291.371	81.12
291.602	72.12
291.833	91.12
292.064	93.12
292.295	88.12
292.526	91.12
292.757	87.12
292.987	81.12
293.218	73.12
293.449	77.12
293.68	78.12
293.91	79.12
294.141	94.12
294.372	93.12
294.603	78.12
294.833	86.12
295.064	82.12
295.295	79.12
295.525	96.12
295.756	86.12
295.987	106.12
296.217	124.12
296.448	101.12
296.679	89.12
296.909	92.12
297.14	81.12
297.37	76.12
297.601	69.12
297.831	82.12
298.062	88.12
298.292	87.12
298.523	74.12
298.753	83.12
298.984	75.12
299.214	81.12
299.445	84.12
299.675	85.12
299.905	95.12
300.136	91.12
300.366	74.12
300.597	100.12
300.827	77.12
301.057	89.12
301.288	85.12
301.518	87.12
301.748	96.12
301.979	101.12
302.209	85.12
302.439	91.12
302.669	89.12
302.9	86.12
303.13	83.12
303.36	95.12
303.59	81.12
303.82	93.12
304.051	85.12
304.281	88.12
304.511	88.12
304.741	90.12
304.971	89.12
305.201	72.12
305.431	76.12
305.661	95.12
305.891	105.12
306.121	84.12
306.352	106.12
306.582	88.12
306.812	94.12
307.042	73.12
307.272	103.12
307.502	95.12
307.731	92.12
307.961	95.12
308.191	85.12
308.421	85.12
308.651	78.12
308.881	79.12
309.111	103.12
309.341	89.12
309.571	112.12
309.8	86.12
310.03	95.12
310.26	90.12
310.49	99.12
310.72	98.12
310.949	102.12
311.179	97.12
311.409	87.12
311.639	78.12
311.868	86.12
312.098	89.12
312.328	86.12
312.557	102.12
312.787	99.12
313.017	88.12
313.246	95.12
313.476	92.12
313.706	96.12
313.935	77.12
314.165	87.12
314.394	98.12
314.624	78.12
314.853	88.12
315.083	81.12
315.312	95.12
315.542	97.12
315.771	92.12
316.001	98.12
316.23	86.12
316.46	75.12
316.689	89.12
316.919	96.12
317.148	88.12
317.377	85.12
317.607	88.12
317.836	75.12
318.065	98.12
318.295	97.12
318.524	82.12
318.753	84.12
318.983	112.12
319.212	91.12
319.441	115.12
319.67	94.12
319.9	81.12
320.129	94.12
320.358	93.12
320.587	89.12
320.816	90.12
321.046	95.12
321.275	90.12
321.504	98.12
321.733	90.12
321.962	74.12
322.191	89.12
322.42	97.12
322.649	98.12
322.878	111.12
323.108	130.12
323.337	127.12
323.566	124.12
323.795	146.12
324.024	171.12
324.253	343.12
324.482	719.12
324.71	1501.12
324.939	2002.12
325.168	706.12
325.397	218.12
325.626	140.12
325.855	121.12
326.084	109.12
326.313	131.12
326.542	137.12
326.77	194.12
326.999	416.12
327.228	867.12
327.457	1526.12
327.686	1247.12
327.914	347.12
328.143	194.12
328.372	180.12
328.6	143.12
328.829	128.12
329.058	112.12
329.287	126.12
329.515	102.12
329.744	102.12
329.972	143.12
330.201	197.12
330.43	239.12
330.658	142.12
330.887	138.12
331.115	118.12
331.344	90.12
331.572	102.12
331.801	93.12
332.03	89.12
332.258	85.12
332.486	91.12
332.715	90.12
332.943	83.12
333.172	77.12
333.4	113.12
333.629	111.12
333.857	123.12
334.085	140.12
334.314	178.12
334.542	271.12
334.771	275.12
334.999	142.12
335.227	91.12
335.455	89.12
335.684	101.12
335.912	86.12
336.14	82.12
336.369	105.12
336.597	89.12
336.825	107.12
337.053	75.12
337.281	98.12
337.51	105.12
337.738	85.12
337.966	88.12
338.194	94.12
338.422	88.12
338.65	88.12
338.878	88.12
339.106	85.12
339.334	91.12
339.562	83.12
339.79	68.12
340.018	84.12
340.246	84.12
340.474	80.12
340.702	78.12
340.93	78.12
341.158	91.12
341.386	83.12
341.614	91.12
341.842	84.12
342.07	81.12
342.298	69.12
342.526	85.12
342.754	73.12
342.981	98.12
343.209	88.12
343.437	102.12
343.665	96.12
343.893	95.12
344.12	99.12
344.348	86.12
344.576	83.12
344.804	83.12
345.031	98.12
345.259	86.12
345.487	89.12
345.714	88.12
345.942	81.12
346.17	89.12
346.397	86.12
346.625	90.12
346.853	88.12
347.08	90.12
347.308	98.12
347.535	96.12
347.763	97.12
347.99	87.12
348.218	85.12
348.445	89.12
348.673	95.12
348.9	84.12
349.128	89.12
349.355	83.12
349.583	92.12
349.81	86.12
350.037	84.12
350.265	84.12
350.492	89.12
350.72	98.12
350.947	96.12
351.174	100.12
351.402	82.12
351.629	99.12
351.856	90.12
352.083	110.12
352.311	87.12
352.538	110.12
352.765	75.12
352.992	106.12
353.22	123.12
353.447	115.12
353.674	99.12
353.901	95.12
354.128	90.12
354.355	97.12
354.583	83.12
354.81	96.12
355.037	86.12
355.264	87.12
355.491	83.12
355.718	73.12
355.945	85.12
356.172	73.12
356.399	95.12
356.626	90.12
356.853	77.12
357.08	96.12
357.307	83.12
357.534	82.12
357.761	97.12
357.988	85.12
358.215	85.12
358.441	96.12
358.668	88.12
358.895	101.12
359.122	89.12
359.349	92.12
359.576	85.12
359.802	86.12
360.029	97.12
360.256	98.12
360.483	91.12
360.709	80.12
360.936	78.12
361.163	88.12
361.39	98.12
361.616	99.12
361.843	91.12
362.07	98.12
362.296	95.12
362.523	78.12
362.749	72.12
362.976	85.12
363.203	91.12
363.429	91.12
363.656	90.12
363.882	90.12
364.109	93.12
364.335	96.12
364.562	76.12
364.788	86.12
365.015	89.12
365.241	100.12
365.468	98.12
365.694	99.12
365.92	94.12
366.147	91.12
366.373	79.12
366.599	96.12
366.826	93.12
367.052	90.12
367.278	86.12
367.505	85.12
367.731	91.12
367.957	88.12
368.184	94.12
368.41	95.12
368.636	107.12
368.862	110.12
369.089	97.12
369.315	96.12
369.541	87.12
369.767	92.12
369.993	86.12
370.219	87.12
370.445	97.12
370.672	104.12
370.898	94.12
371.124	76.12
371.35	85.12
371.576	97.12
371.802	87.12
372.028	89.12
372.254	89.12
372.48	75.12
372.706	77.12
372.932	84.12
373.158	71.12
373.384	89.12
373.61	93.12
373.835	81.12
374.061	84.12
374.287	89.12
374.513	82.12
374.739	78.12
374.965	96.12
375.191	77.12
375.416	78.12
375.642	89.12
375.868	79.12
376.094	81.12
376.319	83.12
376.545	82.12
376.771	78.12
376.997	74.12
377.222	83.12
377.448	77.12
377.674	93.12
377.899	95.12
378.125	92.12
378.35	88.12
378.576	82.12
378.802	101.12
379.027	97.12
379.253	94.12
379.478	81.12
379.704	100.12
379.929	91.12
380.155	89.12
380.38	89.12
380.606	94.12
380.831	73.12
381.057	99.12
381.282	96.12
381.507	97.12
381.733	101.12
381.958	95.12
382.184	94.12
382.409	95.12
382.634	91.12
382.86	94.12
383.085	85.12
383.31	92.12
383.535	95.12
383.761	93.12
383.986	90.12
384.211	85.12
384.436	97.12
384.662	96.12
384.887	95.12
385.112	106.12
385.337	96.12
385.562	106.12
385.787	96.12
386.013	105.12
386.238	103.12
386.463	96.12
386.688	107.12
386.913	103.12
387.138	102.12
387.363	102.12
387.588	95.12
387.813	95.12
388.038	110.12
388.263	104.12
388.488	87.12
388.713	92.12
388.938	79.12
389.163	82.12
389.387	93.12
389.612	86.12
389.837	90.12
390.062	87.12
390.287	82.12
390.512	94.12
390.736	96.12
390.961	92.12
391.186	101.12
391.411	86.12
391.636	81.12
391.86	73.12
392.085	83.12
392.31	83.12
392.534	81.12
392.759	86.12
392.984	96.12
393.208	82.12
393.433	94.12
393.658	91.12
393.882	92.12
394.107	88.12
394.331	74.12
394.556	69.12
394.78	84.12
395.005	81.12
395.229	87.12
395.454	86.12
395.678	87.12
395.903	79.12
396.127	90.12
396.352	83.12
396.576	81.12
396.801	91.12
397.025	89.12
397.249	67.12
397.474	69.12
397.698	89.12
397.922	88.12
398.147	77.12
398.371	94.12
398.595	79.12
398.82	72.12
399.044	75.12
399.268	81.12
399.492	78.12
399.717	83.12
399.941	85.12
400.165	54.12
400.389	79.12
400.613	74.12
400.837	77.12
401.062	85.12
401.286	92.12
401.51	75.12
401.734	81.12
401.958	99.12
402.182	109.12
402.406	132.12
402.63	109.12
402.854	79.12
403.078	87.12
403.302	84.12
403.526	71.12
403.75	83.12
403.974	75.12
404.198	79.12
404.422	81.12
404.645	82.12
404.869	90.12
405.093	86.12
405.317	105.12
405.541	96.12
405.765	93.12
405.988	96.12
406.212	126.12
406.436	189.12
406.66	132.12
406.883	93.12
407.107	81.12
407.331	94.12
407.555	89.12
407.778	72.12
408.002	88.12
408.226	83.12
408.449	98.12
408.673	96.12
408.896	98.12
409.12	97.12
409.344	81.12
409.567	87.12
409.791	102.12
410.014	90.12
410.238	77.12
410.461	109.12
410.685	97.12
410.908	98.12
411.132	82.12
411.355	95.12
411.578	101.12
411.802	98.12
412.025	86.12
412.249	94.12
412.472	99.12
412.695	99.12
412.919	95.12
413.142	82.12
413.365	71.12
413.589	89.12
413.812	79.12
414.035	91.12
414.258	85.12
414.482	80.12
414.705	94.12
414.928	66.12
415.151	82.12
415.374	86.12
415.597	93.12
415.821	83.12
416.044	77.12
416.267	91.12
416.49	80.12
416.713	80.12
416.936	92.12
417.159	97.12
417.382	73.12
417.605	74.12
417.828	102.12
418.051	104.12
418.274	74.12
418.497	90.12
418.72	75.12
418.943	77.12
419.166	100.12
419.389	78.12
419.611	82.12
419.834	89.12
420.057	80.12
420.28	87.12
420.503	82.12
420.726	86.12
420.948	75.12
421.171	78.12
421.394	73.12
421.617	87.12
421.839	80.12
422.062	75.12
422.285	87.12
422.507	93.12
422.73	83.12
422.953	80.12
423.175	72.12
423.398	93.12
423.621	82.12
423.843	89.12
424.066	90.12
424.288	79.12
424.511	86.12
424.733	91.12
424.956	101.12
425.178	94.12
425.401	78.12
425.623	88.12
425.846	95.12
426.068	94.12
426.291	91.12
426.513	82.12
426.735	84.12
426.958	101.12
427.18	86.12
427.402	121.12
427.625	164.12
427.847	136.12
428.069	116.12
428.292	92.12
428.514	91.12
428.736	83.12
428.958	95.12
429.181	81.12
429.403	84.12
429.625	90.12
429.847	94.12
430.069	88.12
430.292	102.12
430.514	71.12
430.736	73.12
430.958	71.12
431.18	88.12
431.402	85.12
431.624	82.12
431.846	84.12
432.068	82.12
432.29	81.12
432.512	83.12
432.734	85.12
432.956	93.12
433.178	79.12
433.4	99.12
433.622	81.12
433.844	82.12
434.066	78.12
434.287	93.12
434.509	82.12
434.731	100.12
434.953	83.12
435.175	81.12
435.397	82.12
435.618	78.12
435.84	99.12
436.062	113.12
436.284	98.12
436.505	78.12
436.727	100.12
436.949	83.12
437.17	84.12
437.392	79.12
437.614	80.12
437.835	85.12
438.057	111.12
438.278	108.12
438.5	95.12
438.721	118.12
438.943	104.12
439.165	100.12
439.386	83.12
439.608	81.12
439.829	94.12
440.05	92.12
440.272	124.12
440.493	86.12
440.715	85.12
440.936	80.12
441.158	74.12
441.379	77.12
441.6	78.12
441.822	99.12
442.043	80.12
442.264	94.12
442.486	92.12
442.707	95.12
442.928	90.12
443.149	117.12
443.371	117.12
443.592	99.12
443.813	117.12
444.034	83.12
444.255	85.12
444.476	80.12
444.698	71.12
444.919	80.12
445.14	105.12
445.361	104.12
445.582	90.12
445.803	111.12
446.024	113.12
446.245	125.12
446.466	93.12
446.687	99.12
446.908	90.12
447.129	86.12
447.35	75.12
447.571	93.12
447.792	85.12
448.013	82.12
448.234	87.12
448.455	98.12
448.675	105.12
448.896	110.12
449.117	120.12
449.338	105.12
449.559	113.12
449.779	129.12
450	79.12
450.221	88.12
450.442	97.12
450.662	90.12
450.883	97.12
451.104	99.12
451.324	88.12
451.545	88.12
451.766	78.12
451.986	87.12
452.207	90.12
452.428	86.12
452.648	95.12
452.869	93.12
453.089	87.12
453.31	100.12
453.53	78.12
453.751	85.12
453.971	99.12
454.192	99.12
454.412	94.12
454.633	86.12
454.853	78.12
455.073	85.12
455.294	83.12
455.514	91.12
455.734	79.12
455.955	81.12
456.175	89.12
456.395	85.12
456.616	79.12
456.836	80.12
457.056	81.12
457.276	91.12
457.497	92.12
457.717	97.12
457.937	92.12
458.157	83.12
458.377	82.12
458.598	101.12
458.818	128.12
459.038	137.12
459.258	99.12
459.478	88.12
459.698	63.12
459.918	75.12
460.138	84.12
460.358	77.12
460.578	70.12
460.798	80.12
461.018	63.12
461.238	87.12
461.458	85.12
461.678	82.12
461.898	80.12
462.118	82.12
462.338	98.12
462.558	77.12
462.777	82.12
462.997	76.12
463.217	86.12
463.437	85.12
463.657	80.12
463.876	83.12
464.096	81.12
464.316	84.12
464.536	80.12
464.755	89.12
464.975	96.12
465.195	151.12
465.414	142.12
465.634	94.12
465.854	72.12
466.073	86.12
466.293	72.12
466.512	87.12
466.732	81.12
466.951	83.12
467.171	78.12
467.391	91.12
467.61	94.12
467.829	109.12
468.049	139.12
468.268	159.12
468.488	97.12
468.707	78.12
468.927	78.12
469.146	96.12
469.365	86.12
469.585	75.12
469.804	96.12
470.023	92.12
470.243	93.12
470.462	77.12
470.681	89.12
470.901	89.12
471.12	75.12
471.339	65.12
471.558	99.12
471.777	80.12
471.997	116.12
472.216	203.12
472.435	353.12
472.654	129.12
472.873	97.12
473.092	78.12
473.311	91.12
473.53	97.12
473.749	79.12
473.968	89.12
474.187	100.12
474.406	90.12
474.625	84.12
474.844	94.12
475.063	80.12
475.282	81.12
475.501	83.12
475.72	95.12
475.939	80.12
476.158	104.12
476.377	78.12
476.596	85.12
476.814	95.12
477.033	89.12
477.252	88.12
477.471	90.12
477.69	94.12
477.908	79.12
478.127	104.12
478.346	83.12
478.564	89.12
478.783	100.12
479.002	87.12
479.22	80.12
479.439	101.12
479.658	85.12
479.876	89.12
480.095	81.12
480.313	77.12
480.532	108.12
480.751	99.12
480.969	214.12
481.188	625.12
481.406	394.12
481.624	127.12
481.843	89.12
482.061	84.12
482.28	88.12
482.498	81.12
482.717	102.12
482.935	78.12
483.153	87.12
483.372	85.12
483.59	80.12
483.808	90.12
484.027	78.12
484.245	74.12
484.463	93.12
484.681	93.12
484.9	81.12
485.118	88.12
485.336	104.12
485.554	113.12
485.772	103.12
485.99	99.12
486.209	111.12
486.427	107.12
486.645	106.12
486.863	109.12
487.081	96.12
487.299	98.12
487.517	87.12
487.735	100.12
487.953	92.12
488.171	81.12
488.389	86.12
488.607	91.12
488.825	90.12
489.043	85.12
489.261	74.12
489.479	82.12
489.696	93.12
489.914	88.12
490.132	74.12
490.35	94.12
490.568	67.12
490.786	81.12
491.003	78.12
491.221	82.12
491.439	94.12
491.657	97.12
491.874	83.12
492.092	93.12
492.31	82.12
492.527	83.12
492.745	93.12
492.963	79.12
493.18	75.12
493.398	94.12
493.615	88.12
493.833	83.12
494.05	79.12
494.268	87.12
494.485	92.12
494.703	90.12
494.92	87.12
495.138	84.12
495.355	88.12
495.573	100.12
495.79	88.12
496.008	83.12
496.225	74.12
496.442	78.12
496.66	80.12
496.877	91.12
497.094	93.12
497.312	86.12
497.529	90.12
497.746	104.12
497.963	94.12
498.181	75.12
498.398	82.12
498.615	100.12
498.832	96.12
499.049	87.12
499.267	79.12
499.484	88.12
499.701	94.12
499.918	95.12
500.135	86.12
500.352	93.12
500.569	82.12
500.786	106.12
501.003	96.12
501.22	95.12
501.437	89.12
501.654	88.12
501.871	93.12
502.088	81.12
502.305	85.12
502.522	83.12
502.739	89.12
502.956	92.12
503.172	83.12
503.389	90.12
503.606	91.12
503.823	109.12
504.04	74.12
504.256	75.12
504.473	83.12
504.69	95.12
504.907	82.12
505.123	89.12
505.34	87.12
505.557	84.12
505.773	101.12
505.99	67.12
506.207	89.12
506.423	85.12
506.64	92.12
506.856	95.12
507.073	101.12
507.289	76.12
507.506	79.12
507.722	88.12
507.939	105.12
508.155	86.12
508.372	98.12
508.588	81.12
508.805	85.12
509.021	91.12
509.238	94.12
509.454	89.12
509.67	89.12
509.887	91.12
510.103	111.12
510.319	189.12
510.536	613.12
510.752	2027.12
510.968	617.12
511.184	145.12
511.401	95.12
511.617	93.12
511.833	86.12
512.049	89.12
512.265	72.12
512.481	91.12
512.698	83.12
512.914	88.12
513.13	78.12
513.346	80.12
513.562	89.12
513.778	84.12
513.994	93.12
514.21	96.12
514.426	107.12
514.642	118.12
514.858	125.12
515.074	133.12
515.29	338.12
515.506	1155.12
515.721	470.12
515.937	143.12
516.153	110.12
516.369	97.12
516.585	104.12
516.801	92.12
517.016	98.12
517.232	97.12
517.448	95.12
517.664	78.12
517.879	82.12
518.095	91.12
518.311	86.12
518.527	102.12
518.742	91.12
518.958	87.12
519.173	86.12
519.389	101.12
519.605	93.12
519.82	86.12
520.036	104.12
520.251	104.12
520.467	104.12
520.682	102.12
520.898	99.12
521.113	102.12
521.329	130.12
521.544	163.12
521.76	412.12
521.975	1883.12
522.19	1167.12
522.406	258.12
522.621	123.12
522.836	85.12
523.052	96.12
523.267	85.12
523.482	86.12
523.698	97.12
523.913	104.12
524.128	94.12
524.343	91.12
524.559	82.12
524.774	86.12
524.989	86.12
525.204	90.12
525.419	86.12
525.634	85.12
525.849	75.12
526.064	95.12
526.28	82.12
526.495	90.12
526.71	100.12
526.925	84.12
527.14	83.12
527.355	90.12
527.57	90.12
527.785	74.12
527.999	82.12
528.214	92.12
528.429	106.12
528.644	87.12
528.859	104.12
529.074	98.12
529.289	114.12
529.503	157.12
529.718	100.12
529.933	78.12
530.148	90.12
530.363	90.12
530.577	82.12
530.792	102.12
531.007	81.12
531.221	91.12
531.436	82.12
531.651	81.12
531.865	82.12
532.08	86.12
532.295	90.12
532.509	83.12
532.724	75.12
532.938	94.12
533.153	99.12
533.367	87.12
533.582	79.12
533.796	84.12
534.011	80.12
534.225	87.12
534.44	86.12
534.654	90.12
534.868	86.12
535.083	85.12
535.297	89.12
535.511	98.12
535.726	105.12
535.94	87.12
536.154	98.12
536.369	96.12
536.583	89.12
536.797	96.12
537.011	91.12
537.225	82.12
537.44	88.12
537.654	78.12
537.868	75.12
538.082	74.12
538.296	71.12
538.51	83.12
538.724	86.12
538.938	92.12
539.153	85.12
539.367	105.12
539.581	88.12
539.795	85.12
540.009	78.12
540.222	96.12
540.436	89.12
540.65	74.12
540.864	96.12
541.078	93.12
541.292	90.12
541.506	102.12
541.72	78.12
541.934	84.12
542.147	80.12
542.361	77.12
542.575	82.12
542.789	87.12
543.002	92.12
543.216	85.12
543.43	83.12
543.644	78.12
543.857	85.12
544.071	89.12
544.285	97.12
544.498	100.12
544.712	81.12
544.925	83.12
545.139	83.12
545.352	83.12
545.566	83.12
545.779	82.12
545.993	85.12
546.206	95.12
546.42	99.12
546.633	88.12
546.847	102.12
547.06	88.12
547.274	78.12
547.487	81.12
547.7	70.12
547.914	84.12
548.127	86.12
548.34	89.12
548.554	78.12
548.767	80.12
548.98	91.12
549.193	88.12
549.407	76.12
549.62	78.12
549.833	72.12
550.046	84.12
550.259	91.12
550.473	88.12
550.686	82.12
550.899	87.12
551.112	90.12
551.325	88.12
551.538	94.12
551.751	73.12
551.964	89.12
552.177	76.12
552.39	86.12
552.603	91.12
552.816	92.12
553.029	90.12
553.242	99.12
553.455	109.12
553.667	90.12
553.88	90.12
554.093	85.12
554.306	85.12
554.519	94.12
554.732	88.12
554.944	85.12
555.157	93.12
555.37	67.12
555.583	95.12
555.795	98.12
556.008	91.12
556.221	82.12
556.433	83.12
556.646	79.12
556.859	79.12
557.071	77.12
557.284	95.12
557.496	97.12
557.709	78.12
557.921	64.12
558.134	93.12
558.346	95.12
558.559	81.12
558.771	83.12
558.984	84.12
559.196	72.12
559.409	77.12
559.621	81.12
559.833	82.12
560.046	90.12
560.258	81.12
560.47	95.12
560.683	88.12
560.895	89.12
561.107	78.12
561.32	97.12
561.532	74.12
561.744	101.12
561.956	102.12
562.168	72.12
562.381	92.12
562.593	76.12
562.805	89.12
563.017	75.12
563.229	95.12
563.441	80.12
563.653	91.12
563.865	97.12
564.077	94.12
564.289	102.12
564.501	86.12
564.713	85.12
564.925	85.12
565.137	99.12
565.349	90.12
565.561	84.12
565.773	80.12
565.985	104.12
566.197	88.12
566.408	83.12
566.62	91.12
566.832	85.12
567.044	79.12
567.255	80.12
567.467	78.12
567.679	83.12
567.891	81.12
568.102	89.12
568.314	102.12
568.526	74.12
568.737	90.12
568.949	79.12
569.161	86.12
569.372	82.12
569.584	81.12
569.795	97.12
570.007	86.12
570.218	211.12
570.43	131.12
570.641	89.12
570.853	88.12
571.064	74.12
571.276	86.12
571.487	94.12
571.698	86.12
571.91	78.12
572.121	79.12
572.333	103.12
572.544	86.12
572.755	76.12
572.966	90.12
573.178	94.12
573.389	87.12
573.6	92.12
573.811	79.12
574.023	80.12
574.234	87.12
574.445	82.12
574.656	76.12
574.867	79.12
575.078	84.12
575.289	100.12
575.501	95.12
575.712	77.12
575.923	74.12
576.134	84.12
576.345	93.12
576.556	88.12
576.767	93.12
576.978	88.12
577.188	95.12
577.399	93.12
577.61	99.12
577.821	83.12
578.032	105.12
578.243	230.12
578.454	617.12
578.665	196.12
578.875	88.12
579.086	90.12
579.297	87.12
579.508	85.12
579.718	84.12
579.929	87.12
580.14	95.12
580.35	82.12
580.561	77.12
580.772	71.12
580.982	78.12
581.193	85.12
581.403	88.12
581.614	98.12
581.825	87.12
582.035	82.12
582.246	94.12
582.456	80.12
582.667	89.12
582.877	74.12
583.087	79.12
583.298	85.12
583.508	79.12
583.719	67.12
583.929	88.12
584.139	71.12
584.35	93.12
584.56	89.12
584.77	79.12
584.981	83.12
585.191	75.12
585.401	76.12
585.611	88.12
585.821	83.12
586.032	83.12
586.242	82.12
586.452	74.12
586.662	72.12
586.872	78.12
587.082	77.12
587.292	79.12
587.502	72.12
587.713	86.12
587.923	93.12
588.133	87.12
588.343	92.12
588.553	68.12
588.762	67.12
588.972	88.12
589.182	103.12
589.392	90.12
589.602	96.12
589.812	96.12
590.022	89.12
590.232	98.12
590.441	95.12
590.651	80.12
590.861	85.12
591.071	86.12
591.281	78.12
591.49	64.12
591.7	80.12
591.91	83.12
592.119	73.12
592.329	97.12
592.539	92.12
592.748	84.12
592.958	91.12
593.167	81.12
593.377	78.12
593.587	84.12
593.796	79.12
594.006	79.12
594.215	95.12
594.424	85.12
594.634	86.12
594.843	84.12
595.053	81.12
595.262	81.12
595.472	83.12
595.681	81.12
595.89	78.12
596.1	89.12
596.309	82.12
596.518	79.12
596.727	87.12
596.937	78.12
597.146	90.12
597.355	82.12
597.564	84.12
597.774	87.12
597.983	88.12
598.192	78.12
598.401	72.12
598.61	85.12
598.819	84.12
599.028	65.12
599.237	75.12
599.446	85.12
599.655	86.12
599.864	79.12
600.073	91.12
600.282	94.12
600.491	98.12
600.7	81.12
600.909	82.12
601.118	78.12
601.327	75.12
601.536	84.12
601.745	81.12
601.953	69.12
602.162	86.12
602.371	88.12
602.58	85.12
602.789	70.12
602.997	89.12
603.206	90.12
603.415	78.12
603.623	93.12
603.832	98.12
604.041	85.12
604.249	77.12
604.458	70.12
604.666	84.12
604.875	81.12
605.084	76.12
605.292	87.12
605.501	84.12
605.709	71.12
605.918	86.12
606.126	73.12
606.334	72.12
606.543	82.12
606.751	88.12
606.96	88.12
607.168	80.12
607.376	86.12
607.585	96.12
607.793	80.12
608.001	74.12
608.21	97.12
608.418	79.12
608.626	85.12
608.834	88.12
609.043	74.12
609.251	66.12
609.459	72.12
609.667	86.12
609.875	77.12
610.083	79.12
610.291	94.12
610.499	81.12
610.707	78.12
610.916	97.12
611.124	82.12
611.332	78.12
611.54	79.12
611.748	92.12
611.955	76.12
612.163	96.12
612.371	84.12
612.579	82.12
612.787	97.12
612.995	90.12
613.203	84.12
613.411	91.12
613.618	77.12
613.826	86.12
614.034	97.12
614.242	89.12
614.449	81.12
614.657	72.12
614.865	83.12
615.072	86.12
615.28	82.12
615.488	85.12
615.695	87.12
615.903	83.12
616.111	86.12
616.318	86.12
616.526	91.12
616.733	85.12
616.941	87.12
617.148	91.12
617.356	78.12
617.563	85.12
617.771	92.12
617.978	74.12
618.185	77.12
618.393	89.12
618.6	82.12
618.807	69.12
619.015	71.12
619.222	82.12
619.429	89.12
619.637	75.12
619.844	75.12
620.051	90.12
620.258	83.12
620.466	85.12
620.673	64.12
620.88	69.12
621.087	77.12
621.294	81.12
621.501	76.12
621.708	76.12
621.915	86.12
622.122	70.12
622.329	67.12
622.536	93.12
622.743	85.12
622.95	72.12
623.157	99.12
623.364	87.12
623.571	91.12
623.778	65.12
623.985	58.12
624.192	75.12
624.399	94.12
624.606	83.12
624.812	67.12
625.019	102.12
625.226	79.12
625.433	75.12
625.639	71.12
625.846	86.12
626.053	84.12
626.259	67.12
626.466	85.12
626.673	82.12
626.879	94.12
627.086	72.12
627.293	84.12
627.499	89.12
627.706	82.12
627.912	74.12
628.119	74.12
628.325	74.12
628.532	86.12
628.738	70.12
628.945	85.12
629.151	80.12
629.357	71.12
629.564	79.12
629.77	87.12
629.976	88.12
630.183	72.12
630.389	94.12
630.595	84.12
630.802	88.12
631.008	81.12
631.214	87.12
631.42	76.12
631.627	91.12
631.833	88.12
632.039	73.12
632.245	72.12
632.451	70.12
632.657	86.12
632.863	84.12
633.069	87.12
633.275	68.12
633.481	75.12
633.688	79.12
633.893	85.12
634.099	74.12
634.305	86.12
634.511	91.12
634.717	96.12
634.923	82.12
635.129	79.12
635.335	79.12
635.541	85.12
635.747	66.12
635.952	83.12
636.158	74.12
636.364	105.12
636.57	105.12
636.775	89.12
636.981	83.12
637.187	86.12
637.392	95.12
637.598	71.12
637.804	75.12
638.009	72.12
638.215	75.12
638.421	79.12
638.626	82.12
638.832	87.12
639.037	89.12
639.243	83.12
639.448	82.12
639.654	74.12
639.859	71.12
640.065	91.12
640.27	90.12
640.475	94.12
640.681	76.12
640.886	87.12
641.091	75.12
641.297	75.12
641.502	89.12
641.707	85.12
641.913	101.12
642.118	79.12
642.323	86.12
642.528	91.12
642.733	93.12
642.939	85.12
643.144	74.12
643.349	70.12
643.554	71.12
643.759	83.12
643.964	82.12
644.169	77.12
644.374	86.12
644.579	85.12
644.784	75.12
644.989	85.12
645.194	61.12
645.399	83.12
645.604	85.12
645.809	82.12
646.014	82.12
646.219	75.12
646.423	90.12
646.628	70.12
646.833	92.12
647.038	83.12
647.243	85.12
647.447	68.12
647.652	74.12
647.857	77.12
648.062	73.12
648.266	79.12
648.471	88.12
648.676	74.12
648.88	94.12
649.085	79.12
649.289	89.12
649.494	109.12
649.698	117.12
649.903	87.12
650.107	97.12
650.312	82.12
650.516	70.12
650.721	84.12
650.925	95.12
651.13	90.12
651.334	86.12
651.539	76.12
651.743	91.12
651.947	73.12
652.152	72.12
652.356	74.12
652.56	83.12
652.764	83.12
652.969	82.12
653.173	77.12
653.377	80.12
653.581	73.12
653.785	75.12
653.99	83.12
654.194	82.12
654.398	69.12
654.602	83.12
654.806	93.12
655.01	90.12
655.214	91.12
655.418	80.12
655.622	76.12
655.826	82.12
656.03	75.12
656.234	98.12
656.438	94.12
656.642	81.12
656.846	78.12
657.049	75.12
657.253	86.12
657.457	63.12
657.661	87.12
657.865	75.12
658.068	83.12
658.272	94.12
658.476	73.12
658.68	83.12
658.883	78.12
659.087	75.12
659.291	82.12
659.494	80.12
659.698	67.12
659.901	82.12
660.105	85.12
660.309	80.12
660.512	83.12
660.716	66.12
660.919	70.12
661.123	83.12
661.326	73.12
661.53	88.12
661.733	77.12
661.936	77.12
662.14	85.12
662.343	66.12
662.546	69.12
662.75	78.12
662.953	82.12
663.156	81.12
663.36	76.12
663.563	74.12
663.766	72.12
663.969	77.12
664.173	74.12
664.376	74.12
664.579	83.12
664.782	74.12
664.985	74.12
665.188	60.12
665.391	81.12
665.594	82.12
665.797	74.12
666	67.12
666.203	75.12
666.406	72.12
666.609	78.12
666.812	71.12
667.015	84.12
667.218	79.12
667.421	65.12
667.624	82.12
667.827	96.12
668.03	78.12
668.232	75.12
668.435	65.12
668.638	66.12
668.841	71.12
669.043	78.12
669.246	76.12
669.449	75.12
669.651	70.12
669.854	83.12
670.057	76.12
670.259	79.12
670.462	71.12
670.665	79.12
670.867	87.12
671.07	75.12
671.272	69.12
671.475	82.12
671.677	63.12
671.88	74.12
672.082	74.12
672.284	82.12
672.487	73.12
672.689	82.12
672.892	87.12
