Data from Circ_2015_H10_HRD10591_00056.txt Node
Date: Wed Jan 03 10:00:34 EST 2024
User: Yrep
Spectrometer: HR+D1059
Trigger mode: 1
Integration Time (sec): 1.000000E-1
Scans to average: 1
Electric dark correction enabled: true
Nonlinearity correction enabled: false
Boxcar width: 0
XAxis mode: Wavelengths
Number of Pixels in Spectrum: 2048
>>>>>Begin Spectral Data<<<<<
223.165	-20.12
223.4	-20.12
223.635	-20.12
223.869	-10.12
224.104	-27.12
224.338	5.88
224.573	-3.12
224.808	-10.12
225.042	-3.12
225.277	-4.12
225.511	-8.12
225.746	1.88
225.98	8.88
226.215	-0.12
226.449	5.88
226.683	20.88
226.918	20.88
227.152	21.88
227.387	7.88
227.621	45.88
227.856	53.88
228.09	50.88
228.324	43.88
228.559	64.88
228.793	53.88
229.027	66.88
229.262	76.88
229.496	74.88
229.73	77.88
229.964	90.88
230.199	74.88
230.433	74.88
230.667	70.88
230.901	83.88
231.136	76.88
231.37	77.88
231.604	85.88
231.838	78.88
232.072	80.88
232.306	83.88
232.541	75.88
232.775	98.88
233.009	83.88
233.243	87.88
233.477	77.88
233.711	77.88
233.945	85.88
234.179	91.88
234.413	72.88
234.647	78.88
234.881	75.88
235.115	78.88
235.349	84.88
235.583	78.88
235.817	75.88
236.051	70.88
236.285	76.88
236.519	88.88
236.753	84.88
236.987	80.88
237.221	98.88
237.455	89.88
237.689	75.88
237.922	59.88
238.156	70.88
238.39	63.88
238.624	83.88
238.858	78.88
239.091	84.88
239.325	89.88
239.559	68.88
239.793	87.88
240.027	85.88
240.26	87.88
240.494	71.88
240.728	74.88
240.961	74.88
241.195	74.88
241.429	51.88
241.662	76.88
241.896	89.88
242.13	82.88
242.363	68.88
242.597	77.88
242.83	76.88
243.064	81.88
243.298	79.88
243.531	68.88
243.765	87.88
243.998	89.88
244.232	79.88
244.465	71.88
244.699	85.88
244.932	71.88
245.166	82.88
245.399	87.88
245.633	85.88
245.866	75.88
246.099	76.88
246.333	83.88
246.566	63.88
246.8	70.88
247.033	67.88
247.266	93.88
247.5	85.88
247.733	78.88
247.966	75.88
248.2	78.88
248.433	74.88
248.666	73.88
248.899	95.88
249.133	71.88
249.366	97.88
249.599	91.88
249.832	73.88
250.066	100.88
250.299	91.88
250.532	81.88
250.765	66.88
250.998	83.88
251.231	72.88
251.465	76.88
251.698	90.88
251.931	72.88
252.164	90.88
252.397	85.88
252.63	73.88
252.863	68.88
253.096	83.88
253.329	89.88
253.562	80.88
253.795	80.88
254.028	83.88
254.261	94.88
254.494	80.88
254.727	85.88
254.96	81.88
255.193	88.88
255.426	88.88
255.659	82.88
255.892	87.88
256.124	76.88
256.357	76.88
256.59	78.88
256.823	69.88
257.056	76.88
257.289	83.88
257.521	77.88
257.754	63.88
257.987	86.88
258.22	78.88
258.452	85.88
258.685	77.88
258.918	77.88
259.151	73.88
259.383	85.88
259.616	89.88
259.849	83.88
260.081	85.88
260.314	90.88
260.547	84.88
260.779	80.88
261.012	89.88
261.244	73.88
261.477	102.88
261.71	97.88
261.942	104.88
262.175	112.88
262.407	86.88
262.64	77.88
262.872	90.88
263.105	75.88
263.337	86.88
263.57	88.88
263.802	92.88
264.035	83.88
264.267	83.88
264.499	87.88
264.732	87.88
264.964	81.88
265.197	86.88
265.429	88.88
265.661	91.88
265.894	81.88
266.126	78.88
266.358	79.88
266.591	70.88
266.823	83.88
267.055	87.88
267.287	78.88
267.52	78.88
267.752	69.88
267.984	82.88
268.216	75.88
268.448	79.88
268.681	84.88
268.913	80.88
269.145	86.88
269.377	88.88
269.609	87.88
269.841	69.88
270.073	78.88
270.306	84.88
270.538	78.88
270.77	87.88
271.002	86.88
271.234	77.88
271.466	85.88
271.698	89.88
271.93	65.88
272.162	94.88
272.394	82.88
272.626	91.88
272.858	85.88
273.09	94.88
273.322	91.88
273.553	97.88
273.785	81.88
274.017	81.88
274.249	72.88
274.481	90.88
274.713	82.88
274.945	80.88
275.176	88.88
275.408	91.88
275.64	83.88
275.872	89.88
276.104	79.88
276.335	97.88
276.567	93.88
276.799	113.88
277.031	102.88
277.262	100.88
277.494	96.88
277.726	86.88
277.957	87.88
278.189	77.88
278.421	88.88
278.652	74.88
278.884	90.88
279.115	85.88
279.347	88.88
279.579	82.88
279.81	73.88
280.042	101.88
280.273	93.88
280.505	93.88
280.736	96.88
280.968	81.88
281.199	86.88
281.431	97.88
281.662	87.88
281.894	88.88
282.125	99.88
282.356	119.88
282.588	136.88
282.819	114.88
283.051	86.88
283.282	93.88
283.513	89.88
283.745	87.88
283.976	90.88
284.207	74.88
284.439	78.88
284.67	82.88
284.901	77.88
285.132	83.88
285.364	80.88
285.595	90.88
285.826	89.88
286.057	91.88
286.288	73.88
286.52	96.88
286.751	99.88
286.982	100.88
287.213	66.88
287.444	84.88
287.675	91.88
287.906	100.88
288.138	78.88
288.369	79.88
288.6	101.88
288.831	76.88
289.062	85.88
289.293	83.88
289.524	89.88
289.755	80.88
289.986	74.88
290.217	85.88
290.448	85.88
290.679	98.88
290.91	90.88
291.141	91.88
291.371	89.88
291.602	86.88
291.833	89.88
292.064	101.88
292.295	74.88
292.526	88.88
292.757	84.88
292.987	94.88
293.218	85.88
293.449	82.88
293.68	84.88
293.91	92.88
294.141	79.88
294.372	81.88
294.603	86.88
294.833	95.88
295.064	82.88
295.295	89.88
295.525	92.88
295.756	75.88
295.987	95.88
296.217	130.88
296.448	101.88
296.679	84.88
296.909	92.88
297.14	92.88
297.37	87.88
297.601	90.88
297.831	83.88
298.062	78.88
298.292	99.88
298.523	99.88
298.753	98.88
298.984	93.88
299.214	95.88
299.445	91.88
299.675	97.88
299.905	78.88
300.136	93.88
300.366	94.88
300.597	85.88
300.827	86.88
301.057	105.88
301.288	111.88
301.518	100.88
301.748	81.88
301.979	78.88
302.209	94.88
302.439	97.88
302.669	86.88
302.9	96.88
303.13	87.88
303.36	94.88
303.59	93.88
303.82	98.88
304.051	92.88
304.281	108.88
304.511	91.88
304.741	71.88
304.971	90.88
305.201	89.88
305.431	78.88
305.661	93.88
305.891	82.88
306.121	108.88
306.352	92.88
306.582	92.88
306.812	92.88
307.042	97.88
307.272	108.88
307.502	110.88
307.731	94.88
307.961	102.88
308.191	104.88
308.421	75.88
308.651	106.88
308.881	99.88
309.111	102.88
309.341	99.88
309.571	100.88
309.8	96.88
310.03	89.88
310.26	87.88
310.49	83.88
310.72	98.88
310.949	105.88
311.179	96.88
311.409	91.88
311.639	84.88
311.868	103.88
312.098	96.88
312.328	95.88
312.557	103.88
312.787	112.88
313.017	95.88
313.246	81.88
313.476	83.88
313.706	77.88
313.935	104.88
314.165	95.88
314.394	101.88
314.624	98.88
314.853	102.88
315.083	100.88
315.312	106.88
315.542	93.88
315.771	101.88
316.001	79.88
316.23	98.88
316.46	113.88
316.689	95.88
316.919	93.88
317.148	113.88
317.377	77.88
317.607	101.88
317.836	69.88
318.065	75.88
318.295	92.88
318.524	93.88
318.753	98.88
318.983	93.88
319.212	99.88
319.441	101.88
319.67	105.88
319.9	79.88
320.129	77.88
320.358	93.88
320.587	100.88
320.816	90.88
321.046	94.88
321.275	113.88
321.504	95.88
321.733	87.88
321.962	92.88
322.191	106.88
322.42	95.88
322.649	101.88
322.878	107.88
323.108	129.88
323.337	116.88
323.566	149.88
323.795	155.88
324.024	199.88
324.253	349.88
324.482	729.88
324.71	1497.88
324.939	1980.88
325.168	739.88
325.397	226.88
325.626	140.88
325.855	132.88
326.084	124.88
326.313	131.88
326.542	133.88
326.77	211.88
326.999	426.88
327.228	829.88
327.457	1521.88
327.686	1225.88
327.914	347.88
328.143	194.88
328.372	173.88
328.6	139.88
328.829	124.88
329.058	135.88
329.287	108.88
329.515	97.88
329.744	125.88
329.972	141.88
330.201	170.88
330.43	216.88
330.658	161.88
330.887	126.88
331.115	120.88
331.344	90.88
331.572	108.88
331.801	109.88
332.03	100.88
332.258	94.88
332.486	102.88
332.715	83.88
332.943	98.88
333.172	103.88
333.4	107.88
333.629	113.88
333.857	129.88
334.085	136.88
334.314	170.88
334.542	268.88
334.771	254.88
334.999	125.88
335.227	117.88
335.455	99.88
335.684	97.88
335.912	113.88
336.14	89.88
336.369	87.88
336.597	92.88
336.825	98.88
337.053	85.88
337.281	87.88
337.51	102.88
337.738	92.88
337.966	83.88
338.194	89.88
338.422	87.88
338.65	91.88
338.878	88.88
339.106	80.88
339.334	97.88
339.562	91.88
339.79	90.88
340.018	74.88
340.246	91.88
340.474	88.88
340.702	78.88
340.93	92.88
341.158	93.88
341.386	92.88
341.614	84.88
341.842	102.88
342.07	94.88
342.298	91.88
342.526	82.88
342.754	90.88
342.981	94.88
343.209	97.88
343.437	92.88
343.665	79.88
343.893	97.88
344.12	91.88
344.348	85.88
344.576	84.88
344.804	89.88
345.031	92.88
345.259	95.88
345.487	82.88
345.714	87.88
345.942	96.88
346.17	96.88
346.397	93.88
346.625	100.88
346.853	96.88
347.08	87.88
347.308	86.88
347.535	85.88
347.763	93.88
347.99	99.88
348.218	94.88
348.445	101.88
348.673	96.88
348.9	96.88
349.128	93.88
349.355	97.88
349.583	92.88
349.81	86.88
350.037	92.88
350.265	97.88
350.492	103.88
350.72	92.88
350.947	105.88
351.174	88.88
351.402	104.88
351.629	111.88
351.856	102.88
352.083	100.88
352.311	106.88
352.538	111.88
352.765	107.88
352.992	108.88
353.22	102.88
353.447	103.88
353.674	109.88
353.901	105.88
354.128	97.88
354.355	105.88
354.583	99.88
354.81	105.88
355.037	80.88
355.264	89.88
355.491	99.88
355.718	88.88
355.945	101.88
356.172	87.88
356.399	91.88
356.626	87.88
356.853	87.88
357.08	96.88
357.307	90.88
357.534	94.88
357.761	98.88
357.988	107.88
358.215	81.88
358.441	100.88
358.668	97.88
358.895	83.88
359.122	99.88
359.349	92.88
359.576	87.88
359.802	91.88
360.029	113.88
360.256	92.88
360.483	94.88
360.709	87.88
360.936	99.88
361.163	114.88
361.39	106.88
361.616	102.88
361.843	90.88
362.07	101.88
362.296	109.88
362.523	102.88
362.749	92.88
362.976	88.88
363.203	85.88
363.429	91.88
363.656	80.88
363.882	82.88
364.109	98.88
364.335	102.88
364.562	97.88
364.788	101.88
365.015	94.88
365.241	90.88
365.468	94.88
365.694	107.88
365.92	92.88
366.147	93.88
366.373	99.88
366.599	86.88
366.826	87.88
367.052	80.88
367.278	99.88
367.505	90.88
367.731	92.88
367.957	98.88
368.184	90.88
368.41	97.88
368.636	100.88
368.862	120.88
369.089	98.88
369.315	89.88
369.541	92.88
369.767	91.88
369.993	96.88
370.219	89.88
370.445	87.88
370.672	72.88
370.898	88.88
371.124	94.88
371.35	85.88
371.576	83.88
371.802	81.88
372.028	90.88
372.254	87.88
372.48	87.88
372.706	71.88
372.932	79.88
373.158	91.88
373.384	93.88
373.61	98.88
373.835	98.88
374.061	86.88
374.287	85.88
374.513	78.88
374.739	97.88
374.965	79.88
375.191	86.88
375.416	98.88
375.642	101.88
375.868	86.88
376.094	95.88
376.319	96.88
376.545	91.88
376.771	82.88
376.997	92.88
377.222	91.88
377.448	98.88
377.674	106.88
377.899	74.88
378.125	101.88
378.35	97.88
378.576	90.88
378.802	86.88
379.027	90.88
379.253	77.88
379.478	89.88
379.704	106.88
379.929	91.88
380.155	93.88
380.38	89.88
380.606	87.88
380.831	102.88
381.057	84.88
381.282	88.88
381.507	103.88
381.733	94.88
381.958	92.88
382.184	93.88
382.409	89.88
382.634	99.88
382.86	96.88
383.085	79.88
383.31	105.88
383.535	98.88
383.761	89.88
383.986	72.88
384.211	94.88
384.436	101.88
384.662	100.88
384.887	92.88
385.112	97.88
385.337	102.88
385.562	97.88
385.787	101.88
386.013	99.88
386.238	117.88
386.463	115.88
386.688	108.88
386.913	97.88
387.138	108.88
387.363	104.88
387.588	104.88
387.813	106.88
388.038	94.88
388.263	118.88
388.488	106.88
388.713	102.88
388.938	106.88
389.163	94.88
389.387	102.88
389.612	90.88
389.837	93.88
390.062	96.88
390.287	98.88
390.512	84.88
390.736	88.88
390.961	92.88
391.186	108.88
391.411	92.88
391.636	94.88
391.86	91.88
392.085	91.88
392.31	78.88
392.534	79.88
392.759	105.88
392.984	93.88
393.208	73.88
393.433	95.88
393.658	84.88
393.882	82.88
394.107	86.88
394.331	86.88
394.556	96.88
394.78	90.88
395.005	77.88
395.229	70.88
395.454	82.88
395.678	77.88
395.903	79.88
396.127	87.88
396.352	82.88
396.576	80.88
396.801	98.88
397.025	94.88
397.249	103.88
397.474	90.88
397.698	83.88
397.922	98.88
398.147	88.88
398.371	89.88
398.595	89.88
398.82	97.88
399.044	94.88
399.268	79.88
399.492	76.88
399.717	97.88
399.941	97.88
400.165	85.88
400.389	96.88
400.613	90.88
400.837	80.88
401.062	106.88
401.286	99.88
401.51	93.88
401.734	84.88
401.958	102.88
402.182	134.88
402.406	159.88
402.63	109.88
402.854	88.88
403.078	103.88
403.302	88.88
403.526	81.88
403.75	82.88
403.974	94.88
404.198	76.88
404.422	100.88
404.645	82.88
404.869	87.88
405.093	92.88
405.317	98.88
405.541	88.88
405.765	95.88
405.988	122.88
406.212	152.88
406.436	206.88
406.66	134.88
406.883	98.88
407.107	93.88
407.331	95.88
407.555	78.88
407.778	102.88
408.002	97.88
408.226	99.88
408.449	93.88
408.673	87.88
408.896	84.88
409.12	86.88
409.344	94.88
409.567	83.88
409.791	85.88
410.014	98.88
410.238	94.88
410.461	94.88
410.685	93.88
410.908	94.88
411.132	108.88
411.355	102.88
411.578	74.88
411.802	83.88
412.025	85.88
412.249	84.88
412.472	97.88
412.695	95.88
412.919	95.88
413.142	84.88
413.365	84.88
413.589	86.88
413.812	71.88
414.035	93.88
414.258	96.88
414.482	94.88
414.705	93.88
414.928	93.88
415.151	89.88
415.374	74.88
415.597	92.88
415.821	94.88
416.044	96.88
416.267	102.88
416.49	82.88
416.713	95.88
416.936	88.88
417.159	78.88
417.382	86.88
417.605	98.88
417.828	87.88
418.051	106.88
418.274	83.88
418.497	83.88
418.72	98.88
418.943	99.88
419.166	97.88
419.389	98.88
419.611	101.88
419.834	101.88
420.057	93.88
420.28	91.88
420.503	100.88
420.726	84.88
420.948	79.88
421.171	84.88
421.394	83.88
421.617	93.88
421.839	79.88
422.062	90.88
422.285	98.88
422.507	114.88
422.73	89.88
422.953	81.88
423.175	99.88
423.398	98.88
423.621	86.88
423.843	88.88
424.066	79.88
424.288	93.88
424.511	85.88
424.733	95.88
424.956	115.88
425.178	87.88
425.401	102.88
425.623	111.88
425.846	90.88
426.068	90.88
426.291	92.88
426.513	93.88
426.735	81.88
426.958	85.88
427.18	110.88
427.402	127.88
427.625	143.88
427.847	145.88
428.069	97.88
428.292	113.88
428.514	85.88
428.736	84.88
428.958	86.88
429.181	110.88
429.403	103.88
429.625	75.88
429.847	91.88
430.069	89.88
430.292	94.88
430.514	78.88
430.736	81.88
430.958	66.88
431.18	100.88
431.402	82.88
431.624	89.88
431.846	77.88
432.068	79.88
432.29	79.88
432.512	103.88
432.734	88.88
432.956	99.88
433.178	103.88
433.4	103.88
433.622	87.88
433.844	90.88
434.066	91.88
434.287	86.88
434.509	97.88
434.731	92.88
434.953	76.88
435.175	78.88
435.397	90.88
435.618	76.88
435.84	97.88
436.062	121.88
436.284	108.88
436.505	106.88
436.727	94.88
436.949	92.88
437.17	83.88
437.392	94.88
437.614	92.88
437.835	92.88
438.057	111.88
438.278	108.88
438.5	110.88
438.721	110.88
438.943	100.88
439.165	91.88
439.386	93.88
439.608	89.88
439.829	99.88
440.05	95.88
440.272	121.88
440.493	94.88
440.715	91.88
440.936	95.88
441.158	103.88
441.379	91.88
441.6	85.88
441.822	100.88
442.043	91.88
442.264	90.88
442.486	89.88
442.707	90.88
442.928	94.88
443.149	114.88
443.371	111.88
443.592	99.88
443.813	102.88
444.034	84.88
444.255	72.88
444.476	71.88
444.698	92.88
444.919	86.88
445.14	114.88
445.361	109.88
445.582	107.88
445.803	117.88
446.024	128.88
446.245	118.88
446.466	100.88
446.687	82.88
446.908	91.88
447.129	89.88
447.35	82.88
447.571	82.88
447.792	99.88
448.013	103.88
448.234	100.88
448.455	93.88
448.675	118.88
448.896	110.88
449.117	95.88
449.338	100.88
449.559	121.88
449.779	110.88
450	100.88
450.221	85.88
450.442	75.88
450.662	84.88
450.883	103.88
451.104	118.88
451.324	80.88
451.545	78.88
451.766	89.88
451.986	83.88
452.207	96.88
452.428	93.88
452.648	83.88
452.869	95.88
453.089	110.88
453.31	128.88
453.53	89.88
453.751	106.88
453.971	85.88
454.192	99.88
454.412	76.88
454.633	87.88
454.853	95.88
455.073	72.88
455.294	92.88
455.514	86.88
455.734	78.88
455.955	98.88
456.175	81.88
456.395	79.88
456.616	92.88
456.836	84.88
457.056	83.88
457.276	102.88
457.497	87.88
457.717	84.88
457.937	82.88
458.157	89.88
458.377	83.88
458.598	103.88
458.818	139.88
459.038	154.88
459.258	127.88
459.478	87.88
459.698	76.88
459.918	85.88
460.138	78.88
460.358	83.88
460.578	80.88
460.798	87.88
461.018	103.88
461.238	100.88
461.458	78.88
461.678	77.88
461.898	76.88
462.118	90.88
462.338	81.88
462.558	80.88
462.777	87.88
462.997	82.88
463.217	81.88
463.437	89.88
463.657	90.88
463.876	85.88
464.096	69.88
464.316	98.88
464.536	97.88
464.755	83.88
464.975	87.88
465.195	144.88
465.414	148.88
465.634	101.88
465.854	93.88
466.073	86.88
466.293	88.88
466.512	92.88
466.732	87.88
466.951	86.88
467.171	92.88
467.391	100.88
467.61	108.88
467.829	117.88
468.049	143.88
468.268	149.88
468.488	100.88
468.707	84.88
468.927	81.88
469.146	81.88
469.365	97.88
469.585	97.88
469.804	92.88
470.023	85.88
470.243	77.88
470.462	98.88
470.681	123.88
470.901	80.88
471.12	99.88
471.339	90.88
471.558	76.88
471.777	94.88
471.997	110.88
472.216	194.88
472.435	325.88
472.654	145.88
472.873	102.88
473.092	82.88
473.311	90.88
473.53	102.88
473.749	102.88
473.968	89.88
474.187	86.88
474.406	77.88
474.625	95.88
474.844	86.88
475.063	90.88
475.282	91.88
475.501	92.88
475.72	92.88
475.939	85.88
476.158	88.88
476.377	81.88
476.596	111.88
476.814	93.88
477.033	101.88
477.252	88.88
477.471	87.88
477.69	83.88
477.908	88.88
478.127	94.88
478.346	83.88
478.564	91.88
478.783	89.88
479.002	97.88
479.22	101.88
479.439	84.88
479.658	90.88
479.876	90.88
480.095	93.88
480.313	93.88
480.532	103.88
480.751	107.88
480.969	162.88
481.188	532.88
481.406	374.88
481.624	131.88
481.843	98.88
482.061	95.88
482.28	95.88
482.498	89.88
482.717	95.88
482.935	81.88
483.153	97.88
483.372	86.88
483.59	91.88
483.808	94.88
484.027	85.88
484.245	85.88
484.463	102.88
484.681	98.88
484.9	79.88
485.118	88.88
485.336	102.88
485.554	92.88
485.772	99.88
485.99	105.88
486.209	98.88
486.427	104.88
486.645	115.88
486.863	113.88
487.081	102.88
487.299	90.88
487.517	84.88
487.735	87.88
487.953	80.88
488.171	113.88
488.389	101.88
488.607	95.88
488.825	90.88
489.043	81.88
489.261	94.88
489.479	78.88
489.696	97.88
489.914	84.88
490.132	85.88
490.35	81.88
490.568	101.88
490.786	82.88
491.003	86.88
491.221	88.88
491.439	86.88
491.657	86.88
491.874	95.88
492.092	79.88
492.31	89.88
492.527	87.88
492.745	91.88
492.963	91.88
493.18	81.88
493.398	91.88
493.615	94.88
493.833	91.88
494.05	85.88
494.268	101.88
494.485	90.88
494.703	84.88
494.92	85.88
495.138	87.88
495.355	92.88
495.573	93.88
495.79	88.88
496.008	91.88
496.225	95.88
496.442	82.88
496.66	94.88
496.877	79.88
497.094	96.88
497.312	87.88
497.529	94.88
497.746	85.88
497.963	87.88
498.181	91.88
498.398	100.88
498.615	99.88
498.832	98.88
499.049	90.88
499.267	88.88
499.484	104.88
499.701	75.88
499.918	87.88
500.135	86.88
500.352	86.88
500.569	88.88
500.786	96.88
501.003	85.88
501.22	70.88
501.437	95.88
501.654	82.88
501.871	114.88
502.088	92.88
502.305	87.88
502.522	81.88
502.739	90.88
502.956	96.88
503.172	88.88
503.389	94.88
503.606	107.88
503.823	97.88
504.04	92.88
504.256	102.88
504.473	98.88
504.69	105.88
504.907	100.88
505.123	99.88
505.34	103.88
505.557	84.88
505.773	99.88
505.99	93.88
506.207	95.88
506.423	92.88
506.64	85.88
506.856	85.88
507.073	84.88
507.289	97.88
507.506	106.88
507.722	116.88
507.939	107.88
508.155	91.88
508.372	102.88
508.588	93.88
508.805	101.88
509.021	87.88
509.238	103.88
509.454	103.88
509.67	99.88
509.887	105.88
510.103	130.88
510.319	185.88
510.536	685.88
510.752	2179.88
510.968	644.88
511.184	141.88
511.401	102.88
511.617	103.88
511.833	92.88
512.049	89.88
512.265	90.88
512.481	88.88
512.698	90.88
512.914	93.88
513.13	89.88
513.346	101.88
513.562	96.88
513.778	87.88
513.994	101.88
514.21	97.88
514.426	102.88
514.642	118.88
514.858	125.88
515.074	156.88
515.29	387.88
515.506	1289.88
515.721	491.88
515.937	130.88
516.153	108.88
516.369	84.88
516.585	99.88
516.801	93.88
517.016	96.88
517.232	94.88
517.448	93.88
517.664	82.88
517.879	92.88
518.095	83.88
518.311	81.88
518.527	98.88
518.742	93.88
518.958	99.88
519.173	110.88
519.389	97.88
519.605	100.88
519.82	88.88
520.036	80.88
520.251	113.88
520.467	104.88
520.682	104.88
520.898	100.88
521.113	99.88
521.329	124.88
521.544	181.88
521.76	466.88
521.975	2087.88
522.19	1329.88
522.406	289.88
522.621	123.88
522.836	100.88
523.052	106.88
523.267	99.88
523.482	107.88
523.698	97.88
523.913	104.88
524.128	99.88
524.343	84.88
524.559	99.88
524.774	105.88
524.989	98.88
525.204	103.88
525.419	87.88
525.634	88.88
525.849	99.88
526.064	96.88
526.28	95.88
526.495	100.88
526.71	91.88
526.925	97.88
527.14	87.88
527.355	86.88
527.57	96.88
527.785	90.88
527.999	99.88
528.214	96.88
528.429	93.88
528.644	83.88
528.859	73.88
529.074	81.88
529.289	106.88
529.503	161.88
529.718	89.88
529.933	90.88
530.148	86.88
530.363	87.88
530.577	100.88
530.792	99.88
531.007	99.88
531.221	87.88
531.436	82.88
531.651	93.88
531.865	92.88
532.08	88.88
532.295	80.88
532.509	84.88
532.724	104.88
532.938	89.88
533.153	97.88
533.367	93.88
533.582	87.88
533.796	95.88
534.011	97.88
534.225	87.88
534.44	87.88
534.654	86.88
534.868	82.88
535.083	82.88
535.297	86.88
535.511	90.88
535.726	95.88
535.94	104.88
536.154	84.88
536.369	100.88
536.583	81.88
536.797	84.88
537.011	100.88
537.225	87.88
537.44	93.88
537.654	86.88
537.868	86.88
538.082	88.88
538.296	68.88
538.51	87.88
538.724	86.88
538.938	101.88
539.153	98.88
539.367	93.88
539.581	92.88
539.795	81.88
540.009	86.88
540.222	93.88
540.436	82.88
540.65	92.88
540.864	87.88
541.078	95.88
541.292	85.88
541.506	98.88
541.72	99.88
541.934	86.88
542.147	101.88
542.361	89.88
542.575	82.88
542.789	101.88
543.002	88.88
543.216	87.88
543.43	99.88
543.644	86.88
543.857	97.88
544.071	101.88
544.285	95.88
544.498	93.88
544.712	84.88
544.925	92.88
545.139	93.88
545.352	88.88
545.566	98.88
545.779	88.88
545.993	99.88
546.206	93.88
546.42	100.88
546.633	97.88
546.847	98.88
547.06	97.88
547.274	93.88
547.487	93.88
547.7	87.88
547.914	93.88
548.127	81.88
548.34	89.88
548.554	89.88
548.767	93.88
548.98	92.88
549.193	76.88
549.407	94.88
549.62	89.88
549.833	79.88
550.046	92.88
550.259	89.88
550.473	93.88
550.686	93.88
550.899	79.88
551.112	93.88
551.325	81.88
551.538	84.88
551.751	101.88
551.964	82.88
552.177	85.88
552.39	93.88
552.603	86.88
552.816	90.88
553.029	92.88
553.242	88.88
553.455	94.88
553.667	119.88
553.88	99.88
554.093	91.88
554.306	95.88
554.519	83.88
554.732	103.88
554.944	91.88
555.157	93.88
555.37	82.88
555.583	100.88
555.795	91.88
556.008	83.88
556.221	90.88
556.433	92.88
556.646	86.88
556.859	98.88
557.071	77.88
557.284	87.88
557.496	82.88
557.709	84.88
557.921	99.88
558.134	102.88
558.346	98.88
558.559	90.88
558.771	87.88
558.984	93.88
559.196	85.88
559.409	86.88
559.621	98.88
559.833	84.88
560.046	89.88
560.258	79.88
560.47	103.88
560.683	81.88
560.895	70.88
561.107	83.88
561.32	98.88
561.532	93.88
561.744	90.88
561.956	90.88
562.168	75.88
562.381	71.88
562.593	99.88
562.805	97.88
563.017	90.88
563.229	94.88
563.441	73.88
563.653	87.88
563.865	79.88
564.077	85.88
564.289	98.88
564.501	96.88
564.713	103.88
564.925	102.88
565.137	107.88
565.349	94.88
565.561	92.88
565.773	90.88
565.985	98.88
566.197	77.88
566.408	77.88
566.62	73.88
566.832	94.88
567.044	81.88
567.255	90.88
567.467	84.88
567.679	93.88
567.891	89.88
568.102	85.88
568.314	79.88
568.526	92.88
568.737	92.88
568.949	88.88
569.161	84.88
569.372	100.88
569.584	89.88
569.795	99.88
570.007	118.88
570.218	224.88
570.43	142.88
570.641	89.88
570.853	88.88
571.064	78.88
571.276	80.88
571.487	83.88
571.698	94.88
571.91	77.88
572.121	99.88
572.333	72.88
572.544	85.88
572.755	87.88
572.966	93.88
573.178	88.88
573.389	102.88
573.6	97.88
573.811	88.88
574.023	90.88
574.234	90.88
574.445	95.88
574.656	86.88
574.867	78.88
575.078	83.88
575.289	80.88
575.501	74.88
575.712	89.88
575.923	85.88
576.134	90.88
576.345	94.88
576.556	88.88
576.767	86.88
576.978	92.88
577.188	94.88
577.399	95.88
577.61	94.88
577.821	102.88
578.032	118.88
578.243	224.88
578.454	679.88
578.665	201.88
578.875	106.88
579.086	98.88
579.297	105.88
579.508	95.88
579.718	79.88
579.929	86.88
580.14	88.88
580.35	75.88
580.561	89.88
580.772	85.88
580.982	100.88
581.193	83.88
581.403	88.88
581.614	86.88
581.825	75.88
582.035	89.88
582.246	81.88
582.456	77.88
582.667	80.88
582.877	93.88
583.087	104.88
583.298	80.88
583.508	93.88
583.719	95.88
583.929	87.88
584.139	95.88
584.35	97.88
584.56	98.88
584.77	89.88
584.981	83.88
585.191	89.88
585.401	81.88
585.611	98.88
585.821	104.88
586.032	96.88
586.242	97.88
586.452	87.88
586.662	86.88
586.872	84.88
587.082	72.88
587.292	92.88
587.502	85.88
587.713	77.88
587.923	79.88
588.133	91.88
588.343	83.88
588.553	86.88
588.762	83.88
588.972	80.88
589.182	92.88
589.392	91.88
589.602	93.88
589.812	97.88
590.022	88.88
590.232	91.88
590.441	86.88
590.651	74.88
590.861	85.88
591.071	84.88
591.281	77.88
591.49	88.88
591.7	93.88
591.91	91.88
592.119	75.88
592.329	101.88
592.539	92.88
592.748	84.88
592.958	83.88
593.167	84.88
593.377	87.88
593.587	87.88
593.796	88.88
594.006	86.88
594.215	85.88
594.424	86.88
594.634	89.88
594.843	93.88
595.053	97.88
595.262	93.88
595.472	85.88
595.681	74.88
595.89	90.88
596.1	87.88
596.309	89.88
596.518	95.88
596.727	94.88
596.937	74.88
597.146	97.88
597.355	88.88
597.564	84.88
597.774	85.88
597.983	85.88
598.192	82.88
598.401	84.88
598.61	97.88
598.819	82.88
599.028	77.88
599.237	83.88
599.446	95.88
599.655	86.88
599.864	87.88
600.073	103.88
600.282	101.88
600.491	94.88
600.7	93.88
600.909	97.88
601.118	99.88
601.327	71.88
601.536	86.88
601.745	86.88
601.953	87.88
602.162	78.88
602.371	91.88
602.58	83.88
602.789	90.88
602.997	84.88
603.206	84.88
603.415	86.88
603.623	81.88
603.832	86.88
604.041	92.88
604.249	88.88
604.458	87.88
604.666	79.88
604.875	93.88
605.084	89.88
605.292	91.88
605.501	81.88
605.709	94.88
605.918	84.88
606.126	87.88
606.334	90.88
606.543	86.88
606.751	94.88
606.96	87.88
607.168	69.88
607.376	75.88
607.585	91.88
607.793	91.88
608.001	84.88
608.21	91.88
608.418	83.88
608.626	63.88
608.834	91.88
609.043	101.88
609.251	78.88
609.459	75.88
609.667	83.88
609.875	93.88
610.083	91.88
610.291	94.88
610.499	74.88
610.707	74.88
610.916	84.88
611.124	91.88
611.332	77.88
611.54	93.88
611.748	92.88
611.955	81.88
612.163	80.88
612.371	78.88
612.579	84.88
612.787	92.88
612.995	87.88
613.203	87.88
613.411	84.88
613.618	81.88
613.826	105.88
614.034	85.88
614.242	94.88
614.449	76.88
614.657	88.88
614.865	79.88
615.072	89.88
615.28	99.88
615.488	94.88
615.695	91.88
615.903	96.88
616.111	85.88
616.318	98.88
616.526	88.88
616.733	95.88
616.941	85.88
617.148	84.88
617.356	76.88
617.563	90.88
617.771	81.88
617.978	79.88
618.185	92.88
618.393	85.88
618.6	81.88
618.807	81.88
619.015	89.88
619.222	88.88
619.429	86.88
619.637	75.88
619.844	78.88
620.051	83.88
620.258	70.88
620.466	97.88
620.673	76.88
620.88	100.88
621.087	87.88
621.294	95.88
621.501	84.88
621.708	80.88
621.915	84.88
622.122	83.88
622.329	86.88
622.536	86.88
622.743	92.88
622.95	86.88
623.157	83.88
623.364	81.88
623.571	93.88
623.778	77.88
623.985	87.88
624.192	87.88
624.399	87.88
624.606	95.88
624.812	77.88
625.019	83.88
625.226	82.88
625.433	89.88
625.639	85.88
625.846	74.88
626.053	88.88
626.259	90.88
626.466	82.88
626.673	83.88
626.879	73.88
627.086	84.88
627.293	86.88
627.499	85.88
627.706	76.88
627.912	82.88
628.119	84.88
628.325	79.88
628.532	79.88
628.738	85.88
628.945	84.88
629.151	97.88
629.357	62.88
629.564	94.88
629.77	92.88
629.976	93.88
630.183	76.88
630.389	89.88
630.595	90.88
630.802	75.88
631.008	89.88
631.214	87.88
631.42	79.88
631.627	86.88
631.833	73.88
632.039	84.88
632.245	78.88
632.451	73.88
632.657	81.88
632.863	86.88
633.069	92.88
633.275	107.88
633.481	85.88
633.688	82.88
633.893	82.88
634.099	81.88
634.305	79.88
634.511	90.88
634.717	84.88
634.923	87.88
635.129	70.88
635.335	91.88
635.541	85.88
635.747	82.88
635.952	83.88
636.158	95.88
636.364	111.88
636.57	97.88
636.775	94.88
636.981	100.88
637.187	79.88
637.392	89.88
637.598	83.88
637.804	83.88
638.009	78.88
638.215	73.88
638.421	91.88
638.626	85.88
638.832	89.88
639.037	73.88
639.243	92.88
639.448	85.88
639.654	87.88
639.859	77.88
640.065	89.88
640.27	102.88
640.475	93.88
640.681	87.88
640.886	94.88
641.091	88.88
641.297	82.88
641.502	86.88
641.707	85.88
641.913	84.88
642.118	82.88
642.323	73.88
642.528	89.88
642.733	81.88
642.939	90.88
643.144	95.88
643.349	89.88
643.554	69.88
643.759	90.88
643.964	93.88
644.169	84.88
644.374	91.88
644.579	72.88
644.784	90.88
644.989	94.88
645.194	87.88
645.399	82.88
645.604	71.88
645.809	102.88
646.014	86.88
646.219	85.88
646.423	81.88
646.628	93.88
646.833	86.88
647.038	87.88
647.243	86.88
647.447	85.88
647.652	85.88
647.857	75.88
648.062	88.88
648.266	73.88
648.471	97.88
648.676	96.88
648.88	99.88
649.085	87.88
649.289	86.88
649.494	92.88
649.698	129.88
649.903	94.88
650.107	84.88
650.312	86.88
650.516	90.88
650.721	76.88
650.925	86.88
651.13	78.88
651.334	81.88
651.539	80.88
651.743	91.88
651.947	85.88
652.152	82.88
652.356	98.88
652.56	98.88
652.764	84.88
652.969	84.88
653.173	79.88
653.377	86.88
653.581	77.88
653.785	90.88
653.99	87.88
654.194	79.88
654.398	83.88
654.602	85.88
654.806	81.88
655.01	106.88
655.214	87.88
655.418	87.88
655.622	82.88
655.826	87.88
656.03	91.88
656.234	91.88
656.438	85.88
656.642	80.88
656.846	63.88
657.049	74.88
657.253	75.88
657.457	96.88
657.661	94.88
657.865	88.88
658.068	83.88
658.272	87.88
658.476	78.88
658.68	88.88
658.883	83.88
659.087	84.88
659.291	96.88
659.494	92.88
659.698	83.88
659.901	91.88
660.105	105.88
660.309	83.88
660.512	81.88
660.716	78.88
660.919	91.88
661.123	85.88
661.326	76.88
661.53	89.88
661.733	76.88
661.936	94.88
662.14	95.88
662.343	84.88
662.546	85.88
662.75	83.88
662.953	86.88
663.156	74.88
663.36	85.88
663.563	89.88
663.766	72.88
663.969	86.88
664.173	89.88
664.376	75.88
664.579	81.88
664.782	81.88
664.985	85.88
665.188	70.88
665.391	82.88
665.594	93.88
665.797	94.88
666	75.88
666.203	91.88
666.406	97.88
666.609	83.88
666.812	90.88
667.015	74.88
667.218	78.88
667.421	79.88
667.624	98.88
667.827	88.88
668.03	81.88
668.232	72.88
668.435	92.88
668.638	79.88
668.841	82.88
669.043	90.88
669.246	82.88
669.449	83.88
669.651	85.88
669.854	84.88
670.057	98.88
670.259	91.88
670.462	77.88
670.665	90.88
670.867	82.88
671.07	78.88
671.272	74.88
671.475	85.88
671.677	94.88
671.88	85.88
672.082	76.88
672.284	82.88
672.487	77.88
672.689	89.88
672.892	89.88
