Data from Circ_2015_H10_HRD10591_00022.txt Node
Date: Wed Jan 03 10:00:27 EST 2024
User: Yrep
Spectrometer: HR+D1059
Trigger mode: 1
Integration Time (sec): 1.000000E-1
Scans to average: 1
Electric dark correction enabled: true
Nonlinearity correction enabled: false
Boxcar width: 0
XAxis mode: Wavelengths
Number of Pixels in Spectrum: 2048
>>>>>Begin Spectral Data<<<<<
223.165	-23.81
223.4	-23.81
223.635	-23.81
223.869	-20.81
224.104	-15.81
224.338	-16.81
224.573	-21.81
224.808	-32.81
225.042	-12.81
225.277	6.19
225.511	6.19
225.746	-1.81
225.98	7.19
226.215	18.19
226.449	19.19
226.683	23.19
226.918	34.19
227.152	32.19
227.387	40.19
227.621	36.19
227.856	54.19
228.09	52.19
228.324	51.19
228.559	65.19
228.793	59.19
229.027	57.19
229.262	59.19
229.496	69.19
229.73	85.19
229.964	79.19
230.199	86.19
230.433	79.19
230.667	78.19
230.901	83.19
231.136	74.19
231.37	87.19
231.604	77.19
231.838	78.19
232.072	71.19
232.306	95.19
232.541	91.19
232.775	79.19
233.009	78.19
233.243	83.19
233.477	74.19
233.711	70.19
233.945	76.19
234.179	81.19
234.413	91.19
234.647	89.19
234.881	77.19
235.115	78.19
235.349	82.19
235.583	82.19
235.817	77.19
236.051	78.19
236.285	78.19
236.519	86.19
236.753	76.19
236.987	79.19
237.221	75.19
237.455	87.19
237.689	78.19
237.922	76.19
238.156	81.19
238.39	73.19
238.624	91.19
238.858	86.19
239.091	72.19
239.325	91.19
239.559	91.19
239.793	81.19
240.027	82.19
240.26	77.19
240.494	75.19
240.728	71.19
240.961	75.19
241.195	84.19
241.429	86.19
241.662	75.19
241.896	72.19
242.13	69.19
242.363	91.19
242.597	79.19
242.83	78.19
243.064	82.19
243.298	71.19
243.531	63.19
243.765	76.19
243.998	67.19
244.232	85.19
244.465	88.19
244.699	90.19
244.932	74.19
245.166	78.19
245.399	77.19
245.633	78.19
245.866	70.19
246.099	84.19
246.333	75.19
246.566	51.19
246.8	72.19
247.033	83.19
247.266	86.19
247.5	89.19
247.733	74.19
247.966	69.19
248.2	78.19
248.433	80.19
248.666	84.19
248.899	82.19
249.133	79.19
249.366	84.19
249.599	85.19
249.832	83.19
250.066	72.19
250.299	78.19
250.532	78.19
250.765	60.19
250.998	69.19
251.231	74.19
251.465	67.19
251.698	75.19
251.931	75.19
252.164	88.19
252.397	97.19
252.63	77.19
252.863	87.19
253.096	71.19
253.329	79.19
253.562	64.19
253.795	75.19
254.028	79.19
254.261	76.19
254.494	70.19
254.727	79.19
254.96	69.19
255.193	75.19
255.426	91.19
255.659	81.19
255.892	81.19
256.124	90.19
256.357	85.19
256.59	89.19
256.823	75.19
257.056	78.19
257.289	71.19
257.521	83.19
257.754	69.19
257.987	77.19
258.22	83.19
258.452	93.19
258.685	81.19
258.918	82.19
259.151	93.19
259.383	83.19
259.616	77.19
259.849	82.19
260.081	76.19
260.314	79.19
260.547	97.19
260.779	81.19
261.012	85.19
261.244	79.19
261.477	90.19
261.71	90.19
261.942	99.19
262.175	97.19
262.407	83.19
262.64	93.19
262.872	84.19
263.105	81.19
263.337	79.19
263.57	69.19
263.802	70.19
264.035	77.19
264.267	70.19
264.499	84.19
264.732	82.19
264.964	77.19
265.197	72.19
265.429	89.19
265.661	81.19
265.894	84.19
266.126	86.19
266.358	77.19
266.591	81.19
266.823	85.19
267.055	89.19
267.287	89.19
267.52	90.19
267.752	74.19
267.984	86.19
268.216	89.19
268.448	84.19
268.681	87.19
268.913	85.19
269.145	92.19
269.377	87.19
269.609	82.19
269.841	78.19
270.073	76.19
270.306	86.19
270.538	83.19
270.77	84.19
271.002	75.19
271.234	84.19
271.466	94.19
271.698	74.19
271.93	93.19
272.162	79.19
272.394	82.19
272.626	89.19
272.858	85.19
273.09	85.19
273.322	72.19
273.553	77.19
273.785	81.19
274.017	76.19
274.249	81.19
274.481	84.19
274.713	90.19
274.945	98.19
275.176	86.19
275.408	87.19
275.64	84.19
275.872	95.19
276.104	80.19
276.335	74.19
276.567	87.19
276.799	97.19
277.031	111.19
277.262	88.19
277.494	89.19
277.726	87.19
277.957	77.19
278.189	104.19
278.421	99.19
278.652	77.19
278.884	97.19
279.115	89.19
279.347	69.19
279.579	86.19
279.81	79.19
280.042	85.19
280.273	91.19
280.505	85.19
280.736	79.19
280.968	76.19
281.199	82.19
281.431	85.19
281.662	89.19
281.894	86.19
282.125	99.19
282.356	108.19
282.588	149.19
282.819	111.19
283.051	98.19
283.282	75.19
283.513	91.19
283.745	88.19
283.976	89.19
284.207	90.19
284.439	73.19
284.67	89.19
284.901	97.19
285.132	96.19
285.364	98.19
285.595	90.19
285.826	90.19
286.057	73.19
286.288	87.19
286.52	82.19
286.751	92.19
286.982	90.19
287.213	91.19
287.444	81.19
287.675	86.19
287.906	93.19
288.138	103.19
288.369	87.19
288.6	81.19
288.831	83.19
289.062	86.19
289.293	63.19
289.524	76.19
289.755	86.19
289.986	66.19
290.217	88.19
290.448	92.19
290.679	91.19
290.91	87.19
291.141	80.19
291.371	78.19
291.602	93.19
291.833	71.19
292.064	93.19
292.295	95.19
292.526	89.19
292.757	86.19
292.987	79.19
293.218	88.19
293.449	85.19
293.68	90.19
293.91	101.19
294.141	88.19
294.372	97.19
294.603	87.19
294.833	86.19
295.064	90.19
295.295	83.19
295.525	97.19
295.756	95.19
295.987	93.19
296.217	141.19
296.448	131.19
296.679	98.19
296.909	96.19
297.14	91.19
297.37	79.19
297.601	93.19
297.831	84.19
298.062	93.19
298.292	89.19
298.523	79.19
298.753	78.19
298.984	85.19
299.214	84.19
299.445	101.19
299.675	103.19
299.905	101.19
300.136	92.19
300.366	87.19
300.597	76.19
300.827	92.19
301.057	100.19
301.288	85.19
301.518	86.19
301.748	86.19
301.979	89.19
302.209	80.19
302.439	83.19
302.669	87.19
302.9	98.19
303.13	87.19
303.36	79.19
303.59	105.19
303.82	104.19
304.051	97.19
304.281	108.19
304.511	88.19
304.741	89.19
304.971	86.19
305.201	95.19
305.431	89.19
305.661	90.19
305.891	92.19
306.121	98.19
306.352	106.19
306.582	114.19
306.812	88.19
307.042	89.19
307.272	97.19
307.502	99.19
307.731	97.19
307.961	90.19
308.191	105.19
308.421	88.19
308.651	76.19
308.881	95.19
309.111	80.19
309.341	102.19
309.571	86.19
309.8	90.19
310.03	90.19
310.26	83.19
310.49	79.19
310.72	86.19
310.949	87.19
311.179	99.19
311.409	104.19
311.639	103.19
311.868	90.19
312.098	96.19
312.328	91.19
312.557	92.19
312.787	101.19
313.017	94.19
313.246	94.19
313.476	94.19
313.706	81.19
313.935	98.19
314.165	91.19
314.394	100.19
314.624	77.19
314.853	84.19
315.083	92.19
315.312	88.19
315.542	85.19
315.771	92.19
316.001	95.19
316.23	87.19
316.46	96.19
316.689	93.19
316.919	91.19
317.148	92.19
317.377	89.19
317.607	92.19
317.836	99.19
318.065	102.19
318.295	88.19
318.524	92.19
318.753	94.19
318.983	79.19
319.212	113.19
319.441	109.19
319.67	97.19
319.9	94.19
320.129	91.19
320.358	94.19
320.587	100.19
320.816	105.19
321.046	88.19
321.275	106.19
321.504	93.19
321.733	83.19
321.962	79.19
322.191	87.19
322.42	98.19
322.649	118.19
322.878	103.19
323.108	108.19
323.337	117.19
323.566	138.19
323.795	148.19
324.024	187.19
324.253	356.19
324.482	745.19
324.71	1481.19
324.939	1931.19
325.168	736.19
325.397	232.19
325.626	147.19
325.855	121.19
326.084	114.19
326.313	146.19
326.542	141.19
326.77	208.19
326.999	409.19
327.228	829.19
327.457	1510.19
327.686	1240.19
327.914	341.19
328.143	203.19
328.372	149.19
328.6	121.19
328.829	133.19
329.058	116.19
329.287	121.19
329.515	99.19
329.744	98.19
329.972	113.19
330.201	127.19
330.43	151.19
330.658	117.19
330.887	118.19
331.115	123.19
331.344	97.19
331.572	85.19
331.801	109.19
332.03	106.19
332.258	101.19
332.486	81.19
332.715	93.19
332.943	85.19
333.172	111.19
333.4	87.19
333.629	113.19
333.857	119.19
334.085	101.19
334.314	131.19
334.542	173.19
334.771	166.19
334.999	105.19
335.227	109.19
335.455	92.19
335.684	102.19
335.912	92.19
336.14	81.19
336.369	90.19
336.597	113.19
336.825	90.19
337.053	93.19
337.281	81.19
337.51	91.19
337.738	80.19
337.966	82.19
338.194	91.19
338.422	99.19
338.65	94.19
338.878	94.19
339.106	88.19
339.334	87.19
339.562	91.19
339.79	99.19
340.018	105.19
340.246	91.19
340.474	106.19
340.702	98.19
340.93	90.19
341.158	81.19
341.386	99.19
341.614	103.19
341.842	104.19
342.07	93.19
342.298	92.19
342.526	85.19
342.754	85.19
342.981	83.19
343.209	94.19
343.437	100.19
343.665	91.19
343.893	89.19
344.12	97.19
344.348	79.19
344.576	86.19
344.804	99.19
345.031	89.19
345.259	97.19
345.487	79.19
345.714	108.19
345.942	97.19
346.17	86.19
346.397	93.19
346.625	87.19
346.853	98.19
347.08	90.19
347.308	94.19
347.535	93.19
347.763	101.19
347.99	94.19
348.218	100.19
348.445	92.19
348.673	102.19
348.9	90.19
349.128	85.19
349.355	103.19
349.583	71.19
349.81	96.19
350.037	105.19
350.265	92.19
350.492	83.19
350.72	111.19
350.947	104.19
351.174	101.19
351.402	106.19
351.629	102.19
351.856	103.19
352.083	97.19
352.311	105.19
352.538	114.19
352.765	108.19
352.992	103.19
353.22	100.19
353.447	102.19
353.674	98.19
353.901	92.19
354.128	104.19
354.355	93.19
354.583	109.19
354.81	101.19
355.037	96.19
355.264	97.19
355.491	97.19
355.718	91.19
355.945	100.19
356.172	95.19
356.399	110.19
356.626	85.19
356.853	87.19
357.08	82.19
357.307	78.19
357.534	102.19
357.761	86.19
357.988	104.19
358.215	102.19
358.441	87.19
358.668	79.19
358.895	77.19
359.122	81.19
359.349	72.19
359.576	81.19
359.802	85.19
360.029	110.19
360.256	108.19
360.483	95.19
360.709	74.19
360.936	87.19
361.163	87.19
361.39	92.19
361.616	99.19
361.843	85.19
362.07	92.19
362.296	92.19
362.523	96.19
362.749	82.19
362.976	96.19
363.203	99.19
363.429	92.19
363.656	93.19
363.882	83.19
364.109	86.19
364.335	82.19
364.562	100.19
364.788	86.19
365.015	96.19
365.241	95.19
365.468	98.19
365.694	99.19
365.92	81.19
366.147	76.19
366.373	86.19
366.599	100.19
366.826	82.19
367.052	76.19
367.278	84.19
367.505	86.19
367.731	96.19
367.957	78.19
368.184	83.19
368.41	99.19
368.636	110.19
368.862	112.19
369.089	98.19
369.315	93.19
369.541	99.19
369.767	87.19
369.993	90.19
370.219	89.19
370.445	88.19
370.672	98.19
370.898	100.19
371.124	90.19
371.35	88.19
371.576	85.19
371.802	89.19
372.028	94.19
372.254	93.19
372.48	89.19
372.706	100.19
372.932	101.19
373.158	94.19
373.384	103.19
373.61	94.19
373.835	75.19
374.061	75.19
374.287	97.19
374.513	91.19
374.739	86.19
374.965	84.19
375.191	91.19
375.416	102.19
375.642	96.19
375.868	105.19
376.094	83.19
376.319	92.19
376.545	85.19
376.771	88.19
376.997	85.19
377.222	91.19
377.448	94.19
377.674	89.19
377.899	77.19
378.125	94.19
378.35	100.19
378.576	82.19
378.802	93.19
379.027	86.19
379.253	101.19
379.478	96.19
379.704	106.19
379.929	100.19
380.155	85.19
380.38	99.19
380.606	102.19
380.831	89.19
381.057	87.19
381.282	100.19
381.507	106.19
381.733	100.19
381.958	85.19
382.184	93.19
382.409	119.19
382.634	104.19
382.86	93.19
383.085	98.19
383.31	110.19
383.535	115.19
383.761	96.19
383.986	100.19
384.211	99.19
384.436	112.19
384.662	103.19
384.887	110.19
385.112	116.19
385.337	109.19
385.562	110.19
385.787	107.19
386.013	106.19
386.238	120.19
386.463	129.19
386.688	107.19
386.913	102.19
387.138	119.19
387.363	121.19
387.588	93.19
387.813	105.19
388.038	125.19
388.263	131.19
388.488	126.19
388.713	104.19
388.938	82.19
389.163	97.19
389.387	103.19
389.612	84.19
389.837	92.19
390.062	91.19
390.287	92.19
390.512	95.19
390.736	82.19
390.961	81.19
391.186	96.19
391.411	98.19
391.636	95.19
391.86	81.19
392.085	79.19
392.31	74.19
392.534	75.19
392.759	87.19
392.984	82.19
393.208	89.19
393.433	106.19
393.658	97.19
393.882	88.19
394.107	92.19
394.331	76.19
394.556	67.19
394.78	97.19
395.005	79.19
395.229	97.19
395.454	101.19
395.678	97.19
395.903	73.19
396.127	81.19
396.352	88.19
396.576	92.19
396.801	98.19
397.025	98.19
397.249	95.19
397.474	91.19
397.698	70.19
397.922	87.19
398.147	92.19
398.371	102.19
398.595	78.19
398.82	68.19
399.044	73.19
399.268	89.19
399.492	85.19
399.717	79.19
399.941	81.19
400.165	89.19
400.389	97.19
400.613	83.19
400.837	83.19
401.062	96.19
401.286	80.19
401.51	80.19
401.734	89.19
401.958	90.19
402.182	122.19
402.406	129.19
402.63	115.19
402.854	91.19
403.078	97.19
403.302	90.19
403.526	81.19
403.75	87.19
403.974	73.19
404.198	91.19
404.422	98.19
404.645	83.19
404.869	88.19
405.093	100.19
405.317	95.19
405.541	91.19
405.765	101.19
405.988	110.19
406.212	173.19
406.436	220.19
406.66	131.19
406.883	86.19
407.107	97.19
407.331	103.19
407.555	91.19
407.778	89.19
408.002	88.19
408.226	83.19
408.449	81.19
408.673	78.19
408.896	93.19
409.12	84.19
409.344	97.19
409.567	89.19
409.791	91.19
410.014	97.19
410.238	87.19
410.461	92.19
410.685	93.19
410.908	93.19
411.132	107.19
411.355	92.19
411.578	96.19
411.802	98.19
412.025	89.19
412.249	91.19
412.472	101.19
412.695	101.19
412.919	99.19
413.142	96.19
413.365	94.19
413.589	87.19
413.812	69.19
414.035	71.19
414.258	87.19
414.482	94.19
414.705	106.19
414.928	92.19
415.151	95.19
415.374	92.19
415.597	75.19
415.821	94.19
416.044	86.19
416.267	82.19
416.49	82.19
416.713	101.19
416.936	78.19
417.159	83.19
417.382	101.19
417.605	96.19
417.828	89.19
418.051	90.19
418.274	92.19
418.497	91.19
418.72	96.19
418.943	90.19
419.166	87.19
419.389	83.19
419.611	97.19
419.834	100.19
420.057	84.19
420.28	79.19
420.503	83.19
420.726	74.19
420.948	83.19
421.171	86.19
421.394	86.19
421.617	96.19
421.839	102.19
422.062	84.19
422.285	88.19
422.507	104.19
422.73	101.19
422.953	107.19
423.175	92.19
423.398	92.19
423.621	86.19
423.843	88.19
424.066	81.19
424.288	85.19
424.511	86.19
424.733	97.19
424.956	92.19
425.178	91.19
425.401	102.19
425.623	102.19
425.846	95.19
426.068	83.19
426.291	87.19
426.513	81.19
426.735	92.19
426.958	88.19
427.18	100.19
427.402	116.19
427.625	148.19
427.847	110.19
428.069	114.19
428.292	81.19
428.514	104.19
428.736	75.19
428.958	77.19
429.181	91.19
429.403	87.19
429.625	86.19
429.847	98.19
430.069	96.19
430.292	89.19
430.514	84.19
430.736	86.19
430.958	87.19
431.18	89.19
431.402	69.19
431.624	76.19
431.846	88.19
432.068	81.19
432.29	83.19
432.512	77.19
432.734	81.19
432.956	99.19
433.178	105.19
433.4	90.19
433.622	99.19
433.844	83.19
434.066	87.19
434.287	90.19
434.509	89.19
434.731	74.19
434.953	74.19
435.175	86.19
435.397	78.19
435.618	89.19
435.84	103.19
436.062	110.19
436.284	107.19
436.505	105.19
436.727	109.19
436.949	93.19
437.17	86.19
437.392	87.19
437.614	80.19
437.835	101.19
438.057	124.19
438.278	102.19
438.5	103.19
438.721	114.19
438.943	90.19
439.165	83.19
439.386	86.19
439.608	97.19
439.829	100.19
440.05	114.19
440.272	140.19
440.493	99.19
440.715	79.19
440.936	69.19
441.158	86.19
441.379	93.19
441.6	94.19
441.822	99.19
442.043	89.19
442.264	97.19
442.486	83.19
442.707	85.19
442.928	90.19
443.149	113.19
443.371	115.19
443.592	108.19
443.813	104.19
444.034	102.19
444.255	99.19
444.476	95.19
444.698	95.19
444.919	105.19
445.14	127.19
445.361	119.19
445.582	115.19
445.803	122.19
446.024	110.19
446.245	119.19
446.466	99.19
446.687	97.19
446.908	68.19
447.129	99.19
447.35	103.19
447.571	84.19
447.792	84.19
448.013	99.19
448.234	103.19
448.455	92.19
448.675	132.19
448.896	104.19
449.117	106.19
449.338	105.19
449.559	122.19
449.779	124.19
450	101.19
450.221	91.19
450.442	94.19
450.662	89.19
450.883	114.19
451.104	105.19
451.324	95.19
451.545	83.19
451.766	84.19
451.986	72.19
452.207	86.19
452.428	98.19
452.648	99.19
452.869	110.19
453.089	101.19
453.31	109.19
453.53	95.19
453.751	93.19
453.971	90.19
454.192	105.19
454.412	89.19
454.633	89.19
454.853	96.19
455.073	94.19
455.294	91.19
455.514	85.19
455.734	95.19
455.955	85.19
456.175	83.19
456.395	90.19
456.616	87.19
456.836	76.19
457.056	86.19
457.276	87.19
457.497	77.19
457.717	78.19
457.937	79.19
458.157	84.19
458.377	87.19
458.598	95.19
458.818	135.19
459.038	143.19
459.258	100.19
459.478	81.19
459.698	88.19
459.918	85.19
460.138	86.19
460.358	69.19
460.578	86.19
460.798	87.19
461.018	90.19
461.238	107.19
461.458	81.19
461.678	73.19
461.898	72.19
462.118	79.19
462.338	89.19
462.558	95.19
462.777	87.19
462.997	78.19
463.217	78.19
463.437	86.19
463.657	86.19
463.876	98.19
464.096	89.19
464.316	80.19
464.536	113.19
464.755	83.19
464.975	107.19
465.195	154.19
465.414	145.19
465.634	98.19
465.854	88.19
466.073	93.19
466.293	101.19
466.512	100.19
466.732	93.19
466.951	85.19
467.171	88.19
467.391	94.19
467.61	103.19
467.829	102.19
468.049	99.19
468.268	127.19
468.488	77.19
468.707	90.19
468.927	86.19
469.146	75.19
469.365	87.19
469.585	83.19
469.804	84.19
470.023	86.19
470.243	95.19
470.462	81.19
470.681	116.19
470.901	78.19
471.12	81.19
471.339	88.19
471.558	93.19
471.777	95.19
471.997	80.19
472.216	129.19
472.435	196.19
472.654	121.19
472.873	87.19
473.092	90.19
473.311	98.19
473.53	92.19
473.749	90.19
473.968	100.19
474.187	112.19
474.406	91.19
474.625	93.19
474.844	89.19
475.063	90.19
475.282	76.19
475.501	75.19
475.72	92.19
475.939	95.19
476.158	81.19
476.377	69.19
476.596	70.19
476.814	83.19
477.033	81.19
477.252	89.19
477.471	87.19
477.69	76.19
477.908	102.19
478.127	72.19
478.346	84.19
478.564	86.19
478.783	100.19
479.002	83.19
479.22	83.19
479.439	101.19
479.658	109.19
479.876	84.19
480.095	92.19
480.313	88.19
480.532	81.19
480.751	94.19
480.969	142.19
481.188	279.19
481.406	202.19
481.624	111.19
481.843	86.19
482.061	99.19
482.28	88.19
482.498	84.19
482.717	87.19
482.935	73.19
483.153	97.19
483.372	79.19
483.59	86.19
483.808	90.19
484.027	90.19
484.245	85.19
484.463	109.19
484.681	113.19
484.9	100.19
485.118	85.19
485.336	101.19
485.554	85.19
485.772	83.19
485.99	95.19
486.209	89.19
486.427	108.19
486.645	119.19
486.863	115.19
487.081	109.19
487.299	109.19
487.517	97.19
487.735	82.19
487.953	91.19
488.171	101.19
488.389	98.19
488.607	104.19
488.825	97.19
489.043	102.19
489.261	93.19
489.479	87.19
489.696	91.19
489.914	86.19
490.132	79.19
490.35	96.19
490.568	97.19
490.786	94.19
491.003	85.19
491.221	95.19
491.439	85.19
491.657	84.19
491.874	89.19
492.092	95.19
492.31	84.19
492.527	113.19
492.745	85.19
492.963	95.19
493.18	100.19
493.398	99.19
493.615	97.19
493.833	86.19
494.05	101.19
494.268	99.19
494.485	94.19
494.703	95.19
494.92	91.19
495.138	77.19
495.355	87.19
495.573	83.19
495.79	82.19
496.008	98.19
496.225	89.19
496.442	93.19
496.66	78.19
496.877	86.19
497.094	85.19
497.312	99.19
497.529	92.19
497.746	83.19
497.963	103.19
498.181	97.19
498.398	85.19
498.615	108.19
498.832	103.19
499.049	86.19
499.267	84.19
499.484	84.19
499.701	104.19
499.918	86.19
500.135	100.19
500.352	77.19
500.569	85.19
500.786	107.19
501.003	84.19
501.22	86.19
501.437	89.19
501.654	100.19
501.871	96.19
502.088	106.19
502.305	82.19
502.522	79.19
502.739	81.19
502.956	87.19
503.172	88.19
503.389	86.19
503.606	106.19
503.823	92.19
504.04	97.19
504.256	85.19
504.473	89.19
504.69	101.19
504.907	104.19
505.123	89.19
505.34	92.19
505.557	95.19
505.773	88.19
505.99	81.19
506.207	104.19
506.423	83.19
506.64	81.19
506.856	93.19
507.073	84.19
507.289	93.19
507.506	106.19
507.722	105.19
507.939	94.19
508.155	92.19
508.372	90.19
508.588	76.19
508.805	92.19
509.021	91.19
509.238	93.19
509.454	99.19
509.67	93.19
509.887	99.19
510.103	120.19
510.319	193.19
510.536	711.19
510.752	2250.19
510.968	673.19
511.184	149.19
511.401	106.19
511.617	91.19
511.833	81.19
512.049	100.19
512.265	77.19
512.481	102.19
512.698	93.19
512.914	98.19
513.13	93.19
513.346	82.19
513.562	78.19
513.778	76.19
513.994	103.19
514.21	96.19
514.426	125.19
514.642	134.19
514.858	102.19
515.074	149.19
515.29	391.19
515.506	1325.19
515.721	501.19
515.937	143.19
516.153	98.19
516.369	79.19
516.585	100.19
516.801	82.19
517.016	99.19
517.232	89.19
517.448	88.19
517.664	79.19
517.879	89.19
518.095	104.19
518.311	105.19
518.527	112.19
518.742	96.19
518.958	96.19
519.173	92.19
519.389	73.19
519.605	98.19
519.82	94.19
520.036	97.19
520.251	119.19
520.467	115.19
520.682	104.19
520.898	103.19
521.113	115.19
521.329	139.19
521.544	181.19
521.76	489.19
521.975	2037.19
522.19	1326.19
522.406	297.19
522.621	120.19
522.836	114.19
523.052	82.19
523.267	88.19
523.482	90.19
523.698	101.19
523.913	105.19
524.128	108.19
524.343	99.19
524.559	88.19
524.774	82.19
524.989	92.19
525.204	93.19
525.419	100.19
525.634	94.19
525.849	85.19
526.064	101.19
526.28	92.19
526.495	89.19
526.71	96.19
526.925	95.19
527.14	84.19
527.355	100.19
527.57	97.19
527.785	94.19
527.999	86.19
528.214	88.19
528.429	79.19
528.644	92.19
528.859	84.19
529.074	92.19
529.289	125.19
529.503	149.19
529.718	94.19
529.933	87.19
530.148	91.19
530.363	85.19
530.577	88.19
530.792	82.19
531.007	89.19
531.221	94.19
531.436	102.19
531.651	94.19
531.865	113.19
532.08	97.19
532.295	82.19
532.509	94.19
532.724	93.19
532.938	87.19
533.153	89.19
533.367	114.19
533.582	83.19
533.796	98.19
534.011	94.19
534.225	87.19
534.44	105.19
534.654	97.19
534.868	88.19
535.083	80.19
535.297	83.19
535.511	108.19
535.726	88.19
535.94	101.19
536.154	108.19
536.369	89.19
536.583	88.19
536.797	87.19
537.011	86.19
537.225	100.19
537.44	99.19
537.654	95.19
537.868	79.19
538.082	85.19
538.296	94.19
538.51	87.19
538.724	93.19
538.938	86.19
539.153	87.19
539.367	98.19
539.581	81.19
539.795	89.19
540.009	98.19
540.222	101.19
540.436	105.19
540.65	83.19
540.864	81.19
541.078	92.19
541.292	85.19
541.506	82.19
541.72	86.19
541.934	81.19
542.147	99.19
542.361	93.19
542.575	94.19
542.789	89.19
543.002	86.19
543.216	103.19
543.43	96.19
543.644	93.19
543.857	87.19
544.071	101.19
544.285	82.19
544.498	105.19
544.712	98.19
544.925	87.19
545.139	81.19
545.352	93.19
545.566	90.19
545.779	93.19
545.993	97.19
546.206	96.19
546.42	84.19
546.633	102.19
546.847	81.19
547.06	88.19
547.274	96.19
547.487	89.19
547.7	99.19
547.914	79.19
548.127	93.19
548.34	92.19
548.554	76.19
548.767	88.19
548.98	102.19
549.193	89.19
549.407	78.19
549.62	74.19
549.833	83.19
550.046	77.19
550.259	76.19
550.473	86.19
550.686	98.19
550.899	93.19
551.112	84.19
551.325	90.19
551.538	103.19
551.751	97.19
551.964	94.19
552.177	89.19
552.39	96.19
552.603	94.19
552.816	84.19
553.029	82.19
553.242	90.19
553.455	91.19
553.667	114.19
553.88	100.19
554.093	98.19
554.306	101.19
554.519	96.19
554.732	83.19
554.944	100.19
555.157	105.19
555.37	84.19
555.583	86.19
555.795	90.19
556.008	102.19
556.221	94.19
556.433	92.19
556.646	79.19
556.859	97.19
557.071	106.19
557.284	103.19
557.496	95.19
557.709	94.19
557.921	83.19
558.134	82.19
558.346	80.19
558.559	80.19
558.771	90.19
558.984	98.19
559.196	94.19
559.409	100.19
559.621	88.19
559.833	94.19
560.046	97.19
560.258	92.19
560.47	92.19
560.683	67.19
560.895	88.19
561.107	83.19
561.32	93.19
561.532	91.19
561.744	91.19
561.956	91.19
562.168	106.19
562.381	87.19
562.593	86.19
562.805	84.19
563.017	111.19
563.229	88.19
563.441	96.19
563.653	78.19
563.865	107.19
564.077	83.19
564.289	94.19
564.501	97.19
564.713	83.19
564.925	92.19
565.137	94.19
565.349	90.19
565.561	84.19
565.773	98.19
565.985	91.19
566.197	85.19
566.408	90.19
566.62	83.19
566.832	97.19
567.044	93.19
567.255	83.19
567.467	85.19
567.679	89.19
567.891	67.19
568.102	101.19
568.314	87.19
568.526	87.19
568.737	87.19
568.949	89.19
569.161	83.19
569.372	103.19
569.584	85.19
569.795	97.19
570.007	104.19
570.218	254.19
570.43	148.19
570.641	92.19
570.853	88.19
571.064	103.19
571.276	86.19
571.487	104.19
571.698	78.19
571.91	92.19
572.121	94.19
572.333	95.19
572.544	87.19
572.755	88.19
572.966	85.19
573.178	88.19
573.389	85.19
573.6	95.19
573.811	97.19
574.023	84.19
574.234	90.19
574.445	93.19
574.656	91.19
574.867	90.19
575.078	89.19
575.289	80.19
575.501	89.19
575.712	85.19
575.923	87.19
576.134	92.19
576.345	89.19
576.556	86.19
576.767	83.19
576.978	105.19
577.188	87.19
577.399	92.19
577.61	82.19
577.821	93.19
578.032	116.19
578.243	242.19
578.454	713.19
578.665	199.19
578.875	113.19
579.086	84.19
579.297	88.19
579.508	79.19
579.718	89.19
579.929	94.19
580.14	88.19
580.35	80.19
580.561	86.19
580.772	83.19
580.982	77.19
581.193	89.19
581.403	93.19
581.614	93.19
581.825	84.19
582.035	79.19
582.246	79.19
582.456	91.19
582.667	83.19
582.877	86.19
583.087	76.19
583.298	79.19
583.508	94.19
583.719	82.19
583.929	92.19
584.139	94.19
584.35	88.19
584.56	73.19
584.77	92.19
584.981	107.19
585.191	81.19
585.401	79.19
585.611	92.19
585.821	95.19
586.032	89.19
586.242	91.19
586.452	96.19
586.662	95.19
586.872	86.19
587.082	79.19
587.292	84.19
587.502	94.19
587.713	90.19
587.923	82.19
588.133	80.19
588.343	90.19
588.553	66.19
588.762	72.19
588.972	101.19
589.182	138.19
589.392	100.19
589.602	86.19
589.812	124.19
590.022	100.19
590.232	104.19
590.441	84.19
590.651	92.19
590.861	92.19
591.071	80.19
591.281	86.19
591.49	88.19
591.7	88.19
591.91	88.19
592.119	81.19
592.329	91.19
592.539	89.19
592.748	85.19
592.958	97.19
593.167	79.19
593.377	90.19
593.587	88.19
593.796	77.19
594.006	89.19
594.215	82.19
594.424	106.19
594.634	87.19
594.843	94.19
595.053	79.19
595.262	83.19
595.472	86.19
595.681	87.19
595.89	89.19
596.1	88.19
596.309	88.19
596.518	90.19
596.727	87.19
596.937	90.19
597.146	75.19
597.355	86.19
597.564	84.19
597.774	93.19
597.983	83.19
598.192	85.19
598.401	82.19
598.61	88.19
598.819	89.19
599.028	100.19
599.237	82.19
599.446	82.19
599.655	86.19
599.864	99.19
600.073	83.19
600.282	87.19
600.491	87.19
600.7	92.19
600.909	73.19
601.118	92.19
601.327	87.19
601.536	94.19
601.745	81.19
601.953	77.19
602.162	82.19
602.371	85.19
602.58	84.19
602.789	82.19
602.997	83.19
603.206	79.19
603.415	89.19
603.623	85.19
603.832	86.19
604.041	87.19
604.249	85.19
604.458	89.19
604.666	86.19
604.875	84.19
605.084	105.19
605.292	93.19
605.501	96.19
605.709	91.19
605.918	90.19
606.126	75.19
606.334	85.19
606.543	80.19
606.751	92.19
606.96	82.19
607.168	90.19
607.376	86.19
607.585	88.19
607.793	86.19
608.001	92.19
608.21	76.19
608.418	90.19
608.626	82.19
608.834	92.19
609.043	86.19
609.251	95.19
609.459	98.19
609.667	87.19
609.875	107.19
610.083	91.19
610.291	60.19
610.499	87.19
610.707	79.19
610.916	80.19
611.124	100.19
611.332	79.19
611.54	93.19
611.748	78.19
611.955	82.19
612.163	89.19
612.371	86.19
612.579	82.19
612.787	87.19
612.995	92.19
613.203	94.19
613.411	85.19
613.618	82.19
613.826	90.19
614.034	109.19
614.242	91.19
614.449	84.19
614.657	80.19
614.865	90.19
615.072	86.19
615.28	95.19
615.488	90.19
615.695	85.19
615.903	102.19
616.111	100.19
616.318	86.19
616.526	105.19
616.733	89.19
616.941	83.19
617.148	76.19
617.356	95.19
617.563	91.19
617.771	91.19
617.978	86.19
618.185	81.19
618.393	84.19
618.6	87.19
618.807	86.19
619.015	81.19
619.222	89.19
619.429	91.19
619.637	91.19
619.844	79.19
620.051	91.19
620.258	93.19
620.466	90.19
620.673	102.19
620.88	76.19
621.087	82.19
621.294	78.19
621.501	99.19
621.708	97.19
621.915	85.19
622.122	92.19
622.329	83.19
622.536	88.19
622.743	94.19
622.95	91.19
623.157	94.19
623.364	96.19
623.571	82.19
623.778	79.19
623.985	77.19
624.192	64.19
624.399	77.19
624.606	95.19
624.812	85.19
625.019	86.19
625.226	92.19
625.433	91.19
625.639	87.19
625.846	72.19
626.053	100.19
626.259	79.19
626.466	77.19
626.673	79.19
626.879	91.19
627.086	80.19
627.293	89.19
627.499	85.19
627.706	95.19
627.912	75.19
628.119	80.19
628.325	82.19
628.532	97.19
628.738	99.19
628.945	85.19
629.151	90.19
629.357	88.19
629.564	77.19
629.77	99.19
629.976	79.19
630.183	77.19
630.389	95.19
630.595	90.19
630.802	94.19
631.008	95.19
631.214	86.19
631.42	90.19
631.627	98.19
631.833	91.19
632.039	78.19
632.245	77.19
632.451	82.19
632.657	87.19
632.863	72.19
633.069	75.19
633.275	78.19
633.481	79.19
633.688	75.19
633.893	95.19
634.099	83.19
634.305	71.19
634.511	74.19
634.717	91.19
634.923	85.19
635.129	75.19
635.335	91.19
635.541	83.19
635.747	91.19
635.952	80.19
636.158	76.19
636.364	103.19
636.57	87.19
636.775	77.19
636.981	88.19
637.187	93.19
637.392	79.19
637.598	88.19
637.804	95.19
638.009	86.19
638.215	84.19
638.421	74.19
638.626	77.19
638.832	83.19
639.037	84.19
639.243	86.19
639.448	87.19
639.654	90.19
639.859	91.19
640.065	77.19
640.27	86.19
640.475	98.19
640.681	97.19
640.886	89.19
641.091	69.19
641.297	95.19
641.502	83.19
641.707	89.19
641.913	84.19
642.118	77.19
642.323	82.19
642.528	78.19
642.733	91.19
642.939	88.19
643.144	92.19
643.349	78.19
643.554	79.19
643.759	88.19
643.964	85.19
644.169	86.19
644.374	81.19
644.579	96.19
644.784	89.19
644.989	82.19
645.194	77.19
645.399	94.19
645.604	94.19
645.809	94.19
646.014	73.19
646.219	86.19
646.423	91.19
646.628	90.19
646.833	78.19
647.038	85.19
647.243	74.19
647.447	85.19
647.652	82.19
647.857	97.19
648.062	71.19
648.266	82.19
648.471	81.19
648.676	97.19
648.88	92.19
649.085	81.19
649.289	85.19
649.494	81.19
649.698	115.19
649.903	93.19
650.107	93.19
650.312	92.19
650.516	79.19
650.721	81.19
650.925	80.19
651.13	81.19
651.334	97.19
651.539	74.19
651.743	67.19
651.947	94.19
652.152	84.19
652.356	81.19
652.56	84.19
652.764	86.19
652.969	82.19
653.173	79.19
653.377	84.19
653.581	88.19
653.785	75.19
653.99	73.19
654.194	88.19
654.398	91.19
654.602	75.19
654.806	81.19
655.01	108.19
655.214	95.19
655.418	91.19
655.622	81.19
655.826	84.19
656.03	77.19
656.234	91.19
656.438	90.19
656.642	92.19
656.846	91.19
657.049	89.19
657.253	79.19
657.457	79.19
657.661	70.19
657.865	94.19
658.068	74.19
658.272	70.19
658.476	85.19
658.68	83.19
658.883	77.19
659.087	86.19
659.291	81.19
659.494	78.19
659.698	69.19
659.901	90.19
660.105	96.19
660.309	90.19
660.512	80.19
660.716	83.19
660.919	84.19
661.123	98.19
661.326	95.19
661.53	82.19
661.733	72.19
661.936	76.19
662.14	80.19
662.343	66.19
662.546	86.19
662.75	91.19
662.953	95.19
663.156	88.19
663.36	82.19
663.563	80.19
663.766	69.19
663.969	80.19
664.173	97.19
664.376	88.19
664.579	92.19
664.782	82.19
664.985	91.19
665.188	85.19
665.391	82.19
665.594	63.19
665.797	81.19
666	74.19
666.203	87.19
666.406	74.19
666.609	69.19
666.812	69.19
667.015	88.19
667.218	78.19
667.421	76.19
667.624	84.19
667.827	85.19
668.03	79.19
668.232	77.19
668.435	82.19
668.638	93.19
668.841	77.19
669.043	104.19
669.246	87.19
669.449	91.19
669.651	83.19
669.854	78.19
670.057	83.19
670.259	86.19
670.462	82.19
670.665	78.19
670.867	86.19
671.07	74.19
671.272	87.19
671.475	91.19
671.677	90.19
671.88	81.19
672.082	80.19
672.284	77.19
672.487	77.19
672.689	81.19
672.892	83.19
