Data from 237_1_HRD10591_00047.txt Node
Date: Mon Jan 19 14:10:53 EST 2026
User: Yrep
Spectrometer: HR+D1059
Trigger mode: 1
Integration Time (sec): 1.000000E-1
Scans to average: 1
Electric dark correction enabled: true
Nonlinearity correction enabled: false
Boxcar width: 0
XAxis mode: Wavelengths
Number of Pixels in Spectrum: 2048
>>>>>Begin Spectral Data<<<<<
223.165	-4.44
223.4	-4.44
223.635	-4.44
223.869	-22.44
224.104	-23.44
224.338	-16.44
224.573	-16.44
224.808	-19.44
225.042	11.56
225.277	-11.44
225.511	-10.44
225.746	-7.44
225.98	15.56
226.215	5.56
226.449	13.56
226.683	12.56
226.918	28.56
227.152	44.56
227.387	45.56
227.621	31.56
227.856	37.56
228.09	54.56
228.324	51.56
228.559	69.56
228.793	63.56
229.027	62.56
229.262	61.56
229.496	65.56
229.73	69.56
229.964	86.56
230.199	61.56
230.433	75.56
230.667	76.56
230.901	71.56
231.136	75.56
231.37	84.56
231.604	77.56
231.838	81.56
232.072	76.56
232.306	75.56
232.541	91.56
232.775	94.56
233.009	83.56
233.243	69.56
233.477	90.56
233.711	87.56
233.945	91.56
234.179	84.56
234.413	73.56
234.647	91.56
234.881	88.56
235.115	82.56
235.349	78.56
235.583	86.56
235.817	91.56
236.051	94.56
236.285	70.56
236.519	80.56
236.753	86.56
236.987	73.56
237.221	68.56
237.455	82.56
237.689	80.56
237.922	83.56
238.156	84.56
238.39	71.56
238.624	68.56
238.858	79.56
239.091	74.56
239.325	76.56
239.559	74.56
239.793	80.56
240.027	84.56
240.26	67.56
240.494	78.56
240.728	72.56
240.961	70.56
241.195	85.56
241.429	81.56
241.662	86.56
241.896	85.56
242.13	72.56
242.363	76.56
242.597	74.56
242.83	73.56
243.064	80.56
243.298	87.56
243.531	79.56
243.765	74.56
243.998	69.56
244.232	79.56
244.465	79.56
244.699	94.56
244.932	67.56
245.166	67.56
245.399	92.56
245.633	95.56
245.866	79.56
246.099	82.56
246.333	74.56
246.566	71.56
246.8	76.56
247.033	67.56
247.266	69.56
247.5	82.56
247.733	78.56
247.966	75.56
248.2	83.56
248.433	90.56
248.666	64.56
248.899	67.56
249.133	65.56
249.366	87.56
249.599	71.56
249.832	89.56
250.066	76.56
250.299	79.56
250.532	84.56
250.765	79.56
250.998	74.56
251.231	90.56
251.465	88.56
251.698	86.56
251.931	78.56
252.164	80.56
252.397	78.56
252.63	69.56
252.863	68.56
253.096	73.56
253.329	69.56
253.562	82.56
253.795	87.56
254.028	81.56
254.261	75.56
254.494	77.56
254.727	94.56
254.96	79.56
255.193	79.56
255.426	78.56
255.659	72.56
255.892	79.56
256.124	80.56
256.357	79.56
256.59	85.56
256.823	70.56
257.056	66.56
257.289	87.56
257.521	84.56
257.754	94.56
257.987	83.56
258.22	84.56
258.452	93.56
258.685	80.56
258.918	76.56
259.151	83.56
259.383	88.56
259.616	81.56
259.849	81.56
260.081	83.56
260.314	74.56
260.547	83.56
260.779	85.56
261.012	89.56
261.244	83.56
261.477	85.56
261.71	86.56
261.942	89.56
262.175	76.56
262.407	97.56
262.64	89.56
262.872	88.56
263.105	69.56
263.337	99.56
263.57	77.56
263.802	76.56
264.035	86.56
264.267	85.56
264.499	85.56
264.732	97.56
264.964	89.56
265.197	93.56
265.429	94.56
265.661	78.56
265.894	75.56
266.126	77.56
266.358	82.56
266.591	84.56
266.823	88.56
267.055	74.56
267.287	102.56
267.52	85.56
267.752	90.56
267.984	80.56
268.216	79.56
268.448	93.56
268.681	84.56
268.913	84.56
269.145	89.56
269.377	72.56
269.609	69.56
269.841	72.56
270.073	85.56
270.306	79.56
270.538	79.56
270.77	91.56
271.002	86.56
271.234	90.56
271.466	86.56
271.698	89.56
271.93	82.56
272.162	89.56
272.394	77.56
272.626	98.56
272.858	89.56
273.09	87.56
273.322	76.56
273.553	87.56
273.785	84.56
274.017	75.56
274.249	78.56
274.481	86.56
274.713	81.56
274.945	73.56
275.176	88.56
275.408	76.56
275.64	81.56
275.872	97.56
276.104	83.56
276.335	73.56
276.567	76.56
276.799	79.56
277.031	70.56
277.262	84.56
277.494	75.56
277.726	83.56
277.957	83.56
278.189	75.56
278.421	81.56
278.652	81.56
278.884	95.56
279.115	97.56
279.347	90.56
279.579	84.56
279.81	68.56
280.042	92.56
280.273	91.56
280.505	90.56
280.736	92.56
280.968	77.56
281.199	87.56
281.431	72.56
281.662	89.56
281.894	80.56
282.125	79.56
282.356	74.56
282.588	91.56
282.819	73.56
283.051	76.56
283.282	74.56
283.513	89.56
283.745	77.56
283.976	83.56
284.207	83.56
284.439	81.56
284.67	89.56
284.901	84.56
285.132	68.56
285.364	87.56
285.595	83.56
285.826	88.56
286.057	79.56
286.288	94.56
286.52	83.56
286.751	86.56
286.982	79.56
287.213	84.56
287.444	85.56
287.675	73.56
287.906	79.56
288.138	68.56
288.369	94.56
288.6	67.56
288.831	76.56
289.062	107.56
289.293	84.56
289.524	81.56
289.755	84.56
289.986	75.56
290.217	81.56
290.448	98.56
290.679	79.56
290.91	91.56
291.141	71.56
291.371	79.56
291.602	79.56
291.833	86.56
292.064	97.56
292.295	81.56
292.526	86.56
292.757	93.56
292.987	83.56
293.218	97.56
293.449	79.56
293.68	84.56
293.91	80.56
294.141	88.56
294.372	87.56
294.603	82.56
294.833	76.56
295.064	74.56
295.295	78.56
295.525	89.56
295.756	93.56
295.987	85.56
296.217	79.56
296.448	87.56
296.679	86.56
296.909	101.56
297.14	90.56
297.37	85.56
297.601	88.56
297.831	91.56
298.062	81.56
298.292	86.56
298.523	83.56
298.753	86.56
298.984	85.56
299.214	77.56
299.445	87.56
299.675	95.56
299.905	89.56
300.136	79.56
300.366	81.56
300.597	77.56
300.827	99.56
301.057	97.56
301.288	91.56
301.518	91.56
301.748	88.56
301.979	106.56
302.209	96.56
302.439	101.56
302.669	86.56
302.9	80.56
303.13	86.56
303.36	102.56
303.59	83.56
303.82	91.56
304.051	73.56
304.281	79.56
304.511	97.56
304.741	78.56
304.971	90.56
305.201	87.56
305.431	90.56
305.661	94.56
305.891	85.56
306.121	96.56
306.352	79.56
306.582	81.56
306.812	93.56
307.042	88.56
307.272	85.56
307.502	85.56
307.731	94.56
307.961	101.56
308.191	74.56
308.421	74.56
308.651	84.56
308.881	85.56
309.111	102.56
309.341	91.56
309.571	93.56
309.8	99.56
310.03	84.56
310.26	97.56
310.49	91.56
310.72	83.56
310.949	87.56
311.179	83.56
311.409	83.56
311.639	84.56
311.868	89.56
312.098	91.56
312.328	81.56
312.557	81.56
312.787	89.56
313.017	80.56
313.246	78.56
313.476	90.56
313.706	84.56
313.935	85.56
314.165	71.56
314.394	85.56
314.624	76.56
314.853	77.56
315.083	83.56
315.312	81.56
315.542	84.56
315.771	101.56
316.001	87.56
316.23	93.56
316.46	88.56
316.689	87.56
316.919	81.56
317.148	78.56
317.377	85.56
317.607	92.56
317.836	89.56
318.065	85.56
318.295	87.56
318.524	82.56
318.753	90.56
318.983	74.56
319.212	79.56
319.441	94.56
319.67	83.56
319.9	77.56
320.129	86.56
320.358	103.56
320.587	86.56
320.816	67.56
321.046	84.56
321.275	83.56
321.504	88.56
321.733	78.56
321.962	78.56
322.191	80.56
322.42	87.56
322.649	89.56
322.878	86.56
323.108	103.56
323.337	84.56
323.566	105.56
323.795	87.56
324.024	75.56
324.253	80.56
324.482	87.56
324.71	79.56
324.939	79.56
325.168	89.56
325.397	81.56
325.626	93.56
325.855	103.56
326.084	81.56
326.313	83.56
326.542	77.56
326.77	84.56
326.999	79.56
327.228	90.56
327.457	87.56
327.686	98.56
327.914	86.56
328.143	89.56
328.372	79.56
328.6	100.56
328.829	86.56
329.058	88.56
329.287	76.56
329.515	72.56
329.744	78.56
329.972	100.56
330.201	94.56
330.43	101.56
330.658	89.56
330.887	73.56
331.115	87.56
331.344	82.56
331.572	89.56
331.801	83.56
332.03	92.56
332.258	82.56
332.486	88.56
332.715	82.56
332.943	83.56
333.172	92.56
333.4	73.56
333.629	77.56
333.857	77.56
334.085	79.56
334.314	91.56
334.542	86.56
334.771	89.56
334.999	75.56
335.227	94.56
335.455	92.56
335.684	87.56
335.912	79.56
336.14	86.56
336.369	81.56
336.597	87.56
336.825	99.56
337.053	90.56
337.281	77.56
337.51	95.56
337.738	93.56
337.966	97.56
338.194	84.56
338.422	88.56
338.65	76.56
338.878	77.56
339.106	80.56
339.334	89.56
339.562	88.56
339.79	92.56
340.018	101.56
340.246	75.56
340.474	87.56
340.702	85.56
340.93	91.56
341.158	92.56
341.386	93.56
341.614	116.56
341.842	96.56
342.07	85.56
342.298	86.56
342.526	85.56
342.754	91.56
342.981	84.56
343.209	80.56
343.437	81.56
343.665	92.56
343.893	90.56
344.12	90.56
344.348	98.56
344.576	75.56
344.804	72.56
345.031	91.56
345.259	89.56
345.487	100.56
345.714	93.56
345.942	80.56
346.17	93.56
346.397	78.56
346.625	92.56
346.853	88.56
347.08	89.56
347.308	101.56
347.535	88.56
347.763	90.56
347.99	87.56
348.218	79.56
348.445	78.56
348.673	79.56
348.9	91.56
349.128	92.56
349.355	75.56
349.583	76.56
349.81	90.56
350.037	82.56
350.265	86.56
350.492	85.56
350.72	91.56
350.947	76.56
351.174	95.56
351.402	79.56
351.629	75.56
351.856	88.56
352.083	83.56
352.311	89.56
352.538	78.56
352.765	87.56
352.992	107.56
353.22	87.56
353.447	89.56
353.674	88.56
353.901	85.56
354.128	86.56
354.355	82.56
354.583	89.56
354.81	88.56
355.037	93.56
355.264	92.56
355.491	90.56
355.718	83.56
355.945	91.56
356.172	85.56
356.399	85.56
356.626	92.56
356.853	87.56
357.08	84.56
357.307	91.56
357.534	89.56
357.761	89.56
357.988	87.56
358.215	74.56
358.441	87.56
358.668	86.56
358.895	101.56
359.122	83.56
359.349	85.56
359.576	90.56
359.802	85.56
360.029	86.56
360.256	94.56
360.483	83.56
360.709	67.56
360.936	76.56
361.163	94.56
361.39	83.56
361.616	71.56
361.843	89.56
362.07	85.56
362.296	88.56
362.523	80.56
362.749	86.56
362.976	91.56
363.203	98.56
363.429	91.56
363.656	90.56
363.882	88.56
364.109	86.56
364.335	104.56
364.562	110.56
364.788	95.56
365.015	80.56
365.241	89.56
365.468	83.56
365.694	97.56
365.92	79.56
366.147	88.56
366.373	73.56
366.599	83.56
366.826	75.56
367.052	89.56
367.278	85.56
367.505	71.56
367.731	90.56
367.957	80.56
368.184	76.56
368.41	101.56
368.636	77.56
368.862	87.56
369.089	86.56
369.315	76.56
369.541	90.56
369.767	87.56
369.993	83.56
370.219	78.56
370.445	86.56
370.672	86.56
370.898	85.56
371.124	74.56
371.35	75.56
371.576	82.56
371.802	91.56
372.028	84.56
372.254	90.56
372.48	79.56
372.706	97.56
372.932	87.56
373.158	85.56
373.384	88.56
373.61	113.56
373.835	97.56
374.061	94.56
374.287	89.56
374.513	81.56
374.739	85.56
374.965	77.56
375.191	90.56
375.416	93.56
375.642	87.56
375.868	91.56
376.094	84.56
376.319	100.56
376.545	95.56
376.771	79.56
376.997	77.56
377.222	99.56
377.448	86.56
377.674	89.56
377.899	103.56
378.125	102.56
378.35	88.56
378.576	83.56
378.802	94.56
379.027	92.56
379.253	90.56
379.478	91.56
379.704	83.56
379.929	85.56
380.155	88.56
380.38	85.56
380.606	78.56
380.831	87.56
381.057	97.56
381.282	93.56
381.507	74.56
381.733	95.56
381.958	99.56
382.184	89.56
382.409	88.56
382.634	92.56
382.86	82.56
383.085	83.56
383.31	98.56
383.535	89.56
383.761	100.56
383.986	97.56
384.211	94.56
384.436	81.56
384.662	77.56
384.887	92.56
385.112	87.56
385.337	84.56
385.562	99.56
385.787	96.56
386.013	93.56
386.238	89.56
386.463	90.56
386.688	99.56
386.913	83.56
387.138	63.56
387.363	88.56
387.588	90.56
387.813	92.56
388.038	85.56
388.263	78.56
388.488	85.56
388.713	85.56
388.938	89.56
389.163	79.56
389.387	86.56
389.612	85.56
389.837	84.56
390.062	90.56
390.287	82.56
390.512	98.56
390.736	89.56
390.961	87.56
391.186	78.56
391.411	77.56
391.636	83.56
391.86	85.56
392.085	94.56
392.31	85.56
392.534	89.56
392.759	101.56
392.984	107.56
393.208	140.56
393.433	159.56
393.658	140.56
393.882	101.56
394.107	108.56
394.331	90.56
394.556	108.56
394.78	87.56
395.005	85.56
395.229	86.56
395.454	85.56
395.678	89.56
395.903	101.56
396.127	95.56
396.352	119.56
396.576	125.56
396.801	141.56
397.025	148.56
397.249	114.56
397.474	92.56
397.698	88.56
397.922	89.56
398.147	67.56
398.371	89.56
398.595	91.56
398.82	89.56
399.044	99.56
399.268	82.56
399.492	93.56
399.717	81.56
399.941	94.56
400.165	92.56
400.389	88.56
400.613	95.56
400.837	81.56
401.062	77.56
401.286	78.56
401.51	78.56
401.734	88.56
401.958	83.56
402.182	83.56
402.406	73.56
402.63	86.56
402.854	94.56
403.078	85.56
403.302	85.56
403.526	86.56
403.75	97.56
403.974	87.56
404.198	84.56
404.422	101.56
404.645	104.56
404.869	94.56
405.093	93.56
405.317	81.56
405.541	85.56
405.765	74.56
405.988	95.56
406.212	99.56
406.436	97.56
406.66	96.56
406.883	83.56
407.107	89.56
407.331	77.56
407.555	106.56
407.778	85.56
408.002	99.56
408.226	82.56
408.449	92.56
408.673	78.56
408.896	83.56
409.12	83.56
409.344	88.56
409.567	71.56
409.791	64.56
410.014	94.56
410.238	80.56
410.461	76.56
410.685	79.56
410.908	76.56
411.132	87.56
411.355	85.56
411.578	90.56
411.802	81.56
412.025	84.56
412.249	103.56
412.472	86.56
412.695	77.56
412.919	82.56
413.142	78.56
413.365	96.56
413.589	86.56
413.812	62.56
414.035	94.56
414.258	83.56
414.482	92.56
414.705	87.56
414.928	86.56
415.151	83.56
415.374	89.56
415.597	93.56
415.821	93.56
416.044	89.56
416.267	98.56
416.49	72.56
416.713	92.56
416.936	80.56
417.159	90.56
417.382	87.56
417.605	86.56
417.828	86.56
418.051	77.56
418.274	75.56
418.497	90.56
418.72	82.56
418.943	89.56
419.166	87.56
419.389	83.56
419.611	90.56
419.834	90.56
420.057	101.56
420.28	97.56
420.503	87.56
420.726	67.56
420.948	79.56
421.171	89.56
421.394	93.56
421.617	93.56
421.839	86.56
422.062	90.56
422.285	102.56
422.507	146.56
422.73	205.56
422.953	183.56
423.175	110.56
423.398	93.56
423.621	85.56
423.843	93.56
424.066	94.56
424.288	91.56
424.511	80.56
424.733	90.56
424.956	93.56
425.178	78.56
425.401	94.56
425.623	83.56
425.846	91.56
426.068	77.56
426.291	69.56
426.513	83.56
426.735	94.56
426.958	84.56
427.18	105.56
427.402	89.56
427.625	82.56
427.847	92.56
428.069	97.56
428.292	98.56
428.514	103.56
428.736	98.56
428.958	103.56
429.181	104.56
429.403	91.56
429.625	105.56
429.847	95.56
430.069	102.56
430.292	131.56
430.514	110.56
430.736	111.56
430.958	104.56
431.18	91.56
431.402	80.56
431.624	88.56
431.846	95.56
432.068	106.56
432.29	81.56
432.512	94.56
432.734	83.56
432.956	79.56
433.178	77.56
433.4	88.56
433.622	90.56
433.844	92.56
434.066	89.56
434.287	79.56
434.509	84.56
434.731	92.56
434.953	87.56
435.175	75.56
435.397	102.56
435.618	94.56
435.84	86.56
436.062	100.56
436.284	76.56
436.505	100.56
436.727	79.56
436.949	70.56
437.17	74.56
437.392	85.56
437.614	87.56
437.835	86.56
438.057	82.56
438.278	70.56
438.5	97.56
438.721	102.56
438.943	85.56
439.165	83.56
439.386	99.56
439.608	87.56
439.829	95.56
440.05	97.56
440.272	82.56
440.493	97.56
440.715	77.56
440.936	83.56
441.158	82.56
441.379	94.56
441.6	72.56
441.822	82.56
442.043	93.56
442.264	88.56
442.486	84.56
442.707	112.56
442.928	98.56
443.149	86.56
443.371	115.56
443.592	151.56
443.813	121.56
444.034	92.56
444.255	82.56
444.476	86.56
444.698	93.56
444.919	89.56
445.14	178.56
445.361	151.56
445.582	175.56
445.803	149.56
446.024	114.56
446.245	93.56
446.466	89.56
446.687	70.56
446.908	82.56
447.129	94.56
447.35	86.56
447.571	95.56
447.792	82.56
448.013	85.56
448.234	99.56
448.455	86.56
448.675	84.56
448.896	90.56
449.117	79.56
449.338	94.56
449.559	82.56
449.779	88.56
450	83.56
450.221	77.56
450.442	94.56
450.662	78.56
450.883	81.56
451.104	103.56
451.324	95.56
451.545	77.56
451.766	96.56
451.986	76.56
452.207	85.56
452.428	92.56
452.648	90.56
452.869	101.56
453.089	93.56
453.31	81.56
453.53	101.56
453.751	96.56
453.971	79.56
454.192	93.56
454.412	89.56
454.633	85.56
454.853	75.56
455.073	108.56
455.294	95.56
455.514	93.56
455.734	80.56
455.955	81.56
456.175	81.56
456.395	79.56
456.616	77.56
456.836	78.56
457.056	97.56
457.276	92.56
457.497	77.56
457.717	91.56
457.937	103.56
458.157	96.56
458.377	85.56
458.598	89.56
458.818	100.56
459.038	78.56
459.258	92.56
459.478	77.56
459.698	83.56
459.918	79.56
460.138	92.56
460.358	82.56
460.578	92.56
460.798	105.56
461.018	90.56
461.238	89.56
461.458	79.56
461.678	86.56
461.898	82.56
462.118	75.56
462.338	80.56
462.558	83.56
462.777	71.56
462.997	81.56
463.217	80.56
463.437	85.56
463.657	79.56
463.876	90.56
464.096	91.56
464.316	88.56
464.536	91.56
464.755	77.56
464.975	74.56
465.195	71.56
465.414	88.56
465.634	88.56
465.854	91.56
466.073	92.56
466.293	91.56
466.512	87.56
466.732	66.56
466.951	81.56
467.171	101.56
467.391	102.56
467.61	92.56
467.829	80.56
468.049	85.56
468.268	66.56
468.488	78.56
468.707	94.56
468.927	75.56
469.146	83.56
469.365	73.56
469.585	82.56
469.804	87.56
470.023	71.56
470.243	90.56
470.462	87.56
470.681	77.56
470.901	88.56
471.12	69.56
471.339	81.56
471.558	71.56
471.777	86.56
471.997	98.56
472.216	82.56
472.435	83.56
472.654	93.56
472.873	85.56
473.092	83.56
473.311	94.56
473.53	83.56
473.749	93.56
473.968	91.56
474.187	98.56
474.406	73.56
474.625	79.56
474.844	90.56
475.063	83.56
475.282	87.56
475.501	85.56
475.72	92.56
475.939	82.56
476.158	79.56
476.377	82.56
476.596	96.56
476.814	79.56
477.033	87.56
477.252	94.56
477.471	97.56
477.69	86.56
477.908	89.56
478.127	89.56
478.346	84.56
478.564	85.56
478.783	79.56
479.002	72.56
479.22	97.56
479.439	87.56
479.658	74.56
479.876	69.56
480.095	86.56
480.313	91.56
480.532	98.56
480.751	72.56
480.969	78.56
481.188	87.56
481.406	97.56
481.624	91.56
481.843	94.56
482.061	74.56
482.28	65.56
482.498	93.56
482.717	80.56
482.935	85.56
483.153	110.56
483.372	88.56
483.59	86.56
483.808	97.56
484.027	98.56
484.245	99.56
484.463	91.56
484.681	84.56
484.9	90.56
485.118	97.56
485.336	85.56
485.554	88.56
485.772	86.56
485.99	75.56
486.209	92.56
486.427	91.56
486.645	99.56
486.863	88.56
487.081	101.56
487.299	76.56
487.517	98.56
487.735	93.56
487.953	110.56
488.171	94.56
488.389	92.56
488.607	80.56
488.825	82.56
489.043	96.56
489.261	89.56
489.479	89.56
489.696	99.56
489.914	78.56
490.132	94.56
490.35	91.56
490.568	80.56
490.786	89.56
491.003	75.56
491.221	86.56
491.439	99.56
491.657	86.56
491.874	91.56
492.092	91.56
492.31	90.56
492.527	89.56
492.745	92.56
492.963	79.56
493.18	78.56
493.398	103.56
493.615	78.56
493.833	88.56
494.05	84.56
494.268	79.56
494.485	83.56
494.703	98.56
494.92	87.56
495.138	94.56
495.355	94.56
495.573	100.56
495.79	97.56
496.008	99.56
496.225	90.56
496.442	91.56
496.66	82.56
496.877	100.56
497.094	95.56
497.312	102.56
497.529	89.56
497.746	90.56
497.963	83.56
498.181	97.56
498.398	99.56
498.615	99.56
498.832	92.56
499.049	95.56
499.267	106.56
499.484	91.56
499.701	87.56
499.918	90.56
500.135	93.56
500.352	81.56
500.569	74.56
500.786	91.56
501.003	101.56
501.22	87.56
501.437	78.56
501.654	99.56
501.871	86.56
502.088	89.56
502.305	93.56
502.522	107.56
502.739	87.56
502.956	91.56
503.172	87.56
503.389	91.56
503.606	88.56
503.823	86.56
504.04	106.56
504.256	90.56
504.473	90.56
504.69	85.56
504.907	96.56
505.123	78.56
505.34	87.56
505.557	89.56
505.773	87.56
505.99	94.56
506.207	79.56
506.423	97.56
506.64	88.56
506.856	72.56
507.073	90.56
507.289	93.56
507.506	83.56
507.722	82.56
507.939	87.56
508.155	70.56
508.372	93.56
508.588	98.56
508.805	81.56
509.021	78.56
509.238	79.56
509.454	89.56
509.67	89.56
509.887	82.56
510.103	78.56
510.319	94.56
510.536	86.56
510.752	88.56
510.968	86.56
511.184	94.56
511.401	93.56
511.617	94.56
511.833	79.56
512.049	98.56
512.265	84.56
512.481	86.56
512.698	85.56
512.914	90.56
513.13	93.56
513.346	92.56
513.562	65.56
513.778	77.56
513.994	88.56
514.21	92.56
514.426	81.56
514.642	89.56
514.858	88.56
515.074	92.56
515.29	87.56
515.506	87.56
515.721	87.56
515.937	102.56
516.153	80.56
516.369	93.56
516.585	72.56
516.801	83.56
517.016	94.56
517.232	80.56
517.448	98.56
517.664	90.56
517.879	81.56
518.095	94.56
518.311	94.56
518.527	103.56
518.742	87.56
518.958	101.56
519.173	101.56
519.389	85.56
519.605	85.56
519.82	85.56
520.036	83.56
520.251	85.56
520.467	87.56
520.682	90.56
520.898	94.56
521.113	87.56
521.329	101.56
521.544	89.56
521.76	81.56
521.975	94.56
522.19	74.56
522.406	80.56
522.621	85.56
522.836	87.56
523.052	72.56
523.267	94.56
523.482	71.56
523.698	85.56
523.913	94.56
524.128	73.56
524.343	82.56
524.559	72.56
524.774	85.56
524.989	98.56
525.204	102.56
525.419	88.56
525.634	95.56
525.849	90.56
526.064	98.56
526.28	126.56
526.495	158.56
526.71	170.56
526.925	129.56
527.14	143.56
527.355	156.56
527.57	115.56
527.785	94.56
527.999	81.56
528.214	85.56
528.429	88.56
528.644	93.56
528.859	77.56
529.074	82.56
529.289	94.56
529.503	86.56
529.718	90.56
529.933	89.56
530.148	94.56
530.363	67.56
530.577	84.56
530.792	92.56
531.007	81.56
531.221	92.56
531.436	83.56
531.651	77.56
531.865	92.56
532.08	94.56
532.295	108.56
532.509	89.56
532.724	87.56
532.938	88.56
533.153	84.56
533.367	80.56
533.582	97.56
533.796	88.56
534.011	91.56
534.225	90.56
534.44	87.56
534.654	97.56
534.868	96.56
535.083	107.56
535.297	107.56
535.511	98.56
535.726	94.56
535.94	72.56
536.154	85.56
536.369	79.56
536.583	85.56
536.797	94.56
537.011	81.56
537.225	75.56
537.44	83.56
537.654	81.56
537.868	92.56
538.082	81.56
538.296	79.56
538.51	78.56
538.724	93.56
538.938	85.56
539.153	87.56
539.367	95.56
539.581	101.56
539.795	96.56
540.009	84.56
540.222	89.56
540.436	93.56
540.65	102.56
540.864	87.56
541.078	89.56
541.292	85.56
541.506	86.56
541.72	85.56
541.934	92.56
542.147	76.56
542.361	78.56
542.575	89.56
542.789	78.56
543.002	92.56
543.216	87.56
543.43	86.56
543.644	81.56
543.857	81.56
544.071	92.56
544.285	105.56
544.498	88.56
544.712	92.56
544.925	97.56
545.139	84.56
545.352	109.56
545.566	97.56
545.779	98.56
545.993	98.56
546.206	88.56
546.42	87.56
546.633	93.56
546.847	109.56
547.06	97.56
547.274	105.56
547.487	88.56
547.7	96.56
547.914	92.56
548.127	110.56
548.34	117.56
548.554	98.56
548.767	111.56
548.98	120.56
549.193	89.56
549.407	91.56
549.62	105.56
549.833	103.56
550.046	114.56
550.259	93.56
550.473	115.56
550.686	109.56
550.899	129.56
551.112	122.56
551.325	125.56
551.538	130.56
551.751	141.56
551.964	129.56
552.177	127.56
552.39	116.56
552.603	121.56
552.816	120.56
553.029	95.56
553.242	104.56
553.455	121.56
553.667	121.56
553.88	113.56
554.093	115.56
554.306	114.56
554.519	126.56
554.732	107.56
554.944	121.56
555.157	108.56
555.37	124.56
555.583	108.56
555.795	106.56
556.008	100.56
556.221	101.56
556.433	104.56
556.646	111.56
556.859	93.56
557.071	89.56
557.284	104.56
557.496	92.56
557.709	91.56
557.921	110.56
558.134	92.56
558.346	106.56
558.559	123.56
558.771	98.56
558.984	158.56
559.196	177.56
559.409	113.56
559.621	154.56
559.833	117.56
560.046	148.56
560.258	136.56
560.47	124.56
560.683	97.56
560.895	92.56
561.107	95.56
561.32	74.56
561.532	105.56
561.744	84.56
561.956	87.56
562.168	93.56
562.381	98.56
562.593	80.56
562.805	71.56
563.017	90.56
563.229	88.56
563.441	105.56
563.653	74.56
563.865	70.56
564.077	77.56
564.289	80.56
564.501	75.56
564.713	91.56
564.925	89.56
565.137	96.56
565.349	85.56
565.561	98.56
565.773	91.56
565.985	83.56
566.197	84.56
566.408	93.56
566.62	96.56
566.832	91.56
567.044	99.56
567.255	82.56
567.467	107.56
567.679	85.56
567.891	97.56
568.102	95.56
568.314	72.56
568.526	89.56
568.737	78.56
568.949	85.56
569.161	84.56
569.372	85.56
569.584	94.56
569.795	92.56
570.007	75.56
570.218	90.56
570.43	77.56
570.641	81.56
570.853	87.56
571.064	88.56
571.276	87.56
571.487	89.56
571.698	93.56
571.91	84.56
572.121	87.56
572.333	84.56
572.544	85.56
572.755	91.56
572.966	87.56
573.178	85.56
573.389	100.56
573.6	84.56
573.811	92.56
574.023	81.56
574.234	75.56
574.445	78.56
574.656	85.56
574.867	78.56
575.078	91.56
575.289	82.56
575.501	94.56
575.712	74.56
575.923	99.56
576.134	84.56
576.345	78.56
576.556	87.56
576.767	97.56
576.978	97.56
577.188	101.56
577.399	87.56
577.61	85.56
577.821	74.56
578.032	100.56
578.243	83.56
578.454	87.56
578.665	75.56
578.875	79.56
579.086	87.56
579.297	85.56
579.508	67.56
579.718	91.56
579.929	86.56
580.14	72.56
580.35	85.56
580.561	97.56
580.772	87.56
580.982	86.56
581.193	69.56
581.403	99.56
581.614	94.56
581.825	81.56
582.035	69.56
582.246	77.56
582.456	98.56
582.667	75.56
582.877	73.56
583.087	69.56
583.298	73.56
583.508	106.56
583.719	79.56
583.929	76.56
584.139	99.56
584.35	93.56
584.56	91.56
584.77	86.56
584.981	85.56
585.191	89.56
585.401	97.56
585.611	95.56
585.821	119.56
586.032	127.56
586.242	93.56
586.452	82.56
586.662	90.56
586.872	98.56
587.082	100.56
587.292	93.56
587.502	82.56
587.713	89.56
587.923	86.56
588.133	97.56
588.343	83.56
588.553	85.56
588.762	106.56
588.972	115.56
589.182	224.56
589.392	151.56
589.602	125.56
589.812	208.56
590.022	135.56
590.232	92.56
590.441	82.56
590.651	94.56
590.861	90.56
591.071	111.56
591.281	90.56
591.49	94.56
591.7	94.56
591.91	89.56
592.119	81.56
592.329	83.56
592.539	101.56
592.748	95.56
592.958	89.56
593.167	97.56
593.377	98.56
593.587	93.56
593.796	86.56
594.006	80.56
594.215	92.56
594.424	102.56
594.634	79.56
594.843	89.56
595.053	100.56
595.262	85.56
595.472	105.56
595.681	92.56
595.89	85.56
596.1	102.56
596.309	94.56
596.518	97.56
596.727	105.56
596.937	104.56
597.146	110.56
597.355	110.56
597.564	99.56
597.774	113.56
597.983	90.56
598.192	117.56
598.401	114.56
598.61	100.56
598.819	120.56
599.028	118.56
599.237	101.56
599.446	90.56
599.655	96.56
599.864	88.56
600.073	82.56
600.282	105.56
600.491	108.56
600.7	108.56
600.909	110.56
601.118	110.56
601.327	102.56
601.536	108.56
601.745	106.56
601.953	96.56
602.162	107.56
602.371	109.56
602.58	88.56
602.789	101.56
602.997	119.56
603.206	93.56
603.415	109.56
603.623	102.56
603.832	117.56
604.041	116.56
604.249	113.56
604.458	111.56
604.666	102.56
604.875	102.56
605.084	106.56
605.292	93.56
605.501	96.56
605.709	109.56
605.918	115.56
606.126	99.56
606.334	102.56
606.543	126.56
606.751	119.56
606.96	97.56
607.168	96.56
607.376	106.56
607.585	95.56
607.793	100.56
608.001	96.56
608.21	110.56
608.418	108.56
608.626	121.56
608.834	115.56
609.043	106.56
609.251	100.56
609.459	98.56
609.667	121.56
609.875	123.56
610.083	115.56
610.291	117.56
610.499	151.56
610.707	113.56
610.916	118.56
611.124	107.56
611.332	102.56
611.54	98.56
611.748	104.56
611.955	112.56
612.163	127.56
612.371	179.56
612.579	149.56
612.787	113.56
612.995	118.56
613.203	111.56
613.411	118.56
613.618	122.56
613.826	108.56
614.034	105.56
614.242	108.56
614.449	120.56
614.657	116.56
614.865	105.56
615.072	110.56
615.28	117.56
615.488	109.56
615.695	116.56
615.903	119.56
616.111	105.56
616.318	178.56
616.526	199.56
616.733	140.56
616.941	133.56
617.148	147.56
617.356	120.56
617.563	121.56
617.771	110.56
617.978	123.56
618.185	113.56
618.393	107.56
618.6	101.56
618.807	96.56
619.015	101.56
619.222	103.56
619.429	102.56
619.637	106.56
619.844	101.56
620.051	91.56
620.258	107.56
620.466	107.56
620.673	92.56
620.88	116.56
621.087	99.56
621.294	117.56
621.501	109.56
621.708	91.56
621.915	104.56
622.122	112.56
622.329	108.56
622.536	115.56
622.743	115.56
622.95	106.56
623.157	109.56
623.364	93.56
623.571	125.56
623.778	101.56
623.985	105.56
624.192	115.56
624.399	107.56
624.606	109.56
624.812	100.56
625.019	109.56
625.226	125.56
625.433	107.56
625.639	107.56
625.846	107.56
626.053	103.56
626.259	114.56
626.466	107.56
626.673	106.56
626.879	113.56
627.086	112.56
627.293	110.56
627.499	100.56
627.706	93.56
627.912	91.56
628.119	88.56
628.325	93.56
628.532	93.56
628.738	82.56
628.945	94.56
629.151	90.56
629.357	76.56
629.564	93.56
629.77	94.56
629.976	90.56
630.183	92.56
630.389	84.56
630.595	90.56
630.802	97.56
631.008	99.56
631.214	88.56
631.42	84.56
631.627	80.56
631.833	77.56
632.039	84.56
632.245	86.56
632.451	72.56
632.657	78.56
632.863	99.56
633.069	87.56
633.275	94.56
633.481	85.56
633.688	72.56
633.893	81.56
634.099	91.56
634.305	94.56
634.511	94.56
634.717	86.56
634.923	100.56
635.129	93.56
635.335	94.56
635.541	87.56
635.747	93.56
635.952	84.56
636.158	98.56
636.364	78.56
636.57	94.56
636.775	83.56
636.981	84.56
637.187	101.56
637.392	79.56
637.598	92.56
637.804	93.56
638.009	96.56
638.215	93.56
638.421	78.56
638.626	86.56
638.832	90.56
639.037	78.56
639.243	92.56
639.448	98.56
639.654	96.56
639.859	87.56
640.065	95.56
640.27	88.56
640.475	83.56
640.681	83.56
640.886	94.56
641.091	86.56
641.297	83.56
641.502	80.56
641.707	88.56
641.913	98.56
642.118	93.56
642.323	88.56
642.528	78.56
642.733	90.56
642.939	74.56
643.144	88.56
643.349	76.56
643.554	84.56
643.759	92.56
643.964	92.56
644.169	116.56
644.374	92.56
644.579	88.56
644.784	94.56
644.989	91.56
645.194	94.56
645.399	85.56
645.604	89.56
645.809	85.56
646.014	77.56
646.219	87.56
646.423	92.56
646.628	107.56
646.833	77.56
647.038	98.56
647.243	94.56
647.447	97.56
647.652	87.56
647.857	80.56
648.062	93.56
648.266	90.56
648.471	89.56
648.676	98.56
648.88	87.56
649.085	89.56
649.289	85.56
649.494	101.56
649.698	106.56
649.903	84.56
650.107	77.56
650.312	81.56
650.516	87.56
650.721	99.56
650.925	72.56
651.13	81.56
651.334	78.56
651.539	94.56
651.743	95.56
651.947	95.56
652.152	89.56
652.356	86.56
652.56	83.56
652.764	83.56
652.969	82.56
653.173	95.56
653.377	95.56
653.581	90.56
653.785	81.56
653.99	88.56
654.194	85.56
654.398	96.56
654.602	93.56
654.806	85.56
655.01	73.56
655.214	78.56
655.418	89.56
655.622	91.56
655.826	87.56
656.03	89.56
656.234	85.56
656.438	91.56
656.642	83.56
656.846	87.56
657.049	86.56
657.253	88.56
657.457	79.56
657.661	72.56
657.865	93.56
658.068	91.56
658.272	79.56
658.476	79.56
658.68	85.56
658.883	85.56
659.087	70.56
659.291	88.56
659.494	90.56
659.698	78.56
659.901	84.56
660.105	80.56
660.309	99.56
660.512	80.56
660.716	77.56
660.919	92.56
661.123	88.56
661.326	100.56
661.53	90.56
661.733	70.56
661.936	91.56
662.14	85.56
662.343	80.56
662.546	86.56
662.75	100.56
662.953	95.56
663.156	90.56
663.36	69.56
663.563	83.56
663.766	75.56
663.969	71.56
664.173	85.56
664.376	79.56
664.579	75.56
664.782	83.56
664.985	97.56
665.188	81.56
665.391	76.56
665.594	75.56
665.797	82.56
666	105.56
666.203	88.56
666.406	86.56
666.609	85.56
666.812	88.56
667.015	94.56
667.218	97.56
667.421	86.56
667.624	90.56
667.827	86.56
668.03	89.56
668.232	63.56
668.435	82.56
668.638	83.56
668.841	91.56
669.043	84.56
669.246	90.56
669.449	95.56
669.651	92.56
669.854	84.56
670.057	94.56
670.259	94.56
670.462	70.56
670.665	84.56
670.867	75.56
671.07	75.56
671.272	83.56
671.475	88.56
671.677	94.56
671.88	83.56
672.082	96.56
672.284	84.56
672.487	98.56
672.689	84.56
672.892	86.56
