Data from 237_1_HRD10591_00005.txt Node
Date: Mon Jan 19 14:10:32 EST 2026
User: Yrep
Spectrometer: HR+D1059
Trigger mode: 1
Integration Time (sec): 1.000000E-1
Scans to average: 1
Electric dark correction enabled: true
Nonlinearity correction enabled: false
Boxcar width: 0
XAxis mode: Wavelengths
Number of Pixels in Spectrum: 2048
>>>>>Begin Spectral Data<<<<<
223.165	-21.69
223.4	-21.69
223.635	-21.69
223.869	-31.69
224.104	-20.69
224.338	-5.69
224.573	-23.69
224.808	-20.69
225.042	-2.69
225.277	-1.69
225.511	14.31
225.746	5.31
225.98	4.31
226.215	16.31
226.449	4.31
226.683	11.31
226.918	32.31
227.152	40.31
227.387	28.31
227.621	40.31
227.856	48.31
228.09	35.31
228.324	47.31
228.559	60.31
228.793	59.31
229.027	50.31
229.262	66.31
229.496	64.31
229.73	81.31
229.964	84.31
230.199	72.31
230.433	69.31
230.667	91.31
230.901	78.31
231.136	92.31
231.37	74.31
231.604	86.31
231.838	105.31
232.072	78.31
232.306	79.31
232.541	77.31
232.775	79.31
233.009	84.31
233.243	90.31
233.477	82.31
233.711	81.31
233.945	67.31
234.179	74.31
234.413	92.31
234.647	82.31
234.881	68.31
235.115	80.31
235.349	91.31
235.583	85.31
235.817	72.31
236.051	90.31
236.285	81.31
236.519	71.31
236.753	86.31
236.987	78.31
237.221	80.31
237.455	90.31
237.689	86.31
237.922	78.31
238.156	81.31
238.39	76.31
238.624	80.31
238.858	73.31
239.091	86.31
239.325	66.31
239.559	69.31
239.793	60.31
240.027	77.31
240.26	78.31
240.494	93.31
240.728	78.31
240.961	74.31
241.195	71.31
241.429	74.31
241.662	71.31
241.896	70.31
242.13	93.31
242.363	78.31
242.597	84.31
242.83	80.31
243.064	70.31
243.298	77.31
243.531	68.31
243.765	83.31
243.998	74.31
244.232	82.31
244.465	77.31
244.699	86.31
244.932	78.31
245.166	66.31
245.399	83.31
245.633	85.31
245.866	83.31
246.099	76.31
246.333	88.31
246.566	86.31
246.8	81.31
247.033	74.31
247.266	81.31
247.5	67.31
247.733	70.31
247.966	73.31
248.2	81.31
248.433	94.31
248.666	86.31
248.899	82.31
249.133	81.31
249.366	78.31
249.599	70.31
249.832	77.31
250.066	97.31
250.299	80.31
250.532	79.31
250.765	73.31
250.998	71.31
251.231	79.31
251.465	84.31
251.698	71.31
251.931	83.31
252.164	76.31
252.397	77.31
252.63	60.31
252.863	90.31
253.096	87.31
253.329	92.31
253.562	97.31
253.795	72.31
254.028	82.31
254.261	91.31
254.494	77.31
254.727	91.31
254.96	97.31
255.193	76.31
255.426	80.31
255.659	79.31
255.892	78.31
256.124	82.31
256.357	86.31
256.59	90.31
256.823	85.31
257.056	79.31
257.289	68.31
257.521	93.31
257.754	90.31
257.987	72.31
258.22	81.31
258.452	91.31
258.685	77.31
258.918	76.31
259.151	53.31
259.383	73.31
259.616	84.31
259.849	81.31
260.081	79.31
260.314	87.31
260.547	67.31
260.779	74.31
261.012	96.31
261.244	81.31
261.477	91.31
261.71	93.31
261.942	82.31
262.175	81.31
262.407	75.31
262.64	74.31
262.872	84.31
263.105	91.31
263.337	97.31
263.57	82.31
263.802	96.31
264.035	83.31
264.267	76.31
264.499	80.31
264.732	86.31
264.964	88.31
265.197	100.31
265.429	80.31
265.661	75.31
265.894	86.31
266.126	92.31
266.358	76.31
266.591	101.31
266.823	94.31
267.055	72.31
267.287	83.31
267.52	88.31
267.752	93.31
267.984	94.31
268.216	100.31
268.448	86.31
268.681	86.31
268.913	91.31
269.145	112.31
269.377	98.31
269.609	74.31
269.841	84.31
270.073	77.31
270.306	81.31
270.538	76.31
270.77	100.31
271.002	93.31
271.234	86.31
271.466	84.31
271.698	73.31
271.93	72.31
272.162	76.31
272.394	90.31
272.626	81.31
272.858	85.31
273.09	86.31
273.322	93.31
273.553	92.31
273.785	86.31
274.017	76.31
274.249	74.31
274.481	76.31
274.713	77.31
274.945	78.31
275.176	69.31
275.408	89.31
275.64	86.31
275.872	95.31
276.104	85.31
276.335	82.31
276.567	72.31
276.799	82.31
277.031	81.31
277.262	79.31
277.494	85.31
277.726	81.31
277.957	89.31
278.189	93.31
278.421	86.31
278.652	77.31
278.884	93.31
279.115	91.31
279.347	91.31
279.579	83.31
279.81	79.31
280.042	100.31
280.273	90.31
280.505	102.31
280.736	74.31
280.968	83.31
281.199	71.31
281.431	85.31
281.662	98.31
281.894	89.31
282.125	95.31
282.356	75.31
282.588	80.31
282.819	86.31
283.051	74.31
283.282	94.31
283.513	91.31
283.745	90.31
283.976	73.31
284.207	90.31
284.439	90.31
284.67	84.31
284.901	70.31
285.132	95.31
285.364	102.31
285.595	82.31
285.826	85.31
286.057	103.31
286.288	85.31
286.52	92.31
286.751	86.31
286.982	85.31
287.213	78.31
287.444	92.31
287.675	83.31
287.906	89.31
288.138	89.31
288.369	77.31
288.6	98.31
288.831	76.31
289.062	86.31
289.293	92.31
289.524	87.31
289.755	76.31
289.986	97.31
290.217	100.31
290.448	89.31
290.679	77.31
290.91	94.31
291.141	90.31
291.371	97.31
291.602	80.31
291.833	75.31
292.064	94.31
292.295	91.31
292.526	87.31
292.757	93.31
292.987	90.31
293.218	78.31
293.449	97.31
293.68	85.31
293.91	95.31
294.141	96.31
294.372	101.31
294.603	88.31
294.833	84.31
295.064	82.31
295.295	72.31
295.525	79.31
295.756	104.31
295.987	100.31
296.217	82.31
296.448	87.31
296.679	76.31
296.909	84.31
297.14	94.31
297.37	96.31
297.601	90.31
297.831	87.31
298.062	98.31
298.292	77.31
298.523	92.31
298.753	76.31
298.984	83.31
299.214	104.31
299.445	98.31
299.675	82.31
299.905	82.31
300.136	89.31
300.366	91.31
300.597	101.31
300.827	98.31
301.057	94.31
301.288	96.31
301.518	94.31
301.748	96.31
301.979	101.31
302.209	92.31
302.439	88.31
302.669	85.31
302.9	86.31
303.13	91.31
303.36	80.31
303.59	87.31
303.82	84.31
304.051	102.31
304.281	97.31
304.511	87.31
304.741	93.31
304.971	99.31
305.201	86.31
305.431	74.31
305.661	90.31
305.891	103.31
306.121	74.31
306.352	81.31
306.582	91.31
306.812	87.31
307.042	86.31
307.272	98.31
307.502	104.31
307.731	98.31
307.961	94.31
308.191	106.31
308.421	99.31
308.651	90.31
308.881	104.31
309.111	105.31
309.341	104.31
309.571	100.31
309.8	96.31
310.03	101.31
310.26	78.31
310.49	95.31
310.72	92.31
310.949	90.31
311.179	93.31
311.409	88.31
311.639	68.31
311.868	88.31
312.098	108.31
312.328	90.31
312.557	78.31
312.787	96.31
313.017	84.31
313.246	86.31
313.476	97.31
313.706	87.31
313.935	101.31
314.165	83.31
314.394	90.31
314.624	95.31
314.853	95.31
315.083	81.31
315.312	100.31
315.542	102.31
315.771	95.31
316.001	102.31
316.23	113.31
316.46	102.31
316.689	100.31
316.919	102.31
317.148	78.31
317.377	93.31
317.607	110.31
317.836	101.31
318.065	135.31
318.295	109.31
318.524	101.31
318.753	73.31
318.983	104.31
319.212	94.31
319.441	92.31
319.67	94.31
319.9	97.31
320.129	88.31
320.358	85.31
320.587	74.31
320.816	89.31
321.046	93.31
321.275	91.31
321.504	100.31
321.733	87.31
321.962	92.31
322.191	107.31
322.42	108.31
322.649	108.31
322.878	100.31
323.108	98.31
323.337	97.31
323.566	91.31
323.795	83.31
324.024	100.31
324.253	88.31
324.482	96.31
324.71	94.31
324.939	94.31
325.168	90.31
325.397	88.31
325.626	89.31
325.855	90.31
326.084	87.31
326.313	85.31
326.542	86.31
326.77	92.31
326.999	76.31
327.228	85.31
327.457	91.31
327.686	92.31
327.914	87.31
328.143	102.31
328.372	84.31
328.6	80.31
328.829	86.31
329.058	100.31
329.287	90.31
329.515	84.31
329.744	84.31
329.972	93.31
330.201	99.31
330.43	92.31
330.658	106.31
330.887	110.31
331.115	91.31
331.344	88.31
331.572	99.31
331.801	75.31
332.03	82.31
332.258	81.31
332.486	92.31
332.715	89.31
332.943	89.31
333.172	104.31
333.4	85.31
333.629	82.31
333.857	100.31
334.085	103.31
334.314	92.31
334.542	104.31
334.771	109.31
334.999	104.31
335.227	98.31
335.455	103.31
335.684	101.31
335.912	128.31
336.14	114.31
336.369	108.31
336.597	80.31
336.825	105.31
337.053	92.31
337.281	89.31
337.51	85.31
337.738	97.31
337.966	91.31
338.194	97.31
338.422	96.31
338.65	93.31
338.878	104.31
339.106	88.31
339.334	108.31
339.562	85.31
339.79	86.31
340.018	89.31
340.246	90.31
340.474	94.31
340.702	102.31
340.93	89.31
341.158	99.31
341.386	91.31
341.614	98.31
341.842	85.31
342.07	94.31
342.298	84.31
342.526	87.31
342.754	92.31
342.981	93.31
343.209	79.31
343.437	102.31
343.665	105.31
343.893	86.31
344.12	114.31
344.348	118.31
344.576	93.31
344.804	88.31
345.031	88.31
345.259	88.31
345.487	96.31
345.714	101.31
345.942	102.31
346.17	94.31
346.397	97.31
346.625	82.31
346.853	81.31
347.08	85.31
347.308	99.31
347.535	95.31
347.763	87.31
347.99	91.31
348.218	88.31
348.445	92.31
348.673	102.31
348.9	96.31
349.128	91.31
349.355	87.31
349.583	100.31
349.81	82.31
350.037	92.31
350.265	86.31
350.492	94.31
350.72	97.31
350.947	77.31
351.174	90.31
351.402	96.31
351.629	85.31
351.856	76.31
352.083	88.31
352.311	98.31
352.538	78.31
352.765	86.31
352.992	97.31
353.22	96.31
353.447	85.31
353.674	89.31
353.901	83.31
354.128	99.31
354.355	90.31
354.583	82.31
354.81	93.31
355.037	96.31
355.264	94.31
355.491	94.31
355.718	93.31
355.945	85.31
356.172	94.31
356.399	110.31
356.626	108.31
356.853	102.31
357.08	115.31
357.307	95.31
357.534	87.31
357.761	90.31
357.988	124.31
358.215	116.31
358.441	128.31
358.668	98.31
358.895	101.31
359.122	99.31
359.349	101.31
359.576	89.31
359.802	100.31
360.029	92.31
360.256	101.31
360.483	100.31
360.709	92.31
360.936	109.31
361.163	105.31
361.39	83.31
361.616	108.31
361.843	105.31
362.07	117.31
362.296	119.31
362.523	120.31
362.749	162.31
362.976	160.31
363.203	183.31
363.429	134.31
363.656	123.31
363.882	111.31
364.109	157.31
364.335	227.31
364.562	232.31
364.788	165.31
365.015	120.31
365.241	109.31
365.468	104.31
365.694	97.31
365.92	99.31
366.147	92.31
366.373	84.31
366.599	85.31
366.826	101.31
367.052	98.31
367.278	107.31
367.505	104.31
367.731	100.31
367.957	99.31
368.184	94.31
368.41	88.31
368.636	98.31
368.862	105.31
369.089	86.31
369.315	95.31
369.541	98.31
369.767	99.31
369.993	99.31
370.219	96.31
370.445	101.31
370.672	122.31
370.898	100.31
371.124	78.31
371.35	90.31
371.576	96.31
371.802	108.31
372.028	139.31
372.254	132.31
372.48	99.31
372.706	105.31
372.932	109.31
373.158	117.31
373.384	134.31
373.61	134.31
373.835	151.31
374.061	130.31
374.287	99.31
374.513	134.31
374.739	144.31
374.965	124.31
375.191	116.31
375.416	107.31
375.642	112.31
375.868	122.31
376.094	106.31
376.319	108.31
376.545	98.31
376.771	91.31
376.997	108.31
377.222	82.31
377.448	92.31
377.674	96.31
377.899	88.31
378.125	84.31
378.35	99.31
378.576	92.31
378.802	89.31
379.027	77.31
379.253	101.31
379.478	85.31
379.704	92.31
379.929	91.31
380.155	95.31
380.38	96.31
380.606	104.31
380.831	99.31
381.057	95.31
381.282	107.31
381.507	103.31
381.733	105.31
381.958	123.31
382.184	119.31
382.409	126.31
382.634	124.31
382.86	116.31
383.085	93.31
383.31	113.31
383.535	120.31
383.761	114.31
383.986	123.31
384.211	109.31
384.436	107.31
384.662	108.31
384.887	104.31
385.112	104.31
385.337	103.31
385.562	109.31
385.787	124.31
386.013	127.31
386.238	123.31
386.463	116.31
386.688	121.31
386.913	107.31
387.138	109.31
387.363	124.31
387.588	106.31
387.813	117.31
388.038	105.31
388.263	113.31
388.488	118.31
388.713	112.31
388.938	122.31
389.163	118.31
389.387	92.31
389.612	84.31
389.837	102.31
390.062	107.31
390.287	107.31
390.512	114.31
390.736	90.31
390.961	97.31
391.186	107.31
391.411	106.31
391.636	97.31
391.86	113.31
392.085	128.31
392.31	135.31
392.534	135.31
392.759	195.31
392.984	279.31
393.208	550.31
393.433	800.31
393.658	581.31
393.882	243.31
394.107	146.31
394.331	172.31
394.556	167.31
394.78	145.31
395.005	134.31
395.229	119.31
395.454	120.31
395.678	149.31
395.903	170.31
396.127	192.31
396.352	240.31
396.576	320.31
396.801	529.31
397.025	616.31
397.249	313.31
397.474	206.31
397.698	149.31
397.922	124.31
398.147	105.31
398.371	94.31
398.595	99.31
398.82	96.31
399.044	104.31
399.268	97.31
399.492	109.31
399.717	107.31
399.941	115.31
400.165	100.31
400.389	84.31
400.613	106.31
400.837	97.31
401.062	94.31
401.286	96.31
401.51	104.31
401.734	109.31
401.958	96.31
402.182	82.31
402.406	88.31
402.63	84.31
402.854	107.31
403.078	108.31
403.302	116.31
403.526	115.31
403.75	94.31
403.974	105.31
404.198	137.31
404.422	158.31
404.645	190.31
404.869	150.31
405.093	122.31
405.317	89.31
405.541	105.31
405.765	108.31
405.988	89.31
406.212	109.31
406.436	116.31
406.66	95.31
406.883	100.31
407.107	96.31
407.331	104.31
407.555	116.31
407.778	145.31
408.002	137.31
408.226	104.31
408.449	86.31
408.673	116.31
408.896	89.31
409.12	103.31
409.344	131.31
409.567	114.31
409.791	132.31
410.014	132.31
410.238	109.31
410.461	100.31
410.685	106.31
410.908	107.31
411.132	96.31
411.355	108.31
411.578	102.31
411.802	89.31
412.025	90.31
412.249	94.31
412.472	84.31
412.695	90.31
412.919	84.31
413.142	93.31
413.365	106.31
413.589	82.31
413.812	93.31
414.035	100.31
414.258	96.31
414.482	112.31
414.705	97.31
414.928	94.31
415.151	88.31
415.374	93.31
415.597	86.31
415.821	102.31
416.044	108.31
416.267	96.31
416.49	84.31
416.713	100.31
416.936	104.31
417.159	90.31
417.382	104.31
417.605	93.31
417.828	108.31
418.051	88.31
418.274	96.31
418.497	90.31
418.72	103.31
418.943	97.31
419.166	93.31
419.389	90.31
419.611	84.31
419.834	98.31
420.057	96.31
420.28	93.31
420.503	106.31
420.726	99.31
420.948	100.31
421.171	117.31
421.394	136.31
421.617	157.31
421.839	183.31
422.062	216.31
422.285	340.31
422.507	638.31
422.73	1001.31
422.953	874.31
423.175	461.31
423.398	249.31
423.621	160.31
423.843	133.31
424.066	123.31
424.288	109.31
424.511	116.31
424.733	110.31
424.956	110.31
425.178	120.31
425.401	116.31
425.623	109.31
425.846	104.31
426.068	112.31
426.291	114.31
426.513	100.31
426.735	97.31
426.958	107.31
427.18	107.31
427.402	112.31
427.625	118.31
427.847	105.31
428.069	126.31
428.292	211.31
428.514	249.31
428.736	176.31
428.958	229.31
429.181	250.31
429.403	134.31
429.625	134.31
429.847	200.31
430.069	322.31
430.292	376.31
430.514	350.31
430.736	237.31
430.958	266.31
431.18	167.31
431.402	123.31
431.624	122.31
431.846	213.31
432.068	250.31
432.29	137.31
432.512	116.31
432.734	114.31
432.956	92.31
433.178	104.31
433.4	108.31
433.622	97.31
433.844	94.31
434.066	92.31
434.287	94.31
434.509	88.31
434.731	88.31
434.953	96.31
435.175	109.31
435.397	106.31
435.618	114.31
435.84	102.31
436.062	108.31
436.284	107.31
436.505	91.31
436.727	83.31
436.949	96.31
437.17	98.31
437.392	96.31
437.614	102.31
437.835	108.31
438.057	105.31
438.278	102.31
438.5	121.31
438.721	96.31
438.943	100.31
439.165	75.31
439.386	93.31
439.608	97.31
439.829	93.31
440.05	100.31
440.272	108.31
440.493	106.31
440.715	100.31
440.936	102.31
441.158	109.31
441.379	116.31
441.6	101.31
441.822	104.31
442.043	109.31
442.264	152.31
442.486	231.31
442.707	361.31
442.928	219.31
443.149	183.31
443.371	314.31
443.592	619.31
443.813	504.31
444.034	184.31
444.255	132.31
444.476	112.31
444.698	107.31
444.919	136.31
445.14	248.31
445.361	404.31
445.582	718.31
445.803	595.31
446.024	219.31
446.245	125.31
446.466	117.31
446.687	89.31
446.908	98.31
447.129	88.31
447.35	92.31
447.571	94.31
447.792	98.31
448.013	86.31
448.234	98.31
448.455	103.31
448.675	90.31
448.896	91.31
449.117	102.31
449.338	84.31
449.559	94.31
449.779	104.31
450	94.31
450.221	89.31
450.442	76.31
450.662	80.31
450.883	98.31
451.104	92.31
451.324	101.31
451.545	102.31
451.766	106.31
451.986	102.31
452.207	96.31
452.428	99.31
452.648	125.31
452.869	141.31
453.089	118.31
453.31	100.31
453.53	102.31
453.751	106.31
453.971	99.31
454.192	85.31
454.412	93.31
454.633	95.31
454.853	84.31
455.073	101.31
455.294	100.31
455.514	106.31
455.734	92.31
455.955	98.31
456.175	92.31
456.395	92.31
456.616	98.31
456.836	96.31
457.056	90.31
457.276	88.31
457.497	94.31
457.717	114.31
457.937	160.31
458.157	202.31
458.377	197.31
458.598	179.31
458.818	212.31
459.038	144.31
459.258	90.31
459.478	99.31
459.698	94.31
459.918	88.31
460.138	88.31
460.358	101.31
460.578	114.31
460.798	173.31
461.018	165.31
461.238	97.31
461.458	103.31
461.678	82.31
461.898	87.31
462.118	96.31
462.338	89.31
462.558	98.31
462.777	84.31
462.997	96.31
463.217	82.31
463.437	96.31
463.657	104.31
463.876	87.31
464.096	102.31
464.316	92.31
464.536	85.31
464.755	87.31
464.975	84.31
465.195	75.31
465.414	85.31
465.634	90.31
465.854	104.31
466.073	101.31
466.293	96.31
466.512	83.31
466.732	100.31
466.951	82.31
467.171	111.31
467.391	94.31
467.61	84.31
467.829	94.31
468.049	96.31
468.268	100.31
468.488	105.31
468.707	111.31
468.927	102.31
469.146	91.31
469.365	93.31
469.585	83.31
469.804	94.31
470.023	88.31
470.243	90.31
470.462	91.31
470.681	89.31
470.901	102.31
471.12	96.31
471.339	73.31
471.558	97.31
471.777	76.31
471.997	86.31
472.216	83.31
472.435	87.31
472.654	96.31
472.873	98.31
473.092	86.31
473.311	102.31
473.53	91.31
473.749	100.31
473.968	89.31
474.187	96.31
474.406	94.31
474.625	106.31
474.844	95.31
475.063	85.31
475.282	98.31
475.501	101.31
475.72	96.31
475.939	84.31
476.158	88.31
476.377	96.31
476.596	98.31
476.814	91.31
477.033	93.31
477.252	101.31
477.471	106.31
477.69	92.31
477.908	104.31
478.127	98.31
478.346	96.31
478.564	97.31
478.783	97.31
479.002	85.31
479.22	90.31
479.439	95.31
479.658	86.31
479.876	104.31
480.095	90.31
480.313	96.31
480.532	103.31
480.751	96.31
480.969	94.31
481.188	88.31
481.406	103.31
481.624	91.31
481.843	100.31
482.061	91.31
482.28	85.31
482.498	108.31
482.717	95.31
482.935	99.31
483.153	99.31
483.372	104.31
483.59	98.31
483.808	97.31
484.027	102.31
484.245	113.31
484.463	91.31
484.681	97.31
484.9	101.31
485.118	98.31
485.336	103.31
485.554	107.31
485.772	106.31
485.99	99.31
486.209	92.31
486.427	114.31
486.645	111.31
486.863	104.31
487.081	116.31
487.299	118.31
487.517	133.31
487.735	166.31
487.953	350.31
488.171	274.31
488.389	123.31
488.607	88.31
488.825	101.31
489.043	89.31
489.261	114.31
489.479	110.31
489.696	100.31
489.914	89.31
490.132	111.31
490.35	88.31
490.568	93.31
490.786	96.31
491.003	86.31
491.221	101.31
491.439	89.31
491.657	87.31
491.874	102.31
492.092	98.31
492.31	109.31
492.527	92.31
492.745	96.31
492.963	100.31
493.18	98.31
493.398	113.31
493.615	111.31
493.833	104.31
494.05	88.31
494.268	101.31
494.485	96.31
494.703	104.31
494.92	89.31
495.138	84.31
495.355	106.31
495.573	96.31
495.79	108.31
496.008	116.31
496.225	98.31
496.442	104.31
496.66	109.31
496.877	103.31
497.094	97.31
497.312	102.31
497.529	96.31
497.746	93.31
497.963	94.31
498.181	110.31
498.398	112.31
498.615	92.31
498.832	108.31
499.049	100.31
499.267	121.31
499.484	110.31
499.701	93.31
499.918	95.31
500.135	102.31
500.352	95.31
500.569	97.31
500.786	115.31
501.003	124.31
501.22	97.31
501.437	89.31
501.654	88.31
501.871	90.31
502.088	103.31
502.305	92.31
502.522	86.31
502.739	112.31
502.956	86.31
503.172	105.31
503.389	106.31
503.606	109.31
503.823	125.31
504.04	141.31
504.256	221.31
504.473	228.31
504.69	126.31
504.907	109.31
505.123	108.31
505.34	94.31
505.557	105.31
505.773	105.31
505.99	93.31
506.207	89.31
506.423	89.31
506.64	102.31
506.856	88.31
507.073	92.31
507.289	88.31
507.506	112.31
507.722	104.31
507.939	93.31
508.155	97.31
508.372	95.31
508.588	97.31
508.805	92.31
509.021	93.31
509.238	85.31
509.454	103.31
509.67	98.31
509.887	99.31
510.103	88.31
510.319	103.31
510.536	107.31
510.752	101.31
510.968	98.31
511.184	102.31
511.401	102.31
511.617	104.31
511.833	96.31
512.049	93.31
512.265	96.31
512.481	99.31
512.698	100.31
512.914	108.31
513.13	101.31
513.346	104.31
513.562	95.31
513.778	109.31
513.994	105.31
514.21	98.31
514.426	108.31
514.642	99.31
514.858	81.31
515.074	91.31
515.29	101.31
515.506	91.31
515.721	92.31
515.937	88.31
516.153	95.31
516.369	91.31
516.585	97.31
516.801	115.31
517.016	126.31
517.232	120.31
517.448	121.31
517.664	101.31
517.879	102.31
518.095	101.31
518.311	116.31
518.527	150.31
518.742	170.31
518.958	273.31
519.173	317.31
519.389	154.31
519.605	120.31
519.82	105.31
520.036	109.31
520.251	106.31
520.467	90.31
520.682	102.31
520.898	97.31
521.113	93.31
521.329	98.31
521.544	105.31
521.76	103.31
521.975	94.31
522.19	95.31
522.406	90.31
522.621	93.31
522.836	101.31
523.052	105.31
523.267	110.31
523.482	106.31
523.698	88.31
523.913	96.31
524.128	86.31
524.343	104.31
524.559	99.31
524.774	107.31
524.989	88.31
525.204	106.31
525.419	114.31
525.634	110.31
525.849	130.31
526.064	210.31
526.28	477.31
526.495	696.31
526.71	814.31
526.925	499.31
527.14	664.31
527.355	608.31
527.57	172.31
527.785	116.31
527.999	104.31
528.214	108.31
528.429	102.31
528.644	102.31
528.859	102.31
529.074	100.31
529.289	98.31
529.503	90.31
529.718	101.31
529.933	99.31
530.148	96.31
530.363	95.31
530.577	112.31
530.792	105.31
531.007	109.31
531.221	100.31
531.436	100.31
531.651	94.31
531.865	98.31
532.08	109.31
532.295	112.31
532.509	109.31
532.724	112.31
532.938	122.31
533.153	123.31
533.367	114.31
533.582	109.31
533.796	93.31
534.011	98.31
534.225	120.31
534.44	139.31
534.654	149.31
534.868	171.31
535.083	324.31
535.297	262.31
535.511	136.31
535.726	128.31
535.94	115.31
536.154	120.31
536.369	137.31
536.583	121.31
536.797	121.31
537.011	125.31
537.225	113.31
537.44	113.31
537.654	121.31
537.868	125.31
538.082	109.31
538.296	125.31
538.51	108.31
538.724	110.31
538.938	129.31
539.153	120.31
539.367	143.31
539.581	109.31
539.795	101.31
540.009	102.31
540.222	112.31
540.436	107.31
540.65	120.31
540.864	109.31
541.078	109.31
541.292	108.31
541.506	119.31
541.72	126.31
541.934	110.31
542.147	109.31
542.361	111.31
542.575	118.31
542.789	123.31
543.002	109.31
543.216	123.31
543.43	123.31
543.644	134.31
543.857	125.31
544.071	107.31
544.285	119.31
544.498	121.31
544.712	134.31
544.925	120.31
545.139	123.31
545.352	123.31
545.566	121.31
545.779	136.31
545.993	144.31
546.206	126.31
546.42	132.31
546.633	143.31
546.847	176.31
547.06	159.31
547.274	183.31
547.487	232.31
547.7	256.31
547.914	279.31
548.127	265.31
548.34	272.31
548.554	296.31
548.767	260.31
548.98	292.31
549.193	280.31
549.407	268.31
549.62	296.31
549.833	321.31
550.046	364.31
550.259	361.31
550.473	333.31
550.686	363.31
550.899	434.31
551.112	448.31
551.325	522.31
551.538	549.31
551.751	476.31
551.964	432.31
552.177	432.31
552.39	421.31
552.603	409.31
552.816	393.31
553.029	391.31
553.242	406.31
553.455	412.31
553.667	443.31
553.88	449.31
554.093	450.31
554.306	464.31
554.519	446.31
554.732	452.31
554.944	432.31
555.157	408.31
555.37	365.31
555.583	389.31
555.795	354.31
556.008	356.31
556.221	322.31
556.433	317.31
556.646	275.31
556.859	289.31
557.071	289.31
557.284	261.31
557.496	240.31
557.709	233.31
557.921	233.31
558.134	247.31
558.346	387.31
558.559	360.31
558.771	305.31
558.984	697.31
559.196	914.31
559.409	440.31
559.621	705.31
559.833	521.31
560.046	625.31
560.258	504.31
560.47	496.31
560.683	233.31
560.895	159.31
561.107	152.31
561.32	142.31
561.532	147.31
561.744	128.31
561.956	141.31
562.168	119.31
562.381	139.31
562.593	130.31
562.805	139.31
563.017	125.31
563.229	128.31
563.441	110.31
563.653	120.31
563.865	125.31
564.077	116.31
564.289	128.31
564.501	116.31
564.713	124.31
564.925	122.31
565.137	136.31
565.349	119.31
565.561	129.31
565.773	125.31
565.985	126.31
566.197	105.31
566.408	131.31
566.62	117.31
566.832	102.31
567.044	119.31
567.255	120.31
567.467	112.31
567.679	119.31
567.891	104.31
568.102	127.31
568.314	117.31
568.526	134.31
568.737	127.31
568.949	124.31
569.161	135.31
569.372	120.31
569.584	125.31
569.795	104.31
570.007	124.31
570.218	120.31
570.43	108.31
570.641	113.31
570.853	121.31
571.064	131.31
571.276	121.31
571.487	108.31
571.698	101.31
571.91	121.31
572.121	114.31
572.333	114.31
572.544	110.31
572.755	106.31
572.966	127.31
573.178	128.31
573.389	106.31
573.6	105.31
573.811	123.31
574.023	120.31
574.234	116.31
574.445	116.31
574.656	120.31
574.867	110.31
575.078	103.31
575.289	95.31
575.501	102.31
575.712	98.31
575.923	114.31
576.134	97.31
576.345	111.31
576.556	116.31
576.767	118.31
576.978	113.31
577.188	121.31
577.399	107.31
577.61	107.31
577.821	110.31
578.032	85.31
578.243	117.31
578.454	111.31
578.665	118.31
578.875	116.31
579.086	99.31
579.297	107.31
579.508	96.31
579.718	98.31
579.929	124.31
580.14	102.31
580.35	120.31
580.561	124.31
580.772	121.31
580.982	105.31
581.193	108.31
581.403	118.31
581.614	105.31
581.825	97.31
582.035	113.31
582.246	123.31
582.456	98.31
582.667	112.31
582.877	115.31
583.087	114.31
583.298	124.31
583.508	126.31
583.719	131.31
583.929	110.31
584.139	98.31
584.35	88.31
584.56	98.31
584.77	101.31
584.981	96.31
585.191	113.31
585.401	136.31
585.611	149.31
585.821	306.31
586.032	537.31
586.242	213.31
586.452	145.31
586.662	138.31
586.872	130.31
587.082	139.31
587.292	115.31
587.502	129.31
587.713	123.31
587.923	139.31
588.133	146.31
588.343	145.31
588.553	158.31
588.762	214.31
588.972	409.31
589.182	1013.31
589.392	673.31
589.602	452.31
589.812	855.31
590.022	446.31
590.232	202.31
590.441	159.31
590.651	140.31
590.861	145.31
591.071	148.31
591.281	142.31
591.49	143.31
591.7	137.31
591.91	145.31
592.119	140.31
592.329	155.31
592.539	154.31
592.748	133.31
592.958	145.31
593.167	157.31
593.377	154.31
593.587	179.31
593.796	156.31
594.006	156.31
594.215	161.31
594.424	163.31
594.634	180.31
594.843	187.31
595.053	184.31
595.262	193.31
595.472	205.31
595.681	214.31
595.89	220.31
596.1	196.31
596.309	194.31
596.518	228.31
596.727	264.31
596.937	258.31
597.146	273.31
597.355	266.31
597.564	283.31
597.774	281.31
597.983	274.31
598.192	270.31
598.401	272.31
598.61	297.31
598.819	300.31
599.028	297.31
599.237	296.31
599.446	297.31
599.655	293.31
599.864	292.31
600.073	284.31
600.282	284.31
600.491	318.31
600.7	324.31
600.909	320.31
601.118	262.31
601.327	260.31
601.536	252.31
601.745	248.31
601.953	235.31
602.162	240.31
602.371	253.31
602.58	259.31
602.789	258.31
602.997	254.31
603.206	259.31
603.415	254.31
603.623	265.31
603.832	267.31
604.041	262.31
604.249	270.31
604.458	302.31
604.666	292.31
604.875	311.31
605.084	320.31
605.292	330.31
605.501	338.31
605.709	328.31
605.918	377.31
606.126	385.31
606.334	353.31
606.543	347.31
606.751	377.31
606.96	379.31
607.168	332.31
607.376	312.31
607.585	332.31
607.793	332.31
608.001	322.31
608.21	321.31
608.418	333.31
608.626	340.31
608.834	337.31
609.043	373.31
609.251	336.31
609.459	345.31
609.667	365.31
609.875	418.31
610.083	386.31
610.291	429.31
610.499	636.31
610.707	452.31
610.916	376.31
611.124	354.31
611.332	350.31
611.54	356.31
611.748	364.31
611.955	389.31
612.163	458.31
612.371	800.31
612.579	708.31
612.787	442.31
612.995	392.31
613.203	404.31
613.411	372.31
613.618	378.31
613.826	387.31
614.034	377.31
614.242	398.31
614.449	408.31
614.657	415.31
614.865	412.31
615.072	392.31
615.28	398.31
615.488	393.31
615.695	410.31
615.903	435.31
616.111	462.31
616.318	772.31
616.526	968.31
616.733	572.31
616.941	533.31
617.148	665.31
617.356	501.31
617.563	425.31
617.771	392.31
617.978	365.31
618.185	368.31
618.393	368.31
618.6	366.31
618.807	356.31
619.015	328.31
619.222	342.31
619.429	317.31
619.637	316.31
619.844	334.31
620.051	341.31
620.258	340.31
620.466	316.31
620.673	341.31
620.88	337.31
621.087	351.31
621.294	335.31
621.501	341.31
621.708	329.31
621.915	325.31
622.122	352.31
622.329	358.31
622.536	338.31
622.743	364.31
622.95	363.31
623.157	362.31
623.364	388.31
623.571	390.31
623.778	384.31
623.985	374.31
624.192	379.31
624.399	388.31
624.606	403.31
624.812	431.31
625.019	425.31
625.226	379.31
625.433	394.31
625.639	376.31
625.846	368.31
626.053	325.31
626.259	343.31
626.466	324.31
626.673	315.31
626.879	333.31
627.086	336.31
627.293	340.31
627.499	329.31
627.706	290.31
627.912	258.31
628.119	206.31
628.325	224.31
628.532	180.31
628.738	186.31
628.945	154.31
629.151	173.31
629.357	148.31
629.564	150.31
629.77	153.31
629.976	136.31
630.183	143.31
630.389	139.31
630.595	146.31
630.802	156.31
631.008	155.31
631.214	140.31
631.42	139.31
631.627	134.31
631.833	138.31
632.039	121.31
632.245	128.31
632.451	131.31
632.657	129.31
632.863	133.31
633.069	128.31
633.275	118.31
633.481	137.31
633.688	140.31
633.893	134.31
634.099	132.31
634.305	141.31
634.511	159.31
634.717	141.31
634.923	162.31
635.129	140.31
635.335	149.31
635.541	150.31
635.747	153.31
635.952	136.31
636.158	136.31
636.364	145.31
636.57	144.31
636.775	137.31
636.981	155.31
637.187	134.31
637.392	152.31
637.598	141.31
637.804	139.31
638.009	131.31
638.215	128.31
638.421	128.31
638.626	141.31
638.832	111.31
639.037	119.31
639.243	119.31
639.448	116.31
639.654	125.31
639.859	109.31
640.065	104.31
640.27	140.31
640.475	109.31
640.681	120.31
640.886	116.31
641.091	118.31
641.297	129.31
641.502	104.31
641.707	112.31
641.913	113.31
642.118	125.31
642.323	108.31
642.528	120.31
642.733	113.31
642.939	114.31
643.144	125.31
643.349	116.31
643.554	130.31
643.759	138.31
643.964	231.31
644.169	322.31
644.374	158.31
644.579	133.31
644.784	123.31
644.989	132.31
645.194	197.31
645.399	141.31
645.604	120.31
645.809	132.31
646.014	117.31
646.219	153.31
646.423	298.31
646.628	202.31
646.833	132.31
647.038	133.31
647.243	140.31
647.447	164.31
647.652	129.31
647.857	121.31
648.062	115.31
648.266	117.31
648.471	108.31
648.676	92.31
648.88	104.31
649.085	101.31
649.289	117.31
649.494	186.31
649.698	189.31
649.903	131.31
650.107	152.31
650.312	129.31
650.516	96.31
650.721	95.31
650.925	103.31
651.13	89.31
651.334	95.31
651.539	101.31
651.743	113.31
651.947	112.31
652.152	88.31
652.356	85.31
652.56	74.31
652.764	84.31
652.969	85.31
653.173	99.31
653.377	95.31
653.581	76.31
653.785	74.31
653.99	85.31
654.194	88.31
654.398	99.31
654.602	87.31
654.806	95.31
655.01	90.31
655.214	72.31
655.418	78.31
655.622	87.31
655.826	93.31
656.03	89.31
656.234	95.31
656.438	80.31
656.642	103.31
656.846	93.31
657.049	92.31
657.253	93.31
657.457	96.31
657.661	90.31
657.865	82.31
658.068	81.31
658.272	79.31
658.476	93.31
658.68	99.31
658.883	79.31
659.087	85.31
659.291	90.31
659.494	91.31
659.698	76.31
659.901	92.31
660.105	78.31
660.309	90.31
660.512	84.31
660.716	85.31
660.919	96.31
661.123	101.31
661.326	101.31
661.53	77.31
661.733	89.31
661.936	76.31
662.14	87.31
662.343	82.31
662.546	85.31
662.75	81.31
662.953	86.31
663.156	78.31
663.36	91.31
663.563	90.31
663.766	76.31
663.969	78.31
664.173	83.31
664.376	91.31
664.579	65.31
664.782	92.31
664.985	92.31
665.188	64.31
665.391	70.31
665.594	100.31
665.797	90.31
666	80.31
666.203	82.31
666.406	78.31
666.609	89.31
666.812	105.31
667.015	73.31
667.218	80.31
667.421	79.31
667.624	94.31
667.827	92.31
668.03	80.31
668.232	83.31
668.435	91.31
668.638	85.31
668.841	86.31
669.043	78.31
669.246	76.31
669.449	88.31
669.651	101.31
669.854	95.31
670.057	83.31
670.259	88.31
670.462	83.31
670.665	92.31
670.867	84.31
671.07	89.31
671.272	92.31
671.475	82.31
671.677	78.31
671.88	76.31
672.082	88.31
672.284	88.31
672.487	84.31
672.689	73.31
672.892	76.31
