Data from 237_1_HRD10591_00022.txt Node
Date: Mon Jan 19 14:10:40 EST 2026
User: Yrep
Spectrometer: HR+D1059
Trigger mode: 1
Integration Time (sec): 1.000000E-1
Scans to average: 1
Electric dark correction enabled: true
Nonlinearity correction enabled: false
Boxcar width: 0
XAxis mode: Wavelengths
Number of Pixels in Spectrum: 2048
>>>>>Begin Spectral Data<<<<<
223.165	-9.44
223.4	-9.44
223.635	-9.44
223.869	-15.44
224.104	-21.44
224.338	-20.44
224.573	-30.44
224.808	-24.44
225.042	2.56
225.277	-24.44
225.511	-7.44
225.746	4.56
225.98	8.56
226.215	14.56
226.449	25.56
226.683	32.56
226.918	40.56
227.152	24.56
227.387	29.56
227.621	38.56
227.856	46.56
228.09	47.56
228.324	47.56
228.559	71.56
228.793	70.56
229.027	66.56
229.262	64.56
229.496	59.56
229.73	70.56
229.964	76.56
230.199	78.56
230.433	83.56
230.667	78.56
230.901	58.56
231.136	88.56
231.37	77.56
231.604	79.56
231.838	88.56
232.072	80.56
232.306	74.56
232.541	85.56
232.775	81.56
233.009	75.56
233.243	70.56
233.477	85.56
233.711	87.56
233.945	73.56
234.179	78.56
234.413	88.56
234.647	80.56
234.881	93.56
235.115	89.56
235.349	72.56
235.583	110.56
235.817	84.56
236.051	88.56
236.285	60.56
236.519	87.56
236.753	71.56
236.987	78.56
237.221	73.56
237.455	79.56
237.689	63.56
237.922	71.56
238.156	79.56
238.39	72.56
238.624	81.56
238.858	66.56
239.091	83.56
239.325	71.56
239.559	74.56
239.793	66.56
240.027	65.56
240.26	81.56
240.494	73.56
240.728	82.56
240.961	79.56
241.195	80.56
241.429	89.56
241.662	91.56
241.896	76.56
242.13	80.56
242.363	74.56
242.597	64.56
242.83	85.56
243.064	74.56
243.298	80.56
243.531	81.56
243.765	76.56
243.998	76.56
244.232	88.56
244.465	79.56
244.699	75.56
244.932	77.56
245.166	85.56
245.399	92.56
245.633	95.56
245.866	84.56
246.099	63.56
246.333	72.56
246.566	69.56
246.8	74.56
247.033	83.56
247.266	79.56
247.5	88.56
247.733	78.56
247.966	89.56
248.2	83.56
248.433	79.56
248.666	92.56
248.899	84.56
249.133	73.56
249.366	78.56
249.599	66.56
249.832	93.56
250.066	80.56
250.299	87.56
250.532	64.56
250.765	87.56
250.998	79.56
251.231	86.56
251.465	94.56
251.698	80.56
251.931	95.56
252.164	87.56
252.397	87.56
252.63	90.56
252.863	98.56
253.096	93.56
253.329	93.56
253.562	70.56
253.795	79.56
254.028	89.56
254.261	86.56
254.494	81.56
254.727	83.56
254.96	76.56
255.193	73.56
255.426	95.56
255.659	81.56
255.892	82.56
256.124	81.56
256.357	82.56
256.59	76.56
256.823	83.56
257.056	90.56
257.289	82.56
257.521	77.56
257.754	78.56
257.987	79.56
258.22	87.56
258.452	76.56
258.685	79.56
258.918	89.56
259.151	86.56
259.383	75.56
259.616	74.56
259.849	79.56
260.081	89.56
260.314	86.56
260.547	95.56
260.779	85.56
261.012	88.56
261.244	80.56
261.477	74.56
261.71	81.56
261.942	88.56
262.175	83.56
262.407	80.56
262.64	86.56
262.872	85.56
263.105	80.56
263.337	75.56
263.57	91.56
263.802	72.56
264.035	74.56
264.267	89.56
264.499	89.56
264.732	90.56
264.964	90.56
265.197	72.56
265.429	76.56
265.661	82.56
265.894	85.56
266.126	86.56
266.358	87.56
266.591	62.56
266.823	76.56
267.055	89.56
267.287	81.56
267.52	85.56
267.752	79.56
267.984	80.56
268.216	73.56
268.448	74.56
268.681	99.56
268.913	88.56
269.145	85.56
269.377	96.56
269.609	80.56
269.841	88.56
270.073	82.56
270.306	84.56
270.538	74.56
270.77	81.56
271.002	88.56
271.234	83.56
271.466	97.56
271.698	79.56
271.93	72.56
272.162	86.56
272.394	87.56
272.626	72.56
272.858	78.56
273.09	84.56
273.322	92.56
273.553	72.56
273.785	89.56
274.017	78.56
274.249	92.56
274.481	71.56
274.713	88.56
274.945	84.56
275.176	83.56
275.408	78.56
275.64	88.56
275.872	86.56
276.104	67.56
276.335	95.56
276.567	68.56
276.799	84.56
277.031	82.56
277.262	93.56
277.494	85.56
277.726	94.56
277.957	85.56
278.189	98.56
278.421	88.56
278.652	71.56
278.884	83.56
279.115	76.56
279.347	94.56
279.579	89.56
279.81	100.56
280.042	98.56
280.273	92.56
280.505	95.56
280.736	98.56
280.968	80.56
281.199	79.56
281.431	85.56
281.662	90.56
281.894	92.56
282.125	89.56
282.356	84.56
282.588	92.56
282.819	83.56
283.051	82.56
283.282	104.56
283.513	100.56
283.745	88.56
283.976	92.56
284.207	88.56
284.439	89.56
284.67	86.56
284.901	81.56
285.132	79.56
285.364	92.56
285.595	91.56
285.826	96.56
286.057	92.56
286.288	84.56
286.52	85.56
286.751	80.56
286.982	93.56
287.213	88.56
287.444	88.56
287.675	96.56
287.906	87.56
288.138	88.56
288.369	93.56
288.6	98.56
288.831	84.56
289.062	75.56
289.293	79.56
289.524	95.56
289.755	90.56
289.986	94.56
290.217	88.56
290.448	87.56
290.679	79.56
290.91	85.56
291.141	78.56
291.371	86.56
291.602	88.56
291.833	71.56
292.064	88.56
292.295	88.56
292.526	79.56
292.757	83.56
292.987	95.56
293.218	87.56
293.449	73.56
293.68	96.56
293.91	76.56
294.141	91.56
294.372	90.56
294.603	95.56
294.833	88.56
295.064	84.56
295.295	93.56
295.525	87.56
295.756	83.56
295.987	79.56
296.217	92.56
296.448	76.56
296.679	104.56
296.909	94.56
297.14	85.56
297.37	83.56
297.601	94.56
297.831	75.56
298.062	81.56
298.292	94.56
298.523	79.56
298.753	92.56
298.984	86.56
299.214	93.56
299.445	76.56
299.675	82.56
299.905	80.56
300.136	92.56
300.366	99.56
300.597	93.56
300.827	91.56
301.057	76.56
301.288	75.56
301.518	81.56
301.748	87.56
301.979	101.56
302.209	91.56
302.439	92.56
302.669	96.56
302.9	85.56
303.13	88.56
303.36	81.56
303.59	73.56
303.82	91.56
304.051	82.56
304.281	76.56
304.511	107.56
304.741	100.56
304.971	70.56
305.201	87.56
305.431	84.56
305.661	87.56
305.891	87.56
306.121	75.56
306.352	98.56
306.582	96.56
306.812	80.56
307.042	91.56
307.272	84.56
307.502	86.56
307.731	84.56
307.961	75.56
308.191	98.56
308.421	91.56
308.651	84.56
308.881	91.56
309.111	91.56
309.341	92.56
309.571	94.56
309.8	83.56
310.03	72.56
310.26	95.56
310.49	92.56
310.72	76.56
310.949	87.56
311.179	87.56
311.409	95.56
311.639	95.56
311.868	85.56
312.098	99.56
312.328	84.56
312.557	94.56
312.787	83.56
313.017	90.56
313.246	88.56
313.476	87.56
313.706	90.56
313.935	84.56
314.165	104.56
314.394	95.56
314.624	79.56
314.853	87.56
315.083	91.56
315.312	92.56
315.542	87.56
315.771	88.56
316.001	88.56
316.23	93.56
316.46	72.56
316.689	86.56
316.919	91.56
317.148	76.56
317.377	100.56
317.607	84.56
317.836	79.56
318.065	91.56
318.295	83.56
318.524	98.56
318.753	72.56
318.983	86.56
319.212	95.56
319.441	86.56
319.67	87.56
319.9	93.56
320.129	90.56
320.358	89.56
320.587	86.56
320.816	81.56
321.046	87.56
321.275	87.56
321.504	92.56
321.733	90.56
321.962	88.56
322.191	92.56
322.42	100.56
322.649	92.56
322.878	79.56
323.108	86.56
323.337	81.56
323.566	97.56
323.795	89.56
324.024	91.56
324.253	75.56
324.482	89.56
324.71	76.56
324.939	100.56
325.168	92.56
325.397	87.56
325.626	86.56
325.855	94.56
326.084	100.56
326.313	97.56
326.542	87.56
326.77	82.56
326.999	85.56
327.228	85.56
327.457	93.56
327.686	86.56
327.914	89.56
328.143	93.56
328.372	94.56
328.6	75.56
328.829	94.56
329.058	86.56
329.287	85.56
329.515	93.56
329.744	79.56
329.972	78.56
330.201	90.56
330.43	84.56
330.658	100.56
330.887	83.56
331.115	90.56
331.344	77.56
331.572	81.56
331.801	74.56
332.03	104.56
332.258	84.56
332.486	81.56
332.715	91.56
332.943	79.56
333.172	93.56
333.4	84.56
333.629	103.56
333.857	102.56
334.085	86.56
334.314	93.56
334.542	85.56
334.771	84.56
334.999	98.56
335.227	92.56
335.455	91.56
335.684	85.56
335.912	102.56
336.14	100.56
336.369	94.56
336.597	76.56
336.825	80.56
337.053	87.56
337.281	80.56
337.51	71.56
337.738	98.56
337.966	93.56
338.194	89.56
338.422	92.56
338.65	89.56
338.878	87.56
339.106	84.56
339.334	108.56
339.562	80.56
339.79	91.56
340.018	91.56
340.246	89.56
340.474	96.56
340.702	94.56
340.93	92.56
341.158	74.56
341.386	82.56
341.614	80.56
341.842	77.56
342.07	90.56
342.298	88.56
342.526	96.56
342.754	78.56
342.981	91.56
343.209	103.56
343.437	100.56
343.665	83.56
343.893	86.56
344.12	93.56
344.348	100.56
344.576	82.56
344.804	100.56
345.031	85.56
345.259	80.56
345.487	89.56
345.714	89.56
345.942	81.56
346.17	81.56
346.397	94.56
346.625	99.56
346.853	89.56
347.08	84.56
347.308	88.56
347.535	87.56
347.763	86.56
347.99	90.56
348.218	83.56
348.445	81.56
348.673	83.56
348.9	93.56
349.128	89.56
349.355	98.56
349.583	101.56
349.81	81.56
350.037	107.56
350.265	81.56
350.492	88.56
350.72	85.56
350.947	92.56
351.174	91.56
351.402	94.56
351.629	85.56
351.856	79.56
352.083	90.56
352.311	102.56
352.538	93.56
352.765	81.56
352.992	86.56
353.22	88.56
353.447	87.56
353.674	94.56
353.901	88.56
354.128	88.56
354.355	80.56
354.583	93.56
354.81	94.56
355.037	91.56
355.264	90.56
355.491	81.56
355.718	88.56
355.945	89.56
356.172	104.56
356.399	87.56
356.626	95.56
356.853	94.56
357.08	96.56
357.307	101.56
357.534	95.56
357.761	97.56
357.988	85.56
358.215	108.56
358.441	84.56
358.668	87.56
358.895	85.56
359.122	108.56
359.349	94.56
359.576	97.56
359.802	96.56
360.029	78.56
360.256	91.56
360.483	83.56
360.709	93.56
360.936	95.56
361.163	94.56
361.39	90.56
361.616	84.56
361.843	90.56
362.07	93.56
362.296	98.56
362.523	83.56
362.749	111.56
362.976	106.56
363.203	118.56
363.429	88.56
363.656	87.56
363.882	86.56
364.109	93.56
364.335	106.56
364.562	111.56
364.788	104.56
365.015	88.56
365.241	99.56
365.468	94.56
365.694	104.56
365.92	91.56
366.147	93.56
366.373	86.56
366.599	87.56
366.826	90.56
367.052	98.56
367.278	102.56
367.505	92.56
367.731	88.56
367.957	88.56
368.184	96.56
368.41	89.56
368.636	86.56
368.862	86.56
369.089	85.56
369.315	85.56
369.541	84.56
369.767	96.56
369.993	92.56
370.219	80.56
370.445	96.56
370.672	94.56
370.898	76.56
371.124	95.56
371.35	106.56
371.576	96.56
371.802	101.56
372.028	85.56
372.254	100.56
372.48	97.56
372.706	94.56
372.932	81.56
373.158	79.56
373.384	99.56
373.61	101.56
373.835	112.56
374.061	94.56
374.287	86.56
374.513	98.56
374.739	102.56
374.965	105.56
375.191	103.56
375.416	110.56
375.642	88.56
375.868	103.56
376.094	96.56
376.319	76.56
376.545	95.56
376.771	84.56
376.997	79.56
377.222	87.56
377.448	88.56
377.674	88.56
377.899	99.56
378.125	86.56
378.35	73.56
378.576	92.56
378.802	96.56
379.027	94.56
379.253	91.56
379.478	92.56
379.704	103.56
379.929	105.56
380.155	84.56
380.38	90.56
380.606	92.56
380.831	79.56
381.057	85.56
381.282	92.56
381.507	75.56
381.733	97.56
381.958	99.56
382.184	96.56
382.409	84.56
382.634	101.56
382.86	101.56
383.085	95.56
383.31	88.56
383.535	83.56
383.761	109.56
383.986	102.56
384.211	100.56
384.436	87.56
384.662	93.56
384.887	81.56
385.112	86.56
385.337	83.56
385.562	89.56
385.787	95.56
386.013	80.56
386.238	96.56
386.463	96.56
386.688	108.56
386.913	102.56
387.138	89.56
387.363	106.56
387.588	95.56
387.813	89.56
388.038	98.56
388.263	95.56
388.488	87.56
388.713	78.56
388.938	90.56
389.163	82.56
389.387	92.56
389.612	85.56
389.837	102.56
390.062	91.56
390.287	92.56
390.512	90.56
390.736	89.56
390.961	76.56
391.186	93.56
391.411	79.56
391.636	92.56
391.86	89.56
392.085	100.56
392.31	97.56
392.534	99.56
392.759	91.56
392.984	130.56
393.208	167.56
393.433	236.56
393.658	179.56
393.882	106.56
394.107	94.56
394.331	99.56
394.556	105.56
394.78	103.56
395.005	87.56
395.229	83.56
395.454	89.56
395.678	112.56
395.903	96.56
396.127	114.56
396.352	123.56
396.576	110.56
396.801	166.56
397.025	200.56
397.249	137.56
397.474	98.56
397.698	87.56
397.922	94.56
398.147	94.56
398.371	84.56
398.595	88.56
398.82	89.56
399.044	89.56
399.268	103.56
399.492	89.56
399.717	88.56
399.941	92.56
400.165	94.56
400.389	82.56
400.613	82.56
400.837	81.56
401.062	74.56
401.286	90.56
401.51	77.56
401.734	86.56
401.958	94.56
402.182	78.56
402.406	81.56
402.63	99.56
402.854	100.56
403.078	106.56
403.302	86.56
403.526	95.56
403.75	93.56
403.974	87.56
404.198	103.56
404.422	98.56
404.645	100.56
404.869	106.56
405.093	79.56
405.317	92.56
405.541	93.56
405.765	75.56
405.988	88.56
406.212	92.56
406.436	81.56
406.66	88.56
406.883	84.56
407.107	90.56
407.331	91.56
407.555	104.56
407.778	105.56
408.002	100.56
408.226	96.56
408.449	95.56
408.673	79.56
408.896	95.56
409.12	89.56
409.344	95.56
409.567	101.56
409.791	91.56
410.014	93.56
410.238	94.56
410.461	92.56
410.685	81.56
410.908	86.56
411.132	97.56
411.355	103.56
411.578	80.56
411.802	77.56
412.025	96.56
412.249	94.56
412.472	80.56
412.695	79.56
412.919	87.56
413.142	94.56
413.365	101.56
413.589	98.56
413.812	91.56
414.035	90.56
414.258	89.56
414.482	83.56
414.705	89.56
414.928	76.56
415.151	77.56
415.374	81.56
415.597	88.56
415.821	72.56
416.044	80.56
416.267	86.56
416.49	98.56
416.713	92.56
416.936	100.56
417.159	86.56
417.382	85.56
417.605	80.56
417.828	90.56
418.051	97.56
418.274	95.56
418.497	102.56
418.72	98.56
418.943	85.56
419.166	96.56
419.389	90.56
419.611	91.56
419.834	85.56
420.057	93.56
420.28	101.56
420.503	82.56
420.726	100.56
420.948	79.56
421.171	92.56
421.394	98.56
421.617	111.56
421.839	110.56
422.062	113.56
422.285	123.56
422.507	195.56
422.73	302.56
422.953	272.56
423.175	176.56
423.398	133.56
423.621	118.56
423.843	106.56
424.066	106.56
424.288	107.56
424.511	98.56
424.733	104.56
424.956	77.56
425.178	86.56
425.401	92.56
425.623	91.56
425.846	98.56
426.068	92.56
426.291	82.56
426.513	86.56
426.735	102.56
426.958	98.56
427.18	92.56
427.402	86.56
427.625	73.56
427.847	100.56
428.069	109.56
428.292	116.56
428.514	120.56
428.736	101.56
428.958	123.56
429.181	109.56
429.403	95.56
429.625	91.56
429.847	103.56
430.069	134.56
430.292	142.56
430.514	130.56
430.736	109.56
430.958	109.56
431.18	95.56
431.402	92.56
431.624	103.56
431.846	107.56
432.068	116.56
432.29	94.56
432.512	90.56
432.734	79.56
432.956	93.56
433.178	69.56
433.4	86.56
433.622	73.56
433.844	103.56
434.066	90.56
434.287	90.56
434.509	78.56
434.731	80.56
434.953	79.56
435.175	86.56
435.397	84.56
435.618	83.56
435.84	88.56
436.062	83.56
436.284	87.56
436.505	100.56
436.727	78.56
436.949	84.56
437.17	78.56
437.392	72.56
437.614	82.56
437.835	84.56
438.057	83.56
438.278	83.56
438.5	85.56
438.721	91.56
438.943	85.56
439.165	90.56
439.386	87.56
439.608	83.56
439.829	101.56
440.05	90.56
440.272	81.56
440.493	93.56
440.715	96.56
440.936	95.56
441.158	98.56
441.379	88.56
441.6	87.56
441.822	80.56
442.043	76.56
442.264	83.56
442.486	116.56
442.707	150.56
442.928	95.56
443.149	101.56
443.371	130.56
443.592	171.56
443.813	171.56
444.034	104.56
444.255	94.56
444.476	85.56
444.698	96.56
444.919	80.56
445.14	161.56
445.361	148.56
445.582	225.56
445.803	195.56
446.024	109.56
446.245	99.56
446.466	91.56
446.687	82.56
446.908	89.56
447.129	96.56
447.35	90.56
447.571	105.56
447.792	90.56
448.013	87.56
448.234	92.56
448.455	89.56
448.675	94.56
448.896	89.56
449.117	91.56
449.338	88.56
449.559	89.56
449.779	95.56
450	97.56
450.221	86.56
450.442	81.56
450.662	88.56
450.883	90.56
451.104	82.56
451.324	96.56
451.545	79.56
451.766	80.56
451.986	89.56
452.207	87.56
452.428	92.56
452.648	91.56
452.869	95.56
453.089	94.56
453.31	74.56
453.53	85.56
453.751	101.56
453.971	85.56
454.192	86.56
454.412	92.56
454.633	90.56
454.853	98.56
455.073	101.56
455.294	75.56
455.514	79.56
455.734	78.56
455.955	87.56
456.175	97.56
456.395	78.56
456.616	88.56
456.836	89.56
457.056	90.56
457.276	81.56
457.497	90.56
457.717	98.56
457.937	105.56
458.157	107.56
458.377	107.56
458.598	110.56
458.818	100.56
459.038	89.56
459.258	90.56
459.478	80.56
459.698	97.56
459.918	74.56
460.138	77.56
460.358	94.56
460.578	92.56
460.798	110.56
461.018	117.56
461.238	88.56
461.458	90.56
461.678	85.56
461.898	88.56
462.118	81.56
462.338	86.56
462.558	93.56
462.777	88.56
462.997	94.56
463.217	72.56
463.437	93.56
463.657	89.56
463.876	87.56
464.096	80.56
464.316	87.56
464.536	98.56
464.755	89.56
464.975	93.56
465.195	90.56
465.414	92.56
465.634	86.56
465.854	86.56
466.073	92.56
466.293	75.56
466.512	86.56
466.732	104.56
466.951	87.56
467.171	87.56
467.391	87.56
467.61	76.56
467.829	75.56
468.049	94.56
468.268	79.56
468.488	107.56
468.707	104.56
468.927	91.56
469.146	91.56
469.365	94.56
469.585	77.56
469.804	98.56
470.023	100.56
470.243	102.56
470.462	88.56
470.681	72.56
470.901	80.56
471.12	89.56
471.339	87.56
471.558	98.56
471.777	83.56
471.997	104.56
472.216	82.56
472.435	77.56
472.654	85.56
472.873	103.56
473.092	86.56
473.311	91.56
473.53	93.56
473.749	97.56
473.968	99.56
474.187	91.56
474.406	87.56
474.625	91.56
474.844	96.56
475.063	91.56
475.282	80.56
475.501	85.56
475.72	92.56
475.939	83.56
476.158	75.56
476.377	73.56
476.596	98.56
476.814	79.56
477.033	77.56
477.252	88.56
477.471	84.56
477.69	90.56
477.908	86.56
478.127	107.56
478.346	87.56
478.564	90.56
478.783	86.56
479.002	88.56
479.22	92.56
479.439	100.56
479.658	88.56
479.876	90.56
480.095	79.56
480.313	96.56
480.532	86.56
480.751	98.56
480.969	93.56
481.188	111.56
481.406	95.56
481.624	77.56
481.843	91.56
482.061	84.56
482.28	87.56
482.498	95.56
482.717	90.56
482.935	86.56
483.153	85.56
483.372	103.56
483.59	84.56
483.808	88.56
484.027	86.56
484.245	92.56
484.463	103.56
484.681	94.56
484.9	103.56
485.118	95.56
485.336	74.56
485.554	90.56
485.772	76.56
485.99	93.56
486.209	94.56
486.427	84.56
486.645	95.56
486.863	102.56
487.081	96.56
487.299	88.56
487.517	107.56
487.735	104.56
487.953	138.56
488.171	118.56
488.389	97.56
488.607	96.56
488.825	73.56
489.043	93.56
489.261	98.56
489.479	94.56
489.696	89.56
489.914	66.56
490.132	95.56
490.35	88.56
490.568	86.56
490.786	92.56
491.003	98.56
491.221	93.56
491.439	76.56
491.657	102.56
491.874	92.56
492.092	93.56
492.31	98.56
492.527	88.56
492.745	94.56
492.963	82.56
493.18	92.56
493.398	91.56
493.615	99.56
493.833	82.56
494.05	104.56
494.268	87.56
494.485	100.56
494.703	88.56
494.92	100.56
495.138	95.56
495.355	81.56
495.573	97.56
495.79	89.56
496.008	100.56
496.225	98.56
496.442	94.56
496.66	69.56
496.877	86.56
497.094	95.56
497.312	85.56
497.529	84.56
497.746	80.56
497.963	100.56
498.181	103.56
498.398	99.56
498.615	96.56
498.832	94.56
499.049	88.56
499.267	126.56
499.484	94.56
499.701	90.56
499.918	95.56
500.135	94.56
500.352	91.56
500.569	97.56
500.786	106.56
501.003	103.56
501.22	89.56
501.437	104.56
501.654	94.56
501.871	108.56
502.088	87.56
502.305	80.56
502.522	98.56
502.739	95.56
502.956	78.56
503.172	95.56
503.389	108.56
503.606	91.56
503.823	102.56
504.04	93.56
504.256	117.56
504.473	120.56
504.69	101.56
504.907	104.56
505.123	101.56
505.34	92.56
505.557	88.56
505.773	102.56
505.99	75.56
506.207	75.56
506.423	93.56
506.64	99.56
506.856	89.56
507.073	92.56
507.289	84.56
507.506	104.56
507.722	100.56
507.939	76.56
508.155	89.56
508.372	93.56
508.588	101.56
508.805	89.56
509.021	90.56
509.238	95.56
509.454	87.56
509.67	92.56
509.887	91.56
510.103	91.56
510.319	88.56
510.536	98.56
510.752	96.56
510.968	88.56
511.184	85.56
511.401	92.56
511.617	91.56
511.833	101.56
512.049	93.56
512.265	97.56
512.481	81.56
512.698	97.56
512.914	99.56
513.13	103.56
513.346	84.56
513.562	107.56
513.778	97.56
513.994	88.56
514.21	89.56
514.426	98.56
514.642	106.56
514.858	100.56
515.074	95.56
515.29	99.56
515.506	103.56
515.721	100.56
515.937	92.56
516.153	90.56
516.369	103.56
516.585	104.56
516.801	87.56
517.016	85.56
517.232	95.56
517.448	84.56
517.664	99.56
517.879	83.56
518.095	91.56
518.311	95.56
518.527	102.56
518.742	102.56
518.958	146.56
519.173	160.56
519.389	105.56
519.605	101.56
519.82	99.56
520.036	98.56
520.251	102.56
520.467	73.56
520.682	113.56
520.898	93.56
521.113	96.56
521.329	114.56
521.544	102.56
521.76	99.56
521.975	95.56
522.19	95.56
522.406	93.56
522.621	95.56
522.836	89.56
523.052	95.56
523.267	93.56
523.482	90.56
523.698	100.56
523.913	89.56
524.128	99.56
524.343	89.56
524.559	99.56
524.774	85.56
524.989	116.56
525.204	99.56
525.419	104.56
525.634	104.56
525.849	106.56
526.064	116.56
526.28	165.56
526.495	222.56
526.71	256.56
526.925	174.56
527.14	214.56
527.355	188.56
527.57	103.56
527.785	88.56
527.999	94.56
528.214	91.56
528.429	95.56
528.644	93.56
528.859	96.56
529.074	95.56
529.289	97.56
529.503	98.56
529.718	91.56
529.933	88.56
530.148	102.56
530.363	104.56
530.577	105.56
530.792	101.56
531.007	88.56
531.221	100.56
531.436	88.56
531.651	107.56
531.865	106.56
532.08	95.56
532.295	107.56
532.509	108.56
532.724	115.56
532.938	108.56
533.153	111.56
533.367	109.56
533.582	111.56
533.796	95.56
534.011	109.56
534.225	95.56
534.44	96.56
534.654	127.56
534.868	133.56
535.083	150.56
535.297	136.56
535.511	112.56
535.726	105.56
535.94	110.56
536.154	107.56
536.369	104.56
536.583	99.56
536.797	116.56
537.011	107.56
537.225	118.56
537.44	107.56
537.654	103.56
537.868	121.56
538.082	116.56
538.296	94.56
538.51	101.56
538.724	102.56
538.938	104.56
539.153	110.56
539.367	102.56
539.581	111.56
539.795	117.56
540.009	117.56
540.222	101.56
540.436	112.56
540.65	98.56
540.864	109.56
541.078	101.56
541.292	109.56
541.506	98.56
541.72	107.56
541.934	109.56
542.147	115.56
542.361	116.56
542.575	106.56
542.789	113.56
543.002	103.56
543.216	108.56
543.43	99.56
543.644	104.56
543.857	122.56
544.071	126.56
544.285	130.56
544.498	106.56
544.712	117.56
544.925	120.56
545.139	105.56
545.352	112.56
545.566	117.56
545.779	114.56
545.993	119.56
546.206	120.56
546.42	124.56
546.633	132.56
546.847	129.56
547.06	133.56
547.274	176.56
547.487	178.56
547.7	210.56
547.914	209.56
548.127	203.56
548.34	228.56
548.554	223.56
548.767	215.56
548.98	219.56
549.193	216.56
549.407	230.56
549.62	243.56
549.833	254.56
550.046	293.56
550.259	291.56
550.473	282.56
550.686	314.56
550.899	324.56
551.112	371.56
551.325	389.56
551.538	380.56
551.751	381.56
551.964	368.56
552.177	357.56
552.39	348.56
552.603	347.56
552.816	354.56
553.029	352.56
553.242	355.56
553.455	366.56
553.667	383.56
553.88	407.56
554.093	423.56
554.306	442.56
554.519	431.56
554.732	441.56
554.944	425.56
555.157	400.56
555.37	383.56
555.583	365.56
555.795	346.56
556.008	326.56
556.221	314.56
556.433	295.56
556.646	281.56
556.859	258.56
557.071	269.56
557.284	248.56
557.496	226.56
557.709	199.56
557.921	201.56
558.134	198.56
558.346	230.56
558.559	179.56
558.771	193.56
558.984	279.56
559.196	322.56
559.409	223.56
559.621	272.56
559.833	220.56
560.046	249.56
560.258	231.56
560.47	222.56
560.683	168.56
560.895	130.56
561.107	147.56
561.32	143.56
561.532	131.56
561.744	128.56
561.956	133.56
562.168	133.56
562.381	115.56
562.593	126.56
562.805	117.56
563.017	103.56
563.229	124.56
563.441	119.56
563.653	111.56
563.865	115.56
564.077	114.56
564.289	112.56
564.501	120.56
564.713	117.56
564.925	115.56
565.137	116.56
565.349	104.56
565.561	117.56
565.773	109.56
565.985	118.56
566.197	100.56
566.408	108.56
566.62	107.56
566.832	118.56
567.044	106.56
567.255	112.56
567.467	100.56
567.679	123.56
567.891	117.56
568.102	105.56
568.314	101.56
568.526	122.56
568.737	110.56
568.949	107.56
569.161	112.56
569.372	118.56
569.584	111.56
569.795	108.56
570.007	124.56
570.218	114.56
570.43	119.56
570.641	113.56
570.853	119.56
571.064	114.56
571.276	109.56
571.487	109.56
571.698	106.56
571.91	114.56
572.121	106.56
572.333	129.56
572.544	106.56
572.755	119.56
572.966	117.56
573.178	89.56
573.389	110.56
573.6	100.56
573.811	114.56
574.023	110.56
574.234	106.56
574.445	102.56
574.656	107.56
574.867	98.56
575.078	102.56
575.289	106.56
575.501	102.56
575.712	104.56
575.923	90.56
576.134	100.56
576.345	95.56
576.556	92.56
576.767	126.56
576.978	98.56
577.188	121.56
577.399	104.56
577.61	101.56
577.821	94.56
578.032	96.56
578.243	95.56
578.454	99.56
578.665	102.56
578.875	108.56
579.086	87.56
579.297	98.56
579.508	106.56
579.718	90.56
579.929	92.56
580.14	91.56
580.35	101.56
580.561	99.56
580.772	95.56
580.982	108.56
581.193	91.56
581.403	99.56
581.614	87.56
581.825	100.56
582.035	103.56
582.246	105.56
582.456	101.56
582.667	116.56
582.877	94.56
583.087	99.56
583.298	116.56
583.508	116.56
583.719	96.56
583.929	100.56
584.139	95.56
584.35	109.56
584.56	99.56
584.77	100.56
584.981	107.56
585.191	103.56
585.401	105.56
585.611	105.56
585.821	153.56
586.032	197.56
586.242	130.56
586.452	124.56
586.662	106.56
586.872	102.56
587.082	117.56
587.292	106.56
587.502	112.56
587.713	129.56
587.923	118.56
588.133	119.56
588.343	120.56
588.553	131.56
588.762	175.56
588.972	280.56
589.182	581.56
589.392	420.56
589.602	314.56
589.812	517.56
590.022	299.56
590.232	160.56
590.441	138.56
590.651	130.56
590.861	125.56
591.071	135.56
591.281	131.56
591.49	118.56
591.7	120.56
591.91	122.56
592.119	132.56
592.329	130.56
592.539	145.56
592.748	130.56
592.958	139.56
593.167	136.56
593.377	131.56
593.587	144.56
593.796	135.56
594.006	151.56
594.215	147.56
594.424	152.56
594.634	147.56
594.843	152.56
595.053	161.56
595.262	169.56
595.472	179.56
595.681	171.56
595.89	182.56
596.1	185.56
596.309	189.56
596.518	189.56
596.727	222.56
596.937	211.56
597.146	205.56
597.355	220.56
597.564	229.56
597.774	215.56
597.983	216.56
598.192	215.56
598.401	232.56
598.61	250.56
598.819	253.56
599.028	234.56
599.237	258.56
599.446	240.56
599.655	247.56
599.864	226.56
600.073	226.56
600.282	261.56
600.491	254.56
600.7	259.56
600.909	253.56
601.118	226.56
601.327	217.56
601.536	206.56
601.745	211.56
601.953	194.56
602.162	217.56
602.371	228.56
602.58	230.56
602.789	234.56
602.997	224.56
603.206	230.56
603.415	241.56
603.623	238.56
603.832	238.56
604.041	235.56
604.249	241.56
604.458	242.56
604.666	244.56
604.875	263.56
605.084	268.56
605.292	263.56
605.501	275.56
605.709	276.56
605.918	285.56
606.126	312.56
606.334	292.56
606.543	288.56
606.751	284.56
606.96	301.56
607.168	280.56
607.376	263.56
607.585	272.56
607.793	244.56
608.001	235.56
608.21	245.56
608.418	264.56
608.626	266.56
608.834	286.56
609.043	302.56
609.251	310.56
609.459	273.56
609.667	276.56
609.875	319.56
610.083	303.56
610.291	295.56
610.499	351.56
610.707	300.56
610.916	284.56
611.124	289.56
611.332	285.56
611.54	298.56
611.748	311.56
611.955	316.56
612.163	324.56
612.371	398.56
612.579	391.56
612.787	351.56
612.995	328.56
613.203	348.56
613.411	321.56
613.618	320.56
613.826	312.56
614.034	310.56
614.242	313.56
614.449	344.56
614.657	334.56
614.865	316.56
615.072	342.56
615.28	344.56
615.488	319.56
615.695	329.56
615.903	344.56
616.111	372.56
616.318	450.56
616.526	473.56
616.733	385.56
616.941	373.56
617.148	420.56
617.356	337.56
617.563	351.56
617.771	345.56
617.978	339.56
618.185	317.56
618.393	335.56
618.6	316.56
618.807	324.56
619.015	336.56
619.222	308.56
619.429	317.56
619.637	296.56
619.844	300.56
620.051	299.56
620.258	286.56
620.466	323.56
620.673	303.56
620.88	323.56
621.087	330.56
621.294	306.56
621.501	319.56
621.708	314.56
621.915	327.56
622.122	322.56
622.329	339.56
622.536	323.56
622.743	325.56
622.95	337.56
623.157	329.56
623.364	341.56
623.571	346.56
623.778	326.56
623.985	335.56
624.192	333.56
624.399	348.56
624.606	348.56
624.812	368.56
625.019	343.56
625.226	319.56
625.433	322.56
625.639	316.56
625.846	300.56
626.053	289.56
626.259	277.56
626.466	269.56
626.673	237.56
626.879	271.56
627.086	257.56
627.293	239.56
627.499	247.56
627.706	227.56
627.912	222.56
628.119	208.56
628.325	186.56
628.532	175.56
628.738	160.56
628.945	156.56
629.151	142.56
629.357	149.56
629.564	149.56
629.77	143.56
629.976	141.56
630.183	136.56
630.389	111.56
630.595	127.56
630.802	120.56
631.008	122.56
631.214	120.56
631.42	116.56
631.627	117.56
631.833	119.56
632.039	120.56
632.245	119.56
632.451	123.56
632.657	121.56
632.863	116.56
633.069	106.56
633.275	111.56
633.481	122.56
633.688	114.56
633.893	119.56
634.099	130.56
634.305	116.56
634.511	120.56
634.717	132.56
634.923	116.56
635.129	117.56
635.335	109.56
635.541	122.56
635.747	130.56
635.952	118.56
636.158	112.56
636.364	125.56
636.57	118.56
636.775	133.56
636.981	136.56
637.187	110.56
637.392	102.56
637.598	111.56
637.804	118.56
638.009	125.56
638.215	134.56
638.421	122.56
638.626	103.56
638.832	110.56
639.037	130.56
639.243	110.56
639.448	113.56
639.654	118.56
639.859	110.56
640.065	98.56
640.27	130.56
640.475	114.56
640.681	115.56
640.886	115.56
641.091	117.56
641.297	106.56
641.502	111.56
641.707	121.56
641.913	130.56
642.118	104.56
642.323	124.56
642.528	102.56
642.733	116.56
642.939	102.56
643.144	124.56
643.349	120.56
643.554	120.56
643.759	139.56
643.964	133.56
644.169	161.56
644.374	125.56
644.579	126.56
644.784	114.56
644.989	106.56
645.194	135.56
645.399	123.56
645.604	107.56
645.809	124.56
646.014	124.56
646.219	118.56
646.423	155.56
646.628	129.56
646.833	108.56
647.038	109.56
647.243	122.56
647.447	119.56
647.652	120.56
647.857	117.56
648.062	105.56
648.266	120.56
648.471	98.56
648.676	108.56
648.88	109.56
649.085	106.56
649.289	111.56
649.494	127.56
649.698	124.56
649.903	105.56
650.107	104.56
650.312	116.56
650.516	98.56
650.721	90.56
650.925	81.56
651.13	87.56
651.334	86.56
651.539	89.56
651.743	103.56
651.947	82.56
652.152	89.56
652.356	97.56
652.56	81.56
652.764	95.56
652.969	93.56
653.173	86.56
653.377	88.56
653.581	68.56
653.785	98.56
653.99	85.56
654.194	102.56
654.398	83.56
654.602	86.56
654.806	91.56
655.01	78.56
655.214	99.56
655.418	98.56
655.622	96.56
655.826	97.56
656.03	96.56
656.234	101.56
656.438	81.56
656.642	95.56
656.846	80.56
657.049	96.56
657.253	71.56
657.457	90.56
657.661	86.56
657.865	72.56
658.068	96.56
658.272	83.56
658.476	92.56
658.68	91.56
658.883	87.56
659.087	87.56
659.291	89.56
659.494	85.56
659.698	89.56
659.901	92.56
660.105	81.56
660.309	84.56
660.512	82.56
660.716	79.56
660.919	78.56
661.123	87.56
661.326	91.56
661.53	94.56
661.733	81.56
661.936	70.56
662.14	93.56
662.343	73.56
662.546	80.56
662.75	78.56
662.953	74.56
663.156	102.56
663.36	86.56
663.563	70.56
663.766	91.56
663.969	86.56
664.173	96.56
664.376	78.56
664.579	82.56
664.782	71.56
664.985	90.56
665.188	84.56
665.391	100.56
665.594	90.56
665.797	77.56
666	88.56
666.203	77.56
666.406	90.56
666.609	72.56
666.812	72.56
667.015	69.56
667.218	82.56
667.421	88.56
667.624	92.56
667.827	79.56
668.03	86.56
668.232	82.56
668.435	89.56
668.638	78.56
668.841	85.56
669.043	85.56
669.246	103.56
669.449	81.56
669.651	81.56
669.854	87.56
670.057	102.56
670.259	87.56
670.462	80.56
670.665	76.56
670.867	89.56
671.07	85.56
671.272	85.56
671.475	104.56
671.677	87.56
671.88	90.56
672.082	97.56
672.284	90.56
672.487	84.56
672.689	88.56
672.892	75.56
