Data from 237_1_HRD10591_00034.txt Node
Date: Mon Jan 19 14:10:46 EST 2026
User: Yrep
Spectrometer: HR+D1059
Trigger mode: 1
Integration Time (sec): 1.000000E-1
Scans to average: 1
Electric dark correction enabled: true
Nonlinearity correction enabled: false
Boxcar width: 0
XAxis mode: Wavelengths
Number of Pixels in Spectrum: 2048
>>>>>Begin Spectral Data<<<<<
223.165	-7.81
223.4	-7.81
223.635	-7.81
223.869	-15.81
224.104	-32.81
224.338	-14.81
224.573	-11.81
224.808	-22.81
225.042	2.19
225.277	-2.81
225.511	-10.81
225.746	-1.81
225.98	19.19
226.215	-6.81
226.449	27.19
226.683	12.19
226.918	19.19
227.152	48.19
227.387	36.19
227.621	38.19
227.856	42.19
228.09	42.19
228.324	42.19
228.559	67.19
228.793	57.19
229.027	75.19
229.262	60.19
229.496	54.19
229.73	68.19
229.964	83.19
230.199	77.19
230.433	69.19
230.667	75.19
230.901	83.19
231.136	71.19
231.37	68.19
231.604	75.19
231.838	63.19
232.072	83.19
232.306	82.19
232.541	97.19
232.775	84.19
233.009	79.19
233.243	72.19
233.477	81.19
233.711	67.19
233.945	81.19
234.179	92.19
234.413	92.19
234.647	76.19
234.881	64.19
235.115	77.19
235.349	76.19
235.583	62.19
235.817	70.19
236.051	68.19
236.285	95.19
236.519	83.19
236.753	64.19
236.987	82.19
237.221	75.19
237.455	76.19
237.689	83.19
237.922	75.19
238.156	74.19
238.39	69.19
238.624	77.19
238.858	77.19
239.091	81.19
239.325	83.19
239.559	100.19
239.793	82.19
240.027	73.19
240.26	75.19
240.494	91.19
240.728	77.19
240.961	73.19
241.195	77.19
241.429	71.19
241.662	89.19
241.896	85.19
242.13	65.19
242.363	72.19
242.597	71.19
242.83	94.19
243.064	73.19
243.298	79.19
243.531	85.19
243.765	77.19
243.998	87.19
244.232	92.19
244.465	84.19
244.699	75.19
244.932	87.19
245.166	78.19
245.399	84.19
245.633	90.19
245.866	95.19
246.099	71.19
246.333	80.19
246.566	85.19
246.8	68.19
247.033	83.19
247.266	76.19
247.5	84.19
247.733	79.19
247.966	91.19
248.2	95.19
248.433	86.19
248.666	75.19
248.899	88.19
249.133	68.19
249.366	99.19
249.599	81.19
249.832	77.19
250.066	73.19
250.299	83.19
250.532	68.19
250.765	79.19
250.998	73.19
251.231	90.19
251.465	83.19
251.698	77.19
251.931	83.19
252.164	75.19
252.397	85.19
252.63	73.19
252.863	75.19
253.096	93.19
253.329	85.19
253.562	86.19
253.795	71.19
254.028	84.19
254.261	89.19
254.494	84.19
254.727	65.19
254.96	86.19
255.193	88.19
255.426	81.19
255.659	92.19
255.892	78.19
256.124	83.19
256.357	96.19
256.59	88.19
256.823	85.19
257.056	85.19
257.289	80.19
257.521	80.19
257.754	89.19
257.987	78.19
258.22	95.19
258.452	87.19
258.685	83.19
258.918	71.19
259.151	74.19
259.383	90.19
259.616	76.19
259.849	81.19
260.081	73.19
260.314	81.19
260.547	80.19
260.779	87.19
261.012	75.19
261.244	79.19
261.477	85.19
261.71	73.19
261.942	83.19
262.175	82.19
262.407	70.19
262.64	75.19
262.872	83.19
263.105	86.19
263.337	95.19
263.57	81.19
263.802	74.19
264.035	65.19
264.267	83.19
264.499	79.19
264.732	87.19
264.964	84.19
265.197	73.19
265.429	82.19
265.661	79.19
265.894	87.19
266.126	82.19
266.358	83.19
266.591	74.19
266.823	71.19
267.055	83.19
267.287	87.19
267.52	88.19
267.752	67.19
267.984	78.19
268.216	79.19
268.448	90.19
268.681	91.19
268.913	85.19
269.145	77.19
269.377	87.19
269.609	89.19
269.841	101.19
270.073	76.19
270.306	69.19
270.538	70.19
270.77	83.19
271.002	87.19
271.234	92.19
271.466	73.19
271.698	76.19
271.93	80.19
272.162	85.19
272.394	86.19
272.626	92.19
272.858	76.19
273.09	87.19
273.322	80.19
273.553	89.19
273.785	84.19
274.017	76.19
274.249	90.19
274.481	83.19
274.713	96.19
274.945	72.19
275.176	75.19
275.408	83.19
275.64	83.19
275.872	84.19
276.104	99.19
276.335	99.19
276.567	87.19
276.799	73.19
277.031	89.19
277.262	85.19
277.494	83.19
277.726	75.19
277.957	93.19
278.189	87.19
278.421	62.19
278.652	87.19
278.884	83.19
279.115	74.19
279.347	83.19
279.579	90.19
279.81	74.19
280.042	83.19
280.273	67.19
280.505	82.19
280.736	88.19
280.968	85.19
281.199	90.19
281.431	96.19
281.662	93.19
281.894	89.19
282.125	77.19
282.356	80.19
282.588	99.19
282.819	81.19
283.051	103.19
283.282	91.19
283.513	96.19
283.745	96.19
283.976	84.19
284.207	82.19
284.439	83.19
284.67	90.19
284.901	94.19
285.132	83.19
285.364	71.19
285.595	86.19
285.826	81.19
286.057	87.19
286.288	76.19
286.52	79.19
286.751	83.19
286.982	77.19
287.213	88.19
287.444	87.19
287.675	83.19
287.906	83.19
288.138	83.19
288.369	93.19
288.6	62.19
288.831	82.19
289.062	77.19
289.293	77.19
289.524	88.19
289.755	75.19
289.986	77.19
290.217	75.19
290.448	73.19
290.679	89.19
290.91	88.19
291.141	87.19
291.371	80.19
291.602	91.19
291.833	79.19
292.064	90.19
292.295	81.19
292.526	90.19
292.757	83.19
292.987	103.19
293.218	100.19
293.449	97.19
293.68	72.19
293.91	98.19
294.141	83.19
294.372	82.19
294.603	88.19
294.833	87.19
295.064	91.19
295.295	85.19
295.525	88.19
295.756	88.19
295.987	89.19
296.217	89.19
296.448	93.19
296.679	92.19
296.909	88.19
297.14	93.19
297.37	85.19
297.601	80.19
297.831	81.19
298.062	97.19
298.292	87.19
298.523	82.19
298.753	80.19
298.984	87.19
299.214	79.19
299.445	95.19
299.675	76.19
299.905	90.19
300.136	79.19
300.366	87.19
300.597	88.19
300.827	89.19
301.057	81.19
301.288	91.19
301.518	84.19
301.748	91.19
301.979	95.19
302.209	92.19
302.439	86.19
302.669	88.19
302.9	72.19
303.13	87.19
303.36	99.19
303.59	85.19
303.82	85.19
304.051	88.19
304.281	89.19
304.511	77.19
304.741	91.19
304.971	106.19
305.201	80.19
305.431	86.19
305.661	84.19
305.891	85.19
306.121	98.19
306.352	88.19
306.582	92.19
306.812	92.19
307.042	91.19
307.272	85.19
307.502	84.19
307.731	92.19
307.961	91.19
308.191	89.19
308.421	83.19
308.651	77.19
308.881	95.19
309.111	97.19
309.341	86.19
309.571	86.19
309.8	77.19
310.03	79.19
310.26	85.19
310.49	81.19
310.72	80.19
310.949	103.19
311.179	103.19
311.409	96.19
311.639	74.19
311.868	87.19
312.098	87.19
312.328	99.19
312.557	94.19
312.787	85.19
313.017	99.19
313.246	86.19
313.476	70.19
313.706	96.19
313.935	77.19
314.165	74.19
314.394	83.19
314.624	82.19
314.853	81.19
315.083	86.19
315.312	87.19
315.542	103.19
315.771	90.19
316.001	81.19
316.23	99.19
316.46	89.19
316.689	95.19
316.919	90.19
317.148	100.19
317.377	94.19
317.607	78.19
317.836	86.19
318.065	79.19
318.295	93.19
318.524	83.19
318.753	85.19
318.983	80.19
319.212	93.19
319.441	71.19
319.67	85.19
319.9	93.19
320.129	88.19
320.358	104.19
320.587	104.19
320.816	75.19
321.046	90.19
321.275	80.19
321.504	94.19
321.733	93.19
321.962	79.19
322.191	90.19
322.42	82.19
322.649	92.19
322.878	94.19
323.108	89.19
323.337	92.19
323.566	80.19
323.795	90.19
324.024	91.19
324.253	80.19
324.482	95.19
324.71	91.19
324.939	94.19
325.168	98.19
325.397	93.19
325.626	91.19
325.855	89.19
326.084	76.19
326.313	81.19
326.542	89.19
326.77	62.19
326.999	75.19
327.228	101.19
327.457	89.19
327.686	83.19
327.914	91.19
328.143	88.19
328.372	94.19
328.6	84.19
328.829	89.19
329.058	90.19
329.287	87.19
329.515	82.19
329.744	91.19
329.972	100.19
330.201	88.19
330.43	97.19
330.658	88.19
330.887	84.19
331.115	89.19
331.344	96.19
331.572	91.19
331.801	81.19
332.03	76.19
332.258	90.19
332.486	75.19
332.715	80.19
332.943	85.19
333.172	78.19
333.4	80.19
333.629	84.19
333.857	78.19
334.085	96.19
334.314	82.19
334.542	100.19
334.771	75.19
334.999	90.19
335.227	90.19
335.455	88.19
335.684	92.19
335.912	88.19
336.14	92.19
336.369	103.19
336.597	95.19
336.825	100.19
337.053	82.19
337.281	83.19
337.51	82.19
337.738	92.19
337.966	81.19
338.194	88.19
338.422	86.19
338.65	87.19
338.878	98.19
339.106	87.19
339.334	88.19
339.562	91.19
339.79	84.19
340.018	93.19
340.246	89.19
340.474	70.19
340.702	83.19
340.93	77.19
341.158	69.19
341.386	83.19
341.614	86.19
341.842	90.19
342.07	87.19
342.298	95.19
342.526	88.19
342.754	80.19
342.981	82.19
343.209	97.19
343.437	88.19
343.665	92.19
343.893	87.19
344.12	89.19
344.348	83.19
344.576	95.19
344.804	74.19
345.031	97.19
345.259	90.19
345.487	84.19
345.714	75.19
345.942	79.19
346.17	89.19
346.397	83.19
346.625	88.19
346.853	85.19
347.08	88.19
347.308	90.19
347.535	89.19
347.763	79.19
347.99	76.19
348.218	91.19
348.445	84.19
348.673	71.19
348.9	69.19
349.128	93.19
349.355	90.19
349.583	78.19
349.81	84.19
350.037	84.19
350.265	83.19
350.492	88.19
350.72	89.19
350.947	94.19
351.174	93.19
351.402	87.19
351.629	85.19
351.856	87.19
352.083	97.19
352.311	105.19
352.538	90.19
352.765	79.19
352.992	95.19
353.22	73.19
353.447	71.19
353.674	77.19
353.901	95.19
354.128	93.19
354.355	81.19
354.583	87.19
354.81	75.19
355.037	89.19
355.264	88.19
355.491	70.19
355.718	78.19
355.945	77.19
356.172	95.19
356.399	99.19
356.626	98.19
356.853	91.19
357.08	96.19
357.307	92.19
357.534	75.19
357.761	91.19
357.988	78.19
358.215	96.19
358.441	90.19
358.668	98.19
358.895	95.19
359.122	78.19
359.349	86.19
359.576	77.19
359.802	69.19
360.029	55.19
360.256	87.19
360.483	91.19
360.709	82.19
360.936	96.19
361.163	79.19
361.39	80.19
361.616	72.19
361.843	81.19
362.07	79.19
362.296	95.19
362.523	100.19
362.749	95.19
362.976	87.19
363.203	104.19
363.429	105.19
363.656	106.19
363.882	81.19
364.109	84.19
364.335	86.19
364.562	103.19
364.788	72.19
365.015	95.19
365.241	91.19
365.468	76.19
365.694	85.19
365.92	88.19
366.147	68.19
366.373	82.19
366.599	78.19
366.826	80.19
367.052	82.19
367.278	95.19
367.505	83.19
367.731	103.19
367.957	86.19
368.184	83.19
368.41	80.19
368.636	88.19
368.862	87.19
369.089	87.19
369.315	80.19
369.541	106.19
369.767	81.19
369.993	83.19
370.219	92.19
370.445	83.19
370.672	90.19
370.898	88.19
371.124	76.19
371.35	83.19
371.576	92.19
371.802	82.19
372.028	81.19
372.254	83.19
372.48	97.19
372.706	89.19
372.932	88.19
373.158	89.19
373.384	91.19
373.61	91.19
373.835	89.19
374.061	91.19
374.287	79.19
374.513	88.19
374.739	83.19
374.965	93.19
375.191	83.19
375.416	97.19
375.642	73.19
375.868	77.19
376.094	87.19
376.319	81.19
376.545	88.19
376.771	90.19
376.997	81.19
377.222	91.19
377.448	85.19
377.674	73.19
377.899	85.19
378.125	74.19
378.35	93.19
378.576	83.19
378.802	97.19
379.027	78.19
379.253	100.19
379.478	95.19
379.704	85.19
379.929	82.19
380.155	82.19
380.38	65.19
380.606	90.19
380.831	73.19
381.057	88.19
381.282	83.19
381.507	91.19
381.733	74.19
381.958	91.19
382.184	107.19
382.409	89.19
382.634	108.19
382.86	95.19
383.085	80.19
383.31	81.19
383.535	86.19
383.761	86.19
383.986	99.19
384.211	89.19
384.436	71.19
384.662	83.19
384.887	79.19
385.112	83.19
385.337	95.19
385.562	84.19
385.787	80.19
386.013	91.19
386.238	98.19
386.463	85.19
386.688	100.19
386.913	97.19
387.138	101.19
387.363	85.19
387.588	85.19
387.813	91.19
388.038	96.19
388.263	83.19
388.488	79.19
388.713	86.19
388.938	72.19
389.163	86.19
389.387	97.19
389.612	83.19
389.837	86.19
390.062	91.19
390.287	107.19
390.512	82.19
390.736	85.19
390.961	94.19
391.186	83.19
391.411	88.19
391.636	75.19
391.86	77.19
392.085	92.19
392.31	81.19
392.534	82.19
392.759	95.19
392.984	103.19
393.208	134.19
393.433	165.19
393.658	145.19
393.882	94.19
394.107	93.19
394.331	80.19
394.556	88.19
394.78	91.19
395.005	76.19
395.229	81.19
395.454	95.19
395.678	72.19
395.903	95.19
396.127	100.19
396.352	104.19
396.576	98.19
396.801	137.19
397.025	143.19
397.249	107.19
397.474	103.19
397.698	87.19
397.922	83.19
398.147	95.19
398.371	84.19
398.595	103.19
398.82	87.19
399.044	85.19
399.268	98.19
399.492	87.19
399.717	71.19
399.941	87.19
400.165	90.19
400.389	82.19
400.613	72.19
400.837	83.19
401.062	69.19
401.286	72.19
401.51	78.19
401.734	81.19
401.958	81.19
402.182	93.19
402.406	78.19
402.63	67.19
402.854	73.19
403.078	89.19
403.302	87.19
403.526	95.19
403.75	99.19
403.974	82.19
404.198	83.19
404.422	80.19
404.645	76.19
404.869	95.19
405.093	75.19
405.317	89.19
405.541	90.19
405.765	97.19
405.988	74.19
406.212	79.19
406.436	78.19
406.66	84.19
406.883	81.19
407.107	78.19
407.331	88.19
407.555	81.19
407.778	95.19
408.002	91.19
408.226	88.19
408.449	91.19
408.673	76.19
408.896	77.19
409.12	74.19
409.344	85.19
409.567	90.19
409.791	95.19
410.014	87.19
410.238	83.19
410.461	87.19
410.685	91.19
410.908	81.19
411.132	75.19
411.355	74.19
411.578	84.19
411.802	74.19
412.025	81.19
412.249	87.19
412.472	78.19
412.695	91.19
412.919	91.19
413.142	82.19
413.365	89.19
413.589	88.19
413.812	93.19
414.035	99.19
414.258	87.19
414.482	90.19
414.705	88.19
414.928	88.19
415.151	72.19
415.374	79.19
415.597	79.19
415.821	86.19
416.044	89.19
416.267	87.19
416.49	92.19
416.713	87.19
416.936	79.19
417.159	75.19
417.382	83.19
417.605	93.19
417.828	92.19
418.051	97.19
418.274	88.19
418.497	86.19
418.72	74.19
418.943	93.19
419.166	90.19
419.389	84.19
419.611	79.19
419.834	86.19
420.057	77.19
420.28	62.19
420.503	81.19
420.726	84.19
420.948	77.19
421.171	80.19
421.394	92.19
421.617	87.19
421.839	88.19
422.062	92.19
422.285	99.19
422.507	143.19
422.73	199.19
422.953	196.19
423.175	111.19
423.398	80.19
423.621	100.19
423.843	83.19
424.066	83.19
424.288	92.19
424.511	91.19
424.733	95.19
424.956	85.19
425.178	81.19
425.401	96.19
425.623	83.19
425.846	85.19
426.068	83.19
426.291	86.19
426.513	91.19
426.735	87.19
426.958	75.19
427.18	91.19
427.402	87.19
427.625	91.19
427.847	89.19
428.069	85.19
428.292	107.19
428.514	92.19
428.736	102.19
428.958	106.19
429.181	96.19
429.403	81.19
429.625	101.19
429.847	96.19
430.069	128.19
430.292	117.19
430.514	104.19
430.736	95.19
430.958	104.19
431.18	81.19
431.402	77.19
431.624	94.19
431.846	70.19
432.068	99.19
432.29	76.19
432.512	84.19
432.734	94.19
432.956	83.19
433.178	85.19
433.4	83.19
433.622	87.19
433.844	63.19
434.066	85.19
434.287	97.19
434.509	89.19
434.731	89.19
434.953	88.19
435.175	78.19
435.397	87.19
435.618	75.19
435.84	68.19
436.062	84.19
436.284	81.19
436.505	73.19
436.727	86.19
436.949	79.19
437.17	77.19
437.392	84.19
437.614	101.19
437.835	86.19
438.057	75.19
438.278	83.19
438.5	90.19
438.721	103.19
438.943	88.19
439.165	79.19
439.386	80.19
439.608	86.19
439.829	78.19
440.05	82.19
440.272	70.19
440.493	86.19
440.715	88.19
440.936	85.19
441.158	79.19
441.379	77.19
441.6	75.19
441.822	82.19
442.043	83.19
442.264	83.19
442.486	98.19
442.707	107.19
442.928	95.19
443.149	87.19
443.371	108.19
443.592	151.19
443.813	109.19
444.034	81.19
444.255	90.19
444.476	80.19
444.698	84.19
444.919	88.19
445.14	147.19
445.361	135.19
445.582	129.19
445.803	129.19
446.024	95.19
446.245	92.19
446.466	73.19
446.687	73.19
446.908	84.19
447.129	76.19
447.35	79.19
447.571	83.19
447.792	80.19
448.013	84.19
448.234	67.19
448.455	79.19
448.675	80.19
448.896	83.19
449.117	81.19
449.338	75.19
449.559	70.19
449.779	75.19
450	76.19
450.221	89.19
450.442	78.19
450.662	87.19
450.883	76.19
451.104	95.19
451.324	91.19
451.545	76.19
451.766	83.19
451.986	84.19
452.207	77.19
452.428	85.19
452.648	84.19
452.869	94.19
453.089	82.19
453.31	83.19
453.53	83.19
453.751	92.19
453.971	85.19
454.192	90.19
454.412	79.19
454.633	89.19
454.853	98.19
455.073	79.19
455.294	78.19
455.514	91.19
455.734	95.19
455.955	88.19
456.175	83.19
456.395	90.19
456.616	79.19
456.836	71.19
457.056	86.19
457.276	84.19
457.497	66.19
457.717	82.19
457.937	85.19
458.157	86.19
458.377	92.19
458.598	83.19
458.818	84.19
459.038	72.19
459.258	83.19
459.478	89.19
459.698	82.19
459.918	78.19
460.138	61.19
460.358	99.19
460.578	102.19
460.798	97.19
461.018	93.19
461.238	83.19
461.458	76.19
461.678	82.19
461.898	87.19
462.118	92.19
462.338	103.19
462.558	86.19
462.777	74.19
462.997	89.19
463.217	82.19
463.437	97.19
463.657	75.19
463.876	83.19
464.096	84.19
464.316	80.19
464.536	96.19
464.755	81.19
464.975	77.19
465.195	78.19
465.414	86.19
465.634	91.19
465.854	76.19
466.073	72.19
466.293	74.19
466.512	85.19
466.732	73.19
466.951	104.19
467.171	88.19
467.391	75.19
467.61	95.19
467.829	85.19
468.049	77.19
468.268	68.19
468.488	88.19
468.707	99.19
468.927	97.19
469.146	74.19
469.365	97.19
469.585	83.19
469.804	71.19
470.023	79.19
470.243	84.19
470.462	89.19
470.681	75.19
470.901	76.19
471.12	76.19
471.339	91.19
471.558	89.19
471.777	60.19
471.997	87.19
472.216	73.19
472.435	76.19
472.654	74.19
472.873	88.19
473.092	89.19
473.311	88.19
473.53	82.19
473.749	90.19
473.968	88.19
474.187	81.19
474.406	97.19
474.625	83.19
474.844	98.19
475.063	98.19
475.282	94.19
475.501	69.19
475.72	86.19
475.939	80.19
476.158	79.19
476.377	74.19
476.596	90.19
476.814	84.19
477.033	78.19
477.252	96.19
477.471	98.19
477.69	91.19
477.908	84.19
478.127	85.19
478.346	80.19
478.564	81.19
478.783	86.19
479.002	71.19
479.22	85.19
479.439	90.19
479.658	79.19
479.876	74.19
480.095	85.19
480.313	81.19
480.532	78.19
480.751	85.19
480.969	90.19
481.188	105.19
481.406	93.19
481.624	94.19
481.843	82.19
482.061	79.19
482.28	72.19
482.498	85.19
482.717	85.19
482.935	92.19
483.153	85.19
483.372	99.19
483.59	72.19
483.808	75.19
484.027	92.19
484.245	75.19
484.463	93.19
484.681	92.19
484.9	89.19
485.118	80.19
485.336	80.19
485.554	105.19
485.772	87.19
485.99	58.19
486.209	76.19
486.427	81.19
486.645	87.19
486.863	77.19
487.081	89.19
487.299	97.19
487.517	68.19
487.735	83.19
487.953	103.19
488.171	93.19
488.389	87.19
488.607	91.19
488.825	79.19
489.043	85.19
489.261	101.19
489.479	81.19
489.696	83.19
489.914	95.19
490.132	85.19
490.35	83.19
490.568	93.19
490.786	77.19
491.003	97.19
491.221	69.19
491.439	79.19
491.657	83.19
491.874	75.19
492.092	95.19
492.31	106.19
492.527	97.19
492.745	77.19
492.963	77.19
493.18	98.19
493.398	81.19
493.615	91.19
493.833	72.19
494.05	89.19
494.268	71.19
494.485	89.19
494.703	97.19
494.92	84.19
495.138	87.19
495.355	93.19
495.573	87.19
495.79	88.19
496.008	87.19
496.225	80.19
496.442	85.19
496.66	94.19
496.877	102.19
497.094	93.19
497.312	83.19
497.529	88.19
497.746	85.19
497.963	69.19
498.181	83.19
498.398	95.19
498.615	71.19
498.832	76.19
499.049	83.19
499.267	82.19
499.484	96.19
499.701	85.19
499.918	90.19
500.135	96.19
500.352	78.19
500.569	91.19
500.786	90.19
501.003	102.19
501.22	95.19
501.437	84.19
501.654	69.19
501.871	78.19
502.088	78.19
502.305	92.19
502.522	101.19
502.739	87.19
502.956	74.19
503.172	82.19
503.389	89.19
503.606	72.19
503.823	109.19
504.04	86.19
504.256	87.19
504.473	86.19
504.69	71.19
504.907	90.19
505.123	86.19
505.34	79.19
505.557	91.19
505.773	76.19
505.99	73.19
506.207	92.19
506.423	83.19
506.64	90.19
506.856	82.19
507.073	75.19
507.289	90.19
507.506	81.19
507.722	92.19
507.939	97.19
508.155	81.19
508.372	77.19
508.588	91.19
508.805	67.19
509.021	71.19
509.238	88.19
509.454	71.19
509.67	60.19
509.887	89.19
510.103	92.19
510.319	75.19
510.536	83.19
510.752	81.19
510.968	82.19
511.184	86.19
511.401	92.19
511.617	89.19
511.833	81.19
512.049	87.19
512.265	91.19
512.481	86.19
512.698	95.19
512.914	90.19
513.13	83.19
513.346	78.19
513.562	89.19
513.778	74.19
513.994	79.19
514.21	99.19
514.426	88.19
514.642	91.19
514.858	97.19
515.074	85.19
515.29	91.19
515.506	86.19
515.721	81.19
515.937	101.19
516.153	80.19
516.369	71.19
516.585	87.19
516.801	80.19
517.016	90.19
517.232	81.19
517.448	82.19
517.664	88.19
517.879	99.19
518.095	82.19
518.311	97.19
518.527	81.19
518.742	99.19
518.958	106.19
519.173	104.19
519.389	89.19
519.605	91.19
519.82	93.19
520.036	89.19
520.251	86.19
520.467	79.19
520.682	84.19
520.898	85.19
521.113	98.19
521.329	86.19
521.544	89.19
521.76	74.19
521.975	79.19
522.19	77.19
522.406	73.19
522.621	89.19
522.836	86.19
523.052	88.19
523.267	82.19
523.482	81.19
523.698	71.19
523.913	80.19
524.128	86.19
524.343	92.19
524.559	85.19
524.774	93.19
524.989	88.19
525.204	84.19
525.419	87.19
525.634	84.19
525.849	88.19
526.064	104.19
526.28	106.19
526.495	140.19
526.71	149.19
526.925	133.19
527.14	128.19
527.355	141.19
527.57	83.19
527.785	97.19
527.999	83.19
528.214	101.19
528.429	88.19
528.644	106.19
528.859	87.19
529.074	97.19
529.289	83.19
529.503	78.19
529.718	91.19
529.933	94.19
530.148	88.19
530.363	77.19
530.577	93.19
530.792	90.19
531.007	99.19
531.221	87.19
531.436	91.19
531.651	85.19
531.865	92.19
532.08	93.19
532.295	100.19
532.509	92.19
532.724	100.19
532.938	86.19
533.153	80.19
533.367	87.19
533.582	77.19
533.796	96.19
534.011	90.19
534.225	91.19
534.44	108.19
534.654	79.19
534.868	91.19
535.083	119.19
535.297	100.19
535.511	75.19
535.726	84.19
535.94	106.19
536.154	90.19
536.369	91.19
536.583	92.19
536.797	86.19
537.011	72.19
537.225	83.19
537.44	92.19
537.654	74.19
537.868	84.19
538.082	81.19
538.296	86.19
538.51	90.19
538.724	89.19
538.938	103.19
539.153	95.19
539.367	94.19
539.581	92.19
539.795	87.19
540.009	97.19
540.222	91.19
540.436	102.19
540.65	85.19
540.864	87.19
541.078	92.19
541.292	95.19
541.506	93.19
541.72	95.19
541.934	104.19
542.147	98.19
542.361	84.19
542.575	87.19
542.789	76.19
543.002	95.19
543.216	97.19
543.43	99.19
543.644	95.19
543.857	85.19
544.071	86.19
544.285	87.19
544.498	93.19
544.712	92.19
544.925	93.19
545.139	92.19
545.352	103.19
545.566	94.19
545.779	99.19
545.993	90.19
546.206	103.19
546.42	92.19
546.633	88.19
546.847	105.19
547.06	108.19
547.274	93.19
547.487	120.19
547.7	107.19
547.914	123.19
548.127	120.19
548.34	113.19
548.554	116.19
548.767	113.19
548.98	120.19
549.193	116.19
549.407	109.19
549.62	132.19
549.833	116.19
550.046	128.19
550.259	135.19
550.473	119.19
550.686	144.19
550.899	139.19
551.112	150.19
551.325	145.19
551.538	158.19
551.751	148.19
551.964	148.19
552.177	150.19
552.39	141.19
552.603	146.19
552.816	143.19
553.029	138.19
553.242	146.19
553.455	138.19
553.667	154.19
553.88	153.19
554.093	159.19
554.306	145.19
554.519	162.19
554.732	161.19
554.944	142.19
555.157	141.19
555.37	137.19
555.583	146.19
555.795	146.19
556.008	142.19
556.221	117.19
556.433	122.19
556.646	115.19
556.859	111.19
557.071	128.19
557.284	105.19
557.496	104.19
557.709	108.19
557.921	128.19
558.134	106.19
558.346	125.19
558.559	122.19
558.771	136.19
558.984	154.19
559.196	192.19
559.409	115.19
559.621	141.19
559.833	119.19
560.046	152.19
560.258	125.19
560.47	137.19
560.683	102.19
560.895	98.19
561.107	95.19
561.32	95.19
561.532	96.19
561.744	97.19
561.956	83.19
562.168	85.19
562.381	96.19
562.593	92.19
562.805	106.19
563.017	102.19
563.229	94.19
563.441	81.19
563.653	89.19
563.865	92.19
564.077	98.19
564.289	102.19
564.501	90.19
564.713	84.19
564.925	101.19
565.137	99.19
565.349	92.19
565.561	87.19
565.773	84.19
565.985	90.19
566.197	90.19
566.408	84.19
566.62	101.19
566.832	96.19
567.044	84.19
567.255	95.19
567.467	88.19
567.679	92.19
567.891	100.19
568.102	89.19
568.314	89.19
568.526	95.19
568.737	79.19
568.949	107.19
569.161	100.19
569.372	83.19
569.584	92.19
569.795	95.19
570.007	97.19
570.218	101.19
570.43	92.19
570.641	81.19
570.853	91.19
571.064	91.19
571.276	103.19
571.487	93.19
571.698	87.19
571.91	83.19
572.121	92.19
572.333	94.19
572.544	91.19
572.755	93.19
572.966	85.19
573.178	88.19
573.389	94.19
573.6	90.19
573.811	95.19
574.023	91.19
574.234	86.19
574.445	89.19
574.656	83.19
574.867	91.19
575.078	92.19
575.289	97.19
575.501	88.19
575.712	76.19
575.923	87.19
576.134	78.19
576.345	85.19
576.556	92.19
576.767	96.19
576.978	87.19
577.188	83.19
577.399	74.19
577.61	79.19
577.821	98.19
578.032	87.19
578.243	81.19
578.454	87.19
578.665	99.19
578.875	95.19
579.086	87.19
579.297	96.19
579.508	107.19
579.718	103.19
579.929	91.19
580.14	88.19
580.35	105.19
580.561	95.19
580.772	91.19
580.982	88.19
581.193	92.19
581.403	79.19
581.614	90.19
581.825	87.19
582.035	90.19
582.246	94.19
582.456	87.19
582.667	82.19
582.877	100.19
583.087	79.19
583.298	85.19
583.508	90.19
583.719	85.19
583.929	98.19
584.139	91.19
584.35	89.19
584.56	90.19
584.77	95.19
584.981	85.19
585.191	89.19
585.401	92.19
585.611	95.19
585.821	121.19
586.032	139.19
586.242	89.19
586.452	97.19
586.662	101.19
586.872	90.19
587.082	85.19
587.292	95.19
587.502	92.19
587.713	93.19
587.923	82.19
588.133	105.19
588.343	99.19
588.553	95.19
588.762	113.19
588.972	147.19
589.182	295.19
589.392	202.19
589.602	158.19
589.812	268.19
590.022	172.19
590.232	111.19
590.441	95.19
590.651	100.19
590.861	97.19
591.071	87.19
591.281	91.19
591.49	98.19
591.7	100.19
591.91	105.19
592.119	70.19
592.329	107.19
592.539	89.19
592.748	93.19
592.958	103.19
593.167	101.19
593.377	116.19
593.587	104.19
593.796	92.19
594.006	93.19
594.215	110.19
594.424	112.19
594.634	116.19
594.843	100.19
595.053	114.19
595.262	117.19
595.472	104.19
595.681	102.19
595.89	102.19
596.1	96.19
596.309	108.19
596.518	117.19
596.727	121.19
596.937	113.19
597.146	103.19
597.355	111.19
597.564	106.19
597.774	117.19
597.983	113.19
598.192	131.19
598.401	115.19
598.61	120.19
598.819	107.19
599.028	123.19
599.237	122.19
599.446	127.19
599.655	115.19
599.864	109.19
600.073	113.19
600.282	123.19
600.491	112.19
600.7	105.19
600.909	109.19
601.118	115.19
601.327	111.19
601.536	122.19
601.745	113.19
601.953	108.19
602.162	111.19
602.371	107.19
602.58	96.19
602.789	111.19
602.997	120.19
603.206	115.19
603.415	123.19
603.623	117.19
603.832	115.19
604.041	125.19
604.249	112.19
604.458	114.19
604.666	121.19
604.875	133.19
605.084	124.19
605.292	132.19
605.501	136.19
605.709	133.19
605.918	128.19
606.126	135.19
606.334	133.19
606.543	147.19
606.751	143.19
606.96	150.19
607.168	138.19
607.376	117.19
607.585	129.19
607.793	126.19
608.001	126.19
608.21	101.19
608.418	126.19
608.626	128.19
608.834	136.19
609.043	117.19
609.251	131.19
609.459	120.19
609.667	130.19
609.875	131.19
610.083	133.19
610.291	127.19
610.499	166.19
610.707	149.19
610.916	134.19
611.124	137.19
611.332	151.19
611.54	141.19
611.748	125.19
611.955	150.19
612.163	147.19
612.371	196.19
612.579	184.19
612.787	142.19
612.995	149.19
613.203	140.19
613.411	133.19
613.618	150.19
613.826	147.19
614.034	148.19
614.242	148.19
614.449	135.19
614.657	137.19
614.865	137.19
615.072	145.19
615.28	146.19
615.488	133.19
615.695	130.19
615.903	134.19
616.111	160.19
616.318	191.19
616.526	211.19
616.733	159.19
616.941	149.19
617.148	164.19
617.356	149.19
617.563	139.19
617.771	135.19
617.978	127.19
618.185	137.19
618.393	148.19
618.6	123.19
618.807	140.19
619.015	125.19
619.222	137.19
619.429	120.19
619.637	127.19
619.844	125.19
620.051	126.19
620.258	135.19
620.466	127.19
620.673	133.19
620.88	144.19
621.087	133.19
621.294	107.19
621.501	130.19
621.708	141.19
621.915	131.19
622.122	140.19
622.329	124.19
622.536	131.19
622.743	135.19
622.95	127.19
623.157	134.19
623.364	130.19
623.571	132.19
623.778	133.19
623.985	130.19
624.192	125.19
624.399	127.19
624.606	138.19
624.812	143.19
625.019	132.19
625.226	138.19
625.433	143.19
625.639	121.19
625.846	112.19
626.053	124.19
626.259	123.19
626.466	111.19
626.673	123.19
626.879	106.19
627.086	104.19
627.293	99.19
627.499	120.19
627.706	111.19
627.912	116.19
628.119	93.19
628.325	92.19
628.532	119.19
628.738	103.19
628.945	107.19
629.151	103.19
629.357	102.19
629.564	104.19
629.77	91.19
629.976	104.19
630.183	92.19
630.389	99.19
630.595	91.19
630.802	102.19
631.008	98.19
631.214	89.19
631.42	89.19
631.627	99.19
631.833	85.19
632.039	97.19
632.245	84.19
632.451	74.19
632.657	88.19
632.863	85.19
633.069	92.19
633.275	77.19
633.481	78.19
633.688	89.19
633.893	113.19
634.099	91.19
634.305	90.19
634.511	92.19
634.717	103.19
634.923	82.19
635.129	91.19
635.335	82.19
635.541	90.19
635.747	94.19
635.952	99.19
636.158	89.19
636.364	93.19
636.57	84.19
636.775	88.19
636.981	83.19
637.187	81.19
637.392	87.19
637.598	105.19
637.804	79.19
638.009	81.19
638.215	88.19
638.421	89.19
638.626	109.19
638.832	85.19
639.037	76.19
639.243	92.19
639.448	93.19
639.654	97.19
639.859	81.19
640.065	83.19
640.27	69.19
640.475	93.19
640.681	99.19
640.886	95.19
641.091	92.19
641.297	103.19
641.502	87.19
641.707	94.19
641.913	92.19
642.118	88.19
642.323	82.19
642.528	89.19
642.733	95.19
642.939	90.19
643.144	99.19
643.349	98.19
643.554	93.19
643.759	87.19
643.964	97.19
644.169	121.19
644.374	89.19
644.579	89.19
644.784	91.19
644.989	90.19
645.194	108.19
645.399	94.19
645.604	91.19
645.809	109.19
646.014	89.19
646.219	68.19
646.423	111.19
646.628	106.19
646.833	98.19
647.038	78.19
647.243	96.19
647.447	89.19
647.652	83.19
647.857	81.19
648.062	86.19
648.266	88.19
648.471	92.19
648.676	84.19
648.88	96.19
649.085	85.19
649.289	86.19
649.494	92.19
649.698	101.19
649.903	94.19
650.107	81.19
650.312	96.19
650.516	87.19
650.721	72.19
650.925	84.19
651.13	85.19
651.334	100.19
651.539	84.19
651.743	84.19
651.947	85.19
652.152	78.19
652.356	89.19
652.56	91.19
652.764	83.19
652.969	89.19
653.173	76.19
653.377	89.19
653.581	79.19
653.785	90.19
653.99	93.19
654.194	82.19
654.398	80.19
654.602	87.19
654.806	85.19
655.01	82.19
655.214	86.19
655.418	84.19
655.622	81.19
655.826	81.19
656.03	78.19
656.234	87.19
656.438	91.19
656.642	93.19
656.846	83.19
657.049	87.19
657.253	77.19
657.457	94.19
657.661	77.19
657.865	87.19
658.068	94.19
658.272	73.19
658.476	95.19
658.68	84.19
658.883	87.19
659.087	70.19
659.291	79.19
659.494	84.19
659.698	83.19
659.901	91.19
660.105	81.19
660.309	91.19
660.512	81.19
660.716	89.19
660.919	79.19
661.123	90.19
661.326	97.19
661.53	91.19
661.733	83.19
661.936	74.19
662.14	95.19
662.343	85.19
662.546	80.19
662.75	77.19
662.953	78.19
663.156	99.19
663.36	98.19
663.563	77.19
663.766	81.19
663.969	91.19
664.173	75.19
664.376	87.19
664.579	67.19
664.782	80.19
664.985	80.19
665.188	86.19
665.391	97.19
665.594	84.19
665.797	85.19
666	94.19
666.203	87.19
666.406	82.19
666.609	78.19
666.812	80.19
667.015	72.19
667.218	67.19
667.421	83.19
667.624	73.19
667.827	85.19
668.03	89.19
668.232	71.19
668.435	87.19
668.638	77.19
668.841	90.19
669.043	83.19
669.246	78.19
669.449	87.19
669.651	81.19
669.854	88.19
670.057	87.19
670.259	85.19
670.462	97.19
670.665	97.19
670.867	76.19
671.07	88.19
671.272	82.19
671.475	95.19
671.677	83.19
671.88	74.19
672.082	87.19
672.284	80.19
672.487	75.19
672.689	81.19
672.892	98.19
