Data from Uncirc_2005_H10_HRD10591_00029.txt Node
Date: Wed Jan 03 10:28:30 EST 2024
User: Yrep
Spectrometer: HR+D1059
Trigger mode: 1
Integration Time (sec): 1.000000E-1
Scans to average: 1
Electric dark correction enabled: true
Nonlinearity correction enabled: false
Boxcar width: 0
XAxis mode: Wavelengths
Number of Pixels in Spectrum: 2048
>>>>>Begin Spectral Data<<<<<
223.165	-17.94
223.4	-17.94
223.635	-17.94
223.869	-19.94
224.104	-20.94
224.338	-28.94
224.573	-10.94
224.808	0.06
225.042	-8.94
225.277	-4.94
225.511	1.06
225.746	-2.94
225.98	0.06
226.215	-0.94
226.449	23.06
226.683	37.06
226.918	18.06
227.152	37.06
227.387	25.06
227.621	33.06
227.856	45.06
228.09	48.06
228.324	41.06
228.559	49.06
228.793	55.06
229.027	62.06
229.262	63.06
229.496	63.06
229.73	71.06
229.964	79.06
230.199	71.06
230.433	82.06
230.667	68.06
230.901	80.06
231.136	58.06
231.37	67.06
231.604	80.06
231.838	77.06
232.072	76.06
232.306	73.06
232.541	68.06
232.775	97.06
233.009	81.06
233.243	73.06
233.477	74.06
233.711	87.06
233.945	75.06
234.179	84.06
234.413	73.06
234.647	80.06
234.881	78.06
235.115	81.06
235.349	82.06
235.583	80.06
235.817	84.06
236.051	87.06
236.285	75.06
236.519	85.06
236.753	61.06
236.987	69.06
237.221	82.06
237.455	78.06
237.689	73.06
237.922	79.06
238.156	82.06
238.39	82.06
238.624	63.06
238.858	78.06
239.091	80.06
239.325	78.06
239.559	71.06
239.793	81.06
240.027	78.06
240.26	73.06
240.494	74.06
240.728	74.06
240.961	96.06
241.195	67.06
241.429	90.06
241.662	65.06
241.896	73.06
242.13	85.06
242.363	70.06
242.597	78.06
242.83	91.06
243.064	75.06
243.298	92.06
243.531	76.06
243.765	74.06
243.998	74.06
244.232	90.06
244.465	77.06
244.699	75.06
244.932	77.06
245.166	73.06
245.399	72.06
245.633	82.06
245.866	85.06
246.099	78.06
246.333	65.06
246.566	79.06
246.8	74.06
247.033	79.06
247.266	96.06
247.5	82.06
247.733	79.06
247.966	87.06
248.2	85.06
248.433	83.06
248.666	87.06
248.899	92.06
249.133	90.06
249.366	105.06
249.599	76.06
249.832	76.06
250.066	76.06
250.299	79.06
250.532	78.06
250.765	81.06
250.998	91.06
251.231	77.06
251.465	75.06
251.698	77.06
251.931	60.06
252.164	80.06
252.397	71.06
252.63	78.06
252.863	95.06
253.096	75.06
253.329	84.06
253.562	68.06
253.795	68.06
254.028	87.06
254.261	73.06
254.494	77.06
254.727	70.06
254.96	82.06
255.193	70.06
255.426	68.06
255.659	74.06
255.892	78.06
256.124	90.06
256.357	69.06
256.59	58.06
256.823	90.06
257.056	74.06
257.289	89.06
257.521	85.06
257.754	84.06
257.987	78.06
258.22	69.06
258.452	75.06
258.685	75.06
258.918	79.06
259.151	79.06
259.383	81.06
259.616	74.06
259.849	75.06
260.081	79.06
260.314	83.06
260.547	72.06
260.779	75.06
261.012	86.06
261.244	84.06
261.477	91.06
261.71	83.06
261.942	89.06
262.175	104.06
262.407	81.06
262.64	79.06
262.872	94.06
263.105	83.06
263.337	71.06
263.57	81.06
263.802	76.06
264.035	71.06
264.267	78.06
264.499	82.06
264.732	80.06
264.964	84.06
265.197	71.06
265.429	82.06
265.661	87.06
265.894	80.06
266.126	90.06
266.358	73.06
266.591	77.06
266.823	86.06
267.055	88.06
267.287	85.06
267.52	86.06
267.752	83.06
267.984	87.06
268.216	91.06
268.448	98.06
268.681	83.06
268.913	88.06
269.145	79.06
269.377	91.06
269.609	74.06
269.841	81.06
270.073	84.06
270.306	88.06
270.538	82.06
270.77	85.06
271.002	93.06
271.234	76.06
271.466	92.06
271.698	82.06
271.93	91.06
272.162	81.06
272.394	70.06
272.626	66.06
272.858	79.06
273.09	97.06
273.322	81.06
273.553	85.06
273.785	91.06
274.017	77.06
274.249	87.06
274.481	78.06
274.713	82.06
274.945	93.06
275.176	86.06
275.408	80.06
275.64	88.06
275.872	82.06
276.104	78.06
276.335	68.06
276.567	89.06
276.799	102.06
277.031	93.06
277.262	81.06
277.494	86.06
277.726	98.06
277.957	77.06
278.189	82.06
278.421	84.06
278.652	77.06
278.884	92.06
279.115	94.06
279.347	90.06
279.579	87.06
279.81	87.06
280.042	82.06
280.273	79.06
280.505	86.06
280.736	77.06
280.968	80.06
281.199	93.06
281.431	88.06
281.662	82.06
281.894	88.06
282.125	88.06
282.356	92.06
282.588	125.06
282.819	103.06
283.051	93.06
283.282	96.06
283.513	86.06
283.745	83.06
283.976	87.06
284.207	63.06
284.439	89.06
284.67	93.06
284.901	85.06
285.132	83.06
285.364	80.06
285.595	94.06
285.826	85.06
286.057	86.06
286.288	82.06
286.52	80.06
286.751	82.06
286.982	89.06
287.213	81.06
287.444	86.06
287.675	80.06
287.906	82.06
288.138	83.06
288.369	92.06
288.6	94.06
288.831	95.06
289.062	81.06
289.293	81.06
289.524	77.06
289.755	90.06
289.986	84.06
290.217	92.06
290.448	97.06
290.679	83.06
290.91	81.06
291.141	90.06
291.371	96.06
291.602	77.06
291.833	83.06
292.064	91.06
292.295	96.06
292.526	89.06
292.757	90.06
292.987	79.06
293.218	91.06
293.449	95.06
293.68	77.06
293.91	79.06
294.141	78.06
294.372	97.06
294.603	99.06
294.833	80.06
295.064	81.06
295.295	87.06
295.525	98.06
295.756	85.06
295.987	101.06
296.217	117.06
296.448	111.06
296.679	91.06
296.909	81.06
297.14	89.06
297.37	101.06
297.601	100.06
297.831	82.06
298.062	86.06
298.292	86.06
298.523	84.06
298.753	86.06
298.984	77.06
299.214	73.06
299.445	79.06
299.675	106.06
299.905	94.06
300.136	94.06
300.366	96.06
300.597	87.06
300.827	91.06
301.057	87.06
301.288	103.06
301.518	89.06
301.748	99.06
301.979	103.06
302.209	91.06
302.439	96.06
302.669	88.06
302.9	94.06
303.13	94.06
303.36	113.06
303.59	84.06
303.82	100.06
304.051	93.06
304.281	85.06
304.511	99.06
304.741	84.06
304.971	81.06
305.201	77.06
305.431	78.06
305.661	76.06
305.891	80.06
306.121	85.06
306.352	88.06
306.582	103.06
306.812	98.06
307.042	101.06
307.272	97.06
307.502	87.06
307.731	92.06
307.961	85.06
308.191	76.06
308.421	90.06
308.651	85.06
308.881	91.06
309.111	85.06
309.341	81.06
309.571	93.06
309.8	94.06
310.03	93.06
310.26	89.06
310.49	86.06
310.72	105.06
310.949	100.06
311.179	108.06
311.409	84.06
311.639	90.06
311.868	105.06
312.098	101.06
312.328	102.06
312.557	105.06
312.787	103.06
313.017	93.06
313.246	97.06
313.476	96.06
313.706	90.06
313.935	95.06
314.165	94.06
314.394	96.06
314.624	99.06
314.853	87.06
315.083	84.06
315.312	93.06
315.542	72.06
315.771	95.06
316.001	79.06
316.23	78.06
316.46	85.06
316.689	103.06
316.919	89.06
317.148	95.06
317.377	98.06
317.607	87.06
317.836	98.06
318.065	92.06
318.295	83.06
318.524	89.06
318.753	89.06
318.983	99.06
319.212	99.06
319.441	87.06
319.67	100.06
319.9	90.06
320.129	105.06
320.358	98.06
320.587	97.06
320.816	92.06
321.046	92.06
321.275	104.06
321.504	90.06
321.733	97.06
321.962	107.06
322.191	104.06
322.42	96.06
322.649	118.06
322.878	110.06
323.108	101.06
323.337	109.06
323.566	113.06
323.795	137.06
324.024	195.06
324.253	371.06
324.482	765.06
324.71	1534.06
324.939	1989.06
325.168	737.06
325.397	225.06
325.626	144.06
325.855	121.06
326.084	111.06
326.313	122.06
326.542	138.06
326.77	209.06
326.999	426.06
327.228	864.06
327.457	1595.06
327.686	1239.06
327.914	323.06
328.143	179.06
328.372	147.06
328.6	119.06
328.829	114.06
329.058	126.06
329.287	116.06
329.515	99.06
329.744	105.06
329.972	101.06
330.201	99.06
330.43	101.06
330.658	113.06
330.887	113.06
331.115	105.06
331.344	108.06
331.572	102.06
331.801	90.06
332.03	99.06
332.258	89.06
332.486	99.06
332.715	85.06
332.943	100.06
333.172	85.06
333.4	98.06
333.629	88.06
333.857	98.06
334.085	100.06
334.314	96.06
334.542	89.06
334.771	101.06
334.999	91.06
335.227	84.06
335.455	88.06
335.684	91.06
335.912	93.06
336.14	102.06
336.369	94.06
336.597	92.06
336.825	76.06
337.053	111.06
337.281	75.06
337.51	76.06
337.738	86.06
337.966	81.06
338.194	91.06
338.422	98.06
338.65	105.06
338.878	70.06
339.106	73.06
339.334	92.06
339.562	103.06
339.79	89.06
340.018	88.06
340.246	90.06
340.474	91.06
340.702	86.06
340.93	84.06
341.158	82.06
341.386	91.06
341.614	88.06
341.842	78.06
342.07	85.06
342.298	92.06
342.526	92.06
342.754	85.06
342.981	96.06
343.209	83.06
343.437	108.06
343.665	97.06
343.893	91.06
344.12	90.06
344.348	85.06
344.576	102.06
344.804	83.06
345.031	88.06
345.259	88.06
345.487	92.06
345.714	89.06
345.942	106.06
346.17	91.06
346.397	80.06
346.625	94.06
346.853	86.06
347.08	92.06
347.308	97.06
347.535	100.06
347.763	94.06
347.99	87.06
348.218	101.06
348.445	107.06
348.673	97.06
348.9	82.06
349.128	91.06
349.355	85.06
349.583	96.06
349.81	102.06
350.037	90.06
350.265	94.06
350.492	93.06
350.72	84.06
350.947	88.06
351.174	97.06
351.402	98.06
351.629	106.06
351.856	103.06
352.083	112.06
352.311	114.06
352.538	95.06
352.765	105.06
352.992	102.06
353.22	98.06
353.447	103.06
353.674	101.06
353.901	93.06
354.128	94.06
354.355	89.06
354.583	94.06
354.81	91.06
355.037	100.06
355.264	102.06
355.491	80.06
355.718	76.06
355.945	99.06
356.172	97.06
356.399	97.06
356.626	96.06
356.853	81.06
357.08	88.06
357.307	87.06
357.534	98.06
357.761	93.06
357.988	89.06
358.215	87.06
358.441	102.06
358.668	87.06
358.895	79.06
359.122	84.06
359.349	95.06
359.576	89.06
359.802	82.06
360.029	101.06
360.256	106.06
360.483	103.06
360.709	78.06
360.936	90.06
361.163	94.06
361.39	90.06
361.616	83.06
361.843	86.06
362.07	97.06
362.296	90.06
362.523	89.06
362.749	90.06
362.976	93.06
363.203	97.06
363.429	78.06
363.656	91.06
363.882	104.06
364.109	92.06
364.335	87.06
364.562	100.06
364.788	94.06
365.015	82.06
365.241	92.06
365.468	114.06
365.694	97.06
365.92	90.06
366.147	82.06
366.373	84.06
366.599	74.06
366.826	86.06
367.052	69.06
367.278	77.06
367.505	99.06
367.731	95.06
367.957	94.06
368.184	101.06
368.41	85.06
368.636	101.06
368.862	105.06
369.089	97.06
369.315	78.06
369.541	93.06
369.767	94.06
369.993	99.06
370.219	90.06
370.445	91.06
370.672	92.06
370.898	93.06
371.124	88.06
371.35	90.06
371.576	88.06
371.802	98.06
372.028	79.06
372.254	103.06
372.48	86.06
372.706	88.06
372.932	101.06
373.158	78.06
373.384	79.06
373.61	82.06
373.835	85.06
374.061	91.06
374.287	99.06
374.513	103.06
374.739	91.06
374.965	75.06
375.191	81.06
375.416	84.06
375.642	89.06
375.868	81.06
376.094	76.06
376.319	87.06
376.545	89.06
376.771	83.06
376.997	78.06
377.222	86.06
377.448	87.06
377.674	76.06
377.899	98.06
378.125	99.06
378.35	94.06
378.576	73.06
378.802	85.06
379.027	92.06
379.253	92.06
379.478	98.06
379.704	87.06
379.929	95.06
380.155	78.06
380.38	76.06
380.606	83.06
380.831	90.06
381.057	102.06
381.282	95.06
381.507	106.06
381.733	86.06
381.958	82.06
382.184	92.06
382.409	91.06
382.634	102.06
382.86	87.06
383.085	99.06
383.31	106.06
383.535	82.06
383.761	97.06
383.986	99.06
384.211	97.06
384.436	82.06
384.662	98.06
384.887	118.06
385.112	110.06
385.337	110.06
385.562	105.06
385.787	108.06
386.013	105.06
386.238	114.06
386.463	116.06
386.688	110.06
386.913	105.06
387.138	112.06
387.363	115.06
387.588	103.06
387.813	109.06
388.038	116.06
388.263	117.06
388.488	111.06
388.713	118.06
388.938	101.06
389.163	98.06
389.387	97.06
389.612	94.06
389.837	73.06
390.062	84.06
390.287	93.06
390.512	93.06
390.736	82.06
390.961	87.06
391.186	94.06
391.411	87.06
391.636	91.06
391.86	86.06
392.085	75.06
392.31	73.06
392.534	86.06
392.759	86.06
392.984	77.06
393.208	92.06
393.433	92.06
393.658	93.06
393.882	75.06
394.107	71.06
394.331	83.06
394.556	74.06
394.78	75.06
395.005	93.06
395.229	78.06
395.454	79.06
395.678	85.06
395.903	77.06
396.127	79.06
396.352	81.06
396.576	91.06
396.801	84.06
397.025	82.06
397.249	104.06
397.474	94.06
397.698	84.06
397.922	85.06
398.147	97.06
398.371	85.06
398.595	97.06
398.82	83.06
399.044	86.06
399.268	89.06
399.492	97.06
399.717	90.06
399.941	87.06
400.165	93.06
400.389	78.06
400.613	82.06
400.837	92.06
401.062	80.06
401.286	99.06
401.51	81.06
401.734	89.06
401.958	98.06
402.182	108.06
402.406	147.06
402.63	114.06
402.854	84.06
403.078	92.06
403.302	76.06
403.526	74.06
403.75	90.06
403.974	89.06
404.198	94.06
404.422	97.06
404.645	94.06
404.869	82.06
405.093	81.06
405.317	96.06
405.541	94.06
405.765	100.06
405.988	98.06
406.212	138.06
406.436	177.06
406.66	109.06
406.883	97.06
407.107	86.06
407.331	86.06
407.555	86.06
407.778	73.06
408.002	91.06
408.226	108.06
408.449	82.06
408.673	89.06
408.896	108.06
409.12	92.06
409.344	73.06
409.567	81.06
409.791	95.06
410.014	105.06
410.238	84.06
410.461	92.06
410.685	91.06
410.908	99.06
411.132	94.06
411.355	104.06
411.578	83.06
411.802	92.06
412.025	97.06
412.249	84.06
412.472	92.06
412.695	91.06
412.919	103.06
413.142	85.06
413.365	85.06
413.589	88.06
413.812	84.06
414.035	97.06
414.258	85.06
414.482	83.06
414.705	85.06
414.928	90.06
415.151	93.06
415.374	90.06
415.597	94.06
415.821	82.06
416.044	80.06
416.267	84.06
416.49	87.06
416.713	89.06
416.936	95.06
417.159	88.06
417.382	78.06
417.605	80.06
417.828	91.06
418.051	83.06
418.274	87.06
418.497	85.06
418.72	72.06
418.943	81.06
419.166	80.06
419.389	74.06
419.611	100.06
419.834	91.06
420.057	102.06
420.28	89.06
420.503	83.06
420.726	100.06
420.948	85.06
421.171	86.06
421.394	90.06
421.617	81.06
421.839	105.06
422.062	90.06
422.285	87.06
422.507	101.06
422.73	94.06
422.953	93.06
423.175	79.06
423.398	92.06
423.621	80.06
423.843	79.06
424.066	90.06
424.288	85.06
424.511	107.06
424.733	98.06
424.956	94.06
425.178	84.06
425.401	101.06
425.623	91.06
425.846	95.06
426.068	86.06
426.291	100.06
426.513	84.06
426.735	79.06
426.958	78.06
427.18	101.06
427.402	121.06
427.625	114.06
427.847	111.06
428.069	95.06
428.292	90.06
428.514	87.06
428.736	86.06
428.958	95.06
429.181	75.06
429.403	80.06
429.625	83.06
429.847	86.06
430.069	90.06
430.292	87.06
430.514	86.06
430.736	85.06
430.958	59.06
431.18	92.06
431.402	97.06
431.624	69.06
431.846	87.06
432.068	86.06
432.29	84.06
432.512	87.06
432.734	90.06
432.956	98.06
433.178	96.06
433.4	90.06
433.622	101.06
433.844	91.06
434.066	72.06
434.287	91.06
434.509	84.06
434.731	100.06
434.953	80.06
435.175	82.06
435.397	77.06
435.618	77.06
435.84	96.06
436.062	110.06
436.284	100.06
436.505	108.06
436.727	100.06
436.949	89.06
437.17	65.06
437.392	92.06
437.614	94.06
437.835	92.06
438.057	116.06
438.278	102.06
438.5	96.06
438.721	102.06
438.943	92.06
439.165	89.06
439.386	82.06
439.608	95.06
439.829	88.06
440.05	114.06
440.272	124.06
440.493	92.06
440.715	87.06
440.936	89.06
441.158	87.06
441.379	75.06
441.6	96.06
441.822	86.06
442.043	85.06
442.264	106.06
442.486	86.06
442.707	92.06
442.928	96.06
443.149	110.06
443.371	111.06
443.592	111.06
443.813	93.06
444.034	90.06
444.255	92.06
444.476	86.06
444.698	80.06
444.919	77.06
445.14	128.06
445.361	113.06
445.582	105.06
445.803	109.06
446.024	125.06
446.245	123.06
446.466	112.06
446.687	75.06
446.908	99.06
447.129	85.06
447.35	85.06
447.571	100.06
447.792	87.06
448.013	94.06
448.234	97.06
448.455	103.06
448.675	117.06
448.896	117.06
449.117	96.06
449.338	91.06
449.559	128.06
449.779	113.06
450	74.06
450.221	82.06
450.442	83.06
450.662	92.06
450.883	91.06
451.104	101.06
451.324	93.06
451.545	78.06
451.766	88.06
451.986	94.06
452.207	79.06
452.428	98.06
452.648	98.06
452.869	97.06
453.089	85.06
453.31	105.06
453.53	88.06
453.751	84.06
453.971	90.06
454.192	101.06
454.412	89.06
454.633	75.06
454.853	91.06
455.073	83.06
455.294	98.06
455.514	97.06
455.734	92.06
455.955	89.06
456.175	89.06
456.395	78.06
456.616	72.06
456.836	90.06
457.056	77.06
457.276	86.06
457.497	81.06
457.717	83.06
457.937	82.06
458.157	78.06
458.377	79.06
458.598	93.06
458.818	134.06
459.038	150.06
459.258	107.06
459.478	91.06
459.698	81.06
459.918	81.06
460.138	87.06
460.358	82.06
460.578	81.06
460.798	81.06
461.018	84.06
461.238	85.06
461.458	87.06
461.678	82.06
461.898	82.06
462.118	79.06
462.338	77.06
462.558	82.06
462.777	79.06
462.997	82.06
463.217	74.06
463.437	82.06
463.657	82.06
463.876	78.06
464.096	78.06
464.316	92.06
464.536	93.06
464.755	89.06
464.975	109.06
465.195	151.06
465.414	136.06
465.634	101.06
465.854	86.06
466.073	86.06
466.293	77.06
466.512	79.06
466.732	84.06
466.951	77.06
467.171	93.06
467.391	93.06
467.61	106.06
467.829	98.06
468.049	92.06
468.268	94.06
468.488	88.06
468.707	81.06
468.927	78.06
469.146	87.06
469.365	76.06
469.585	86.06
469.804	95.06
470.023	87.06
470.243	77.06
470.462	97.06
470.681	103.06
470.901	80.06
471.12	84.06
471.339	82.06
471.558	75.06
471.777	91.06
471.997	81.06
472.216	86.06
472.435	87.06
472.654	82.06
472.873	78.06
473.092	86.06
473.311	84.06
473.53	93.06
473.749	86.06
473.968	91.06
474.187	94.06
474.406	95.06
474.625	90.06
474.844	79.06
475.063	86.06
475.282	90.06
475.501	95.06
475.72	90.06
475.939	82.06
476.158	91.06
476.377	87.06
476.596	90.06
476.814	82.06
477.033	90.06
477.252	78.06
477.471	79.06
477.69	86.06
477.908	95.06
478.127	76.06
478.346	77.06
478.564	87.06
478.783	89.06
479.002	81.06
479.22	96.06
479.439	84.06
479.658	86.06
479.876	92.06
480.095	86.06
480.313	93.06
480.532	88.06
480.751	87.06
480.969	85.06
481.188	122.06
481.406	90.06
481.624	71.06
481.843	80.06
482.061	82.06
482.28	63.06
482.498	71.06
482.717	77.06
482.935	101.06
483.153	103.06
483.372	92.06
483.59	84.06
483.808	91.06
484.027	86.06
484.245	84.06
484.463	105.06
484.681	82.06
484.9	92.06
485.118	90.06
485.336	91.06
485.554	92.06
485.772	80.06
485.99	102.06
486.209	95.06
486.427	96.06
486.645	111.06
486.863	106.06
487.081	100.06
487.299	90.06
487.517	87.06
487.735	103.06
487.953	75.06
488.171	86.06
488.389	82.06
488.607	101.06
488.825	81.06
489.043	79.06
489.261	85.06
489.479	75.06
489.696	99.06
489.914	92.06
490.132	82.06
490.35	85.06
490.568	94.06
490.786	104.06
491.003	95.06
491.221	82.06
491.439	81.06
491.657	83.06
491.874	87.06
492.092	85.06
492.31	79.06
492.527	90.06
492.745	95.06
492.963	84.06
493.18	86.06
493.398	85.06
493.615	94.06
493.833	90.06
494.05	92.06
494.268	89.06
494.485	82.06
494.703	86.06
494.92	93.06
495.138	85.06
495.355	89.06
495.573	98.06
495.79	96.06
496.008	88.06
496.225	100.06
496.442	100.06
496.66	97.06
496.877	90.06
497.094	82.06
497.312	91.06
497.529	93.06
497.746	92.06
497.963	86.06
498.181	100.06
498.398	97.06
498.615	104.06
498.832	113.06
499.049	95.06
499.267	91.06
499.484	82.06
499.701	89.06
499.918	100.06
500.135	80.06
500.352	81.06
500.569	82.06
500.786	72.06
501.003	85.06
501.22	99.06
501.437	85.06
501.654	74.06
501.871	108.06
502.088	82.06
502.305	93.06
502.522	91.06
502.739	77.06
502.956	100.06
503.172	90.06
503.389	105.06
503.606	101.06
503.823	91.06
504.04	79.06
504.256	90.06
504.473	85.06
504.69	89.06
504.907	90.06
505.123	94.06
505.34	87.06
505.557	97.06
505.773	95.06
505.99	89.06
506.207	92.06
506.423	92.06
506.64	82.06
506.856	82.06
507.073	92.06
507.289	91.06
507.506	93.06
507.722	93.06
507.939	101.06
508.155	93.06
508.372	96.06
508.588	88.06
508.805	105.06
509.021	91.06
509.238	92.06
509.454	100.06
509.67	101.06
509.887	107.06
510.103	123.06
510.319	181.06
510.536	601.06
510.752	1945.06
510.968	567.06
511.184	139.06
511.401	101.06
511.617	97.06
511.833	83.06
512.049	97.06
512.265	85.06
512.481	82.06
512.698	78.06
512.914	96.06
513.13	89.06
513.346	96.06
513.562	101.06
513.778	96.06
513.994	89.06
514.21	97.06
514.426	103.06
514.642	115.06
514.858	108.06
515.074	134.06
515.29	351.06
515.506	1132.06
515.721	445.06
515.937	141.06
516.153	118.06
516.369	80.06
516.585	87.06
516.801	89.06
517.016	99.06
517.232	103.06
517.448	91.06
517.664	79.06
517.879	93.06
518.095	90.06
518.311	80.06
518.527	86.06
518.742	88.06
518.958	103.06
519.173	102.06
519.389	85.06
519.605	86.06
519.82	91.06
520.036	94.06
520.251	135.06
520.467	96.06
520.682	101.06
520.898	110.06
521.113	96.06
521.329	124.06
521.544	170.06
521.76	424.06
521.975	1809.06
522.19	1121.06
522.406	255.06
522.621	122.06
522.836	94.06
523.052	94.06
523.267	93.06
523.482	78.06
523.698	98.06
523.913	91.06
524.128	106.06
524.343	86.06
524.559	83.06
524.774	79.06
524.989	81.06
525.204	102.06
525.419	89.06
525.634	87.06
525.849	83.06
526.064	78.06
526.28	94.06
526.495	92.06
526.71	85.06
526.925	76.06
527.14	75.06
527.355	96.06
527.57	83.06
527.785	81.06
527.999	87.06
528.214	83.06
528.429	84.06
528.644	102.06
528.859	84.06
529.074	87.06
529.289	110.06
529.503	145.06
529.718	92.06
529.933	97.06
530.148	86.06
530.363	97.06
530.577	103.06
530.792	79.06
531.007	86.06
531.221	83.06
531.436	97.06
531.651	91.06
531.865	84.06
532.08	86.06
532.295	92.06
532.509	88.06
532.724	82.06
532.938	101.06
533.153	92.06
533.367	93.06
533.582	93.06
533.796	101.06
534.011	93.06
534.225	99.06
534.44	94.06
534.654	87.06
534.868	82.06
535.083	78.06
535.297	87.06
535.511	95.06
535.726	94.06
535.94	107.06
536.154	94.06
536.369	108.06
536.583	82.06
536.797	103.06
537.011	102.06
537.225	95.06
537.44	97.06
537.654	90.06
537.868	88.06
538.082	86.06
538.296	109.06
538.51	90.06
538.724	86.06
538.938	79.06
539.153	95.06
539.367	106.06
539.581	84.06
539.795	90.06
540.009	85.06
540.222	103.06
540.436	75.06
540.65	81.06
540.864	85.06
541.078	79.06
541.292	103.06
541.506	79.06
541.72	93.06
541.934	90.06
542.147	77.06
542.361	99.06
542.575	97.06
542.789	89.06
543.002	98.06
543.216	94.06
543.43	92.06
543.644	84.06
543.857	91.06
544.071	79.06
544.285	91.06
544.498	72.06
544.712	86.06
544.925	103.06
545.139	87.06
545.352	88.06
545.566	83.06
545.779	81.06
545.993	79.06
546.206	70.06
546.42	94.06
546.633	86.06
546.847	90.06
547.06	69.06
547.274	99.06
547.487	93.06
547.7	68.06
547.914	78.06
548.127	78.06
548.34	84.06
548.554	90.06
548.767	86.06
548.98	76.06
549.193	83.06
549.407	103.06
549.62	95.06
549.833	81.06
550.046	80.06
550.259	85.06
550.473	93.06
550.686	93.06
550.899	91.06
551.112	85.06
551.325	82.06
551.538	84.06
551.751	80.06
551.964	77.06
552.177	87.06
552.39	71.06
552.603	87.06
552.816	93.06
553.029	96.06
553.242	91.06
553.455	105.06
553.667	98.06
553.88	93.06
554.093	90.06
554.306	93.06
554.519	95.06
554.732	82.06
554.944	77.06
555.157	77.06
555.37	88.06
555.583	97.06
555.795	92.06
556.008	94.06
556.221	92.06
556.433	78.06
556.646	97.06
556.859	91.06
557.071	81.06
557.284	114.06
557.496	81.06
557.709	85.06
557.921	86.06
558.134	96.06
558.346	84.06
558.559	90.06
558.771	92.06
558.984	94.06
559.196	86.06
559.409	83.06
559.621	89.06
559.833	105.06
560.046	87.06
560.258	81.06
560.47	81.06
560.683	79.06
560.895	85.06
561.107	79.06
561.32	82.06
561.532	95.06
561.744	95.06
561.956	77.06
562.168	89.06
562.381	93.06
562.593	91.06
562.805	94.06
563.017	100.06
563.229	101.06
563.441	91.06
563.653	89.06
563.865	82.06
564.077	96.06
564.289	93.06
564.501	93.06
564.713	94.06
564.925	94.06
565.137	100.06
565.349	92.06
565.561	88.06
565.773	87.06
565.985	82.06
566.197	86.06
566.408	95.06
566.62	75.06
566.832	81.06
567.044	90.06
567.255	100.06
567.467	87.06
567.679	85.06
567.891	83.06
568.102	85.06
568.314	98.06
568.526	89.06
568.737	90.06
568.949	84.06
569.161	73.06
569.372	66.06
569.584	83.06
569.795	84.06
570.007	104.06
570.218	209.06
570.43	123.06
570.641	87.06
570.853	91.06
571.064	67.06
571.276	86.06
571.487	84.06
571.698	86.06
571.91	104.06
572.121	101.06
572.333	90.06
572.544	97.06
572.755	91.06
572.966	78.06
573.178	86.06
573.389	100.06
573.6	85.06
573.811	89.06
574.023	74.06
574.234	81.06
574.445	106.06
574.656	82.06
574.867	90.06
575.078	101.06
575.289	98.06
575.501	97.06
575.712	82.06
575.923	100.06
576.134	98.06
576.345	93.06
576.556	96.06
576.767	82.06
576.978	84.06
577.188	86.06
577.399	90.06
577.61	92.06
577.821	110.06
578.032	110.06
578.243	241.06
578.454	676.06
578.665	198.06
578.875	100.06
579.086	90.06
579.297	108.06
579.508	94.06
579.718	82.06
579.929	91.06
580.14	96.06
580.35	79.06
580.561	95.06
580.772	83.06
580.982	77.06
581.193	82.06
581.403	92.06
581.614	87.06
581.825	88.06
582.035	93.06
582.246	85.06
582.456	92.06
582.667	80.06
582.877	85.06
583.087	87.06
583.298	76.06
583.508	59.06
583.719	79.06
583.929	85.06
584.139	78.06
584.35	76.06
584.56	76.06
584.77	99.06
584.981	82.06
585.191	95.06
585.401	75.06
585.611	89.06
585.821	98.06
586.032	97.06
586.242	83.06
586.452	81.06
586.662	78.06
586.872	79.06
587.082	92.06
587.292	67.06
587.502	84.06
587.713	73.06
587.923	84.06
588.133	85.06
588.343	80.06
588.553	76.06
588.762	90.06
588.972	87.06
589.182	94.06
589.392	87.06
589.602	97.06
589.812	85.06
590.022	85.06
590.232	77.06
590.441	82.06
590.651	85.06
590.861	99.06
591.071	71.06
591.281	96.06
591.49	84.06
591.7	92.06
591.91	76.06
592.119	112.06
592.329	76.06
592.539	104.06
592.748	101.06
592.958	77.06
593.167	71.06
593.377	81.06
593.587	93.06
593.796	80.06
594.006	79.06
594.215	81.06
594.424	80.06
594.634	106.06
594.843	87.06
595.053	85.06
595.262	95.06
595.472	91.06
595.681	86.06
595.89	89.06
596.1	92.06
596.309	95.06
596.518	85.06
596.727	91.06
596.937	74.06
597.146	90.06
597.355	88.06
597.564	90.06
597.774	92.06
597.983	92.06
598.192	92.06
598.401	100.06
598.61	86.06
598.819	90.06
599.028	82.06
599.237	90.06
599.446	68.06
599.655	90.06
599.864	97.06
600.073	70.06
600.282	93.06
600.491	96.06
600.7	83.06
600.909	81.06
601.118	86.06
601.327	81.06
601.536	93.06
601.745	78.06
601.953	83.06
602.162	86.06
602.371	92.06
602.58	84.06
602.789	87.06
602.997	91.06
603.206	73.06
603.415	100.06
603.623	97.06
603.832	95.06
604.041	89.06
604.249	89.06
604.458	84.06
604.666	88.06
604.875	77.06
605.084	85.06
605.292	88.06
605.501	89.06
605.709	97.06
605.918	88.06
606.126	91.06
606.334	88.06
606.543	95.06
606.751	89.06
606.96	87.06
607.168	86.06
607.376	97.06
607.585	98.06
607.793	74.06
608.001	96.06
608.21	88.06
608.418	80.06
608.626	89.06
608.834	88.06
609.043	91.06
609.251	70.06
609.459	70.06
609.667	93.06
609.875	83.06
610.083	78.06
610.291	78.06
610.499	71.06
610.707	83.06
610.916	96.06
611.124	82.06
611.332	85.06
611.54	101.06
611.748	79.06
611.955	77.06
612.163	84.06
612.371	87.06
612.579	94.06
612.787	85.06
612.995	86.06
613.203	95.06
613.411	94.06
613.618	90.06
613.826	84.06
614.034	85.06
614.242	83.06
614.449	98.06
614.657	94.06
614.865	83.06
615.072	97.06
615.28	87.06
615.488	84.06
615.695	104.06
615.903	97.06
616.111	100.06
616.318	108.06
616.526	98.06
616.733	106.06
616.941	84.06
617.148	77.06
617.356	92.06
617.563	80.06
617.771	87.06
617.978	91.06
618.185	84.06
618.393	91.06
618.6	93.06
618.807	91.06
619.015	92.06
619.222	82.06
619.429	87.06
619.637	105.06
619.844	79.06
620.051	93.06
620.258	96.06
620.466	80.06
620.673	84.06
620.88	82.06
621.087	91.06
621.294	96.06
621.501	86.06
621.708	89.06
621.915	78.06
622.122	86.06
622.329	84.06
622.536	92.06
622.743	86.06
622.95	90.06
623.157	84.06
623.364	82.06
623.571	86.06
623.778	84.06
623.985	80.06
624.192	80.06
624.399	94.06
624.606	81.06
624.812	91.06
625.019	82.06
625.226	91.06
625.433	86.06
625.639	76.06
625.846	73.06
626.053	78.06
626.259	81.06
626.466	79.06
626.673	76.06
626.879	74.06
627.086	96.06
627.293	77.06
627.499	82.06
627.706	91.06
627.912	86.06
628.119	91.06
628.325	75.06
628.532	82.06
628.738	86.06
628.945	86.06
629.151	94.06
629.357	88.06
629.564	79.06
629.77	81.06
629.976	77.06
630.183	86.06
630.389	76.06
630.595	78.06
630.802	85.06
631.008	106.06
631.214	94.06
631.42	86.06
631.627	82.06
631.833	94.06
632.039	86.06
632.245	84.06
632.451	78.06
632.657	77.06
632.863	80.06
633.069	82.06
633.275	82.06
633.481	91.06
633.688	87.06
633.893	72.06
634.099	90.06
634.305	78.06
634.511	89.06
634.717	99.06
634.923	94.06
635.129	78.06
635.335	93.06
635.541	78.06
635.747	83.06
635.952	98.06
636.158	93.06
636.364	80.06
636.57	80.06
636.775	81.06
636.981	76.06
637.187	84.06
637.392	78.06
637.598	83.06
637.804	85.06
638.009	78.06
638.215	73.06
638.421	86.06
638.626	85.06
638.832	87.06
639.037	92.06
639.243	80.06
639.448	87.06
639.654	95.06
639.859	80.06
640.065	91.06
640.27	93.06
640.475	94.06
640.681	95.06
640.886	81.06
641.091	73.06
641.297	76.06
641.502	84.06
641.707	65.06
641.913	79.06
642.118	65.06
642.323	91.06
642.528	90.06
642.733	106.06
642.939	94.06
643.144	85.06
643.349	81.06
643.554	84.06
643.759	77.06
643.964	86.06
644.169	86.06
644.374	76.06
644.579	93.06
644.784	97.06
644.989	75.06
645.194	78.06
645.399	85.06
645.604	81.06
645.809	99.06
646.014	70.06
646.219	80.06
646.423	83.06
646.628	90.06
646.833	87.06
647.038	74.06
647.243	77.06
647.447	85.06
647.652	88.06
647.857	87.06
648.062	86.06
648.266	93.06
648.471	92.06
648.676	100.06
648.88	81.06
649.085	99.06
649.289	89.06
649.494	99.06
649.698	131.06
649.903	94.06
650.107	87.06
650.312	87.06
650.516	75.06
650.721	69.06
650.925	76.06
651.13	82.06
651.334	79.06
651.539	84.06
651.743	105.06
651.947	78.06
652.152	79.06
652.356	92.06
652.56	82.06
652.764	89.06
652.969	78.06
653.173	69.06
653.377	89.06
653.581	81.06
653.785	85.06
653.99	78.06
654.194	83.06
654.398	86.06
654.602	72.06
654.806	87.06
655.01	94.06
655.214	99.06
655.418	106.06
655.622	82.06
655.826	80.06
656.03	80.06
656.234	79.06
656.438	84.06
656.642	86.06
656.846	101.06
657.049	76.06
657.253	96.06
657.457	86.06
657.661	83.06
657.865	99.06
658.068	89.06
658.272	74.06
658.476	69.06
658.68	83.06
658.883	93.06
659.087	68.06
659.291	75.06
659.494	77.06
659.698	85.06
659.901	89.06
660.105	87.06
660.309	94.06
660.512	102.06
660.716	65.06
660.919	63.06
661.123	83.06
661.326	78.06
661.53	87.06
661.733	78.06
661.936	79.06
662.14	80.06
662.343	73.06
662.546	83.06
662.75	73.06
662.953	83.06
663.156	81.06
663.36	84.06
663.563	90.06
663.766	85.06
663.969	76.06
664.173	69.06
664.376	80.06
664.579	75.06
664.782	93.06
664.985	79.06
665.188	87.06
665.391	65.06
665.594	65.06
665.797	66.06
666	91.06
666.203	83.06
666.406	78.06
666.609	78.06
666.812	93.06
667.015	75.06
667.218	87.06
667.421	91.06
667.624	91.06
667.827	74.06
668.03	81.06
668.232	84.06
668.435	86.06
668.638	77.06
668.841	76.06
669.043	87.06
669.246	83.06
669.449	73.06
669.651	79.06
669.854	75.06
670.057	71.06
670.259	86.06
670.462	88.06
670.665	79.06
670.867	88.06
671.07	70.06
671.272	85.06
671.475	83.06
671.677	62.06
671.88	78.06
672.082	82.06
672.284	82.06
672.487	64.06
672.689	82.06
672.892	71.06
