Data from Uncirc_2005_H10_HRD10591_00094.txt Node
Date: Wed Jan 03 10:28:43 EST 2024
User: Yrep
Spectrometer: HR+D1059
Trigger mode: 1
Integration Time (sec): 1.000000E-1
Scans to average: 1
Electric dark correction enabled: true
Nonlinearity correction enabled: false
Boxcar width: 0
XAxis mode: Wavelengths
Number of Pixels in Spectrum: 2048
>>>>>Begin Spectral Data<<<<<
223.165	-11.81
223.4	-11.81
223.635	-11.81
223.869	-28.81
224.104	-20.81
224.338	-18.81
224.573	-18.81
224.808	-26.81
225.042	-10.81
225.277	-6.81
225.511	-3.81
225.746	14.19
225.98	5.19
226.215	9.19
226.449	20.19
226.683	22.19
226.918	40.19
227.152	36.19
227.387	32.19
227.621	44.19
227.856	44.19
228.09	50.19
228.324	36.19
228.559	47.19
228.793	60.19
229.027	72.19
229.262	59.19
229.496	73.19
229.73	90.19
229.964	70.19
230.199	82.19
230.433	76.19
230.667	75.19
230.901	70.19
231.136	82.19
231.37	88.19
231.604	74.19
231.838	78.19
232.072	90.19
232.306	83.19
232.541	75.19
232.775	84.19
233.009	71.19
233.243	67.19
233.477	68.19
233.711	87.19
233.945	74.19
234.179	75.19
234.413	78.19
234.647	73.19
234.881	83.19
235.115	76.19
235.349	76.19
235.583	74.19
235.817	75.19
236.051	72.19
236.285	76.19
236.519	74.19
236.753	63.19
236.987	77.19
237.221	64.19
237.455	92.19
237.689	70.19
237.922	62.19
238.156	80.19
238.39	64.19
238.624	60.19
238.858	82.19
239.091	75.19
239.325	60.19
239.559	78.19
239.793	70.19
240.027	81.19
240.26	61.19
240.494	67.19
240.728	70.19
240.961	66.19
241.195	66.19
241.429	73.19
241.662	72.19
241.896	70.19
242.13	75.19
242.363	72.19
242.597	81.19
242.83	69.19
243.064	77.19
243.298	67.19
243.531	76.19
243.765	74.19
243.998	100.19
244.232	82.19
244.465	80.19
244.699	95.19
244.932	69.19
245.166	87.19
245.399	91.19
245.633	78.19
245.866	85.19
246.099	86.19
246.333	72.19
246.566	84.19
246.8	80.19
247.033	78.19
247.266	79.19
247.5	82.19
247.733	77.19
247.966	84.19
248.2	94.19
248.433	73.19
248.666	53.19
248.899	79.19
249.133	92.19
249.366	81.19
249.599	83.19
249.832	96.19
250.066	88.19
250.299	67.19
250.532	68.19
250.765	66.19
250.998	82.19
251.231	83.19
251.465	73.19
251.698	68.19
251.931	75.19
252.164	70.19
252.397	87.19
252.63	62.19
252.863	83.19
253.096	77.19
253.329	77.19
253.562	76.19
253.795	88.19
254.028	71.19
254.261	81.19
254.494	68.19
254.727	92.19
254.96	82.19
255.193	78.19
255.426	80.19
255.659	78.19
255.892	72.19
256.124	77.19
256.357	85.19
256.59	75.19
256.823	75.19
257.056	74.19
257.289	89.19
257.521	77.19
257.754	82.19
257.987	90.19
258.22	95.19
258.452	84.19
258.685	70.19
258.918	80.19
259.151	75.19
259.383	73.19
259.616	92.19
259.849	81.19
260.081	83.19
260.314	81.19
260.547	107.19
260.779	80.19
261.012	75.19
261.244	80.19
261.477	84.19
261.71	78.19
261.942	108.19
262.175	101.19
262.407	71.19
262.64	97.19
262.872	85.19
263.105	83.19
263.337	71.19
263.57	79.19
263.802	66.19
264.035	85.19
264.267	92.19
264.499	75.19
264.732	84.19
264.964	76.19
265.197	83.19
265.429	84.19
265.661	83.19
265.894	87.19
266.126	78.19
266.358	72.19
266.591	79.19
266.823	79.19
267.055	92.19
267.287	70.19
267.52	77.19
267.752	91.19
267.984	83.19
268.216	93.19
268.448	77.19
268.681	80.19
268.913	78.19
269.145	85.19
269.377	81.19
269.609	78.19
269.841	70.19
270.073	69.19
270.306	62.19
270.538	78.19
270.77	77.19
271.002	76.19
271.234	83.19
271.466	82.19
271.698	70.19
271.93	80.19
272.162	90.19
272.394	93.19
272.626	72.19
272.858	75.19
273.09	77.19
273.322	88.19
273.553	69.19
273.785	80.19
274.017	84.19
274.249	75.19
274.481	75.19
274.713	84.19
274.945	82.19
275.176	95.19
275.408	91.19
275.64	78.19
275.872	86.19
276.104	82.19
276.335	85.19
276.567	96.19
276.799	102.19
277.031	92.19
277.262	85.19
277.494	82.19
277.726	81.19
277.957	96.19
278.189	77.19
278.421	72.19
278.652	62.19
278.884	88.19
279.115	73.19
279.347	78.19
279.579	83.19
279.81	85.19
280.042	71.19
280.273	68.19
280.505	97.19
280.736	78.19
280.968	88.19
281.199	82.19
281.431	77.19
281.662	100.19
281.894	87.19
282.125	100.19
282.356	104.19
282.588	113.19
282.819	100.19
283.051	82.19
283.282	65.19
283.513	79.19
283.745	96.19
283.976	85.19
284.207	75.19
284.439	87.19
284.67	90.19
284.901	86.19
285.132	85.19
285.364	92.19
285.595	88.19
285.826	78.19
286.057	74.19
286.288	81.19
286.52	72.19
286.751	74.19
286.982	98.19
287.213	83.19
287.444	75.19
287.675	84.19
287.906	89.19
288.138	93.19
288.369	78.19
288.6	91.19
288.831	96.19
289.062	105.19
289.293	85.19
289.524	92.19
289.755	86.19
289.986	69.19
290.217	77.19
290.448	80.19
290.679	77.19
290.91	89.19
291.141	87.19
291.371	90.19
291.602	96.19
291.833	72.19
292.064	86.19
292.295	77.19
292.526	89.19
292.757	76.19
292.987	83.19
293.218	97.19
293.449	73.19
293.68	82.19
293.91	84.19
294.141	81.19
294.372	81.19
294.603	89.19
294.833	85.19
295.064	99.19
295.295	86.19
295.525	89.19
295.756	100.19
295.987	101.19
296.217	131.19
296.448	116.19
296.679	91.19
296.909	74.19
297.14	81.19
297.37	81.19
297.601	94.19
297.831	91.19
298.062	96.19
298.292	92.19
298.523	87.19
298.753	91.19
298.984	85.19
299.214	85.19
299.445	77.19
299.675	92.19
299.905	81.19
300.136	83.19
300.366	80.19
300.597	85.19
300.827	90.19
301.057	99.19
301.288	100.19
301.518	85.19
301.748	88.19
301.979	91.19
302.209	79.19
302.439	79.19
302.669	70.19
302.9	83.19
303.13	105.19
303.36	88.19
303.59	107.19
303.82	96.19
304.051	84.19
304.281	83.19
304.511	95.19
304.741	93.19
304.971	74.19
305.201	86.19
305.431	80.19
305.661	80.19
305.891	102.19
306.121	95.19
306.352	95.19
306.582	80.19
306.812	72.19
307.042	86.19
307.272	96.19
307.502	90.19
307.731	92.19
307.961	94.19
308.191	89.19
308.421	87.19
308.651	90.19
308.881	92.19
309.111	92.19
309.341	95.19
309.571	93.19
309.8	90.19
310.03	73.19
310.26	99.19
310.49	80.19
310.72	85.19
310.949	93.19
311.179	68.19
311.409	87.19
311.639	90.19
311.868	76.19
312.098	92.19
312.328	90.19
312.557	86.19
312.787	101.19
313.017	106.19
313.246	101.19
313.476	89.19
313.706	77.19
313.935	85.19
314.165	90.19
314.394	80.19
314.624	95.19
314.853	93.19
315.083	103.19
315.312	94.19
315.542	88.19
315.771	101.19
316.001	90.19
316.23	90.19
316.46	96.19
316.689	84.19
316.919	93.19
317.148	90.19
317.377	86.19
317.607	94.19
317.836	94.19
318.065	78.19
318.295	86.19
318.524	84.19
318.753	82.19
318.983	96.19
319.212	80.19
319.441	98.19
319.67	95.19
319.9	81.19
320.129	93.19
320.358	85.19
320.587	84.19
320.816	78.19
321.046	101.19
321.275	92.19
321.504	89.19
321.733	100.19
321.962	110.19
322.191	85.19
322.42	104.19
322.649	124.19
322.878	106.19
323.108	107.19
323.337	115.19
323.566	142.19
323.795	147.19
324.024	218.19
324.253	394.19
324.482	822.19
324.71	1689.19
324.939	2224.19
325.168	798.19
325.397	231.19
325.626	138.19
325.855	124.19
326.084	133.19
326.313	143.19
326.542	157.19
326.77	234.19
326.999	467.19
327.228	939.19
327.457	1710.19
327.686	1341.19
327.914	356.19
328.143	175.19
328.372	142.19
328.6	102.19
328.829	120.19
329.058	120.19
329.287	116.19
329.515	113.19
329.744	104.19
329.972	107.19
330.201	93.19
330.43	102.19
330.658	100.19
330.887	126.19
331.115	112.19
331.344	85.19
331.572	107.19
331.801	100.19
332.03	102.19
332.258	85.19
332.486	82.19
332.715	91.19
332.943	101.19
333.172	91.19
333.4	85.19
333.629	107.19
333.857	101.19
334.085	108.19
334.314	88.19
334.542	88.19
334.771	96.19
334.999	90.19
335.227	86.19
335.455	86.19
335.684	101.19
335.912	85.19
336.14	115.19
336.369	79.19
336.597	97.19
336.825	104.19
337.053	91.19
337.281	99.19
337.51	97.19
337.738	87.19
337.966	84.19
338.194	98.19
338.422	97.19
338.65	93.19
338.878	94.19
339.106	99.19
339.334	88.19
339.562	81.19
339.79	99.19
340.018	94.19
340.246	96.19
340.474	76.19
340.702	96.19
340.93	88.19
341.158	78.19
341.386	80.19
341.614	83.19
341.842	80.19
342.07	76.19
342.298	85.19
342.526	85.19
342.754	77.19
342.981	73.19
343.209	86.19
343.437	94.19
343.665	88.19
343.893	94.19
344.12	83.19
344.348	79.19
344.576	92.19
344.804	105.19
345.031	84.19
345.259	109.19
345.487	92.19
345.714	104.19
345.942	104.19
346.17	93.19
346.397	96.19
346.625	104.19
346.853	80.19
347.08	97.19
347.308	74.19
347.535	83.19
347.763	95.19
347.99	101.19
348.218	93.19
348.445	98.19
348.673	84.19
348.9	84.19
349.128	106.19
349.355	87.19
349.583	84.19
349.81	88.19
350.037	100.19
350.265	70.19
350.492	84.19
350.72	92.19
350.947	103.19
351.174	115.19
351.402	104.19
351.629	101.19
351.856	96.19
352.083	100.19
352.311	100.19
352.538	108.19
352.765	95.19
352.992	102.19
353.22	107.19
353.447	95.19
353.674	99.19
353.901	90.19
354.128	91.19
354.355	81.19
354.583	95.19
354.81	100.19
355.037	92.19
355.264	93.19
355.491	99.19
355.718	86.19
355.945	79.19
356.172	90.19
356.399	78.19
356.626	96.19
356.853	80.19
357.08	89.19
357.307	85.19
357.534	65.19
357.761	91.19
357.988	77.19
358.215	81.19
358.441	85.19
358.668	93.19
358.895	92.19
359.122	98.19
359.349	85.19
359.576	100.19
359.802	96.19
360.029	117.19
360.256	106.19
360.483	98.19
360.709	78.19
360.936	89.19
361.163	99.19
361.39	110.19
361.616	85.19
361.843	95.19
362.07	87.19
362.296	86.19
362.523	81.19
362.749	88.19
362.976	80.19
363.203	93.19
363.429	87.19
363.656	82.19
363.882	91.19
364.109	79.19
364.335	85.19
364.562	94.19
364.788	87.19
365.015	83.19
365.241	86.19
365.468	109.19
365.694	98.19
365.92	100.19
366.147	86.19
366.373	79.19
366.599	92.19
366.826	86.19
367.052	85.19
367.278	80.19
367.505	90.19
367.731	91.19
367.957	91.19
368.184	99.19
368.41	101.19
368.636	100.19
368.862	113.19
369.089	91.19
369.315	98.19
369.541	104.19
369.767	84.19
369.993	85.19
370.219	87.19
370.445	94.19
370.672	85.19
370.898	86.19
371.124	81.19
371.35	86.19
371.576	81.19
371.802	82.19
372.028	87.19
372.254	100.19
372.48	74.19
372.706	82.19
372.932	102.19
373.158	91.19
373.384	84.19
373.61	94.19
373.835	93.19
374.061	70.19
374.287	83.19
374.513	100.19
374.739	96.19
374.965	69.19
375.191	80.19
375.416	97.19
375.642	86.19
375.868	92.19
376.094	78.19
376.319	70.19
376.545	84.19
376.771	79.19
376.997	93.19
377.222	85.19
377.448	79.19
377.674	68.19
377.899	80.19
378.125	99.19
378.35	94.19
378.576	75.19
378.802	86.19
379.027	91.19
379.253	88.19
379.478	91.19
379.704	91.19
379.929	83.19
380.155	96.19
380.38	88.19
380.606	96.19
380.831	92.19
381.057	93.19
381.282	97.19
381.507	93.19
381.733	84.19
381.958	94.19
382.184	104.19
382.409	107.19
382.634	107.19
382.86	99.19
383.085	100.19
383.31	96.19
383.535	92.19
383.761	79.19
383.986	84.19
384.211	97.19
384.436	94.19
384.662	97.19
384.887	93.19
385.112	102.19
385.337	106.19
385.562	109.19
385.787	96.19
386.013	100.19
386.238	99.19
386.463	94.19
386.688	115.19
386.913	106.19
387.138	113.19
387.363	99.19
387.588	100.19
387.813	101.19
388.038	95.19
388.263	102.19
388.488	100.19
388.713	97.19
388.938	85.19
389.163	80.19
389.387	92.19
389.612	88.19
389.837	105.19
390.062	101.19
390.287	96.19
390.512	87.19
390.736	92.19
390.961	103.19
391.186	95.19
391.411	88.19
391.636	89.19
391.86	78.19
392.085	81.19
392.31	88.19
392.534	83.19
392.759	76.19
392.984	92.19
393.208	68.19
393.433	85.19
393.658	83.19
393.882	86.19
394.107	81.19
394.331	75.19
394.556	77.19
394.78	89.19
395.005	80.19
395.229	83.19
395.454	99.19
395.678	78.19
395.903	76.19
396.127	84.19
396.352	80.19
396.576	89.19
396.801	90.19
397.025	92.19
397.249	85.19
397.474	89.19
397.698	90.19
397.922	96.19
398.147	93.19
398.371	81.19
398.595	78.19
398.82	85.19
399.044	87.19
399.268	88.19
399.492	80.19
399.717	85.19
399.941	98.19
400.165	92.19
400.389	101.19
400.613	83.19
400.837	77.19
401.062	83.19
401.286	85.19
401.51	76.19
401.734	103.19
401.958	94.19
402.182	114.19
402.406	140.19
402.63	106.19
402.854	89.19
403.078	99.19
403.302	82.19
403.526	99.19
403.75	90.19
403.974	84.19
404.198	92.19
404.422	82.19
404.645	82.19
404.869	79.19
405.093	90.19
405.317	95.19
405.541	93.19
405.765	105.19
405.988	110.19
406.212	169.19
406.436	201.19
406.66	138.19
406.883	102.19
407.107	86.19
407.331	84.19
407.555	89.19
407.778	99.19
408.002	85.19
408.226	86.19
408.449	84.19
408.673	99.19
408.896	94.19
409.12	84.19
409.344	103.19
409.567	100.19
409.791	88.19
410.014	103.19
410.238	97.19
410.461	84.19
410.685	92.19
410.908	111.19
411.132	113.19
411.355	89.19
411.578	86.19
411.802	82.19
412.025	83.19
412.249	98.19
412.472	92.19
412.695	89.19
412.919	97.19
413.142	94.19
413.365	91.19
413.589	79.19
413.812	86.19
414.035	79.19
414.258	75.19
414.482	81.19
414.705	99.19
414.928	83.19
415.151	84.19
415.374	89.19
415.597	82.19
415.821	85.19
416.044	97.19
416.267	85.19
416.49	65.19
416.713	86.19
416.936	84.19
417.159	78.19
417.382	85.19
417.605	94.19
417.828	98.19
418.051	88.19
418.274	85.19
418.497	89.19
418.72	91.19
418.943	92.19
419.166	83.19
419.389	99.19
419.611	86.19
419.834	90.19
420.057	74.19
420.28	71.19
420.503	101.19
420.726	79.19
420.948	84.19
421.171	91.19
421.394	85.19
421.617	86.19
421.839	87.19
422.062	66.19
422.285	93.19
422.507	80.19
422.73	100.19
422.953	89.19
423.175	78.19
423.398	104.19
423.621	97.19
423.843	90.19
424.066	87.19
424.288	88.19
424.511	75.19
424.733	83.19
424.956	102.19
425.178	92.19
425.401	105.19
425.623	101.19
425.846	92.19
426.068	76.19
426.291	89.19
426.513	96.19
426.735	100.19
426.958	94.19
427.18	109.19
427.402	136.19
427.625	138.19
427.847	107.19
428.069	100.19
428.292	89.19
428.514	94.19
428.736	81.19
428.958	92.19
429.181	71.19
429.403	77.19
429.625	81.19
429.847	85.19
430.069	80.19
430.292	83.19
430.514	82.19
430.736	64.19
430.958	75.19
431.18	83.19
431.402	69.19
431.624	68.19
431.846	89.19
432.068	74.19
432.29	78.19
432.512	90.19
432.734	80.19
432.956	92.19
433.178	104.19
433.4	98.19
433.622	80.19
433.844	81.19
434.066	87.19
434.287	86.19
434.509	93.19
434.731	84.19
434.953	78.19
435.175	87.19
435.397	79.19
435.618	101.19
435.84	108.19
436.062	129.19
436.284	112.19
436.505	90.19
436.727	89.19
436.949	83.19
437.17	82.19
437.392	89.19
437.614	91.19
437.835	97.19
438.057	106.19
438.278	105.19
438.5	93.19
438.721	122.19
438.943	101.19
439.165	82.19
439.386	89.19
439.608	73.19
439.829	91.19
440.05	116.19
440.272	116.19
440.493	108.19
440.715	77.19
440.936	81.19
441.158	81.19
441.379	97.19
441.6	97.19
441.822	70.19
442.043	88.19
442.264	96.19
442.486	104.19
442.707	84.19
442.928	91.19
443.149	116.19
443.371	112.19
443.592	90.19
443.813	97.19
444.034	108.19
444.255	109.19
444.476	85.19
444.698	79.19
444.919	93.19
445.14	130.19
445.361	121.19
445.582	122.19
445.803	134.19
446.024	124.19
446.245	130.19
446.466	124.19
446.687	99.19
446.908	85.19
447.129	86.19
447.35	81.19
447.571	112.19
447.792	107.19
448.013	106.19
448.234	114.19
448.455	106.19
448.675	106.19
448.896	109.19
449.117	75.19
449.338	100.19
449.559	131.19
449.779	113.19
450	92.19
450.221	79.19
450.442	79.19
450.662	85.19
450.883	107.19
451.104	106.19
451.324	97.19
451.545	74.19
451.766	84.19
451.986	80.19
452.207	89.19
452.428	98.19
452.648	83.19
452.869	114.19
453.089	113.19
453.31	118.19
453.53	97.19
453.751	84.19
453.971	101.19
454.192	90.19
454.412	88.19
454.633	85.19
454.853	90.19
455.073	80.19
455.294	87.19
455.514	86.19
455.734	82.19
455.955	89.19
456.175	84.19
456.395	85.19
456.616	94.19
456.836	80.19
457.056	83.19
457.276	98.19
457.497	75.19
457.717	92.19
457.937	74.19
458.157	78.19
458.377	89.19
458.598	105.19
458.818	120.19
459.038	140.19
459.258	113.19
459.478	73.19
459.698	75.19
459.918	77.19
460.138	98.19
460.358	102.19
460.578	88.19
460.798	83.19
461.018	94.19
461.238	70.19
461.458	80.19
461.678	86.19
461.898	78.19
462.118	93.19
462.338	72.19
462.558	83.19
462.777	70.19
462.997	81.19
463.217	95.19
463.437	94.19
463.657	90.19
463.876	92.19
464.096	105.19
464.316	80.19
464.536	91.19
464.755	85.19
464.975	95.19
465.195	149.19
465.414	138.19
465.634	99.19
465.854	100.19
466.073	101.19
466.293	98.19
466.512	74.19
466.732	74.19
466.951	85.19
467.171	94.19
467.391	100.19
467.61	104.19
467.829	89.19
468.049	76.19
468.268	83.19
468.488	77.19
468.707	86.19
468.927	78.19
469.146	91.19
469.365	91.19
469.585	97.19
469.804	99.19
470.023	96.19
470.243	89.19
470.462	100.19
470.681	101.19
470.901	70.19
471.12	76.19
471.339	93.19
471.558	105.19
471.777	105.19
471.997	94.19
472.216	84.19
472.435	90.19
472.654	92.19
472.873	80.19
473.092	68.19
473.311	85.19
473.53	77.19
473.749	94.19
473.968	92.19
474.187	93.19
474.406	85.19
474.625	81.19
474.844	78.19
475.063	105.19
475.282	92.19
475.501	96.19
475.72	108.19
475.939	80.19
476.158	82.19
476.377	75.19
476.596	100.19
476.814	93.19
477.033	95.19
477.252	78.19
477.471	89.19
477.69	99.19
477.908	85.19
478.127	80.19
478.346	91.19
478.564	85.19
478.783	101.19
479.002	94.19
479.22	90.19
479.439	97.19
479.658	104.19
479.876	80.19
480.095	96.19
480.313	89.19
480.532	99.19
480.751	92.19
480.969	100.19
481.188	100.19
481.406	84.19
481.624	78.19
481.843	101.19
482.061	82.19
482.28	77.19
482.498	93.19
482.717	86.19
482.935	85.19
483.153	81.19
483.372	78.19
483.59	84.19
483.808	83.19
484.027	75.19
484.245	90.19
484.463	85.19
484.681	93.19
484.9	82.19
485.118	93.19
485.336	93.19
485.554	92.19
485.772	100.19
485.99	93.19
486.209	106.19
486.427	107.19
486.645	94.19
486.863	98.19
487.081	104.19
487.299	87.19
487.517	89.19
487.735	77.19
487.953	106.19
488.171	83.19
488.389	91.19
488.607	98.19
488.825	79.19
489.043	91.19
489.261	86.19
489.479	91.19
489.696	96.19
489.914	85.19
490.132	86.19
490.35	98.19
490.568	78.19
490.786	82.19
491.003	89.19
491.221	98.19
491.439	92.19
491.657	99.19
491.874	83.19
492.092	87.19
492.31	80.19
492.527	86.19
492.745	101.19
492.963	94.19
493.18	73.19
493.398	86.19
493.615	88.19
493.833	95.19
494.05	86.19
494.268	81.19
494.485	85.19
494.703	84.19
494.92	90.19
495.138	81.19
495.355	78.19
495.573	76.19
495.79	96.19
496.008	93.19
496.225	91.19
496.442	98.19
496.66	95.19
496.877	90.19
497.094	82.19
497.312	83.19
497.529	83.19
497.746	85.19
497.963	85.19
498.181	97.19
498.398	88.19
498.615	103.19
498.832	102.19
499.049	80.19
499.267	87.19
499.484	91.19
499.701	101.19
499.918	82.19
500.135	66.19
500.352	77.19
500.569	94.19
500.786	76.19
501.003	86.19
501.22	82.19
501.437	92.19
501.654	86.19
501.871	105.19
502.088	101.19
502.305	81.19
502.522	84.19
502.739	91.19
502.956	83.19
503.172	92.19
503.389	93.19
503.606	102.19
503.823	97.19
504.04	83.19
504.256	87.19
504.473	85.19
504.69	95.19
504.907	92.19
505.123	86.19
505.34	88.19
505.557	82.19
505.773	78.19
505.99	88.19
506.207	86.19
506.423	85.19
506.64	86.19
506.856	83.19
507.073	85.19
507.289	107.19
507.506	88.19
507.722	117.19
507.939	103.19
508.155	102.19
508.372	74.19
508.588	88.19
508.805	77.19
509.021	95.19
509.238	98.19
509.454	84.19
509.67	88.19
509.887	94.19
510.103	124.19
510.319	188.19
510.536	726.19
510.752	2112.19
510.968	601.19
511.184	147.19
511.401	84.19
511.617	90.19
511.833	104.19
512.049	93.19
512.265	96.19
512.481	99.19
512.698	94.19
512.914	90.19
513.13	90.19
513.346	87.19
513.562	95.19
513.778	94.19
513.994	90.19
514.21	109.19
514.426	105.19
514.642	124.19
514.858	123.19
515.074	149.19
515.29	432.19
515.506	1378.19
515.721	514.19
515.937	142.19
516.153	101.19
516.369	86.19
516.585	87.19
516.801	81.19
517.016	97.19
517.232	79.19
517.448	90.19
517.664	86.19
517.879	94.19
518.095	104.19
518.311	93.19
518.527	89.19
518.742	82.19
518.958	98.19
519.173	92.19
519.389	105.19
519.605	102.19
519.82	85.19
520.036	85.19
520.251	118.19
520.467	120.19
520.682	108.19
520.898	101.19
521.113	105.19
521.329	129.19
521.544	177.19
521.76	511.19
521.975	2236.19
522.19	1323.19
522.406	296.19
522.621	114.19
522.836	106.19
523.052	90.19
523.267	89.19
523.482	93.19
523.698	103.19
523.913	106.19
524.128	111.19
524.343	89.19
524.559	91.19
524.774	94.19
524.989	105.19
525.204	99.19
525.419	85.19
525.634	80.19
525.849	97.19
526.064	85.19
526.28	94.19
526.495	84.19
526.71	97.19
526.925	103.19
527.14	86.19
527.355	78.19
527.57	79.19
527.785	80.19
527.999	83.19
528.214	85.19
528.429	96.19
528.644	90.19
528.859	79.19
529.074	72.19
529.289	111.19
529.503	155.19
529.718	110.19
529.933	78.19
530.148	88.19
530.363	97.19
530.577	77.19
530.792	96.19
531.007	86.19
531.221	76.19
531.436	93.19
531.651	94.19
531.865	85.19
532.08	98.19
532.295	98.19
532.509	80.19
532.724	90.19
532.938	89.19
533.153	88.19
533.367	82.19
533.582	86.19
533.796	104.19
534.011	93.19
534.225	87.19
534.44	82.19
534.654	102.19
534.868	78.19
535.083	75.19
535.297	83.19
535.511	103.19
535.726	86.19
535.94	96.19
536.154	99.19
536.369	90.19
536.583	100.19
536.797	92.19
537.011	91.19
537.225	84.19
537.44	87.19
537.654	86.19
537.868	82.19
538.082	84.19
538.296	90.19
538.51	73.19
538.724	96.19
538.938	75.19
539.153	94.19
539.367	98.19
539.581	75.19
539.795	93.19
540.009	80.19
540.222	81.19
540.436	98.19
540.65	108.19
540.864	98.19
541.078	79.19
541.292	83.19
541.506	76.19
541.72	99.19
541.934	89.19
542.147	90.19
542.361	93.19
542.575	81.19
542.789	70.19
543.002	89.19
543.216	95.19
543.43	109.19
543.644	97.19
543.857	92.19
544.071	92.19
544.285	94.19
544.498	92.19
544.712	101.19
544.925	78.19
545.139	97.19
545.352	78.19
545.566	66.19
545.779	85.19
545.993	90.19
546.206	77.19
546.42	94.19
546.633	76.19
546.847	90.19
547.06	90.19
547.274	84.19
547.487	88.19
547.7	78.19
547.914	95.19
548.127	82.19
548.34	76.19
548.554	75.19
548.767	81.19
548.98	75.19
549.193	80.19
549.407	75.19
549.62	89.19
549.833	93.19
550.046	96.19
550.259	85.19
550.473	83.19
550.686	99.19
550.899	95.19
551.112	91.19
551.325	97.19
551.538	85.19
551.751	86.19
551.964	88.19
552.177	85.19
552.39	80.19
552.603	85.19
552.816	86.19
553.029	81.19
553.242	79.19
553.455	88.19
553.667	98.19
553.88	99.19
554.093	86.19
554.306	83.19
554.519	92.19
554.732	92.19
554.944	94.19
555.157	75.19
555.37	83.19
555.583	89.19
555.795	113.19
556.008	82.19
556.221	86.19
556.433	83.19
556.646	89.19
556.859	91.19
557.071	94.19
557.284	102.19
557.496	82.19
557.709	88.19
557.921	84.19
558.134	93.19
558.346	97.19
558.559	93.19
558.771	85.19
558.984	81.19
559.196	79.19
559.409	74.19
559.621	91.19
559.833	81.19
560.046	73.19
560.258	80.19
560.47	76.19
560.683	90.19
560.895	88.19
561.107	84.19
561.32	86.19
561.532	77.19
561.744	92.19
561.956	82.19
562.168	94.19
562.381	94.19
562.593	100.19
562.805	90.19
563.017	82.19
563.229	92.19
563.441	85.19
563.653	83.19
563.865	78.19
564.077	89.19
564.289	90.19
564.501	88.19
564.713	81.19
564.925	79.19
565.137	102.19
565.349	77.19
565.561	91.19
565.773	80.19
565.985	88.19
566.197	90.19
566.408	82.19
566.62	84.19
566.832	82.19
567.044	78.19
567.255	89.19
567.467	88.19
567.679	73.19
567.891	84.19
568.102	92.19
568.314	89.19
568.526	71.19
568.737	92.19
568.949	75.19
569.161	88.19
569.372	79.19
569.584	92.19
569.795	99.19
570.007	114.19
570.218	221.19
570.43	124.19
570.641	101.19
570.853	86.19
571.064	76.19
571.276	70.19
571.487	88.19
571.698	85.19
571.91	80.19
572.121	79.19
572.333	84.19
572.544	81.19
572.755	87.19
572.966	90.19
573.178	86.19
573.389	90.19
573.6	81.19
573.811	78.19
574.023	88.19
574.234	77.19
574.445	96.19
574.656	95.19
574.867	86.19
575.078	88.19
575.289	84.19
575.501	90.19
575.712	79.19
575.923	97.19
576.134	75.19
576.345	76.19
576.556	85.19
576.767	76.19
576.978	97.19
577.188	94.19
577.399	100.19
577.61	86.19
577.821	105.19
578.032	104.19
578.243	251.19
578.454	706.19
578.665	214.19
578.875	113.19
579.086	95.19
579.297	86.19
579.508	69.19
579.718	80.19
579.929	69.19
580.14	94.19
580.35	69.19
580.561	88.19
580.772	101.19
580.982	87.19
581.193	77.19
581.403	81.19
581.614	83.19
581.825	96.19
582.035	83.19
582.246	78.19
582.456	74.19
582.667	86.19
582.877	87.19
583.087	80.19
583.298	88.19
583.508	85.19
583.719	83.19
583.929	93.19
584.139	68.19
584.35	98.19
584.56	83.19
584.77	83.19
584.981	74.19
585.191	85.19
585.401	77.19
585.611	87.19
585.821	90.19
586.032	86.19
586.242	72.19
586.452	94.19
586.662	100.19
586.872	91.19
587.082	68.19
587.292	91.19
587.502	80.19
587.713	91.19
587.923	83.19
588.133	82.19
588.343	79.19
588.553	86.19
588.762	76.19
588.972	79.19
589.182	64.19
589.392	80.19
589.602	87.19
589.812	100.19
590.022	84.19
590.232	77.19
590.441	80.19
590.651	82.19
590.861	82.19
591.071	81.19
591.281	93.19
591.49	83.19
591.7	83.19
591.91	77.19
592.119	82.19
592.329	94.19
592.539	93.19
592.748	84.19
592.958	82.19
593.167	79.19
593.377	93.19
593.587	87.19
593.796	78.19
594.006	90.19
594.215	81.19
594.424	76.19
594.634	79.19
594.843	89.19
595.053	90.19
595.262	81.19
595.472	85.19
595.681	74.19
595.89	75.19
596.1	82.19
596.309	78.19
596.518	83.19
596.727	95.19
596.937	86.19
597.146	105.19
597.355	91.19
597.564	81.19
597.774	84.19
597.983	73.19
598.192	88.19
598.401	69.19
598.61	80.19
598.819	91.19
599.028	86.19
599.237	76.19
599.446	82.19
599.655	84.19
599.864	80.19
600.073	85.19
600.282	93.19
600.491	90.19
600.7	83.19
600.909	109.19
601.118	89.19
601.327	86.19
601.536	74.19
601.745	76.19
601.953	94.19
602.162	80.19
602.371	96.19
602.58	81.19
602.789	87.19
602.997	82.19
603.206	82.19
603.415	93.19
603.623	83.19
603.832	83.19
604.041	84.19
604.249	93.19
604.458	82.19
604.666	64.19
604.875	90.19
605.084	83.19
605.292	92.19
605.501	85.19
605.709	71.19
605.918	85.19
606.126	69.19
606.334	80.19
606.543	90.19
606.751	85.19
606.96	60.19
607.168	92.19
607.376	85.19
607.585	92.19
607.793	76.19
608.001	93.19
608.21	81.19
608.418	90.19
608.626	84.19
608.834	78.19
609.043	76.19
609.251	83.19
609.459	93.19
609.667	80.19
609.875	76.19
610.083	82.19
610.291	75.19
610.499	86.19
610.707	81.19
610.916	77.19
611.124	79.19
611.332	74.19
611.54	84.19
611.748	92.19
611.955	84.19
612.163	85.19
612.371	83.19
612.579	84.19
612.787	81.19
612.995	97.19
613.203	86.19
613.411	86.19
613.618	81.19
613.826	99.19
614.034	79.19
614.242	93.19
614.449	76.19
614.657	81.19
614.865	85.19
615.072	72.19
615.28	86.19
615.488	81.19
615.695	88.19
615.903	79.19
616.111	93.19
616.318	83.19
616.526	91.19
616.733	90.19
616.941	86.19
617.148	90.19
617.356	86.19
617.563	72.19
617.771	86.19
617.978	87.19
618.185	96.19
618.393	79.19
618.6	88.19
618.807	92.19
619.015	80.19
619.222	88.19
619.429	77.19
619.637	81.19
619.844	85.19
620.051	85.19
620.258	73.19
620.466	80.19
620.673	87.19
620.88	87.19
621.087	76.19
621.294	77.19
621.501	89.19
621.708	73.19
621.915	76.19
622.122	92.19
622.329	76.19
622.536	69.19
622.743	80.19
622.95	86.19
623.157	96.19
623.364	82.19
623.571	85.19
623.778	93.19
623.985	89.19
624.192	78.19
624.399	83.19
624.606	85.19
624.812	95.19
625.019	78.19
625.226	79.19
625.433	81.19
625.639	67.19
625.846	88.19
626.053	78.19
626.259	80.19
626.466	68.19
626.673	65.19
626.879	86.19
627.086	88.19
627.293	84.19
627.499	91.19
627.706	88.19
627.912	75.19
628.119	81.19
628.325	70.19
628.532	84.19
628.738	74.19
628.945	93.19
629.151	76.19
629.357	82.19
629.564	83.19
629.77	76.19
629.976	92.19
630.183	74.19
630.389	68.19
630.595	94.19
630.802	81.19
631.008	75.19
631.214	93.19
631.42	74.19
631.627	88.19
631.833	92.19
632.039	82.19
632.245	86.19
632.451	79.19
632.657	77.19
632.863	84.19
633.069	83.19
633.275	86.19
633.481	76.19
633.688	85.19
633.893	78.19
634.099	74.19
634.305	75.19
634.511	89.19
634.717	75.19
634.923	83.19
635.129	70.19
635.335	71.19
635.541	88.19
635.747	81.19
635.952	83.19
636.158	91.19
636.364	80.19
636.57	83.19
636.775	64.19
636.981	72.19
637.187	82.19
637.392	80.19
637.598	77.19
637.804	85.19
638.009	82.19
638.215	100.19
638.421	84.19
638.626	85.19
638.832	97.19
639.037	92.19
639.243	68.19
639.448	64.19
639.654	72.19
639.859	88.19
640.065	93.19
640.27	92.19
640.475	72.19
640.681	67.19
640.886	86.19
641.091	73.19
641.297	70.19
641.502	75.19
641.707	97.19
641.913	67.19
642.118	78.19
642.323	84.19
642.528	86.19
642.733	87.19
642.939	73.19
643.144	87.19
643.349	82.19
643.554	73.19
643.759	75.19
643.964	81.19
644.169	85.19
644.374	87.19
644.579	79.19
644.784	77.19
644.989	81.19
645.194	77.19
645.399	79.19
645.604	78.19
645.809	85.19
646.014	79.19
646.219	94.19
646.423	80.19
646.628	57.19
646.833	90.19
647.038	93.19
647.243	73.19
647.447	70.19
647.652	88.19
647.857	84.19
648.062	77.19
648.266	80.19
648.471	79.19
648.676	90.19
648.88	89.19
649.085	93.19
649.289	89.19
649.494	78.19
649.698	130.19
649.903	89.19
650.107	79.19
650.312	76.19
650.516	81.19
650.721	89.19
650.925	75.19
651.13	85.19
651.334	75.19
651.539	73.19
651.743	83.19
651.947	73.19
652.152	76.19
652.356	80.19
652.56	76.19
652.764	76.19
652.969	79.19
653.173	75.19
653.377	83.19
653.581	83.19
653.785	83.19
653.99	74.19
654.194	74.19
654.398	91.19
654.602	82.19
654.806	81.19
655.01	100.19
655.214	88.19
655.418	81.19
655.622	84.19
655.826	94.19
656.03	89.19
656.234	82.19
656.438	88.19
656.642	86.19
656.846	90.19
657.049	81.19
657.253	80.19
657.457	83.19
657.661	82.19
657.865	86.19
658.068	75.19
658.272	83.19
658.476	77.19
658.68	86.19
658.883	85.19
659.087	72.19
659.291	84.19
659.494	91.19
659.698	90.19
659.901	78.19
660.105	74.19
660.309	78.19
660.512	74.19
660.716	76.19
660.919	81.19
661.123	76.19
661.326	80.19
661.53	65.19
661.733	81.19
661.936	80.19
662.14	74.19
662.343	68.19
662.546	74.19
662.75	89.19
662.953	72.19
663.156	83.19
663.36	69.19
663.563	82.19
663.766	69.19
663.969	84.19
664.173	80.19
664.376	90.19
664.579	78.19
664.782	69.19
664.985	84.19
665.188	70.19
665.391	74.19
665.594	89.19
665.797	74.19
666	78.19
666.203	74.19
666.406	75.19
666.609	69.19
666.812	70.19
667.015	88.19
667.218	71.19
667.421	65.19
667.624	84.19
667.827	76.19
668.03	75.19
668.232	85.19
668.435	66.19
668.638	64.19
668.841	82.19
669.043	83.19
669.246	86.19
669.449	81.19
669.651	76.19
669.854	88.19
670.057	81.19
670.259	77.19
670.462	77.19
670.665	78.19
670.867	79.19
671.07	65.19
671.272	83.19
671.475	84.19
671.677	78.19
671.88	84.19
672.082	84.19
672.284	81.19
672.487	78.19
672.689	80.19
672.892	84.19
