Data from Uncirc_2005_H10_HRD10591_00013.txt Node
Date: Wed Jan 03 10:28:27 EST 2024
User: Yrep
Spectrometer: HR+D1059
Trigger mode: 1
Integration Time (sec): 1.000000E-1
Scans to average: 1
Electric dark correction enabled: true
Nonlinearity correction enabled: false
Boxcar width: 0
XAxis mode: Wavelengths
Number of Pixels in Spectrum: 2048
>>>>>Begin Spectral Data<<<<<
223.165	-18.88
223.4	-18.88
223.635	-18.88
223.869	-34.88
224.104	-21.88
224.338	-18.88
224.573	-11.88
224.808	-4.88
225.042	-16.88
225.277	-8.88
225.511	-3.88
225.746	3.12
225.98	28.12
226.215	27.12
226.449	25.12
226.683	25.12
226.918	20.12
227.152	12.12
227.387	30.12
227.621	47.12
227.856	38.12
228.09	39.12
228.324	61.12
228.559	74.12
228.793	81.12
229.027	72.12
229.262	65.12
229.496	75.12
229.73	83.12
229.964	88.12
230.199	83.12
230.433	79.12
230.667	79.12
230.901	75.12
231.136	90.12
231.37	84.12
231.604	92.12
231.838	87.12
232.072	89.12
232.306	92.12
232.541	82.12
232.775	82.12
233.009	84.12
233.243	98.12
233.477	82.12
233.711	83.12
233.945	91.12
234.179	83.12
234.413	91.12
234.647	87.12
234.881	96.12
235.115	75.12
235.349	77.12
235.583	91.12
235.817	84.12
236.051	90.12
236.285	88.12
236.519	87.12
236.753	88.12
236.987	81.12
237.221	85.12
237.455	97.12
237.689	87.12
237.922	80.12
238.156	88.12
238.39	88.12
238.624	77.12
238.858	67.12
239.091	82.12
239.325	79.12
239.559	90.12
239.793	85.12
240.027	88.12
240.26	88.12
240.494	81.12
240.728	74.12
240.961	90.12
241.195	67.12
241.429	75.12
241.662	79.12
241.896	93.12
242.13	86.12
242.363	84.12
242.597	84.12
242.83	90.12
243.064	97.12
243.298	80.12
243.531	79.12
243.765	93.12
243.998	94.12
244.232	93.12
244.465	88.12
244.699	84.12
244.932	82.12
245.166	85.12
245.399	74.12
245.633	93.12
245.866	75.12
246.099	77.12
246.333	95.12
246.566	95.12
246.8	81.12
247.033	85.12
247.266	91.12
247.5	73.12
247.733	74.12
247.966	78.12
248.2	86.12
248.433	84.12
248.666	83.12
248.899	97.12
249.133	96.12
249.366	102.12
249.599	102.12
249.832	80.12
250.066	99.12
250.299	80.12
250.532	89.12
250.765	88.12
250.998	83.12
251.231	82.12
251.465	92.12
251.698	94.12
251.931	85.12
252.164	80.12
252.397	72.12
252.63	101.12
252.863	92.12
253.096	92.12
253.329	88.12
253.562	75.12
253.795	86.12
254.028	81.12
254.261	91.12
254.494	87.12
254.727	87.12
254.96	93.12
255.193	86.12
255.426	81.12
255.659	100.12
255.892	90.12
256.124	97.12
256.357	88.12
256.59	87.12
256.823	83.12
257.056	85.12
257.289	76.12
257.521	85.12
257.754	79.12
257.987	84.12
258.22	84.12
258.452	91.12
258.685	94.12
258.918	93.12
259.151	85.12
259.383	81.12
259.616	81.12
259.849	84.12
260.081	99.12
260.314	87.12
260.547	83.12
260.779	73.12
261.012	83.12
261.244	88.12
261.477	91.12
261.71	96.12
261.942	117.12
262.175	119.12
262.407	93.12
262.64	74.12
262.872	89.12
263.105	96.12
263.337	100.12
263.57	99.12
263.802	87.12
264.035	91.12
264.267	84.12
264.499	93.12
264.732	71.12
264.964	81.12
265.197	77.12
265.429	95.12
265.661	90.12
265.894	83.12
266.126	81.12
266.358	95.12
266.591	92.12
266.823	86.12
267.055	91.12
267.287	89.12
267.52	87.12
267.752	84.12
267.984	81.12
268.216	79.12
268.448	93.12
268.681	99.12
268.913	79.12
269.145	88.12
269.377	87.12
269.609	76.12
269.841	85.12
270.073	100.12
270.306	86.12
270.538	85.12
270.77	89.12
271.002	81.12
271.234	102.12
271.466	110.12
271.698	92.12
271.93	89.12
272.162	86.12
272.394	87.12
272.626	106.12
272.858	102.12
273.09	97.12
273.322	90.12
273.553	81.12
273.785	88.12
274.017	98.12
274.249	92.12
274.481	92.12
274.713	90.12
274.945	96.12
275.176	96.12
275.408	89.12
275.64	82.12
275.872	83.12
276.104	91.12
276.335	93.12
276.567	104.12
276.799	121.12
277.031	106.12
277.262	88.12
277.494	101.12
277.726	97.12
277.957	89.12
278.189	92.12
278.421	107.12
278.652	82.12
278.884	98.12
279.115	83.12
279.347	85.12
279.579	81.12
279.81	84.12
280.042	89.12
280.273	108.12
280.505	105.12
280.736	90.12
280.968	99.12
281.199	82.12
281.431	98.12
281.662	98.12
281.894	76.12
282.125	104.12
282.356	114.12
282.588	148.12
282.819	139.12
283.051	84.12
283.282	95.12
283.513	91.12
283.745	93.12
283.976	86.12
284.207	102.12
284.439	105.12
284.67	93.12
284.901	66.12
285.132	92.12
285.364	84.12
285.595	94.12
285.826	97.12
286.057	92.12
286.288	92.12
286.52	96.12
286.751	96.12
286.982	81.12
287.213	98.12
287.444	82.12
287.675	96.12
287.906	98.12
288.138	84.12
288.369	106.12
288.6	100.12
288.831	95.12
289.062	99.12
289.293	93.12
289.524	91.12
289.755	89.12
289.986	92.12
290.217	85.12
290.448	106.12
290.679	97.12
290.91	103.12
291.141	92.12
291.371	74.12
291.602	87.12
291.833	98.12
292.064	81.12
292.295	100.12
292.526	82.12
292.757	93.12
292.987	102.12
293.218	97.12
293.449	84.12
293.68	101.12
293.91	78.12
294.141	96.12
294.372	96.12
294.603	105.12
294.833	99.12
295.064	81.12
295.295	93.12
295.525	102.12
295.756	105.12
295.987	121.12
296.217	148.12
296.448	136.12
296.679	104.12
296.909	98.12
297.14	87.12
297.37	95.12
297.601	87.12
297.831	80.12
298.062	107.12
298.292	76.12
298.523	84.12
298.753	83.12
298.984	103.12
299.214	108.12
299.445	90.12
299.675	102.12
299.905	91.12
300.136	95.12
300.366	91.12
300.597	83.12
300.827	98.12
301.057	112.12
301.288	95.12
301.518	97.12
301.748	91.12
301.979	106.12
302.209	86.12
302.439	98.12
302.669	90.12
302.9	100.12
303.13	83.12
303.36	92.12
303.59	96.12
303.82	103.12
304.051	105.12
304.281	112.12
304.511	94.12
304.741	100.12
304.971	85.12
305.201	97.12
305.431	96.12
305.661	85.12
305.891	107.12
306.121	103.12
306.352	110.12
306.582	119.12
306.812	103.12
307.042	96.12
307.272	89.12
307.502	107.12
307.731	88.12
307.961	92.12
308.191	95.12
308.421	97.12
308.651	99.12
308.881	84.12
309.111	100.12
309.341	88.12
309.571	110.12
309.8	110.12
310.03	100.12
310.26	99.12
310.49	101.12
310.72	116.12
310.949	114.12
311.179	101.12
311.409	80.12
311.639	98.12
311.868	97.12
312.098	103.12
312.328	111.12
312.557	99.12
312.787	111.12
313.017	111.12
313.246	107.12
313.476	101.12
313.706	92.12
313.935	100.12
314.165	106.12
314.394	108.12
314.624	96.12
314.853	106.12
315.083	93.12
315.312	112.12
315.542	93.12
315.771	110.12
316.001	92.12
316.23	99.12
316.46	88.12
316.689	100.12
316.919	99.12
317.148	110.12
317.377	105.12
317.607	109.12
317.836	95.12
318.065	106.12
318.295	103.12
318.524	82.12
318.753	108.12
318.983	97.12
319.212	88.12
319.441	112.12
319.67	111.12
319.9	106.12
320.129	107.12
320.358	97.12
320.587	107.12
320.816	102.12
321.046	91.12
321.275	93.12
321.504	115.12
321.733	101.12
321.962	124.12
322.191	113.12
322.42	104.12
322.649	108.12
322.878	111.12
323.108	118.12
323.337	117.12
323.566	124.12
323.795	161.12
324.024	242.12
324.253	413.12
324.482	919.12
324.71	1892.12
324.939	2592.12
325.168	924.12
325.397	266.12
325.626	173.12
325.855	148.12
326.084	136.12
326.313	148.12
326.542	160.12
326.77	272.12
326.999	491.12
327.228	1059.12
327.457	1957.12
327.686	1579.12
327.914	411.12
328.143	209.12
328.372	144.12
328.6	138.12
328.829	133.12
329.058	150.12
329.287	133.12
329.515	104.12
329.744	111.12
329.972	105.12
330.201	106.12
330.43	112.12
330.658	123.12
330.887	157.12
331.115	142.12
331.344	105.12
331.572	112.12
331.801	112.12
332.03	122.12
332.258	110.12
332.486	108.12
332.715	104.12
332.943	91.12
333.172	100.12
333.4	108.12
333.629	106.12
333.857	119.12
334.085	114.12
334.314	100.12
334.542	111.12
334.771	104.12
334.999	96.12
335.227	107.12
335.455	99.12
335.684	97.12
335.912	105.12
336.14	110.12
336.369	108.12
336.597	111.12
336.825	103.12
337.053	97.12
337.281	92.12
337.51	107.12
337.738	111.12
337.966	90.12
338.194	96.12
338.422	95.12
338.65	86.12
338.878	101.12
339.106	110.12
339.334	95.12
339.562	103.12
339.79	99.12
340.018	100.12
340.246	103.12
340.474	109.12
340.702	93.12
340.93	87.12
341.158	96.12
341.386	108.12
341.614	109.12
341.842	98.12
342.07	97.12
342.298	97.12
342.526	108.12
342.754	95.12
342.981	97.12
343.209	90.12
343.437	112.12
343.665	104.12
343.893	98.12
344.12	107.12
344.348	93.12
344.576	87.12
344.804	92.12
345.031	111.12
345.259	100.12
345.487	86.12
345.714	98.12
345.942	100.12
346.17	103.12
346.397	110.12
346.625	103.12
346.853	104.12
347.08	90.12
347.308	99.12
347.535	109.12
347.763	111.12
347.99	103.12
348.218	107.12
348.445	117.12
348.673	109.12
348.9	108.12
349.128	106.12
349.355	96.12
349.583	103.12
349.81	87.12
350.037	107.12
350.265	107.12
350.492	108.12
350.72	116.12
350.947	109.12
351.174	113.12
351.402	120.12
351.629	128.12
351.856	116.12
352.083	106.12
352.311	113.12
352.538	104.12
352.765	113.12
352.992	109.12
353.22	114.12
353.447	114.12
353.674	117.12
353.901	124.12
354.128	104.12
354.355	109.12
354.583	106.12
354.81	100.12
355.037	96.12
355.264	88.12
355.491	111.12
355.718	98.12
355.945	117.12
356.172	108.12
356.399	97.12
356.626	96.12
356.853	110.12
357.08	99.12
357.307	93.12
357.534	98.12
357.761	104.12
357.988	109.12
358.215	107.12
358.441	121.12
358.668	112.12
358.895	100.12
359.122	96.12
359.349	92.12
359.576	92.12
359.802	92.12
360.029	132.12
360.256	118.12
360.483	116.12
360.709	99.12
360.936	101.12
361.163	98.12
361.39	104.12
361.616	93.12
361.843	104.12
362.07	91.12
362.296	90.12
362.523	90.12
362.749	98.12
362.976	107.12
363.203	98.12
363.429	88.12
363.656	73.12
363.882	88.12
364.109	96.12
364.335	100.12
364.562	93.12
364.788	95.12
365.015	87.12
365.241	113.12
365.468	111.12
365.694	111.12
365.92	117.12
366.147	98.12
366.373	94.12
366.599	94.12
366.826	91.12
367.052	98.12
367.278	93.12
367.505	109.12
367.731	96.12
367.957	91.12
368.184	91.12
368.41	100.12
368.636	115.12
368.862	149.12
369.089	124.12
369.315	104.12
369.541	92.12
369.767	101.12
369.993	100.12
370.219	109.12
370.445	103.12
370.672	83.12
370.898	96.12
371.124	96.12
371.35	85.12
371.576	90.12
371.802	92.12
372.028	88.12
372.254	98.12
372.48	98.12
372.706	91.12
372.932	97.12
373.158	85.12
373.384	87.12
373.61	112.12
373.835	99.12
374.061	92.12
374.287	99.12
374.513	108.12
374.739	97.12
374.965	105.12
375.191	91.12
375.416	98.12
375.642	99.12
375.868	97.12
376.094	95.12
376.319	97.12
376.545	103.12
376.771	102.12
376.997	103.12
377.222	105.12
377.448	95.12
377.674	100.12
377.899	105.12
378.125	100.12
378.35	99.12
378.576	101.12
378.802	97.12
379.027	88.12
379.253	88.12
379.478	112.12
379.704	97.12
379.929	108.12
380.155	92.12
380.38	106.12
380.606	101.12
380.831	107.12
381.057	113.12
381.282	109.12
381.507	107.12
381.733	88.12
381.958	109.12
382.184	88.12
382.409	105.12
382.634	117.12
382.86	105.12
383.085	112.12
383.31	128.12
383.535	102.12
383.761	108.12
383.986	108.12
384.211	102.12
384.436	94.12
384.662	112.12
384.887	103.12
385.112	118.12
385.337	115.12
385.562	116.12
385.787	117.12
386.013	145.12
386.238	119.12
386.463	129.12
386.688	129.12
386.913	129.12
387.138	109.12
387.363	117.12
387.588	112.12
387.813	109.12
388.038	131.12
388.263	131.12
388.488	133.12
388.713	101.12
388.938	90.12
389.163	113.12
389.387	104.12
389.612	99.12
389.837	93.12
390.062	97.12
390.287	97.12
390.512	98.12
390.736	106.12
390.961	99.12
391.186	81.12
391.411	99.12
391.636	86.12
391.86	89.12
392.085	87.12
392.31	91.12
392.534	90.12
392.759	104.12
392.984	107.12
393.208	102.12
393.433	92.12
393.658	101.12
393.882	90.12
394.107	99.12
394.331	72.12
394.556	108.12
394.78	108.12
395.005	99.12
395.229	87.12
395.454	90.12
395.678	97.12
395.903	90.12
396.127	103.12
396.352	103.12
396.576	88.12
396.801	103.12
397.025	100.12
397.249	89.12
397.474	87.12
397.698	94.12
397.922	109.12
398.147	104.12
398.371	99.12
398.595	93.12
398.82	97.12
399.044	98.12
399.268	101.12
399.492	92.12
399.717	107.12
399.941	94.12
400.165	89.12
400.389	100.12
400.613	96.12
400.837	90.12
401.062	101.12
401.286	84.12
401.51	93.12
401.734	90.12
401.958	100.12
402.182	124.12
402.406	156.12
402.63	127.12
402.854	109.12
403.078	103.12
403.302	100.12
403.526	96.12
403.75	102.12
403.974	96.12
404.198	85.12
404.422	94.12
404.645	103.12
404.869	81.12
405.093	92.12
405.317	106.12
405.541	101.12
405.765	93.12
405.988	128.12
406.212	183.12
406.436	237.12
406.66	164.12
406.883	117.12
407.107	91.12
407.331	117.12
407.555	111.12
407.778	98.12
408.002	101.12
408.226	104.12
408.449	98.12
408.673	86.12
408.896	109.12
409.12	116.12
409.344	95.12
409.567	98.12
409.791	106.12
410.014	97.12
410.238	93.12
410.461	117.12
410.685	100.12
410.908	98.12
411.132	108.12
411.355	128.12
411.578	79.12
411.802	98.12
412.025	105.12
412.249	81.12
412.472	99.12
412.695	98.12
412.919	91.12
413.142	89.12
413.365	95.12
413.589	97.12
413.812	101.12
414.035	85.12
414.258	102.12
414.482	101.12
414.705	93.12
414.928	82.12
415.151	88.12
415.374	108.12
415.597	97.12
415.821	103.12
416.044	92.12
416.267	105.12
416.49	99.12
416.713	95.12
416.936	102.12
417.159	99.12
417.382	103.12
417.605	97.12
417.828	96.12
418.051	101.12
418.274	108.12
418.497	89.12
418.72	93.12
418.943	92.12
419.166	97.12
419.389	104.12
419.611	90.12
419.834	103.12
420.057	91.12
420.28	98.12
420.503	90.12
420.726	84.12
420.948	107.12
421.171	100.12
421.394	115.12
421.617	101.12
421.839	102.12
422.062	99.12
422.285	101.12
422.507	104.12
422.73	108.12
422.953	100.12
423.175	111.12
423.398	115.12
423.621	98.12
423.843	89.12
424.066	93.12
424.288	96.12
424.511	105.12
424.733	105.12
424.956	120.12
425.178	104.12
425.401	112.12
425.623	101.12
425.846	88.12
426.068	101.12
426.291	88.12
426.513	95.12
426.735	91.12
426.958	111.12
427.18	122.12
427.402	149.12
427.625	208.12
427.847	140.12
428.069	100.12
428.292	98.12
428.514	90.12
428.736	93.12
428.958	104.12
429.181	99.12
429.403	95.12
429.625	79.12
429.847	91.12
430.069	106.12
430.292	113.12
430.514	92.12
430.736	96.12
430.958	103.12
431.18	87.12
431.402	95.12
431.624	93.12
431.846	87.12
432.068	105.12
432.29	101.12
432.512	102.12
432.734	92.12
432.956	94.12
433.178	111.12
433.4	102.12
433.622	92.12
433.844	101.12
434.066	100.12
434.287	97.12
434.509	98.12
434.731	88.12
434.953	76.12
435.175	97.12
435.397	95.12
435.618	105.12
435.84	113.12
436.062	153.12
436.284	122.12
436.505	116.12
436.727	108.12
436.949	104.12
437.17	88.12
437.392	95.12
437.614	91.12
437.835	107.12
438.057	120.12
438.278	111.12
438.5	106.12
438.721	140.12
438.943	104.12
439.165	94.12
439.386	100.12
439.608	118.12
439.829	112.12
440.05	131.12
440.272	161.12
440.493	103.12
440.715	98.12
440.936	85.12
441.158	100.12
441.379	86.12
441.6	100.12
441.822	112.12
442.043	104.12
442.264	105.12
442.486	119.12
442.707	99.12
442.928	125.12
443.149	156.12
443.371	132.12
443.592	122.12
443.813	125.12
444.034	108.12
444.255	92.12
444.476	97.12
444.698	101.12
444.919	88.12
445.14	115.12
445.361	122.12
445.582	143.12
445.803	171.12
446.024	152.12
446.245	134.12
446.466	128.12
446.687	97.12
446.908	100.12
447.129	81.12
447.35	97.12
447.571	100.12
447.792	81.12
448.013	105.12
448.234	126.12
448.455	112.12
448.675	117.12
448.896	136.12
449.117	113.12
449.338	120.12
449.559	135.12
449.779	146.12
450	118.12
450.221	98.12
450.442	95.12
450.662	91.12
450.883	117.12
451.104	107.12
451.324	95.12
451.545	119.12
451.766	91.12
451.986	87.12
452.207	86.12
452.428	109.12
452.648	95.12
452.869	108.12
453.089	113.12
453.31	123.12
453.53	111.12
453.751	89.12
453.971	111.12
454.192	114.12
454.412	96.12
454.633	103.12
454.853	99.12
455.073	82.12
455.294	95.12
455.514	111.12
455.734	92.12
455.955	97.12
456.175	99.12
456.395	86.12
456.616	94.12
456.836	85.12
457.056	99.12
457.276	90.12
457.497	88.12
457.717	97.12
457.937	98.12
458.157	75.12
458.377	100.12
458.598	111.12
458.818	155.12
459.038	165.12
459.258	124.12
459.478	103.12
459.698	103.12
459.918	93.12
460.138	98.12
460.358	98.12
460.578	81.12
460.798	106.12
461.018	87.12
461.238	99.12
461.458	100.12
461.678	89.12
461.898	96.12
462.118	90.12
462.338	93.12
462.558	93.12
462.777	91.12
462.997	92.12
463.217	79.12
463.437	103.12
463.657	83.12
463.876	99.12
464.096	79.12
464.316	107.12
464.536	85.12
464.755	96.12
464.975	113.12
465.195	173.12
465.414	171.12
465.634	106.12
465.854	92.12
466.073	94.12
466.293	82.12
466.512	93.12
466.732	88.12
466.951	96.12
467.171	95.12
467.391	94.12
467.61	103.12
467.829	101.12
468.049	106.12
468.268	101.12
468.488	97.12
468.707	93.12
468.927	87.12
469.146	91.12
469.365	90.12
469.585	102.12
469.804	104.12
470.023	110.12
470.243	103.12
470.462	105.12
470.681	117.12
470.901	89.12
471.12	90.12
471.339	90.12
471.558	70.12
471.777	86.12
471.997	99.12
472.216	96.12
472.435	101.12
472.654	88.12
472.873	94.12
473.092	94.12
473.311	92.12
473.53	89.12
473.749	96.12
473.968	115.12
474.187	116.12
474.406	97.12
474.625	96.12
474.844	84.12
475.063	81.12
475.282	90.12
475.501	99.12
475.72	102.12
475.939	91.12
476.158	90.12
476.377	90.12
476.596	95.12
476.814	101.12
477.033	100.12
477.252	96.12
477.471	89.12
477.69	99.12
477.908	99.12
478.127	93.12
478.346	83.12
478.564	99.12
478.783	101.12
479.002	100.12
479.22	104.12
479.439	109.12
479.658	114.12
479.876	109.12
480.095	93.12
480.313	100.12
480.532	91.12
480.751	93.12
480.969	100.12
481.188	113.12
481.406	100.12
481.624	94.12
481.843	77.12
482.061	90.12
482.28	92.12
482.498	96.12
482.717	90.12
482.935	99.12
483.153	94.12
483.372	76.12
483.59	87.12
483.808	108.12
484.027	107.12
484.245	102.12
484.463	97.12
484.681	116.12
484.9	91.12
485.118	88.12
485.336	104.12
485.554	111.12
485.772	92.12
485.99	94.12
486.209	85.12
486.427	109.12
486.645	115.12
486.863	130.12
487.081	100.12
487.299	102.12
487.517	97.12
487.735	98.12
487.953	114.12
488.171	93.12
488.389	103.12
488.607	99.12
488.825	107.12
489.043	103.12
489.261	104.12
489.479	96.12
489.696	84.12
489.914	93.12
490.132	95.12
490.35	98.12
490.568	95.12
490.786	97.12
491.003	79.12
491.221	93.12
491.439	107.12
491.657	106.12
491.874	109.12
492.092	84.12
492.31	103.12
492.527	87.12
492.745	91.12
492.963	88.12
493.18	87.12
493.398	90.12
493.615	92.12
493.833	96.12
494.05	84.12
494.268	105.12
494.485	105.12
494.703	102.12
494.92	82.12
495.138	96.12
495.355	106.12
495.573	97.12
495.79	101.12
496.008	104.12
496.225	106.12
496.442	87.12
496.66	104.12
496.877	99.12
497.094	100.12
497.312	100.12
497.529	98.12
497.746	97.12
497.963	100.12
498.181	91.12
498.398	109.12
498.615	108.12
498.832	108.12
499.049	104.12
499.267	90.12
499.484	88.12
499.701	91.12
499.918	90.12
500.135	91.12
500.352	95.12
500.569	93.12
500.786	92.12
501.003	97.12
501.22	100.12
501.437	95.12
501.654	98.12
501.871	112.12
502.088	84.12
502.305	91.12
502.522	102.12
502.739	83.12
502.956	84.12
503.172	90.12
503.389	88.12
503.606	104.12
503.823	103.12
504.04	91.12
504.256	89.12
504.473	98.12
504.69	105.12
504.907	101.12
505.123	97.12
505.34	107.12
505.557	104.12
505.773	81.12
505.99	105.12
506.207	101.12
506.423	94.12
506.64	92.12
506.856	102.12
507.073	106.12
507.289	106.12
507.506	115.12
507.722	115.12
507.939	113.12
508.155	98.12
508.372	106.12
508.588	84.12
508.805	111.12
509.021	105.12
509.238	104.12
509.454	106.12
509.67	108.12
509.887	119.12
510.103	120.12
510.319	213.12
510.536	757.12
510.752	2359.12
510.968	689.12
511.184	173.12
511.401	120.12
511.617	120.12
511.833	98.12
512.049	106.12
512.265	89.12
512.481	87.12
512.698	88.12
512.914	109.12
513.13	104.12
513.346	87.12
513.562	90.12
513.778	104.12
513.994	98.12
514.21	104.12
514.426	120.12
514.642	149.12
514.858	145.12
515.074	188.12
515.29	518.12
515.506	1625.12
515.721	609.12
515.937	182.12
516.153	129.12
516.369	116.12
516.585	102.12
516.801	88.12
517.016	107.12
517.232	105.12
517.448	97.12
517.664	105.12
517.879	92.12
518.095	96.12
518.311	104.12
518.527	102.12
518.742	101.12
518.958	105.12
519.173	100.12
519.389	100.12
519.605	104.12
519.82	93.12
520.036	110.12
520.251	119.12
520.467	121.12
520.682	109.12
520.898	125.12
521.113	128.12
521.329	149.12
521.544	212.12
521.76	606.12
521.975	2707.12
522.19	1638.12
522.406	345.12
522.621	136.12
522.836	97.12
523.052	113.12
523.267	110.12
523.482	96.12
523.698	110.12
523.913	121.12
524.128	112.12
524.343	108.12
524.559	90.12
524.774	96.12
524.989	100.12
525.204	120.12
525.419	102.12
525.634	104.12
525.849	115.12
526.064	99.12
526.28	93.12
526.495	110.12
526.71	90.12
526.925	99.12
527.14	89.12
527.355	97.12
527.57	104.12
527.785	107.12
527.999	101.12
528.214	100.12
528.429	99.12
528.644	92.12
528.859	99.12
529.074	96.12
529.289	110.12
529.503	196.12
529.718	108.12
529.933	94.12
530.148	112.12
530.363	106.12
530.577	99.12
530.792	81.12
531.007	93.12
531.221	93.12
531.436	105.12
531.651	95.12
531.865	96.12
532.08	102.12
532.295	101.12
532.509	90.12
532.724	81.12
532.938	99.12
533.153	100.12
533.367	103.12
533.582	103.12
533.796	91.12
534.011	92.12
534.225	92.12
534.44	92.12
534.654	105.12
534.868	106.12
535.083	103.12
535.297	99.12
535.511	104.12
535.726	107.12
535.94	96.12
536.154	93.12
536.369	90.12
536.583	85.12
536.797	91.12
537.011	90.12
537.225	97.12
537.44	101.12
537.654	106.12
537.868	92.12
538.082	97.12
538.296	100.12
538.51	93.12
538.724	105.12
538.938	88.12
539.153	98.12
539.367	124.12
539.581	110.12
539.795	98.12
540.009	100.12
540.222	86.12
540.436	108.12
540.65	107.12
540.864	97.12
541.078	104.12
541.292	102.12
541.506	111.12
541.72	85.12
541.934	93.12
542.147	102.12
542.361	91.12
542.575	92.12
542.789	103.12
543.002	84.12
543.216	99.12
543.43	113.12
543.644	106.12
543.857	102.12
544.071	88.12
544.285	102.12
544.498	106.12
544.712	92.12
544.925	96.12
545.139	89.12
545.352	85.12
545.566	110.12
545.779	89.12
545.993	97.12
546.206	100.12
546.42	93.12
546.633	93.12
546.847	101.12
547.06	78.12
547.274	105.12
547.487	91.12
547.7	95.12
547.914	87.12
548.127	94.12
548.34	93.12
548.554	91.12
548.767	100.12
548.98	95.12
549.193	90.12
549.407	97.12
549.62	93.12
549.833	83.12
550.046	98.12
550.259	89.12
550.473	90.12
550.686	72.12
550.899	90.12
551.112	117.12
551.325	97.12
551.538	95.12
551.751	87.12
551.964	90.12
552.177	86.12
552.39	87.12
552.603	89.12
552.816	96.12
553.029	100.12
553.242	102.12
553.455	91.12
553.667	92.12
553.88	106.12
554.093	96.12
554.306	106.12
554.519	107.12
554.732	91.12
554.944	93.12
555.157	84.12
555.37	93.12
555.583	98.12
555.795	104.12
556.008	91.12
556.221	95.12
556.433	97.12
556.646	100.12
556.859	92.12
557.071	102.12
557.284	99.12
557.496	95.12
557.709	102.12
557.921	91.12
558.134	99.12
558.346	93.12
558.559	91.12
558.771	87.12
558.984	104.12
559.196	94.12
559.409	90.12
559.621	97.12
559.833	85.12
560.046	98.12
560.258	80.12
560.47	90.12
560.683	82.12
560.895	90.12
561.107	97.12
561.32	93.12
561.532	96.12
561.744	105.12
561.956	81.12
562.168	97.12
562.381	104.12
562.593	85.12
562.805	92.12
563.017	99.12
563.229	93.12
563.441	85.12
563.653	102.12
563.865	84.12
564.077	89.12
564.289	104.12
564.501	116.12
564.713	102.12
564.925	100.12
565.137	114.12
565.349	97.12
565.561	91.12
565.773	96.12
565.985	89.12
566.197	103.12
566.408	92.12
566.62	93.12
566.832	88.12
567.044	107.12
567.255	88.12
567.467	91.12
567.679	117.12
567.891	83.12
568.102	95.12
568.314	95.12
568.526	100.12
568.737	99.12
568.949	104.12
569.161	85.12
569.372	97.12
569.584	96.12
569.795	103.12
570.007	134.12
570.218	246.12
570.43	144.12
570.641	106.12
570.853	99.12
571.064	96.12
571.276	86.12
571.487	91.12
571.698	90.12
571.91	102.12
572.121	114.12
572.333	93.12
572.544	89.12
572.755	93.12
572.966	107.12
573.178	100.12
573.389	93.12
573.6	92.12
573.811	98.12
574.023	99.12
574.234	102.12
574.445	101.12
574.656	110.12
574.867	97.12
575.078	92.12
575.289	90.12
575.501	98.12
575.712	101.12
575.923	102.12
576.134	93.12
576.345	87.12
576.556	86.12
576.767	90.12
576.978	85.12
577.188	89.12
577.399	103.12
577.61	92.12
577.821	105.12
578.032	115.12
578.243	271.12
578.454	806.12
578.665	226.12
578.875	111.12
579.086	95.12
579.297	87.12
579.508	92.12
579.718	95.12
579.929	106.12
580.14	90.12
580.35	97.12
580.561	89.12
580.772	95.12
580.982	92.12
581.193	88.12
581.403	79.12
581.614	91.12
581.825	93.12
582.035	81.12
582.246	93.12
582.456	81.12
582.667	88.12
582.877	95.12
583.087	87.12
583.298	91.12
583.508	97.12
583.719	99.12
583.929	103.12
584.139	81.12
584.35	87.12
584.56	95.12
584.77	88.12
584.981	95.12
585.191	81.12
585.401	88.12
585.611	94.12
585.821	87.12
586.032	105.12
586.242	95.12
586.452	92.12
586.662	93.12
586.872	85.12
587.082	97.12
587.292	92.12
587.502	90.12
587.713	92.12
587.923	81.12
588.133	97.12
588.343	84.12
588.553	91.12
588.762	94.12
588.972	79.12
589.182	100.12
589.392	100.12
589.602	99.12
589.812	109.12
590.022	89.12
590.232	93.12
590.441	92.12
590.651	80.12
590.861	81.12
591.071	81.12
591.281	101.12
591.49	85.12
591.7	80.12
591.91	95.12
592.119	92.12
592.329	101.12
592.539	103.12
592.748	108.12
592.958	89.12
593.167	95.12
593.377	92.12
593.587	100.12
593.796	89.12
594.006	84.12
594.215	85.12
594.424	94.12
594.634	92.12
594.843	73.12
595.053	90.12
595.262	87.12
595.472	83.12
595.681	85.12
595.89	96.12
596.1	101.12
596.309	92.12
596.518	82.12
596.727	103.12
596.937	90.12
597.146	85.12
597.355	103.12
597.564	93.12
597.774	104.12
597.983	89.12
598.192	86.12
598.401	109.12
598.61	101.12
598.819	91.12
599.028	94.12
599.237	97.12
599.446	88.12
599.655	96.12
599.864	104.12
600.073	86.12
600.282	92.12
600.491	91.12
600.7	92.12
600.909	99.12
601.118	111.12
601.327	100.12
601.536	100.12
601.745	100.12
601.953	95.12
602.162	102.12
602.371	92.12
602.58	96.12
602.789	97.12
602.997	97.12
603.206	103.12
603.415	94.12
603.623	85.12
603.832	90.12
604.041	88.12
604.249	82.12
604.458	89.12
604.666	92.12
604.875	83.12
605.084	84.12
605.292	84.12
605.501	90.12
605.709	91.12
605.918	96.12
606.126	94.12
606.334	96.12
606.543	98.12
606.751	87.12
606.96	91.12
607.168	104.12
607.376	92.12
607.585	73.12
607.793	87.12
608.001	94.12
608.21	85.12
608.418	104.12
608.626	92.12
608.834	87.12
609.043	93.12
609.251	91.12
609.459	93.12
609.667	85.12
609.875	93.12
610.083	97.12
610.291	90.12
610.499	90.12
610.707	104.12
610.916	98.12
611.124	94.12
611.332	98.12
611.54	93.12
611.748	97.12
611.955	88.12
612.163	99.12
612.371	109.12
612.579	79.12
612.787	88.12
612.995	92.12
613.203	96.12
613.411	81.12
613.618	86.12
613.826	99.12
614.034	88.12
614.242	91.12
614.449	97.12
614.657	109.12
614.865	96.12
615.072	88.12
615.28	84.12
615.488	97.12
615.695	92.12
615.903	111.12
616.111	122.12
616.318	104.12
616.526	93.12
616.733	106.12
616.941	102.12
617.148	92.12
617.356	99.12
617.563	99.12
617.771	92.12
617.978	112.12
618.185	97.12
618.393	77.12
618.6	106.12
618.807	96.12
619.015	88.12
619.222	87.12
619.429	87.12
619.637	95.12
619.844	88.12
620.051	82.12
620.258	83.12
620.466	88.12
620.673	95.12
620.88	88.12
621.087	100.12
621.294	89.12
621.501	81.12
621.708	88.12
621.915	82.12
622.122	98.12
622.329	82.12
622.536	95.12
622.743	100.12
622.95	79.12
623.157	91.12
623.364	94.12
623.571	85.12
623.778	90.12
623.985	89.12
624.192	95.12
624.399	95.12
624.606	93.12
624.812	93.12
625.019	76.12
625.226	91.12
625.433	79.12
625.639	102.12
625.846	105.12
626.053	71.12
626.259	91.12
626.466	90.12
626.673	79.12
626.879	108.12
627.086	93.12
627.293	81.12
627.499	94.12
627.706	101.12
627.912	95.12
628.119	74.12
628.325	101.12
628.532	83.12
628.738	103.12
628.945	98.12
629.151	102.12
629.357	90.12
629.564	84.12
629.77	91.12
629.976	85.12
630.183	91.12
630.389	79.12
630.595	90.12
630.802	89.12
631.008	86.12
631.214	101.12
631.42	92.12
631.627	82.12
631.833	79.12
632.039	100.12
632.245	81.12
632.451	91.12
632.657	94.12
632.863	94.12
633.069	93.12
633.275	104.12
633.481	91.12
633.688	92.12
633.893	90.12
634.099	90.12
634.305	71.12
634.511	96.12
634.717	89.12
634.923	92.12
635.129	87.12
635.335	83.12
635.541	103.12
635.747	99.12
635.952	89.12
636.158	92.12
636.364	88.12
636.57	86.12
636.775	88.12
636.981	97.12
637.187	97.12
637.392	95.12
637.598	77.12
637.804	99.12
638.009	91.12
638.215	88.12
638.421	99.12
638.626	93.12
638.832	97.12
639.037	85.12
639.243	90.12
639.448	90.12
639.654	83.12
639.859	83.12
640.065	88.12
640.27	101.12
640.475	101.12
640.681	105.12
640.886	97.12
641.091	93.12
641.297	92.12
641.502	82.12
641.707	88.12
641.913	91.12
642.118	83.12
642.323	88.12
642.528	95.12
642.733	79.12
642.939	101.12
643.144	98.12
643.349	95.12
643.554	94.12
643.759	108.12
643.964	87.12
644.169	97.12
644.374	87.12
644.579	100.12
644.784	85.12
644.989	96.12
645.194	91.12
645.399	91.12
645.604	86.12
645.809	76.12
646.014	84.12
646.219	92.12
646.423	97.12
646.628	96.12
646.833	85.12
647.038	89.12
647.243	89.12
647.447	90.12
647.652	93.12
647.857	99.12
648.062	98.12
648.266	92.12
648.471	87.12
648.676	91.12
648.88	104.12
649.085	92.12
649.289	92.12
649.494	88.12
649.698	137.12
649.903	112.12
650.107	98.12
650.312	101.12
650.516	93.12
650.721	83.12
650.925	102.12
651.13	87.12
651.334	102.12
651.539	89.12
651.743	92.12
651.947	93.12
652.152	90.12
652.356	94.12
652.56	93.12
652.764	83.12
652.969	91.12
653.173	78.12
653.377	85.12
653.581	86.12
653.785	91.12
653.99	87.12
654.194	85.12
654.398	66.12
654.602	80.12
654.806	102.12
655.01	113.12
655.214	109.12
655.418	87.12
655.622	97.12
655.826	92.12
656.03	92.12
656.234	102.12
656.438	104.12
656.642	96.12
656.846	89.12
657.049	87.12
657.253	95.12
657.457	81.12
657.661	92.12
657.865	89.12
658.068	81.12
658.272	85.12
658.476	79.12
658.68	79.12
658.883	84.12
659.087	85.12
659.291	94.12
659.494	80.12
659.698	74.12
659.901	99.12
660.105	79.12
660.309	89.12
660.512	98.12
660.716	95.12
660.919	91.12
661.123	87.12
661.326	98.12
661.53	99.12
661.733	78.12
661.936	83.12
662.14	92.12
662.343	85.12
662.546	98.12
662.75	81.12
662.953	91.12
663.156	84.12
663.36	92.12
663.563	99.12
663.766	91.12
663.969	88.12
664.173	85.12
664.376	88.12
664.579	81.12
664.782	81.12
664.985	92.12
665.188	85.12
665.391	97.12
665.594	81.12
665.797	80.12
666	81.12
666.203	84.12
666.406	68.12
666.609	88.12
666.812	87.12
667.015	90.12
667.218	110.12
667.421	93.12
667.624	70.12
667.827	89.12
668.03	81.12
668.232	91.12
668.435	93.12
668.638	86.12
668.841	96.12
669.043	75.12
669.246	99.12
669.449	84.12
669.651	88.12
669.854	87.12
670.057	81.12
670.259	99.12
670.462	92.12
670.665	90.12
670.867	87.12
671.07	92.12
671.272	77.12
671.475	103.12
671.677	83.12
671.88	80.12
672.082	83.12
672.284	88.12
672.487	92.12
672.689	75.12
672.892	83.12
