Data from Uncirc_2005_H10_HRD10591_00095.txt Node
Date: Wed Jan 03 10:28:43 EST 2024
User: Yrep
Spectrometer: HR+D1059
Trigger mode: 1
Integration Time (sec): 1.000000E-1
Scans to average: 1
Electric dark correction enabled: true
Nonlinearity correction enabled: false
Boxcar width: 0
XAxis mode: Wavelengths
Number of Pixels in Spectrum: 2048
>>>>>Begin Spectral Data<<<<<
223.165	-20.38
223.4	-20.38
223.635	-20.38
223.869	-19.38
224.104	-12.38
224.338	-20.38
224.573	-19.38
224.808	-6.38
225.042	-8.38
225.277	-3.38
225.511	-2.38
225.746	0.62
225.98	10.62
226.215	15.62
226.449	11.62
226.683	30.62
226.918	32.62
227.152	10.62
227.387	45.62
227.621	37.62
227.856	29.62
228.09	34.62
228.324	59.62
228.559	70.62
228.793	75.62
229.027	62.62
229.262	69.62
229.496	77.62
229.73	89.62
229.964	72.62
230.199	80.62
230.433	77.62
230.667	80.62
230.901	72.62
231.136	73.62
231.37	78.62
231.604	83.62
231.838	79.62
232.072	87.62
232.306	85.62
232.541	87.62
232.775	82.62
233.009	92.62
233.243	67.62
233.477	85.62
233.711	83.62
233.945	86.62
234.179	83.62
234.413	92.62
234.647	81.62
234.881	88.62
235.115	87.62
235.349	95.62
235.583	73.62
235.817	67.62
236.051	81.62
236.285	76.62
236.519	89.62
236.753	80.62
236.987	84.62
237.221	77.62
237.455	95.62
237.689	71.62
237.922	75.62
238.156	82.62
238.39	82.62
238.624	83.62
238.858	88.62
239.091	82.62
239.325	74.62
239.559	82.62
239.793	69.62
240.027	89.62
240.26	85.62
240.494	79.62
240.728	71.62
240.961	77.62
241.195	80.62
241.429	80.62
241.662	74.62
241.896	66.62
242.13	77.62
242.363	81.62
242.597	80.62
242.83	82.62
243.064	68.62
243.298	81.62
243.531	77.62
243.765	61.62
243.998	81.62
244.232	69.62
244.465	86.62
244.699	86.62
244.932	75.62
245.166	77.62
245.399	79.62
245.633	80.62
245.866	76.62
246.099	80.62
246.333	76.62
246.566	72.62
246.8	84.62
247.033	79.62
247.266	85.62
247.5	82.62
247.733	68.62
247.966	75.62
248.2	82.62
248.433	76.62
248.666	75.62
248.899	75.62
249.133	80.62
249.366	77.62
249.599	84.62
249.832	75.62
250.066	81.62
250.299	80.62
250.532	87.62
250.765	79.62
250.998	79.62
251.231	81.62
251.465	89.62
251.698	89.62
251.931	87.62
252.164	98.62
252.397	95.62
252.63	73.62
252.863	87.62
253.096	92.62
253.329	95.62
253.562	74.62
253.795	84.62
254.028	73.62
254.261	69.62
254.494	78.62
254.727	80.62
254.96	83.62
255.193	87.62
255.426	76.62
255.659	70.62
255.892	73.62
256.124	83.62
256.357	70.62
256.59	80.62
256.823	81.62
257.056	86.62
257.289	76.62
257.521	76.62
257.754	73.62
257.987	83.62
258.22	86.62
258.452	78.62
258.685	71.62
258.918	86.62
259.151	80.62
259.383	87.62
259.616	91.62
259.849	79.62
260.081	75.62
260.314	66.62
260.547	92.62
260.779	83.62
261.012	75.62
261.244	87.62
261.477	80.62
261.71	91.62
261.942	101.62
262.175	98.62
262.407	88.62
262.64	74.62
262.872	73.62
263.105	86.62
263.337	64.62
263.57	95.62
263.802	81.62
264.035	85.62
264.267	76.62
264.499	77.62
264.732	87.62
264.964	80.62
265.197	79.62
265.429	64.62
265.661	84.62
265.894	81.62
266.126	91.62
266.358	76.62
266.591	89.62
266.823	81.62
267.055	67.62
267.287	74.62
267.52	88.62
267.752	89.62
267.984	87.62
268.216	95.62
268.448	104.62
268.681	73.62
268.913	76.62
269.145	81.62
269.377	87.62
269.609	81.62
269.841	88.62
270.073	78.62
270.306	89.62
270.538	97.62
270.77	100.62
271.002	94.62
271.234	70.62
271.466	90.62
271.698	86.62
271.93	88.62
272.162	91.62
272.394	100.62
272.626	86.62
272.858	86.62
273.09	98.62
273.322	84.62
273.553	92.62
273.785	87.62
274.017	87.62
274.249	84.62
274.481	84.62
274.713	81.62
274.945	91.62
275.176	95.62
275.408	83.62
275.64	86.62
275.872	87.62
276.104	89.62
276.335	80.62
276.567	78.62
276.799	97.62
277.031	98.62
277.262	101.62
277.494	84.62
277.726	107.62
277.957	80.62
278.189	85.62
278.421	94.62
278.652	75.62
278.884	89.62
279.115	97.62
279.347	98.62
279.579	85.62
279.81	102.62
280.042	86.62
280.273	100.62
280.505	83.62
280.736	87.62
280.968	79.62
281.199	89.62
281.431	85.62
281.662	89.62
281.894	94.62
282.125	91.62
282.356	89.62
282.588	125.62
282.819	106.62
283.051	86.62
283.282	89.62
283.513	93.62
283.745	73.62
283.976	95.62
284.207	74.62
284.439	80.62
284.67	95.62
284.901	96.62
285.132	80.62
285.364	86.62
285.595	83.62
285.826	86.62
286.057	86.62
286.288	91.62
286.52	89.62
286.751	82.62
286.982	89.62
287.213	78.62
287.444	77.62
287.675	87.62
287.906	77.62
288.138	94.62
288.369	92.62
288.6	94.62
288.831	80.62
289.062	100.62
289.293	89.62
289.524	79.62
289.755	76.62
289.986	82.62
290.217	86.62
290.448	81.62
290.679	94.62
290.91	96.62
291.141	89.62
291.371	98.62
291.602	82.62
291.833	98.62
292.064	84.62
292.295	80.62
292.526	82.62
292.757	83.62
292.987	81.62
293.218	87.62
293.449	95.62
293.68	85.62
293.91	78.62
294.141	86.62
294.372	85.62
294.603	86.62
294.833	83.62
295.064	80.62
295.295	103.62
295.525	93.62
295.756	98.62
295.987	117.62
296.217	115.62
296.448	120.62
296.679	102.62
296.909	89.62
297.14	89.62
297.37	87.62
297.601	87.62
297.831	89.62
298.062	89.62
298.292	84.62
298.523	92.62
298.753	91.62
298.984	94.62
299.214	87.62
299.445	94.62
299.675	92.62
299.905	93.62
300.136	94.62
300.366	73.62
300.597	87.62
300.827	76.62
301.057	95.62
301.288	97.62
301.518	108.62
301.748	94.62
301.979	104.62
302.209	105.62
302.439	99.62
302.669	93.62
302.9	84.62
303.13	90.62
303.36	91.62
303.59	108.62
303.82	101.62
304.051	87.62
304.281	80.62
304.511	86.62
304.741	87.62
304.971	93.62
305.201	79.62
305.431	104.62
305.661	92.62
305.891	99.62
306.121	93.62
306.352	109.62
306.582	95.62
306.812	102.62
307.042	106.62
307.272	98.62
307.502	84.62
307.731	93.62
307.961	93.62
308.191	89.62
308.421	92.62
308.651	80.62
308.881	87.62
309.111	101.62
309.341	101.62
309.571	93.62
309.8	102.62
310.03	88.62
310.26	80.62
310.49	98.62
310.72	102.62
310.949	99.62
311.179	89.62
311.409	99.62
311.639	88.62
311.868	89.62
312.098	96.62
312.328	94.62
312.557	94.62
312.787	103.62
313.017	96.62
313.246	97.62
313.476	96.62
313.706	93.62
313.935	78.62
314.165	96.62
314.394	99.62
314.624	92.62
314.853	97.62
315.083	97.62
315.312	86.62
315.542	91.62
315.771	98.62
316.001	84.62
316.23	80.62
316.46	90.62
316.689	86.62
316.919	79.62
317.148	94.62
317.377	105.62
317.607	97.62
317.836	92.62
318.065	89.62
318.295	88.62
318.524	87.62
318.753	84.62
318.983	94.62
319.212	99.62
319.441	100.62
319.67	96.62
319.9	87.62
320.129	91.62
320.358	85.62
320.587	88.62
320.816	91.62
321.046	99.62
321.275	93.62
321.504	108.62
321.733	100.62
321.962	93.62
322.191	95.62
322.42	90.62
322.649	96.62
322.878	113.62
323.108	125.62
323.337	119.62
323.566	121.62
323.795	141.62
324.024	196.62
324.253	377.62
324.482	768.62
324.71	1595.62
324.939	2055.62
325.168	765.62
325.397	223.62
325.626	145.62
325.855	124.62
326.084	102.62
326.313	124.62
326.542	159.62
326.77	207.62
326.999	423.62
327.228	902.62
327.457	1650.62
327.686	1262.62
327.914	331.62
328.143	178.62
328.372	137.62
328.6	129.62
328.829	112.62
329.058	116.62
329.287	97.62
329.515	110.62
329.744	96.62
329.972	91.62
330.201	99.62
330.43	107.62
330.658	103.62
330.887	111.62
331.115	98.62
331.344	102.62
331.572	103.62
331.801	105.62
332.03	86.62
332.258	103.62
332.486	84.62
332.715	97.62
332.943	95.62
333.172	100.62
333.4	92.62
333.629	110.62
333.857	115.62
334.085	95.62
334.314	93.62
334.542	89.62
334.771	85.62
334.999	75.62
335.227	90.62
335.455	92.62
335.684	93.62
335.912	96.62
336.14	91.62
336.369	92.62
336.597	90.62
336.825	102.62
337.053	93.62
337.281	92.62
337.51	96.62
337.738	102.62
337.966	85.62
338.194	94.62
338.422	107.62
338.65	88.62
338.878	96.62
339.106	86.62
339.334	109.62
339.562	105.62
339.79	99.62
340.018	92.62
340.246	93.62
340.474	81.62
340.702	98.62
340.93	88.62
341.158	98.62
341.386	118.62
341.614	103.62
341.842	90.62
342.07	90.62
342.298	90.62
342.526	84.62
342.754	86.62
342.981	88.62
343.209	96.62
343.437	97.62
343.665	103.62
343.893	94.62
344.12	88.62
344.348	100.62
344.576	95.62
344.804	97.62
345.031	90.62
345.259	86.62
345.487	77.62
345.714	102.62
345.942	92.62
346.17	99.62
346.397	96.62
346.625	105.62
346.853	105.62
347.08	87.62
347.308	83.62
347.535	104.62
347.763	100.62
347.99	99.62
348.218	92.62
348.445	92.62
348.673	103.62
348.9	93.62
349.128	102.62
349.355	93.62
349.583	96.62
349.81	95.62
350.037	87.62
350.265	89.62
350.492	93.62
350.72	88.62
350.947	109.62
351.174	110.62
351.402	109.62
351.629	100.62
351.856	111.62
352.083	95.62
352.311	98.62
352.538	108.62
352.765	112.62
352.992	110.62
353.22	107.62
353.447	114.62
353.674	106.62
353.901	102.62
354.128	96.62
354.355	92.62
354.583	99.62
354.81	98.62
355.037	102.62
355.264	102.62
355.491	103.62
355.718	91.62
355.945	94.62
356.172	101.62
356.399	100.62
356.626	98.62
356.853	89.62
357.08	100.62
357.307	88.62
357.534	94.62
357.761	100.62
357.988	105.62
358.215	97.62
358.441	83.62
358.668	96.62
358.895	89.62
359.122	88.62
359.349	90.62
359.576	87.62
359.802	87.62
360.029	97.62
360.256	89.62
360.483	90.62
360.709	86.62
360.936	103.62
361.163	93.62
361.39	80.62
361.616	89.62
361.843	94.62
362.07	76.62
362.296	93.62
362.523	99.62
362.749	88.62
362.976	106.62
363.203	104.62
363.429	88.62
363.656	108.62
363.882	89.62
364.109	84.62
364.335	83.62
364.562	88.62
364.788	98.62
365.015	103.62
365.241	95.62
365.468	88.62
365.694	87.62
365.92	99.62
366.147	101.62
366.373	102.62
366.599	89.62
366.826	94.62
367.052	80.62
367.278	93.62
367.505	83.62
367.731	91.62
367.957	66.62
368.184	101.62
368.41	110.62
368.636	107.62
368.862	108.62
369.089	109.62
369.315	107.62
369.541	88.62
369.767	78.62
369.993	82.62
370.219	87.62
370.445	84.62
370.672	80.62
370.898	79.62
371.124	89.62
371.35	89.62
371.576	91.62
371.802	85.62
372.028	84.62
372.254	93.62
372.48	80.62
372.706	93.62
372.932	83.62
373.158	87.62
373.384	100.62
373.61	96.62
373.835	88.62
374.061	99.62
374.287	90.62
374.513	70.62
374.739	100.62
374.965	84.62
375.191	95.62
375.416	85.62
375.642	86.62
375.868	88.62
376.094	83.62
376.319	86.62
376.545	94.62
376.771	99.62
376.997	90.62
377.222	100.62
377.448	96.62
377.674	99.62
377.899	96.62
378.125	87.62
378.35	90.62
378.576	79.62
378.802	80.62
379.027	89.62
379.253	85.62
379.478	90.62
379.704	93.62
379.929	83.62
380.155	95.62
380.38	93.62
380.606	93.62
380.831	86.62
381.057	115.62
381.282	82.62
381.507	83.62
381.733	94.62
381.958	82.62
382.184	104.62
382.409	99.62
382.634	85.62
382.86	100.62
383.085	92.62
383.31	100.62
383.535	96.62
383.761	104.62
383.986	105.62
384.211	93.62
384.436	104.62
384.662	94.62
384.887	102.62
385.112	100.62
385.337	89.62
385.562	109.62
385.787	113.62
386.013	120.62
386.238	111.62
386.463	108.62
386.688	112.62
386.913	109.62
387.138	102.62
387.363	100.62
387.588	100.62
387.813	101.62
388.038	108.62
388.263	112.62
388.488	100.62
388.713	96.62
388.938	95.62
389.163	95.62
389.387	96.62
389.612	87.62
389.837	81.62
390.062	99.62
390.287	100.62
390.512	103.62
390.736	79.62
390.961	91.62
391.186	91.62
391.411	90.62
391.636	79.62
391.86	71.62
392.085	85.62
392.31	87.62
392.534	75.62
392.759	83.62
392.984	95.62
393.208	84.62
393.433	81.62
393.658	86.62
393.882	87.62
394.107	87.62
394.331	78.62
394.556	86.62
394.78	96.62
395.005	110.62
395.229	75.62
395.454	84.62
395.678	84.62
395.903	85.62
396.127	95.62
396.352	97.62
396.576	80.62
396.801	78.62
397.025	86.62
397.249	87.62
397.474	87.62
397.698	91.62
397.922	100.62
398.147	95.62
398.371	93.62
398.595	71.62
398.82	96.62
399.044	85.62
399.268	100.62
399.492	86.62
399.717	99.62
399.941	81.62
400.165	106.62
400.389	95.62
400.613	77.62
400.837	85.62
401.062	97.62
401.286	86.62
401.51	81.62
401.734	97.62
401.958	107.62
402.182	124.62
402.406	135.62
402.63	113.62
402.854	87.62
403.078	86.62
403.302	85.62
403.526	96.62
403.75	80.62
403.974	76.62
404.198	95.62
404.422	98.62
404.645	95.62
404.869	91.62
405.093	89.62
405.317	107.62
405.541	86.62
405.765	90.62
405.988	103.62
406.212	160.62
406.436	199.62
406.66	124.62
406.883	103.62
407.107	89.62
407.331	107.62
407.555	91.62
407.778	94.62
408.002	93.62
408.226	85.62
408.449	92.62
408.673	93.62
408.896	93.62
409.12	102.62
409.344	93.62
409.567	86.62
409.791	84.62
410.014	108.62
410.238	92.62
410.461	104.62
410.685	97.62
410.908	90.62
411.132	99.62
411.355	100.62
411.578	87.62
411.802	70.62
412.025	102.62
412.249	79.62
412.472	81.62
412.695	93.62
412.919	88.62
413.142	91.62
413.365	85.62
413.589	80.62
413.812	83.62
414.035	84.62
414.258	94.62
414.482	94.62
414.705	83.62
414.928	86.62
415.151	85.62
415.374	109.62
415.597	98.62
415.821	80.62
416.044	103.62
416.267	82.62
416.49	78.62
416.713	89.62
416.936	90.62
417.159	83.62
417.382	93.62
417.605	95.62
417.828	83.62
418.051	88.62
418.274	63.62
418.497	83.62
418.72	81.62
418.943	102.62
419.166	82.62
419.389	93.62
419.611	101.62
419.834	85.62
420.057	92.62
420.28	94.62
420.503	88.62
420.726	100.62
420.948	88.62
421.171	89.62
421.394	93.62
421.617	94.62
421.839	84.62
422.062	89.62
422.285	90.62
422.507	89.62
422.73	87.62
422.953	98.62
423.175	101.62
423.398	78.62
423.621	95.62
423.843	93.62
424.066	84.62
424.288	80.62
424.511	82.62
424.733	88.62
424.956	107.62
425.178	93.62
425.401	75.62
425.623	76.62
425.846	88.62
426.068	87.62
426.291	92.62
426.513	93.62
426.735	89.62
426.958	96.62
427.18	112.62
427.402	137.62
427.625	147.62
427.847	118.62
428.069	93.62
428.292	104.62
428.514	103.62
428.736	80.62
428.958	80.62
429.181	67.62
429.403	85.62
429.625	79.62
429.847	92.62
430.069	95.62
430.292	93.62
430.514	95.62
430.736	96.62
430.958	100.62
431.18	82.62
431.402	94.62
431.624	101.62
431.846	86.62
432.068	79.62
432.29	92.62
432.512	85.62
432.734	85.62
432.956	92.62
433.178	100.62
433.4	90.62
433.622	81.62
433.844	88.62
434.066	87.62
434.287	84.62
434.509	91.62
434.731	96.62
434.953	79.62
435.175	97.62
435.397	97.62
435.618	98.62
435.84	95.62
436.062	112.62
436.284	115.62
436.505	103.62
436.727	104.62
436.949	96.62
437.17	104.62
437.392	83.62
437.614	103.62
437.835	102.62
438.057	109.62
438.278	91.62
438.5	102.62
438.721	111.62
438.943	100.62
439.165	83.62
439.386	80.62
439.608	85.62
439.829	102.62
440.05	103.62
440.272	129.62
440.493	95.62
440.715	93.62
440.936	94.62
441.158	96.62
441.379	76.62
441.6	87.62
441.822	98.62
442.043	101.62
442.264	95.62
442.486	93.62
442.707	99.62
442.928	99.62
443.149	131.62
443.371	126.62
443.592	86.62
443.813	110.62
444.034	92.62
444.255	94.62
444.476	96.62
444.698	91.62
444.919	80.62
445.14	128.62
445.361	115.62
445.582	117.62
445.803	118.62
446.024	127.62
446.245	110.62
446.466	110.62
446.687	97.62
446.908	95.62
447.129	100.62
447.35	90.62
447.571	82.62
447.792	82.62
448.013	93.62
448.234	102.62
448.455	95.62
448.675	113.62
448.896	116.62
449.117	97.62
449.338	89.62
449.559	121.62
449.779	126.62
450	102.62
450.221	98.62
450.442	87.62
450.662	92.62
450.883	111.62
451.104	101.62
451.324	85.62
451.545	90.62
451.766	77.62
451.986	80.62
452.207	85.62
452.428	99.62
452.648	104.62
452.869	103.62
453.089	101.62
453.31	130.62
453.53	101.62
453.751	81.62
453.971	93.62
454.192	92.62
454.412	87.62
454.633	92.62
454.853	85.62
455.073	100.62
455.294	90.62
455.514	105.62
455.734	78.62
455.955	78.62
456.175	80.62
456.395	82.62
456.616	85.62
456.836	83.62
457.056	89.62
457.276	90.62
457.497	86.62
457.717	92.62
457.937	89.62
458.157	90.62
458.377	95.62
458.598	113.62
458.818	136.62
459.038	131.62
459.258	113.62
459.478	82.62
459.698	72.62
459.918	83.62
460.138	96.62
460.358	73.62
460.578	85.62
460.798	87.62
461.018	86.62
461.238	85.62
461.458	85.62
461.678	86.62
461.898	94.62
462.118	97.62
462.338	75.62
462.558	86.62
462.777	102.62
462.997	99.62
463.217	97.62
463.437	83.62
463.657	91.62
463.876	86.62
464.096	85.62
464.316	80.62
464.536	90.62
464.755	96.62
464.975	110.62
465.195	148.62
465.414	145.62
465.634	97.62
465.854	92.62
466.073	88.62
466.293	93.62
466.512	75.62
466.732	91.62
466.951	92.62
467.171	81.62
467.391	95.62
467.61	97.62
467.829	102.62
468.049	93.62
468.268	88.62
468.488	94.62
468.707	92.62
468.927	99.62
469.146	96.62
469.365	81.62
469.585	84.62
469.804	117.62
470.023	92.62
470.243	88.62
470.462	119.62
470.681	107.62
470.901	84.62
471.12	78.62
471.339	92.62
471.558	96.62
471.777	95.62
471.997	78.62
472.216	95.62
472.435	106.62
472.654	80.62
472.873	69.62
473.092	83.62
473.311	89.62
473.53	83.62
473.749	91.62
473.968	92.62
474.187	92.62
474.406	100.62
474.625	85.62
474.844	77.62
475.063	92.62
475.282	86.62
475.501	85.62
475.72	77.62
475.939	90.62
476.158	96.62
476.377	77.62
476.596	87.62
476.814	90.62
477.033	94.62
477.252	77.62
477.471	100.62
477.69	85.62
477.908	90.62
478.127	91.62
478.346	79.62
478.564	75.62
478.783	108.62
479.002	87.62
479.22	97.62
479.439	101.62
479.658	93.62
479.876	90.62
480.095	87.62
480.313	102.62
480.532	99.62
480.751	101.62
480.969	86.62
481.188	78.62
481.406	97.62
481.624	85.62
481.843	82.62
482.061	92.62
482.28	112.62
482.498	86.62
482.717	89.62
482.935	93.62
483.153	110.62
483.372	84.62
483.59	78.62
483.808	79.62
484.027	80.62
484.245	98.62
484.463	83.62
484.681	93.62
484.9	90.62
485.118	103.62
485.336	102.62
485.554	90.62
485.772	100.62
485.99	88.62
486.209	108.62
486.427	101.62
486.645	95.62
486.863	103.62
487.081	97.62
487.299	95.62
487.517	97.62
487.735	98.62
487.953	104.62
488.171	97.62
488.389	94.62
488.607	87.62
488.825	96.62
489.043	93.62
489.261	93.62
489.479	92.62
489.696	96.62
489.914	99.62
490.132	101.62
490.35	83.62
490.568	80.62
490.786	93.62
491.003	99.62
491.221	88.62
491.439	96.62
491.657	92.62
491.874	107.62
492.092	88.62
492.31	89.62
492.527	89.62
492.745	93.62
492.963	104.62
493.18	88.62
493.398	97.62
493.615	103.62
493.833	87.62
494.05	83.62
494.268	84.62
494.485	81.62
494.703	86.62
494.92	86.62
495.138	87.62
495.355	81.62
495.573	99.62
495.79	80.62
496.008	77.62
496.225	73.62
496.442	88.62
496.66	91.62
496.877	89.62
497.094	83.62
497.312	94.62
497.529	92.62
497.746	81.62
497.963	91.62
498.181	100.62
498.398	89.62
498.615	92.62
498.832	95.62
499.049	96.62
499.267	84.62
499.484	86.62
499.701	96.62
499.918	88.62
500.135	77.62
500.352	90.62
500.569	91.62
500.786	92.62
501.003	88.62
501.22	95.62
501.437	103.62
501.654	87.62
501.871	99.62
502.088	94.62
502.305	96.62
502.522	87.62
502.739	104.62
502.956	93.62
503.172	81.62
503.389	85.62
503.606	96.62
503.823	78.62
504.04	91.62
504.256	89.62
504.473	95.62
504.69	92.62
504.907	88.62
505.123	76.62
505.34	71.62
505.557	83.62
505.773	83.62
505.99	89.62
506.207	89.62
506.423	95.62
506.64	93.62
506.856	94.62
507.073	81.62
507.289	82.62
507.506	96.62
507.722	106.62
507.939	106.62
508.155	103.62
508.372	101.62
508.588	101.62
508.805	87.62
509.021	103.62
509.238	88.62
509.454	104.62
509.67	109.62
509.887	101.62
510.103	124.62
510.319	203.62
510.536	645.62
510.752	2019.62
510.968	601.62
511.184	147.62
511.401	114.62
511.617	100.62
511.833	86.62
512.049	75.62
512.265	97.62
512.481	96.62
512.698	84.62
512.914	94.62
513.13	82.62
513.346	91.62
513.562	104.62
513.778	98.62
513.994	104.62
514.21	102.62
514.426	110.62
514.642	125.62
514.858	113.62
515.074	164.62
515.29	390.62
515.506	1206.62
515.721	451.62
515.937	129.62
516.153	95.62
516.369	92.62
516.585	92.62
516.801	91.62
517.016	95.62
517.232	95.62
517.448	99.62
517.664	97.62
517.879	91.62
518.095	85.62
518.311	93.62
518.527	82.62
518.742	102.62
518.958	97.62
519.173	93.62
519.389	102.62
519.605	100.62
519.82	98.62
520.036	99.62
520.251	109.62
520.467	110.62
520.682	103.62
520.898	106.62
521.113	102.62
521.329	130.62
521.544	185.62
521.76	473.62
521.975	1965.62
522.19	1188.62
522.406	270.62
522.621	119.62
522.836	107.62
523.052	110.62
523.267	100.62
523.482	97.62
523.698	125.62
523.913	128.62
524.128	96.62
524.343	84.62
524.559	92.62
524.774	83.62
524.989	95.62
525.204	96.62
525.419	93.62
525.634	101.62
525.849	91.62
526.064	97.62
526.28	98.62
526.495	92.62
526.71	101.62
526.925	107.62
527.14	85.62
527.355	95.62
527.57	95.62
527.785	85.62
527.999	87.62
528.214	87.62
528.429	83.62
528.644	96.62
528.859	93.62
529.074	100.62
529.289	118.62
529.503	145.62
529.718	96.62
529.933	104.62
530.148	101.62
530.363	101.62
530.577	87.62
530.792	97.62
531.007	95.62
531.221	80.62
531.436	86.62
531.651	92.62
531.865	91.62
532.08	79.62
532.295	93.62
532.509	98.62
532.724	93.62
532.938	89.62
533.153	93.62
533.367	109.62
533.582	96.62
533.796	93.62
534.011	77.62
534.225	88.62
534.44	93.62
534.654	95.62
534.868	97.62
535.083	84.62
535.297	95.62
535.511	89.62
535.726	83.62
535.94	111.62
536.154	87.62
536.369	83.62
536.583	100.62
536.797	79.62
537.011	87.62
537.225	87.62
537.44	84.62
537.654	88.62
537.868	96.62
538.082	100.62
538.296	91.62
538.51	91.62
538.724	98.62
538.938	95.62
539.153	86.62
539.367	97.62
539.581	85.62
539.795	98.62
540.009	87.62
540.222	94.62
540.436	93.62
540.65	79.62
540.864	82.62
541.078	105.62
541.292	84.62
541.506	86.62
541.72	85.62
541.934	96.62
542.147	94.62
542.361	92.62
542.575	101.62
542.789	95.62
543.002	85.62
543.216	95.62
543.43	98.62
543.644	88.62
543.857	88.62
544.071	94.62
544.285	97.62
544.498	85.62
544.712	84.62
544.925	90.62
545.139	89.62
545.352	87.62
545.566	75.62
545.779	98.62
545.993	100.62
546.206	86.62
546.42	93.62
546.633	96.62
546.847	104.62
547.06	111.62
547.274	86.62
547.487	82.62
547.7	87.62
547.914	103.62
548.127	79.62
548.34	100.62
548.554	102.62
548.767	76.62
548.98	103.62
549.193	87.62
549.407	86.62
549.62	86.62
549.833	84.62
550.046	86.62
550.259	83.62
550.473	99.62
550.686	91.62
550.899	98.62
551.112	96.62
551.325	77.62
551.538	89.62
551.751	84.62
551.964	88.62
552.177	104.62
552.39	84.62
552.603	92.62
552.816	73.62
553.029	88.62
553.242	83.62
553.455	75.62
553.667	105.62
553.88	90.62
554.093	85.62
554.306	86.62
554.519	88.62
554.732	87.62
554.944	101.62
555.157	102.62
555.37	98.62
555.583	80.62
555.795	80.62
556.008	95.62
556.221	111.62
556.433	87.62
556.646	104.62
556.859	78.62
557.071	91.62
557.284	82.62
557.496	85.62
557.709	80.62
557.921	89.62
558.134	83.62
558.346	89.62
558.559	96.62
558.771	110.62
558.984	85.62
559.196	71.62
559.409	92.62
559.621	101.62
559.833	93.62
560.046	93.62
560.258	77.62
560.47	85.62
560.683	92.62
560.895	88.62
561.107	92.62
561.32	91.62
561.532	94.62
561.744	111.62
561.956	88.62
562.168	103.62
562.381	104.62
562.593	90.62
562.805	93.62
563.017	95.62
563.229	93.62
563.441	82.62
563.653	98.62
563.865	88.62
564.077	95.62
564.289	95.62
564.501	96.62
564.713	89.62
564.925	104.62
565.137	108.62
565.349	93.62
565.561	97.62
565.773	80.62
565.985	85.62
566.197	93.62
566.408	82.62
566.62	90.62
566.832	77.62
567.044	87.62
567.255	92.62
567.467	81.62
567.679	90.62
567.891	94.62
568.102	80.62
568.314	90.62
568.526	101.62
568.737	81.62
568.949	82.62
569.161	88.62
569.372	89.62
569.584	110.62
569.795	85.62
570.007	112.62
570.218	216.62
570.43	142.62
570.641	96.62
570.853	95.62
571.064	84.62
571.276	91.62
571.487	81.62
571.698	82.62
571.91	75.62
572.121	85.62
572.333	100.62
572.544	100.62
572.755	87.62
572.966	90.62
573.178	79.62
573.389	83.62
573.6	87.62
573.811	101.62
574.023	93.62
574.234	86.62
574.445	102.62
574.656	86.62
574.867	88.62
575.078	90.62
575.289	79.62
575.501	88.62
575.712	77.62
575.923	81.62
576.134	96.62
576.345	96.62
576.556	89.62
576.767	97.62
576.978	85.62
577.188	77.62
577.399	87.62
577.61	83.62
577.821	90.62
578.032	117.62
578.243	266.62
578.454	686.62
578.665	207.62
578.875	94.62
579.086	97.62
579.297	95.62
579.508	103.62
579.718	101.62
579.929	78.62
580.14	99.62
580.35	81.62
580.561	84.62
580.772	80.62
580.982	87.62
581.193	87.62
581.403	85.62
581.614	87.62
581.825	84.62
582.035	86.62
582.246	95.62
582.456	81.62
582.667	85.62
582.877	93.62
583.087	66.62
583.298	93.62
583.508	81.62
583.719	79.62
583.929	79.62
584.139	96.62
584.35	87.62
584.56	92.62
584.77	88.62
584.981	73.62
585.191	86.62
585.401	91.62
585.611	83.62
585.821	88.62
586.032	94.62
586.242	78.62
586.452	79.62
586.662	91.62
586.872	76.62
587.082	86.62
587.292	85.62
587.502	100.62
587.713	94.62
587.923	83.62
588.133	83.62
588.343	84.62
588.553	91.62
588.762	87.62
588.972	94.62
589.182	94.62
589.392	91.62
589.602	95.62
589.812	94.62
590.022	96.62
590.232	80.62
590.441	83.62
590.651	77.62
590.861	83.62
591.071	83.62
591.281	92.62
591.49	85.62
591.7	83.62
591.91	98.62
592.119	90.62
592.329	77.62
592.539	103.62
592.748	83.62
592.958	86.62
593.167	88.62
593.377	82.62
593.587	89.62
593.796	96.62
594.006	92.62
594.215	85.62
594.424	81.62
594.634	94.62
594.843	88.62
595.053	94.62
595.262	89.62
595.472	79.62
595.681	91.62
595.89	86.62
596.1	95.62
596.309	80.62
596.518	90.62
596.727	88.62
596.937	96.62
597.146	72.62
597.355	89.62
597.564	89.62
597.774	106.62
597.983	87.62
598.192	88.62
598.401	97.62
598.61	109.62
598.819	81.62
599.028	79.62
599.237	79.62
599.446	86.62
599.655	103.62
599.864	94.62
600.073	89.62
600.282	84.62
600.491	93.62
600.7	91.62
600.909	95.62
601.118	89.62
601.327	88.62
601.536	86.62
601.745	93.62
601.953	82.62
602.162	101.62
602.371	83.62
602.58	97.62
602.789	99.62
602.997	102.62
603.206	85.62
603.415	76.62
603.623	74.62
603.832	91.62
604.041	83.62
604.249	94.62
604.458	75.62
604.666	86.62
604.875	82.62
605.084	88.62
605.292	75.62
605.501	96.62
605.709	76.62
605.918	75.62
606.126	88.62
606.334	90.62
606.543	94.62
606.751	88.62
606.96	83.62
607.168	88.62
607.376	79.62
607.585	97.62
607.793	92.62
608.001	81.62
608.21	93.62
608.418	98.62
608.626	82.62
608.834	81.62
609.043	86.62
609.251	87.62
609.459	93.62
609.667	90.62
609.875	83.62
610.083	91.62
610.291	85.62
610.499	80.62
610.707	91.62
610.916	75.62
611.124	88.62
611.332	79.62
611.54	88.62
611.748	92.62
611.955	83.62
612.163	86.62
612.371	86.62
612.579	93.62
612.787	87.62
612.995	96.62
613.203	93.62
613.411	82.62
613.618	88.62
613.826	88.62
614.034	88.62
614.242	87.62
614.449	90.62
614.657	95.62
614.865	103.62
615.072	92.62
615.28	82.62
615.488	93.62
615.695	99.62
615.903	93.62
616.111	94.62
616.318	96.62
616.526	77.62
616.733	86.62
616.941	80.62
617.148	97.62
617.356	85.62
617.563	80.62
617.771	113.62
617.978	77.62
618.185	70.62
618.393	92.62
618.6	83.62
618.807	87.62
619.015	87.62
619.222	88.62
619.429	93.62
619.637	93.62
619.844	78.62
620.051	89.62
620.258	86.62
620.466	93.62
620.673	91.62
620.88	81.62
621.087	80.62
621.294	71.62
621.501	99.62
621.708	85.62
621.915	88.62
622.122	92.62
622.329	89.62
622.536	77.62
622.743	77.62
622.95	97.62
623.157	93.62
623.364	81.62
623.571	88.62
623.778	94.62
623.985	79.62
624.192	79.62
624.399	87.62
624.606	96.62
624.812	81.62
625.019	94.62
625.226	83.62
625.433	85.62
625.639	99.62
625.846	83.62
626.053	87.62
626.259	78.62
626.466	79.62
626.673	89.62
626.879	81.62
627.086	89.62
627.293	83.62
627.499	92.62
627.706	97.62
627.912	88.62
628.119	76.62
628.325	81.62
628.532	79.62
628.738	87.62
628.945	85.62
629.151	81.62
629.357	94.62
629.564	74.62
629.77	82.62
629.976	91.62
630.183	86.62
630.389	76.62
630.595	108.62
630.802	74.62
631.008	78.62
631.214	85.62
631.42	84.62
631.627	97.62
631.833	75.62
632.039	78.62
632.245	80.62
632.451	81.62
632.657	91.62
632.863	84.62
633.069	80.62
633.275	73.62
633.481	73.62
633.688	81.62
633.893	91.62
634.099	88.62
634.305	87.62
634.511	79.62
634.717	87.62
634.923	97.62
635.129	101.62
635.335	78.62
635.541	94.62
635.747	100.62
635.952	91.62
636.158	84.62
636.364	85.62
636.57	89.62
636.775	87.62
636.981	80.62
637.187	99.62
637.392	99.62
637.598	92.62
637.804	78.62
638.009	104.62
638.215	86.62
638.421	86.62
638.626	81.62
638.832	93.62
639.037	82.62
639.243	83.62
639.448	89.62
639.654	97.62
639.859	87.62
640.065	75.62
640.27	92.62
640.475	86.62
640.681	89.62
640.886	75.62
641.091	79.62
641.297	97.62
641.502	85.62
641.707	91.62
641.913	81.62
642.118	80.62
642.323	83.62
642.528	84.62
642.733	76.62
642.939	89.62
643.144	91.62
643.349	93.62
643.554	92.62
643.759	69.62
643.964	95.62
644.169	88.62
644.374	88.62
644.579	90.62
644.784	84.62
644.989	82.62
645.194	85.62
645.399	83.62
645.604	73.62
645.809	96.62
646.014	85.62
646.219	86.62
646.423	82.62
646.628	79.62
646.833	81.62
647.038	98.62
647.243	81.62
647.447	87.62
647.652	89.62
647.857	84.62
648.062	95.62
648.266	77.62
648.471	89.62
648.676	91.62
648.88	94.62
649.085	87.62
649.289	80.62
649.494	104.62
649.698	134.62
649.903	77.62
650.107	100.62
650.312	99.62
650.516	78.62
650.721	86.62
650.925	77.62
651.13	76.62
651.334	71.62
651.539	93.62
651.743	75.62
651.947	92.62
652.152	73.62
652.356	86.62
652.56	80.62
652.764	90.62
652.969	75.62
653.173	93.62
653.377	83.62
653.581	65.62
653.785	80.62
653.99	86.62
654.194	82.62
654.398	79.62
654.602	89.62
654.806	84.62
655.01	89.62
655.214	103.62
655.418	87.62
655.622	88.62
655.826	96.62
656.03	87.62
656.234	92.62
656.438	73.62
656.642	86.62
656.846	86.62
657.049	79.62
657.253	76.62
657.457	94.62
657.661	77.62
657.865	99.62
658.068	79.62
658.272	75.62
658.476	78.62
658.68	83.62
658.883	79.62
659.087	85.62
659.291	82.62
659.494	91.62
659.698	96.62
659.901	74.62
660.105	61.62
660.309	68.62
660.512	85.62
660.716	85.62
660.919	73.62
661.123	79.62
661.326	95.62
661.53	82.62
661.733	83.62
661.936	84.62
662.14	86.62
662.343	79.62
662.546	90.62
662.75	104.62
662.953	81.62
663.156	82.62
663.36	75.62
663.563	85.62
663.766	82.62
663.969	92.62
664.173	83.62
664.376	93.62
664.579	96.62
664.782	92.62
664.985	82.62
665.188	69.62
665.391	80.62
665.594	95.62
665.797	93.62
666	84.62
666.203	78.62
666.406	76.62
666.609	80.62
666.812	85.62
667.015	87.62
667.218	81.62
667.421	85.62
667.624	83.62
667.827	68.62
668.03	71.62
668.232	82.62
668.435	88.62
668.638	67.62
668.841	73.62
669.043	88.62
669.246	95.62
669.449	87.62
669.651	75.62
669.854	92.62
670.057	99.62
670.259	75.62
670.462	80.62
670.665	89.62
670.867	73.62
671.07	81.62
671.272	100.62
671.475	87.62
671.677	93.62
671.88	73.62
672.082	92.62
672.284	85.62
672.487	82.62
672.689	76.62
672.892	79.62
