Data from Circ_1986_H10_HRD10591_00015.txt Node
Date: Wed Jan 03 12:15:29 EST 2024
User: Yrep
Spectrometer: HR+D1059
Trigger mode: 1
Integration Time (sec): 1.000000E-1
Scans to average: 1
Electric dark correction enabled: true
Nonlinearity correction enabled: false
Boxcar width: 0
XAxis mode: Wavelengths
Number of Pixels in Spectrum: 2048
>>>>>Begin Spectral Data<<<<<
223.165	-23.81
223.4	-23.81
223.635	-23.81
223.869	-17.81
224.104	-19.81
224.338	-17.81
224.573	-21.81
224.808	-14.81
225.042	4.19
225.277	-12.81
225.511	-5.81
225.746	16.19
225.98	14.19
226.215	10.19
226.449	14.19
226.683	21.19
226.918	32.19
227.152	22.19
227.387	30.19
227.621	45.19
227.856	40.19
228.09	48.19
228.324	52.19
228.559	56.19
228.793	50.19
229.027	61.19
229.262	68.19
229.496	69.19
229.73	86.19
229.964	87.19
230.199	86.19
230.433	72.19
230.667	77.19
230.901	70.19
231.136	82.19
231.37	80.19
231.604	74.19
231.838	88.19
232.072	82.19
232.306	83.19
232.541	89.19
232.775	82.19
233.009	76.19
233.243	92.19
233.477	72.19
233.711	79.19
233.945	82.19
234.179	77.19
234.413	83.19
234.647	75.19
234.881	77.19
235.115	75.19
235.349	62.19
235.583	75.19
235.817	78.19
236.051	84.19
236.285	92.19
236.519	78.19
236.753	88.19
236.987	81.19
237.221	93.19
237.455	65.19
237.689	80.19
237.922	72.19
238.156	92.19
238.39	68.19
238.624	74.19
238.858	81.19
239.091	72.19
239.325	88.19
239.559	79.19
239.793	82.19
240.027	74.19
240.26	94.19
240.494	66.19
240.728	60.19
240.961	68.19
241.195	84.19
241.429	67.19
241.662	78.19
241.896	80.19
242.13	84.19
242.363	73.19
242.597	75.19
242.83	70.19
243.064	70.19
243.298	71.19
243.531	76.19
243.765	85.19
243.998	92.19
244.232	77.19
244.465	82.19
244.699	80.19
244.932	83.19
245.166	76.19
245.399	87.19
245.633	76.19
245.866	84.19
246.099	65.19
246.333	91.19
246.566	81.19
246.8	93.19
247.033	85.19
247.266	77.19
247.5	86.19
247.733	82.19
247.966	74.19
248.2	80.19
248.433	82.19
248.666	84.19
248.899	81.19
249.133	93.19
249.366	85.19
249.599	84.19
249.832	90.19
250.066	89.19
250.299	88.19
250.532	86.19
250.765	87.19
250.998	86.19
251.231	77.19
251.465	82.19
251.698	78.19
251.931	92.19
252.164	70.19
252.397	77.19
252.63	88.19
252.863	93.19
253.096	81.19
253.329	84.19
253.562	80.19
253.795	75.19
254.028	82.19
254.261	82.19
254.494	91.19
254.727	94.19
254.96	75.19
255.193	87.19
255.426	85.19
255.659	86.19
255.892	86.19
256.124	82.19
256.357	74.19
256.59	73.19
256.823	90.19
257.056	81.19
257.289	90.19
257.521	82.19
257.754	80.19
257.987	97.19
258.22	84.19
258.452	91.19
258.685	75.19
258.918	85.19
259.151	84.19
259.383	91.19
259.616	77.19
259.849	78.19
260.081	69.19
260.314	70.19
260.547	84.19
260.779	84.19
261.012	81.19
261.244	86.19
261.477	71.19
261.71	95.19
261.942	108.19
262.175	105.19
262.407	79.19
262.64	85.19
262.872	78.19
263.105	88.19
263.337	92.19
263.57	76.19
263.802	82.19
264.035	89.19
264.267	76.19
264.499	86.19
264.732	74.19
264.964	94.19
265.197	90.19
265.429	103.19
265.661	80.19
265.894	92.19
266.126	85.19
266.358	85.19
266.591	73.19
266.823	90.19
267.055	86.19
267.287	100.19
267.52	75.19
267.752	88.19
267.984	75.19
268.216	81.19
268.448	91.19
268.681	100.19
268.913	69.19
269.145	87.19
269.377	96.19
269.609	84.19
269.841	90.19
270.073	109.19
270.306	81.19
270.538	88.19
270.77	92.19
271.002	96.19
271.234	75.19
271.466	93.19
271.698	89.19
271.93	77.19
272.162	83.19
272.394	82.19
272.626	84.19
272.858	84.19
273.09	74.19
273.322	91.19
273.553	83.19
273.785	95.19
274.017	75.19
274.249	92.19
274.481	82.19
274.713	74.19
274.945	87.19
275.176	99.19
275.408	72.19
275.64	85.19
275.872	76.19
276.104	82.19
276.335	99.19
276.567	97.19
276.799	99.19
277.031	99.19
277.262	97.19
277.494	74.19
277.726	86.19
277.957	87.19
278.189	84.19
278.421	88.19
278.652	84.19
278.884	85.19
279.115	94.19
279.347	105.19
279.579	84.19
279.81	83.19
280.042	86.19
280.273	89.19
280.505	100.19
280.736	92.19
280.968	85.19
281.199	73.19
281.431	88.19
281.662	78.19
281.894	100.19
282.125	97.19
282.356	116.19
282.588	119.19
282.819	99.19
283.051	98.19
283.282	82.19
283.513	79.19
283.745	87.19
283.976	89.19
284.207	85.19
284.439	94.19
284.67	90.19
284.901	103.19
285.132	89.19
285.364	80.19
285.595	97.19
285.826	82.19
286.057	75.19
286.288	77.19
286.52	82.19
286.751	94.19
286.982	89.19
287.213	91.19
287.444	91.19
287.675	82.19
287.906	93.19
288.138	83.19
288.369	74.19
288.6	93.19
288.831	88.19
289.062	90.19
289.293	96.19
289.524	95.19
289.755	92.19
289.986	82.19
290.217	76.19
290.448	88.19
290.679	92.19
290.91	82.19
291.141	91.19
291.371	92.19
291.602	90.19
291.833	85.19
292.064	89.19
292.295	80.19
292.526	96.19
292.757	80.19
292.987	101.19
293.218	88.19
293.449	80.19
293.68	82.19
293.91	74.19
294.141	90.19
294.372	80.19
294.603	85.19
294.833	77.19
295.064	97.19
295.295	84.19
295.525	83.19
295.756	97.19
295.987	108.19
296.217	126.19
296.448	113.19
296.679	86.19
296.909	76.19
297.14	91.19
297.37	86.19
297.601	100.19
297.831	94.19
298.062	84.19
298.292	94.19
298.523	101.19
298.753	84.19
298.984	77.19
299.214	80.19
299.445	88.19
299.675	83.19
299.905	88.19
300.136	97.19
300.366	106.19
300.597	76.19
300.827	87.19
301.057	109.19
301.288	96.19
301.518	90.19
301.748	90.19
301.979	115.19
302.209	75.19
302.439	90.19
302.669	80.19
302.9	87.19
303.13	113.19
303.36	92.19
303.59	107.19
303.82	97.19
304.051	97.19
304.281	90.19
304.511	92.19
304.741	96.19
304.971	72.19
305.201	97.19
305.431	94.19
305.661	98.19
305.891	95.19
306.121	102.19
306.352	98.19
306.582	105.19
306.812	99.19
307.042	116.19
307.272	90.19
307.502	85.19
307.731	94.19
307.961	101.19
308.191	89.19
308.421	84.19
308.651	96.19
308.881	93.19
309.111	74.19
309.341	94.19
309.571	86.19
309.8	85.19
310.03	107.19
310.26	88.19
310.49	84.19
310.72	102.19
310.949	99.19
311.179	105.19
311.409	86.19
311.639	91.19
311.868	101.19
312.098	100.19
312.328	93.19
312.557	101.19
312.787	109.19
313.017	96.19
313.246	96.19
313.476	99.19
313.706	92.19
313.935	92.19
314.165	91.19
314.394	100.19
314.624	103.19
314.853	86.19
315.083	94.19
315.312	93.19
315.542	109.19
315.771	82.19
316.001	91.19
316.23	90.19
316.46	93.19
316.689	97.19
316.919	99.19
317.148	102.19
317.377	82.19
317.607	91.19
317.836	88.19
318.065	98.19
318.295	98.19
318.524	103.19
318.753	94.19
318.983	101.19
319.212	94.19
319.441	92.19
319.67	98.19
319.9	90.19
320.129	99.19
320.358	94.19
320.587	105.19
320.816	91.19
321.046	114.19
321.275	106.19
321.504	86.19
321.733	96.19
321.962	109.19
322.191	106.19
322.42	108.19
322.649	93.19
322.878	110.19
323.108	107.19
323.337	99.19
323.566	110.19
323.795	130.19
324.024	177.19
324.253	309.19
324.482	617.19
324.71	1203.19
324.939	1588.19
325.168	584.19
325.397	197.19
325.626	140.19
325.855	119.19
326.084	114.19
326.313	116.19
326.542	133.19
326.77	197.19
326.999	361.19
327.228	706.19
327.457	1261.19
327.686	996.19
327.914	292.19
328.143	171.19
328.372	132.19
328.6	108.19
328.829	97.19
329.058	128.19
329.287	115.19
329.515	115.19
329.744	109.19
329.972	96.19
330.201	113.19
330.43	104.19
330.658	124.19
330.887	122.19
331.115	128.19
331.344	99.19
331.572	102.19
331.801	91.19
332.03	103.19
332.258	105.19
332.486	90.19
332.715	89.19
332.943	88.19
333.172	86.19
333.4	93.19
333.629	110.19
333.857	104.19
334.085	106.19
334.314	112.19
334.542	120.19
334.771	125.19
334.999	104.19
335.227	84.19
335.455	87.19
335.684	101.19
335.912	91.19
336.14	110.19
336.369	100.19
336.597	98.19
336.825	100.19
337.053	83.19
337.281	90.19
337.51	88.19
337.738	85.19
337.966	87.19
338.194	99.19
338.422	104.19
338.65	97.19
338.878	84.19
339.106	92.19
339.334	90.19
339.562	90.19
339.79	101.19
340.018	89.19
340.246	92.19
340.474	102.19
340.702	100.19
340.93	107.19
341.158	89.19
341.386	93.19
341.614	92.19
341.842	93.19
342.07	100.19
342.298	97.19
342.526	106.19
342.754	98.19
342.981	104.19
343.209	84.19
343.437	101.19
343.665	86.19
343.893	109.19
344.12	91.19
344.348	93.19
344.576	88.19
344.804	100.19
345.031	99.19
345.259	88.19
345.487	88.19
345.714	100.19
345.942	101.19
346.17	86.19
346.397	101.19
346.625	112.19
346.853	89.19
347.08	93.19
347.308	99.19
347.535	106.19
347.763	83.19
347.99	93.19
348.218	84.19
348.445	105.19
348.673	105.19
348.9	96.19
349.128	92.19
349.355	94.19
349.583	96.19
349.81	85.19
350.037	91.19
350.265	98.19
350.492	99.19
350.72	101.19
350.947	95.19
351.174	124.19
351.402	104.19
351.629	97.19
351.856	108.19
352.083	94.19
352.311	98.19
352.538	100.19
352.765	96.19
352.992	109.19
353.22	93.19
353.447	91.19
353.674	105.19
353.901	103.19
354.128	86.19
354.355	103.19
354.583	102.19
354.81	96.19
355.037	103.19
355.264	98.19
355.491	107.19
355.718	106.19
355.945	97.19
356.172	101.19
356.399	102.19
356.626	105.19
356.853	106.19
357.08	93.19
357.307	92.19
357.534	95.19
357.761	95.19
357.988	109.19
358.215	105.19
358.441	88.19
358.668	99.19
358.895	106.19
359.122	98.19
359.349	77.19
359.576	100.19
359.802	94.19
360.029	97.19
360.256	110.19
360.483	96.19
360.709	90.19
360.936	92.19
361.163	106.19
361.39	97.19
361.616	93.19
361.843	87.19
362.07	91.19
362.296	98.19
362.523	98.19
362.749	98.19
362.976	91.19
363.203	90.19
363.429	85.19
363.656	101.19
363.882	98.19
364.109	101.19
364.335	93.19
364.562	101.19
364.788	88.19
365.015	90.19
365.241	94.19
365.468	104.19
365.694	102.19
365.92	93.19
366.147	102.19
366.373	91.19
366.599	84.19
366.826	87.19
367.052	91.19
367.278	92.19
367.505	93.19
367.731	93.19
367.957	98.19
368.184	89.19
368.41	88.19
368.636	99.19
368.862	96.19
369.089	87.19
369.315	86.19
369.541	98.19
369.767	85.19
369.993	89.19
370.219	105.19
370.445	90.19
370.672	91.19
370.898	75.19
371.124	96.19
371.35	83.19
371.576	91.19
371.802	101.19
372.028	92.19
372.254	82.19
372.48	94.19
372.706	98.19
372.932	100.19
373.158	86.19
373.384	99.19
373.61	98.19
373.835	90.19
374.061	105.19
374.287	99.19
374.513	106.19
374.739	103.19
374.965	84.19
375.191	91.19
375.416	88.19
375.642	93.19
375.868	104.19
376.094	97.19
376.319	95.19
376.545	102.19
376.771	100.19
376.997	85.19
377.222	97.19
377.448	104.19
377.674	96.19
377.899	96.19
378.125	95.19
378.35	88.19
378.576	90.19
378.802	102.19
379.027	105.19
379.253	90.19
379.478	105.19
379.704	91.19
379.929	108.19
380.155	111.19
380.38	94.19
380.606	93.19
380.831	100.19
381.057	94.19
381.282	92.19
381.507	108.19
381.733	103.19
381.958	107.19
382.184	102.19
382.409	110.19
382.634	121.19
382.86	116.19
383.085	114.19
383.31	139.19
383.535	109.19
383.761	111.19
383.986	116.19
384.211	124.19
384.436	112.19
384.662	116.19
384.887	126.19
385.112	124.19
385.337	124.19
385.562	115.19
385.787	128.19
386.013	130.19
386.238	128.19
386.463	113.19
386.688	125.19
386.913	119.19
387.138	126.19
387.363	105.19
387.588	105.19
387.813	117.19
388.038	111.19
388.263	132.19
388.488	123.19
388.713	104.19
388.938	100.19
389.163	96.19
389.387	94.19
389.612	79.19
389.837	90.19
390.062	96.19
390.287	103.19
390.512	86.19
390.736	83.19
390.961	95.19
391.186	100.19
391.411	105.19
391.636	87.19
391.86	83.19
392.085	104.19
392.31	97.19
392.534	90.19
392.759	90.19
392.984	88.19
393.208	86.19
393.433	100.19
393.658	86.19
393.882	91.19
394.107	88.19
394.331	92.19
394.556	96.19
394.78	99.19
395.005	101.19
395.229	92.19
395.454	92.19
395.678	93.19
395.903	89.19
396.127	105.19
396.352	92.19
396.576	84.19
396.801	87.19
397.025	109.19
397.249	89.19
397.474	97.19
397.698	103.19
397.922	76.19
398.147	97.19
398.371	84.19
398.595	92.19
398.82	91.19
399.044	85.19
399.268	87.19
399.492	98.19
399.717	88.19
399.941	98.19
400.165	88.19
400.389	87.19
400.613	93.19
400.837	75.19
401.062	101.19
401.286	95.19
401.51	86.19
401.734	83.19
401.958	100.19
402.182	114.19
402.406	137.19
402.63	98.19
402.854	83.19
403.078	74.19
403.302	80.19
403.526	94.19
403.75	88.19
403.974	82.19
404.198	89.19
404.422	90.19
404.645	95.19
404.869	91.19
405.093	95.19
405.317	94.19
405.541	109.19
405.765	75.19
405.988	123.19
406.212	139.19
406.436	171.19
406.66	137.19
406.883	85.19
407.107	96.19
407.331	97.19
407.555	104.19
407.778	99.19
408.002	81.19
408.226	98.19
408.449	93.19
408.673	86.19
408.896	104.19
409.12	99.19
409.344	82.19
409.567	82.19
409.791	93.19
410.014	98.19
410.238	111.19
410.461	86.19
410.685	97.19
410.908	92.19
411.132	106.19
411.355	100.19
411.578	105.19
411.802	98.19
412.025	96.19
412.249	94.19
412.472	84.19
412.695	89.19
412.919	80.19
413.142	88.19
413.365	93.19
413.589	95.19
413.812	92.19
414.035	103.19
414.258	89.19
414.482	94.19
414.705	94.19
414.928	90.19
415.151	94.19
415.374	94.19
415.597	76.19
415.821	88.19
416.044	105.19
416.267	87.19
416.49	77.19
416.713	89.19
416.936	91.19
417.159	90.19
417.382	74.19
417.605	81.19
417.828	101.19
418.051	94.19
418.274	80.19
418.497	95.19
418.72	92.19
418.943	101.19
419.166	90.19
419.389	98.19
419.611	102.19
419.834	92.19
420.057	88.19
420.28	85.19
420.503	78.19
420.726	90.19
420.948	86.19
421.171	72.19
421.394	94.19
421.617	86.19
421.839	96.19
422.062	92.19
422.285	96.19
422.507	93.19
422.73	94.19
422.953	106.19
423.175	98.19
423.398	87.19
423.621	90.19
423.843	81.19
424.066	90.19
424.288	89.19
424.511	71.19
424.733	96.19
424.956	93.19
425.178	96.19
425.401	106.19
425.623	100.19
425.846	84.19
426.068	93.19
426.291	80.19
426.513	89.19
426.735	87.19
426.958	96.19
427.18	101.19
427.402	115.19
427.625	146.19
427.847	117.19
428.069	97.19
428.292	79.19
428.514	92.19
428.736	86.19
428.958	89.19
429.181	96.19
429.403	83.19
429.625	92.19
429.847	99.19
430.069	103.19
430.292	82.19
430.514	76.19
430.736	85.19
430.958	96.19
431.18	94.19
431.402	93.19
431.624	85.19
431.846	83.19
432.068	97.19
432.29	99.19
432.512	86.19
432.734	92.19
432.956	81.19
433.178	101.19
433.4	88.19
433.622	94.19
433.844	91.19
434.066	84.19
434.287	97.19
434.509	98.19
434.731	99.19
434.953	84.19
435.175	88.19
435.397	77.19
435.618	108.19
435.84	97.19
436.062	116.19
436.284	121.19
436.505	94.19
436.727	102.19
436.949	102.19
437.17	93.19
437.392	85.19
437.614	100.19
437.835	94.19
438.057	88.19
438.278	89.19
438.5	92.19
438.721	110.19
438.943	99.19
439.165	97.19
439.386	94.19
439.608	95.19
439.829	99.19
440.05	114.19
440.272	139.19
440.493	77.19
440.715	81.19
440.936	90.19
441.158	90.19
441.379	80.19
441.6	101.19
441.822	86.19
442.043	89.19
442.264	100.19
442.486	94.19
442.707	94.19
442.928	99.19
443.149	119.19
443.371	104.19
443.592	91.19
443.813	107.19
444.034	119.19
444.255	92.19
444.476	80.19
444.698	85.19
444.919	81.19
445.14	136.19
445.361	122.19
445.582	106.19
445.803	134.19
446.024	106.19
446.245	110.19
446.466	114.19
446.687	97.19
446.908	92.19
447.129	106.19
447.35	84.19
447.571	79.19
447.792	92.19
448.013	92.19
448.234	106.19
448.455	101.19
448.675	103.19
448.896	101.19
449.117	100.19
449.338	92.19
449.559	99.19
449.779	120.19
450	104.19
450.221	81.19
450.442	91.19
450.662	101.19
450.883	99.19
451.104	106.19
451.324	86.19
451.545	90.19
451.766	81.19
451.986	71.19
452.207	93.19
452.428	80.19
452.648	111.19
452.869	105.19
453.089	100.19
453.31	101.19
453.53	97.19
453.751	89.19
453.971	94.19
454.192	109.19
454.412	100.19
454.633	74.19
454.853	100.19
455.073	98.19
455.294	85.19
455.514	101.19
455.734	93.19
455.955	96.19
456.175	91.19
456.395	73.19
456.616	94.19
456.836	97.19
457.056	87.19
457.276	92.19
457.497	90.19
457.717	78.19
457.937	88.19
458.157	88.19
458.377	102.19
458.598	102.19
458.818	124.19
459.038	130.19
459.258	99.19
459.478	84.19
459.698	91.19
459.918	93.19
460.138	80.19
460.358	90.19
460.578	83.19
460.798	92.19
461.018	91.19
461.238	77.19
461.458	85.19
461.678	81.19
461.898	83.19
462.118	89.19
462.338	80.19
462.558	95.19
462.777	100.19
462.997	83.19
463.217	74.19
463.437	75.19
463.657	81.19
463.876	82.19
464.096	94.19
464.316	82.19
464.536	108.19
464.755	84.19
464.975	105.19
465.195	124.19
465.414	137.19
465.634	86.19
465.854	80.19
466.073	85.19
466.293	96.19
466.512	101.19
466.732	98.19
466.951	101.19
467.171	99.19
467.391	92.19
467.61	103.19
467.829	96.19
468.049	90.19
468.268	86.19
468.488	91.19
468.707	90.19
468.927	95.19
469.146	101.19
469.365	83.19
469.585	106.19
469.804	93.19
470.023	103.19
470.243	81.19
470.462	106.19
470.681	101.19
470.901	93.19
471.12	89.19
471.339	80.19
471.558	98.19
471.777	88.19
471.997	97.19
472.216	100.19
472.435	121.19
472.654	102.19
472.873	87.19
473.092	72.19
473.311	105.19
473.53	90.19
473.749	97.19
473.968	94.19
474.187	93.19
474.406	82.19
474.625	80.19
474.844	85.19
475.063	82.19
475.282	86.19
475.501	93.19
475.72	94.19
475.939	77.19
476.158	93.19
476.377	111.19
476.596	97.19
476.814	95.19
477.033	96.19
477.252	92.19
477.471	84.19
477.69	100.19
477.908	91.19
478.127	89.19
478.346	94.19
478.564	98.19
478.783	107.19
479.002	91.19
479.22	101.19
479.439	91.19
479.658	110.19
479.876	90.19
480.095	82.19
480.313	97.19
480.532	88.19
480.751	97.19
480.969	104.19
481.188	165.19
481.406	136.19
481.624	90.19
481.843	97.19
482.061	104.19
482.28	85.19
482.498	91.19
482.717	80.19
482.935	95.19
483.153	102.19
483.372	89.19
483.59	90.19
483.808	98.19
484.027	95.19
484.245	91.19
484.463	101.19
484.681	93.19
484.9	90.19
485.118	104.19
485.336	90.19
485.554	109.19
485.772	103.19
485.99	105.19
486.209	112.19
486.427	100.19
486.645	112.19
486.863	98.19
487.081	94.19
487.299	102.19
487.517	106.19
487.735	92.19
487.953	89.19
488.171	97.19
488.389	105.19
488.607	98.19
488.825	91.19
489.043	99.19
489.261	98.19
489.479	88.19
489.696	101.19
489.914	107.19
490.132	86.19
490.35	87.19
490.568	87.19
490.786	82.19
491.003	87.19
491.221	86.19
491.439	105.19
491.657	95.19
491.874	97.19
492.092	89.19
492.31	93.19
492.527	101.19
492.745	88.19
492.963	75.19
493.18	88.19
493.398	94.19
493.615	103.19
493.833	97.19
494.05	86.19
494.268	101.19
494.485	93.19
494.703	89.19
494.92	80.19
495.138	83.19
495.355	104.19
495.573	105.19
495.79	106.19
496.008	97.19
496.225	78.19
496.442	100.19
496.66	90.19
496.877	90.19
497.094	88.19
497.312	94.19
497.529	103.19
497.746	100.19
497.963	84.19
498.181	103.19
498.398	90.19
498.615	96.19
498.832	107.19
499.049	80.19
499.267	93.19
499.484	102.19
499.701	89.19
499.918	97.19
500.135	95.19
500.352	88.19
500.569	99.19
500.786	94.19
501.003	88.19
501.22	85.19
501.437	91.19
501.654	89.19
501.871	93.19
502.088	79.19
502.305	84.19
502.522	94.19
502.739	89.19
502.956	96.19
503.172	108.19
503.389	105.19
503.606	101.19
503.823	88.19
504.04	80.19
504.256	94.19
504.473	94.19
504.69	88.19
504.907	102.19
505.123	96.19
505.34	97.19
505.557	101.19
505.773	78.19
505.99	91.19
506.207	86.19
506.423	92.19
506.64	98.19
506.856	100.19
507.073	88.19
507.289	100.19
507.506	96.19
507.722	100.19
507.939	101.19
508.155	95.19
508.372	88.19
508.588	91.19
508.805	96.19
509.021	94.19
509.238	97.19
509.454	96.19
509.67	93.19
509.887	94.19
510.103	121.19
510.319	171.19
510.536	567.19
510.752	1681.19
510.968	485.19
511.184	128.19
511.401	105.19
511.617	91.19
511.833	94.19
512.049	88.19
512.265	88.19
512.481	88.19
512.698	96.19
512.914	93.19
513.13	102.19
513.346	90.19
513.562	98.19
513.778	93.19
513.994	100.19
514.21	97.19
514.426	108.19
514.642	123.19
514.858	110.19
515.074	134.19
515.29	320.19
515.506	984.19
515.721	367.19
515.937	132.19
516.153	96.19
516.369	81.19
516.585	87.19
516.801	92.19
517.016	85.19
517.232	88.19
517.448	99.19
517.664	97.19
517.879	99.19
518.095	98.19
518.311	100.19
518.527	104.19
518.742	89.19
518.958	84.19
519.173	100.19
519.389	101.19
519.605	101.19
519.82	95.19
520.036	113.19
520.251	106.19
520.467	100.19
520.682	94.19
520.898	90.19
521.113	107.19
521.329	123.19
521.544	158.19
521.76	412.19
521.975	1626.19
522.19	987.19
522.406	224.19
522.621	105.19
522.836	82.19
523.052	84.19
523.267	88.19
523.482	92.19
523.698	107.19
523.913	110.19
524.128	107.19
524.343	86.19
524.559	95.19
524.774	92.19
524.989	94.19
525.204	102.19
525.419	101.19
525.634	98.19
525.849	104.19
526.064	99.19
526.28	104.19
526.495	94.19
526.71	85.19
526.925	96.19
527.14	85.19
527.355	83.19
527.57	97.19
527.785	104.19
527.999	85.19
528.214	93.19
528.429	101.19
528.644	94.19
528.859	84.19
529.074	97.19
529.289	114.19
529.503	141.19
529.718	100.19
529.933	102.19
530.148	82.19
530.363	104.19
530.577	96.19
530.792	83.19
531.007	85.19
531.221	97.19
531.436	90.19
531.651	109.19
531.865	99.19
532.08	88.19
532.295	95.19
532.509	88.19
532.724	101.19
532.938	89.19
533.153	87.19
533.367	96.19
533.582	85.19
533.796	97.19
534.011	100.19
534.225	90.19
534.44	92.19
534.654	93.19
534.868	82.19
535.083	88.19
535.297	99.19
535.511	91.19
535.726	84.19
535.94	105.19
536.154	90.19
536.369	93.19
536.583	82.19
536.797	95.19
537.011	89.19
537.225	81.19
537.44	100.19
537.654	90.19
537.868	80.19
538.082	88.19
538.296	89.19
538.51	83.19
538.724	90.19
538.938	92.19
539.153	101.19
539.367	109.19
539.581	106.19
539.795	88.19
540.009	93.19
540.222	86.19
540.436	91.19
540.65	81.19
540.864	89.19
541.078	88.19
541.292	98.19
541.506	96.19
541.72	85.19
541.934	94.19
542.147	94.19
542.361	91.19
542.575	99.19
542.789	88.19
543.002	92.19
543.216	99.19
543.43	82.19
543.644	97.19
543.857	96.19
544.071	90.19
544.285	99.19
544.498	88.19
544.712	96.19
544.925	101.19
545.139	89.19
545.352	92.19
545.566	99.19
545.779	104.19
545.993	94.19
546.206	104.19
546.42	97.19
546.633	99.19
546.847	90.19
547.06	94.19
547.274	95.19
547.487	93.19
547.7	98.19
547.914	89.19
548.127	88.19
548.34	89.19
548.554	99.19
548.767	80.19
548.98	90.19
549.193	99.19
549.407	77.19
549.62	88.19
549.833	93.19
550.046	88.19
550.259	83.19
550.473	93.19
550.686	94.19
550.899	89.19
551.112	89.19
551.325	100.19
551.538	89.19
551.751	85.19
551.964	82.19
552.177	98.19
552.39	102.19
552.603	110.19
552.816	98.19
553.029	102.19
553.242	92.19
553.455	97.19
553.667	96.19
553.88	108.19
554.093	105.19
554.306	104.19
554.519	96.19
554.732	99.19
554.944	107.19
555.157	87.19
555.37	101.19
555.583	93.19
555.795	100.19
556.008	99.19
556.221	102.19
556.433	78.19
556.646	93.19
556.859	84.19
557.071	87.19
557.284	100.19
557.496	98.19
557.709	100.19
557.921	103.19
558.134	108.19
558.346	94.19
558.559	88.19
558.771	100.19
558.984	90.19
559.196	92.19
559.409	96.19
559.621	101.19
559.833	107.19
560.046	86.19
560.258	94.19
560.47	84.19
560.683	98.19
560.895	96.19
561.107	83.19
561.32	92.19
561.532	101.19
561.744	91.19
561.956	95.19
562.168	93.19
562.381	94.19
562.593	89.19
562.805	97.19
563.017	92.19
563.229	105.19
563.441	92.19
563.653	85.19
563.865	78.19
564.077	94.19
564.289	76.19
564.501	117.19
564.713	96.19
564.925	83.19
565.137	102.19
565.349	91.19
565.561	91.19
565.773	114.19
565.985	93.19
566.197	84.19
566.408	92.19
566.62	90.19
566.832	96.19
567.044	84.19
567.255	93.19
567.467	85.19
567.679	96.19
567.891	98.19
568.102	80.19
568.314	94.19
568.526	88.19
568.737	90.19
568.949	79.19
569.161	108.19
569.372	90.19
569.584	90.19
569.795	81.19
570.007	96.19
570.218	212.19
570.43	125.19
570.641	107.19
570.853	77.19
571.064	95.19
571.276	88.19
571.487	93.19
571.698	77.19
571.91	95.19
572.121	94.19
572.333	91.19
572.544	104.19
572.755	100.19
572.966	78.19
573.178	91.19
573.389	101.19
573.6	96.19
573.811	88.19
574.023	89.19
574.234	89.19
574.445	88.19
574.656	80.19
574.867	80.19
575.078	91.19
575.289	82.19
575.501	98.19
575.712	85.19
575.923	91.19
576.134	100.19
576.345	92.19
576.556	84.19
576.767	78.19
576.978	80.19
577.188	101.19
577.399	90.19
577.61	93.19
577.821	98.19
578.032	112.19
578.243	230.19
578.454	521.19
578.665	172.19
578.875	110.19
579.086	91.19
579.297	107.19
579.508	100.19
579.718	93.19
579.929	89.19
580.14	70.19
580.35	92.19
580.561	90.19
580.772	79.19
580.982	89.19
581.193	91.19
581.403	80.19
581.614	80.19
581.825	85.19
582.035	84.19
582.246	94.19
582.456	73.19
582.667	85.19
582.877	87.19
583.087	92.19
583.298	89.19
583.508	90.19
583.719	73.19
583.929	92.19
584.139	96.19
584.35	78.19
584.56	87.19
584.77	82.19
584.981	98.19
585.191	101.19
585.401	99.19
585.611	90.19
585.821	117.19
586.032	93.19
586.242	90.19
586.452	92.19
586.662	88.19
586.872	88.19
587.082	92.19
587.292	91.19
587.502	104.19
587.713	94.19
587.923	74.19
588.133	100.19
588.343	78.19
588.553	92.19
588.762	90.19
588.972	90.19
589.182	122.19
589.392	99.19
589.602	99.19
589.812	111.19
590.022	105.19
590.232	96.19
590.441	89.19
590.651	82.19
590.861	82.19
591.071	91.19
591.281	86.19
591.49	97.19
591.7	91.19
591.91	82.19
592.119	96.19
592.329	86.19
592.539	100.19
592.748	88.19
592.958	89.19
593.167	80.19
593.377	78.19
593.587	96.19
593.796	96.19
594.006	81.19
594.215	92.19
594.424	93.19
594.634	88.19
594.843	92.19
595.053	68.19
595.262	93.19
595.472	83.19
595.681	93.19
595.89	103.19
596.1	90.19
596.309	98.19
596.518	93.19
596.727	83.19
596.937	70.19
597.146	84.19
597.355	92.19
597.564	88.19
597.774	78.19
597.983	94.19
598.192	96.19
598.401	98.19
598.61	93.19
598.819	90.19
599.028	98.19
599.237	77.19
599.446	87.19
599.655	87.19
599.864	88.19
600.073	81.19
600.282	84.19
600.491	87.19
600.7	83.19
600.909	99.19
601.118	78.19
601.327	88.19
601.536	75.19
601.745	93.19
601.953	91.19
602.162	77.19
602.371	80.19
602.58	103.19
602.789	101.19
602.997	89.19
603.206	95.19
603.415	106.19
603.623	96.19
603.832	73.19
604.041	88.19
604.249	104.19
604.458	84.19
604.666	86.19
604.875	98.19
605.084	74.19
605.292	94.19
605.501	92.19
605.709	81.19
605.918	89.19
606.126	84.19
606.334	89.19
606.543	85.19
606.751	92.19
606.96	91.19
607.168	92.19
607.376	77.19
607.585	94.19
607.793	82.19
608.001	91.19
608.21	78.19
608.418	93.19
608.626	84.19
608.834	85.19
609.043	85.19
609.251	95.19
609.459	71.19
609.667	86.19
609.875	84.19
610.083	86.19
610.291	80.19
610.499	89.19
610.707	82.19
610.916	91.19
611.124	84.19
611.332	80.19
611.54	96.19
611.748	81.19
611.955	107.19
612.163	99.19
612.371	92.19
612.579	96.19
612.787	86.19
612.995	94.19
613.203	105.19
613.411	94.19
613.618	90.19
613.826	84.19
614.034	88.19
614.242	94.19
614.449	95.19
614.657	82.19
614.865	86.19
615.072	90.19
615.28	89.19
615.488	93.19
615.695	91.19
615.903	78.19
616.111	109.19
616.318	109.19
616.526	88.19
616.733	102.19
616.941	91.19
617.148	101.19
617.356	112.19
617.563	109.19
617.771	80.19
617.978	92.19
618.185	87.19
618.393	92.19
618.6	88.19
618.807	84.19
619.015	86.19
619.222	88.19
619.429	96.19
619.637	72.19
619.844	86.19
620.051	77.19
620.258	88.19
620.466	97.19
620.673	94.19
620.88	79.19
621.087	84.19
621.294	83.19
621.501	76.19
621.708	89.19
621.915	86.19
622.122	89.19
622.329	93.19
622.536	94.19
622.743	82.19
622.95	102.19
623.157	90.19
623.364	77.19
623.571	89.19
623.778	85.19
623.985	80.19
624.192	90.19
624.399	86.19
624.606	93.19
624.812	86.19
625.019	102.19
625.226	90.19
625.433	96.19
625.639	88.19
625.846	90.19
626.053	92.19
626.259	85.19
626.466	87.19
626.673	84.19
626.879	86.19
627.086	89.19
627.293	89.19
627.499	93.19
627.706	95.19
627.912	92.19
628.119	85.19
628.325	81.19
628.532	91.19
628.738	104.19
628.945	85.19
629.151	93.19
629.357	87.19
629.564	93.19
629.77	90.19
629.976	89.19
630.183	94.19
630.389	95.19
630.595	89.19
630.802	90.19
631.008	92.19
631.214	88.19
631.42	96.19
631.627	89.19
631.833	86.19
632.039	92.19
632.245	82.19
632.451	92.19
632.657	78.19
632.863	89.19
633.069	90.19
633.275	101.19
633.481	88.19
633.688	93.19
633.893	89.19
634.099	97.19
634.305	94.19
634.511	91.19
634.717	78.19
634.923	82.19
635.129	90.19
635.335	90.19
635.541	85.19
635.747	67.19
635.952	88.19
636.158	92.19
636.364	94.19
636.57	83.19
636.775	89.19
636.981	103.19
637.187	96.19
637.392	102.19
637.598	116.19
637.804	81.19
638.009	93.19
638.215	87.19
638.421	86.19
638.626	72.19
638.832	84.19
639.037	84.19
639.243	83.19
639.448	83.19
639.654	82.19
639.859	90.19
640.065	83.19
640.27	83.19
640.475	84.19
640.681	95.19
640.886	88.19
641.091	82.19
641.297	78.19
641.502	88.19
641.707	86.19
641.913	94.19
642.118	83.19
642.323	84.19
642.528	93.19
642.733	98.19
642.939	80.19
643.144	102.19
643.349	96.19
643.554	85.19
643.759	85.19
643.964	84.19
644.169	82.19
644.374	83.19
644.579	82.19
644.784	89.19
644.989	86.19
645.194	80.19
645.399	88.19
645.604	79.19
645.809	86.19
646.014	90.19
646.219	88.19
646.423	83.19
646.628	86.19
646.833	80.19
647.038	82.19
647.243	81.19
647.447	91.19
647.652	88.19
647.857	89.19
648.062	83.19
648.266	87.19
648.471	93.19
648.676	100.19
648.88	96.19
649.085	84.19
649.289	94.19
649.494	89.19
649.698	134.19
649.903	90.19
650.107	96.19
650.312	82.19
650.516	81.19
650.721	81.19
650.925	71.19
651.13	83.19
651.334	65.19
651.539	78.19
651.743	77.19
651.947	75.19
652.152	93.19
652.356	105.19
652.56	94.19
652.764	92.19
652.969	94.19
653.173	83.19
653.377	97.19
653.581	96.19
653.785	81.19
653.99	73.19
654.194	90.19
654.398	85.19
654.602	75.19
654.806	104.19
655.01	100.19
655.214	103.19
655.418	105.19
655.622	76.19
655.826	83.19
656.03	98.19
656.234	104.19
656.438	103.19
656.642	112.19
656.846	96.19
657.049	86.19
657.253	94.19
657.457	84.19
657.661	89.19
657.865	81.19
658.068	69.19
658.272	79.19
658.476	88.19
658.68	81.19
658.883	88.19
659.087	90.19
659.291	90.19
659.494	83.19
659.698	87.19
659.901	81.19
660.105	87.19
660.309	81.19
660.512	85.19
660.716	78.19
660.919	78.19
661.123	83.19
661.326	72.19
661.53	82.19
661.733	84.19
661.936	78.19
662.14	96.19
662.343	91.19
662.546	80.19
662.75	92.19
662.953	94.19
663.156	89.19
663.36	82.19
663.563	82.19
663.766	83.19
663.969	80.19
664.173	88.19
664.376	89.19
664.579	84.19
664.782	86.19
664.985	96.19
665.188	99.19
665.391	81.19
665.594	101.19
665.797	80.19
666	84.19
666.203	90.19
666.406	83.19
666.609	82.19
666.812	91.19
667.015	85.19
667.218	71.19
667.421	78.19
667.624	74.19
667.827	83.19
668.03	76.19
668.232	83.19
668.435	82.19
668.638	87.19
668.841	80.19
669.043	99.19
669.246	80.19
669.449	81.19
669.651	89.19
669.854	67.19
670.057	75.19
670.259	94.19
670.462	90.19
670.665	90.19
670.867	76.19
671.07	82.19
671.272	91.19
671.475	86.19
671.677	90.19
671.88	79.19
672.082	78.19
672.284	86.19
672.487	85.19
672.689	77.19
672.892	90.19
