Data from Circ_1986_H10_HRD10591_00025.txt Node
Date: Wed Jan 03 12:15:31 EST 2024
User: Yrep
Spectrometer: HR+D1059
Trigger mode: 1
Integration Time (sec): 1.000000E-1
Scans to average: 1
Electric dark correction enabled: true
Nonlinearity correction enabled: false
Boxcar width: 0
XAxis mode: Wavelengths
Number of Pixels in Spectrum: 2048
>>>>>Begin Spectral Data<<<<<
223.165	-8.56
223.4	-8.56
223.635	-8.56
223.869	-22.56
224.104	-15.56
224.338	-21.56
224.573	-24.56
224.808	-17.56
225.042	3.44
225.277	-4.56
225.511	-6.56
225.746	-0.56
225.98	6.44
226.215	20.44
226.449	5.44
226.683	22.44
226.918	29.44
227.152	34.44
227.387	18.44
227.621	37.44
227.856	34.44
228.09	39.44
228.324	37.44
228.559	61.44
228.793	64.44
229.027	48.44
229.262	73.44
229.496	69.44
229.73	77.44
229.964	72.44
230.199	62.44
230.433	77.44
230.667	77.44
230.901	87.44
231.136	61.44
231.37	81.44
231.604	77.44
231.838	97.44
232.072	74.44
232.306	81.44
232.541	73.44
232.775	81.44
233.009	69.44
233.243	73.44
233.477	72.44
233.711	73.44
233.945	73.44
234.179	78.44
234.413	80.44
234.647	81.44
234.881	82.44
235.115	73.44
235.349	76.44
235.583	79.44
235.817	82.44
236.051	77.44
236.285	73.44
236.519	81.44
236.753	79.44
236.987	76.44
237.221	76.44
237.455	86.44
237.689	80.44
237.922	68.44
238.156	66.44
238.39	58.44
238.624	74.44
238.858	60.44
239.091	73.44
239.325	80.44
239.559	81.44
239.793	82.44
240.027	89.44
240.26	77.44
240.494	83.44
240.728	65.44
240.961	72.44
241.195	75.44
241.429	92.44
241.662	79.44
241.896	65.44
242.13	72.44
242.363	62.44
242.597	77.44
242.83	87.44
243.064	69.44
243.298	82.44
243.531	90.44
243.765	90.44
243.998	60.44
244.232	79.44
244.465	80.44
244.699	85.44
244.932	71.44
245.166	77.44
245.399	76.44
245.633	77.44
245.866	81.44
246.099	80.44
246.333	70.44
246.566	66.44
246.8	70.44
247.033	81.44
247.266	71.44
247.5	73.44
247.733	78.44
247.966	66.44
248.2	87.44
248.433	69.44
248.666	81.44
248.899	85.44
249.133	78.44
249.366	83.44
249.599	84.44
249.832	81.44
250.066	79.44
250.299	85.44
250.532	84.44
250.765	78.44
250.998	82.44
251.231	73.44
251.465	75.44
251.698	80.44
251.931	77.44
252.164	80.44
252.397	74.44
252.63	66.44
252.863	79.44
253.096	84.44
253.329	89.44
253.562	81.44
253.795	65.44
254.028	81.44
254.261	74.44
254.494	82.44
254.727	82.44
254.96	70.44
255.193	77.44
255.426	65.44
255.659	82.44
255.892	82.44
256.124	92.44
256.357	79.44
256.59	84.44
256.823	79.44
257.056	86.44
257.289	67.44
257.521	64.44
257.754	62.44
257.987	74.44
258.22	88.44
258.452	69.44
258.685	70.44
258.918	75.44
259.151	84.44
259.383	73.44
259.616	63.44
259.849	70.44
260.081	87.44
260.314	80.44
260.547	78.44
260.779	82.44
261.012	72.44
261.244	87.44
261.477	89.44
261.71	102.44
261.942	106.44
262.175	99.44
262.407	88.44
262.64	99.44
262.872	73.44
263.105	66.44
263.337	76.44
263.57	78.44
263.802	82.44
264.035	101.44
264.267	82.44
264.499	79.44
264.732	78.44
264.964	81.44
265.197	85.44
265.429	93.44
265.661	91.44
265.894	78.44
266.126	74.44
266.358	76.44
266.591	99.44
266.823	76.44
267.055	69.44
267.287	76.44
267.52	99.44
267.752	92.44
267.984	85.44
268.216	90.44
268.448	89.44
268.681	72.44
268.913	84.44
269.145	76.44
269.377	67.44
269.609	67.44
269.841	89.44
270.073	80.44
270.306	84.44
270.538	88.44
270.77	77.44
271.002	95.44
271.234	85.44
271.466	99.44
271.698	93.44
271.93	89.44
272.162	65.44
272.394	88.44
272.626	90.44
272.858	80.44
273.09	73.44
273.322	83.44
273.553	70.44
273.785	81.44
274.017	93.44
274.249	85.44
274.481	94.44
274.713	97.44
274.945	75.44
275.176	76.44
275.408	81.44
275.64	86.44
275.872	91.44
276.104	89.44
276.335	97.44
276.567	93.44
276.799	97.44
277.031	93.44
277.262	81.44
277.494	93.44
277.726	97.44
277.957	85.44
278.189	86.44
278.421	79.44
278.652	84.44
278.884	84.44
279.115	92.44
279.347	80.44
279.579	74.44
279.81	91.44
280.042	95.44
280.273	96.44
280.505	89.44
280.736	88.44
280.968	89.44
281.199	85.44
281.431	79.44
281.662	77.44
281.894	79.44
282.125	81.44
282.356	121.44
282.588	119.44
282.819	95.44
283.051	79.44
283.282	87.44
283.513	81.44
283.745	80.44
283.976	74.44
284.207	78.44
284.439	83.44
284.67	81.44
284.901	98.44
285.132	89.44
285.364	84.44
285.595	76.44
285.826	77.44
286.057	85.44
286.288	90.44
286.52	89.44
286.751	89.44
286.982	89.44
287.213	76.44
287.444	73.44
287.675	81.44
287.906	86.44
288.138	93.44
288.369	94.44
288.6	93.44
288.831	98.44
289.062	76.44
289.293	79.44
289.524	94.44
289.755	82.44
289.986	80.44
290.217	70.44
290.448	84.44
290.679	95.44
290.91	84.44
291.141	86.44
291.371	85.44
291.602	85.44
291.833	85.44
292.064	78.44
292.295	76.44
292.526	80.44
292.757	90.44
292.987	83.44
293.218	90.44
293.449	78.44
293.68	81.44
293.91	74.44
294.141	79.44
294.372	77.44
294.603	80.44
294.833	74.44
295.064	90.44
295.295	74.44
295.525	96.44
295.756	110.44
295.987	105.44
296.217	119.44
296.448	101.44
296.679	84.44
296.909	76.44
297.14	81.44
297.37	76.44
297.601	71.44
297.831	93.44
298.062	88.44
298.292	99.44
298.523	83.44
298.753	79.44
298.984	83.44
299.214	82.44
299.445	95.44
299.675	82.44
299.905	96.44
300.136	88.44
300.366	89.44
300.597	102.44
300.827	82.44
301.057	85.44
301.288	99.44
301.518	98.44
301.748	71.44
301.979	90.44
302.209	93.44
302.439	67.44
302.669	83.44
302.9	88.44
303.13	90.44
303.36	97.44
303.59	102.44
303.82	107.44
304.051	86.44
304.281	94.44
304.511	106.44
304.741	87.44
304.971	93.44
305.201	98.44
305.431	95.44
305.661	87.44
305.891	81.44
306.121	95.44
306.352	102.44
306.582	115.44
306.812	92.44
307.042	88.44
307.272	102.44
307.502	96.44
307.731	96.44
307.961	74.44
308.191	93.44
308.421	98.44
308.651	83.44
308.881	84.44
309.111	82.44
309.341	83.44
309.571	92.44
309.8	96.44
310.03	105.44
310.26	90.44
310.49	85.44
310.72	106.44
310.949	95.44
311.179	83.44
311.409	77.44
311.639	95.44
311.868	96.44
312.098	87.44
312.328	97.44
312.557	81.44
312.787	86.44
313.017	89.44
313.246	94.44
313.476	92.44
313.706	85.44
313.935	94.44
314.165	85.44
314.394	95.44
314.624	88.44
314.853	86.44
315.083	97.44
315.312	83.44
315.542	99.44
315.771	93.44
316.001	84.44
316.23	81.44
316.46	76.44
316.689	89.44
316.919	104.44
317.148	92.44
317.377	83.44
317.607	77.44
317.836	92.44
318.065	101.44
318.295	89.44
318.524	107.44
318.753	89.44
318.983	80.44
319.212	106.44
319.441	107.44
319.67	94.44
319.9	95.44
320.129	88.44
320.358	91.44
320.587	89.44
320.816	90.44
321.046	100.44
321.275	101.44
321.504	89.44
321.733	99.44
321.962	87.44
322.191	92.44
322.42	92.44
322.649	100.44
322.878	104.44
323.108	116.44
323.337	105.44
323.566	122.44
323.795	137.44
324.024	191.44
324.253	309.44
324.482	648.44
324.71	1300.44
324.939	1689.44
325.168	629.44
325.397	195.44
325.626	148.44
325.855	122.44
326.084	119.44
326.313	99.44
326.542	120.44
326.77	189.44
326.999	356.44
327.228	760.44
327.457	1330.44
327.686	1046.44
327.914	295.44
328.143	155.44
328.372	135.44
328.6	127.44
328.829	116.44
329.058	109.44
329.287	111.44
329.515	102.44
329.744	100.44
329.972	102.44
330.201	110.44
330.43	121.44
330.658	135.44
330.887	120.44
331.115	112.44
331.344	100.44
331.572	89.44
331.801	86.44
332.03	93.44
332.258	92.44
332.486	86.44
332.715	101.44
332.943	96.44
333.172	95.44
333.4	104.44
333.629	108.44
333.857	98.44
334.085	91.44
334.314	112.44
334.542	131.44
334.771	124.44
334.999	110.44
335.227	99.44
335.455	97.44
335.684	104.44
335.912	85.44
336.14	100.44
336.369	84.44
336.597	104.44
336.825	88.44
337.053	91.44
337.281	89.44
337.51	93.44
337.738	97.44
337.966	107.44
338.194	89.44
338.422	96.44
338.65	95.44
338.878	95.44
339.106	98.44
339.334	96.44
339.562	91.44
339.79	90.44
340.018	82.44
340.246	104.44
340.474	98.44
340.702	84.44
340.93	95.44
341.158	78.44
341.386	114.44
341.614	98.44
341.842	88.44
342.07	87.44
342.298	81.44
342.526	81.44
342.754	74.44
342.981	87.44
343.209	84.44
343.437	100.44
343.665	80.44
343.893	89.44
344.12	99.44
344.348	94.44
344.576	95.44
344.804	93.44
345.031	102.44
345.259	97.44
345.487	84.44
345.714	81.44
345.942	93.44
346.17	96.44
346.397	101.44
346.625	83.44
346.853	77.44
347.08	84.44
347.308	92.44
347.535	86.44
347.763	94.44
347.99	97.44
348.218	109.44
348.445	103.44
348.673	88.44
348.9	90.44
349.128	100.44
349.355	96.44
349.583	91.44
349.81	97.44
350.037	102.44
350.265	71.44
350.492	89.44
350.72	86.44
350.947	96.44
351.174	89.44
351.402	92.44
351.629	95.44
351.856	96.44
352.083	88.44
352.311	84.44
352.538	102.44
352.765	93.44
352.992	95.44
353.22	98.44
353.447	96.44
353.674	77.44
353.901	87.44
354.128	92.44
354.355	87.44
354.583	90.44
354.81	87.44
355.037	82.44
355.264	91.44
355.491	89.44
355.718	100.44
355.945	95.44
356.172	95.44
356.399	94.44
356.626	104.44
356.853	94.44
357.08	86.44
357.307	92.44
357.534	89.44
357.761	96.44
357.988	94.44
358.215	100.44
358.441	101.44
358.668	94.44
358.895	88.44
359.122	88.44
359.349	94.44
359.576	88.44
359.802	92.44
360.029	98.44
360.256	97.44
360.483	97.44
360.709	93.44
360.936	88.44
361.163	94.44
361.39	97.44
361.616	95.44
361.843	89.44
362.07	85.44
362.296	77.44
362.523	100.44
362.749	92.44
362.976	83.44
363.203	91.44
363.429	85.44
363.656	87.44
363.882	83.44
364.109	86.44
364.335	93.44
364.562	84.44
364.788	102.44
365.015	70.44
365.241	92.44
365.468	93.44
365.694	98.44
365.92	78.44
366.147	95.44
366.373	89.44
366.599	84.44
366.826	84.44
367.052	88.44
367.278	102.44
367.505	97.44
367.731	100.44
367.957	90.44
368.184	76.44
368.41	81.44
368.636	106.44
368.862	104.44
369.089	106.44
369.315	95.44
369.541	88.44
369.767	83.44
369.993	90.44
370.219	85.44
370.445	88.44
370.672	83.44
370.898	102.44
371.124	82.44
371.35	83.44
371.576	97.44
371.802	93.44
372.028	84.44
372.254	68.44
372.48	83.44
372.706	102.44
372.932	86.44
373.158	77.44
373.384	92.44
373.61	93.44
373.835	92.44
374.061	78.44
374.287	89.44
374.513	101.44
374.739	104.44
374.965	80.44
375.191	94.44
375.416	85.44
375.642	88.44
375.868	99.44
376.094	88.44
376.319	81.44
376.545	85.44
376.771	80.44
376.997	83.44
377.222	84.44
377.448	100.44
377.674	89.44
377.899	76.44
378.125	90.44
378.35	95.44
378.576	96.44
378.802	103.44
379.027	106.44
379.253	93.44
379.478	109.44
379.704	84.44
379.929	98.44
380.155	87.44
380.38	99.44
380.606	96.44
380.831	78.44
381.057	105.44
381.282	71.44
381.507	91.44
381.733	108.44
381.958	99.44
382.184	101.44
382.409	107.44
382.634	110.44
382.86	91.44
383.085	95.44
383.31	110.44
383.535	99.44
383.761	94.44
383.986	99.44
384.211	103.44
384.436	102.44
384.662	86.44
384.887	104.44
385.112	99.44
385.337	112.44
385.562	110.44
385.787	110.44
386.013	112.44
386.238	117.44
386.463	113.44
386.688	110.44
386.913	109.44
387.138	123.44
387.363	108.44
387.588	109.44
387.813	120.44
388.038	136.44
388.263	129.44
388.488	124.44
388.713	100.44
388.938	96.44
389.163	89.44
389.387	105.44
389.612	97.44
389.837	84.44
390.062	93.44
390.287	96.44
390.512	92.44
390.736	88.44
390.961	93.44
391.186	76.44
391.411	88.44
391.636	97.44
391.86	86.44
392.085	89.44
392.31	71.44
392.534	83.44
392.759	73.44
392.984	86.44
393.208	97.44
393.433	84.44
393.658	87.44
393.882	65.44
394.107	78.44
394.331	85.44
394.556	81.44
394.78	82.44
395.005	80.44
395.229	100.44
395.454	88.44
395.678	89.44
395.903	80.44
396.127	76.44
396.352	84.44
396.576	80.44
396.801	77.44
397.025	88.44
397.249	72.44
397.474	95.44
397.698	72.44
397.922	84.44
398.147	87.44
398.371	76.44
398.595	81.44
398.82	91.44
399.044	83.44
399.268	78.44
399.492	73.44
399.717	99.44
399.941	84.44
400.165	87.44
400.389	78.44
400.613	98.44
400.837	76.44
401.062	92.44
401.286	87.44
401.51	89.44
401.734	94.44
401.958	92.44
402.182	105.44
402.406	126.44
402.63	97.44
402.854	83.44
403.078	82.44
403.302	98.44
403.526	85.44
403.75	79.44
403.974	88.44
404.198	92.44
404.422	85.44
404.645	95.44
404.869	85.44
405.093	88.44
405.317	84.44
405.541	96.44
405.765	90.44
405.988	102.44
406.212	146.44
406.436	176.44
406.66	127.44
406.883	86.44
407.107	81.44
407.331	92.44
407.555	81.44
407.778	70.44
408.002	100.44
408.226	83.44
408.449	87.44
408.673	98.44
408.896	76.44
409.12	82.44
409.344	87.44
409.567	83.44
409.791	92.44
410.014	82.44
410.238	88.44
410.461	103.44
410.685	92.44
410.908	94.44
411.132	94.44
411.355	103.44
411.578	78.44
411.802	85.44
412.025	89.44
412.249	88.44
412.472	97.44
412.695	91.44
412.919	76.44
413.142	83.44
413.365	94.44
413.589	104.44
413.812	86.44
414.035	81.44
414.258	88.44
414.482	93.44
414.705	85.44
414.928	87.44
415.151	89.44
415.374	97.44
415.597	81.44
415.821	80.44
416.044	86.44
416.267	88.44
416.49	86.44
416.713	88.44
416.936	86.44
417.159	97.44
417.382	88.44
417.605	80.44
417.828	88.44
418.051	88.44
418.274	89.44
418.497	89.44
418.72	78.44
418.943	99.44
419.166	95.44
419.389	82.44
419.611	81.44
419.834	89.44
420.057	79.44
420.28	73.44
420.503	94.44
420.726	86.44
420.948	90.44
421.171	98.44
421.394	90.44
421.617	99.44
421.839	74.44
422.062	72.44
422.285	89.44
422.507	94.44
422.73	78.44
422.953	97.44
423.175	77.44
423.398	78.44
423.621	85.44
423.843	81.44
424.066	78.44
424.288	88.44
424.511	96.44
424.733	101.44
424.956	101.44
425.178	92.44
425.401	85.44
425.623	85.44
425.846	91.44
426.068	91.44
426.291	81.44
426.513	90.44
426.735	84.44
426.958	82.44
427.18	97.44
427.402	122.44
427.625	136.44
427.847	114.44
428.069	100.44
428.292	87.44
428.514	96.44
428.736	93.44
428.958	85.44
429.181	80.44
429.403	85.44
429.625	83.44
429.847	74.44
430.069	97.44
430.292	84.44
430.514	94.44
430.736	81.44
430.958	89.44
431.18	82.44
431.402	85.44
431.624	72.44
431.846	96.44
432.068	93.44
432.29	97.44
432.512	87.44
432.734	92.44
432.956	77.44
433.178	87.44
433.4	94.44
433.622	88.44
433.844	80.44
434.066	103.44
434.287	87.44
434.509	84.44
434.731	91.44
434.953	81.44
435.175	88.44
435.397	82.44
435.618	80.44
435.84	101.44
436.062	103.44
436.284	94.44
436.505	88.44
436.727	95.44
436.949	104.44
437.17	96.44
437.392	82.44
437.614	88.44
437.835	99.44
438.057	93.44
438.278	97.44
438.5	97.44
438.721	99.44
438.943	96.44
439.165	83.44
439.386	78.44
439.608	89.44
439.829	78.44
440.05	109.44
440.272	117.44
440.493	104.44
440.715	99.44
440.936	84.44
441.158	92.44
441.379	95.44
441.6	86.44
441.822	86.44
442.043	86.44
442.264	89.44
442.486	92.44
442.707	77.44
442.928	90.44
443.149	107.44
443.371	118.44
443.592	104.44
443.813	102.44
444.034	90.44
444.255	89.44
444.476	87.44
444.698	82.44
444.919	73.44
445.14	115.44
445.361	112.44
445.582	95.44
445.803	116.44
446.024	112.44
446.245	113.44
446.466	97.44
446.687	89.44
446.908	70.44
447.129	73.44
447.35	79.44
447.571	86.44
447.792	92.44
448.013	90.44
448.234	92.44
448.455	95.44
448.675	100.44
448.896	96.44
449.117	98.44
449.338	106.44
449.559	102.44
449.779	133.44
450	84.44
450.221	91.44
450.442	80.44
450.662	82.44
450.883	83.44
451.104	98.44
451.324	93.44
451.545	81.44
451.766	74.44
451.986	90.44
452.207	71.44
452.428	76.44
452.648	89.44
452.869	107.44
453.089	97.44
453.31	97.44
453.53	83.44
453.751	96.44
453.971	89.44
454.192	94.44
454.412	90.44
454.633	72.44
454.853	65.44
455.073	80.44
455.294	62.44
455.514	88.44
455.734	80.44
455.955	86.44
456.175	86.44
456.395	78.44
456.616	64.44
456.836	78.44
457.056	86.44
457.276	57.44
457.497	88.44
457.717	84.44
457.937	94.44
458.157	90.44
458.377	99.44
458.598	96.44
458.818	117.44
459.038	121.44
459.258	100.44
459.478	89.44
459.698	77.44
459.918	88.44
460.138	84.44
460.358	70.44
460.578	90.44
460.798	82.44
461.018	84.44
461.238	80.44
461.458	70.44
461.678	95.44
461.898	82.44
462.118	80.44
462.338	90.44
462.558	79.44
462.777	72.44
462.997	81.44
463.217	87.44
463.437	81.44
463.657	81.44
463.876	87.44
464.096	101.44
464.316	86.44
464.536	72.44
464.755	91.44
464.975	86.44
465.195	128.44
465.414	124.44
465.634	80.44
465.854	85.44
466.073	79.44
466.293	77.44
466.512	92.44
466.732	101.44
466.951	79.44
467.171	82.44
467.391	76.44
467.61	109.44
467.829	106.44
468.049	100.44
468.268	99.44
468.488	100.44
468.707	89.44
468.927	87.44
469.146	83.44
469.365	77.44
469.585	71.44
469.804	81.44
470.023	84.44
470.243	84.44
470.462	90.44
470.681	102.44
470.901	73.44
471.12	98.44
471.339	80.44
471.558	81.44
471.777	87.44
471.997	86.44
472.216	109.44
472.435	142.44
472.654	71.44
472.873	93.44
473.092	96.44
473.311	92.44
473.53	99.44
473.749	86.44
473.968	102.44
474.187	95.44
474.406	96.44
474.625	85.44
474.844	92.44
475.063	86.44
475.282	82.44
475.501	87.44
475.72	82.44
475.939	77.44
476.158	68.44
476.377	84.44
476.596	76.44
476.814	94.44
477.033	96.44
477.252	75.44
477.471	72.44
477.69	84.44
477.908	110.44
478.127	92.44
478.346	78.44
478.564	88.44
478.783	86.44
479.002	80.44
479.22	85.44
479.439	98.44
479.658	97.44
479.876	77.44
480.095	79.44
480.313	84.44
480.532	84.44
480.751	83.44
480.969	119.44
481.188	212.44
481.406	142.44
481.624	100.44
481.843	89.44
482.061	81.44
482.28	86.44
482.498	80.44
482.717	90.44
482.935	90.44
483.153	92.44
483.372	81.44
483.59	100.44
483.808	94.44
484.027	95.44
484.245	87.44
484.463	99.44
484.681	98.44
484.9	80.44
485.118	102.44
485.336	98.44
485.554	85.44
485.772	97.44
485.99	103.44
486.209	111.44
486.427	108.44
486.645	108.44
486.863	96.44
487.081	88.44
487.299	92.44
487.517	89.44
487.735	74.44
487.953	109.44
488.171	86.44
488.389	93.44
488.607	98.44
488.825	74.44
489.043	88.44
489.261	88.44
489.479	96.44
489.696	87.44
489.914	103.44
490.132	91.44
490.35	89.44
490.568	80.44
490.786	73.44
491.003	96.44
491.221	91.44
491.439	94.44
491.657	86.44
491.874	88.44
492.092	80.44
492.31	99.44
492.527	78.44
492.745	79.44
492.963	78.44
493.18	92.44
493.398	96.44
493.615	93.44
493.833	92.44
494.05	88.44
494.268	97.44
494.485	105.44
494.703	94.44
494.92	97.44
495.138	74.44
495.355	83.44
495.573	96.44
495.79	97.44
496.008	106.44
496.225	83.44
496.442	87.44
496.66	95.44
496.877	85.44
497.094	83.44
497.312	84.44
497.529	92.44
497.746	80.44
497.963	93.44
498.181	89.44
498.398	105.44
498.615	102.44
498.832	96.44
499.049	86.44
499.267	84.44
499.484	93.44
499.701	94.44
499.918	103.44
500.135	80.44
500.352	64.44
500.569	88.44
500.786	88.44
501.003	102.44
501.22	80.44
501.437	101.44
501.654	80.44
501.871	94.44
502.088	91.44
502.305	90.44
502.522	85.44
502.739	79.44
502.956	94.44
503.172	87.44
503.389	94.44
503.606	97.44
503.823	95.44
504.04	87.44
504.256	88.44
504.473	80.44
504.69	85.44
504.907	67.44
505.123	87.44
505.34	93.44
505.557	92.44
505.773	83.44
505.99	80.44
506.207	91.44
506.423	86.44
506.64	91.44
506.856	92.44
507.073	85.44
507.289	85.44
507.506	90.44
507.722	109.44
507.939	99.44
508.155	98.44
508.372	76.44
508.588	86.44
508.805	85.44
509.021	104.44
509.238	94.44
509.454	92.44
509.67	85.44
509.887	104.44
510.103	117.44
510.319	197.44
510.536	591.44
510.752	1764.44
510.968	503.44
511.184	147.44
511.401	105.44
511.617	100.44
511.833	99.44
512.049	74.44
512.265	86.44
512.481	88.44
512.698	86.44
512.914	92.44
513.13	100.44
513.346	87.44
513.562	86.44
513.778	102.44
513.994	92.44
514.21	101.44
514.426	97.44
514.642	122.44
514.858	107.44
515.074	143.44
515.29	334.44
515.506	1034.44
515.721	374.44
515.937	118.44
516.153	94.44
516.369	95.44
516.585	96.44
516.801	99.44
517.016	92.44
517.232	85.44
517.448	90.44
517.664	96.44
517.879	83.44
518.095	107.44
518.311	96.44
518.527	89.44
518.742	103.44
518.958	97.44
519.173	90.44
519.389	94.44
519.605	96.44
519.82	82.44
520.036	94.44
520.251	118.44
520.467	97.44
520.682	90.44
520.898	118.44
521.113	90.44
521.329	124.44
521.544	166.44
521.76	434.44
521.975	1745.44
522.19	1031.44
522.406	223.44
522.621	102.44
522.836	95.44
523.052	109.44
523.267	93.44
523.482	79.44
523.698	90.44
523.913	89.44
524.128	106.44
524.343	78.44
524.559	90.44
524.774	87.44
524.989	72.44
525.204	112.44
525.419	100.44
525.634	78.44
525.849	77.44
526.064	90.44
526.28	84.44
526.495	101.44
526.71	96.44
526.925	73.44
527.14	68.44
527.355	77.44
527.57	85.44
527.785	103.44
527.999	80.44
528.214	94.44
528.429	79.44
528.644	87.44
528.859	74.44
529.074	90.44
529.289	96.44
529.503	148.44
529.718	110.44
529.933	101.44
530.148	70.44
530.363	90.44
530.577	94.44
530.792	93.44
531.007	108.44
531.221	89.44
531.436	80.44
531.651	92.44
531.865	89.44
532.08	103.44
532.295	83.44
532.509	89.44
532.724	84.44
532.938	96.44
533.153	81.44
533.367	94.44
533.582	102.44
533.796	91.44
534.011	92.44
534.225	93.44
534.44	90.44
534.654	72.44
534.868	96.44
535.083	85.44
535.297	89.44
535.511	107.44
535.726	112.44
535.94	98.44
536.154	89.44
536.369	80.44
536.583	76.44
536.797	95.44
537.011	79.44
537.225	84.44
537.44	81.44
537.654	84.44
537.868	93.44
538.082	92.44
538.296	92.44
538.51	100.44
538.724	76.44
538.938	81.44
539.153	91.44
539.367	106.44
539.581	92.44
539.795	97.44
540.009	88.44
540.222	98.44
540.436	81.44
540.65	87.44
540.864	96.44
541.078	101.44
541.292	88.44
541.506	97.44
541.72	86.44
541.934	76.44
542.147	90.44
542.361	95.44
542.575	79.44
542.789	95.44
543.002	84.44
543.216	97.44
543.43	87.44
543.644	86.44
543.857	92.44
544.071	95.44
544.285	83.44
544.498	78.44
544.712	85.44
544.925	92.44
545.139	84.44
545.352	82.44
545.566	89.44
545.779	80.44
545.993	93.44
546.206	85.44
546.42	103.44
546.633	83.44
546.847	92.44
547.06	78.44
547.274	98.44
547.487	95.44
547.7	87.44
547.914	95.44
548.127	76.44
548.34	89.44
548.554	98.44
548.767	85.44
548.98	85.44
549.193	90.44
549.407	86.44
549.62	96.44
549.833	107.44
550.046	95.44
550.259	79.44
550.473	78.44
550.686	97.44
550.899	99.44
551.112	86.44
551.325	84.44
551.538	88.44
551.751	77.44
551.964	76.44
552.177	94.44
552.39	83.44
552.603	82.44
552.816	87.44
553.029	93.44
553.242	89.44
553.455	99.44
553.667	99.44
553.88	104.44
554.093	96.44
554.306	95.44
554.519	93.44
554.732	94.44
554.944	92.44
555.157	87.44
555.37	97.44
555.583	92.44
555.795	86.44
556.008	94.44
556.221	94.44
556.433	102.44
556.646	89.44
556.859	94.44
557.071	89.44
557.284	90.44
557.496	94.44
557.709	93.44
557.921	76.44
558.134	84.44
558.346	89.44
558.559	84.44
558.771	85.44
558.984	93.44
559.196	78.44
559.409	105.44
559.621	97.44
559.833	85.44
560.046	103.44
560.258	90.44
560.47	85.44
560.683	80.44
560.895	104.44
561.107	82.44
561.32	81.44
561.532	87.44
561.744	96.44
561.956	92.44
562.168	94.44
562.381	89.44
562.593	89.44
562.805	82.44
563.017	73.44
563.229	80.44
563.441	74.44
563.653	67.44
563.865	93.44
564.077	96.44
564.289	80.44
564.501	99.44
564.713	96.44
564.925	93.44
565.137	98.44
565.349	83.44
565.561	90.44
565.773	81.44
565.985	81.44
566.197	93.44
566.408	98.44
566.62	79.44
566.832	92.44
567.044	72.44
567.255	78.44
567.467	82.44
567.679	73.44
567.891	87.44
568.102	80.44
568.314	81.44
568.526	79.44
568.737	95.44
568.949	87.44
569.161	71.44
569.372	82.44
569.584	99.44
569.795	84.44
570.007	100.44
570.218	192.44
570.43	117.44
570.641	94.44
570.853	85.44
571.064	70.44
571.276	79.44
571.487	80.44
571.698	83.44
571.91	97.44
572.121	80.44
572.333	84.44
572.544	77.44
572.755	80.44
572.966	102.44
573.178	88.44
573.389	82.44
573.6	78.44
573.811	81.44
574.023	79.44
574.234	86.44
574.445	88.44
574.656	87.44
574.867	80.44
575.078	97.44
575.289	93.44
575.501	90.44
575.712	86.44
575.923	99.44
576.134	101.44
576.345	96.44
576.556	90.44
576.767	96.44
576.978	87.44
577.188	85.44
577.399	89.44
577.61	78.44
577.821	89.44
578.032	105.44
578.243	231.44
578.454	568.44
578.665	180.44
578.875	105.44
579.086	78.44
579.297	90.44
579.508	84.44
579.718	91.44
579.929	85.44
580.14	99.44
580.35	83.44
580.561	84.44
580.772	71.44
580.982	80.44
581.193	83.44
581.403	80.44
581.614	84.44
581.825	65.44
582.035	93.44
582.246	89.44
582.456	89.44
582.667	72.44
582.877	83.44
583.087	85.44
583.298	80.44
583.508	82.44
583.719	84.44
583.929	79.44
584.139	84.44
584.35	104.44
584.56	101.44
584.77	94.44
584.981	93.44
585.191	91.44
585.401	97.44
585.611	87.44
585.821	80.44
586.032	84.44
586.242	94.44
586.452	80.44
586.662	92.44
586.872	85.44
587.082	92.44
587.292	93.44
587.502	100.44
587.713	76.44
587.923	77.44
588.133	88.44
588.343	88.44
588.553	82.44
588.762	88.44
588.972	92.44
589.182	115.44
589.392	101.44
589.602	89.44
589.812	111.44
590.022	105.44
590.232	95.44
590.441	80.44
590.651	74.44
590.861	85.44
591.071	90.44
591.281	95.44
591.49	87.44
591.7	70.44
591.91	95.44
592.119	88.44
592.329	94.44
592.539	98.44
592.748	93.44
592.958	88.44
593.167	79.44
593.377	84.44
593.587	86.44
593.796	82.44
594.006	92.44
594.215	86.44
594.424	66.44
594.634	99.44
594.843	78.44
595.053	82.44
595.262	89.44
595.472	76.44
595.681	66.44
595.89	73.44
596.1	95.44
596.309	85.44
596.518	79.44
596.727	84.44
596.937	94.44
597.146	95.44
597.355	91.44
597.564	82.44
597.774	89.44
597.983	85.44
598.192	75.44
598.401	84.44
598.61	87.44
598.819	88.44
599.028	77.44
599.237	84.44
599.446	97.44
599.655	86.44
599.864	91.44
600.073	97.44
600.282	84.44
600.491	67.44
600.7	80.44
600.909	70.44
601.118	92.44
601.327	80.44
601.536	96.44
601.745	83.44
601.953	99.44
602.162	85.44
602.371	78.44
602.58	80.44
602.789	85.44
602.997	94.44
603.206	74.44
603.415	70.44
603.623	84.44
603.832	85.44
604.041	91.44
604.249	94.44
604.458	93.44
604.666	90.44
604.875	79.44
605.084	94.44
605.292	93.44
605.501	85.44
605.709	78.44
605.918	93.44
606.126	87.44
606.334	85.44
606.543	78.44
606.751	84.44
606.96	83.44
607.168	81.44
607.376	89.44
607.585	83.44
607.793	77.44
608.001	77.44
608.21	90.44
608.418	94.44
608.626	85.44
608.834	79.44
609.043	89.44
609.251	68.44
609.459	86.44
609.667	68.44
609.875	73.44
610.083	72.44
610.291	83.44
610.499	79.44
610.707	94.44
610.916	89.44
611.124	82.44
611.332	77.44
611.54	78.44
611.748	78.44
611.955	77.44
612.163	93.44
612.371	72.44
612.579	89.44
612.787	84.44
612.995	96.44
613.203	83.44
613.411	76.44
613.618	85.44
613.826	86.44
614.034	77.44
614.242	89.44
614.449	82.44
614.657	88.44
614.865	69.44
615.072	81.44
615.28	83.44
615.488	80.44
615.695	81.44
615.903	89.44
616.111	92.44
616.318	90.44
616.526	84.44
616.733	104.44
616.941	92.44
617.148	105.44
617.356	79.44
617.563	76.44
617.771	68.44
617.978	76.44
618.185	86.44
618.393	92.44
618.6	77.44
618.807	81.44
619.015	84.44
619.222	90.44
619.429	85.44
619.637	88.44
619.844	85.44
620.051	81.44
620.258	69.44
620.466	73.44
620.673	80.44
620.88	76.44
621.087	83.44
621.294	80.44
621.501	92.44
621.708	94.44
621.915	89.44
622.122	73.44
622.329	94.44
622.536	73.44
622.743	61.44
622.95	87.44
623.157	77.44
623.364	81.44
623.571	69.44
623.778	85.44
623.985	84.44
624.192	85.44
624.399	87.44
624.606	77.44
624.812	86.44
625.019	89.44
625.226	89.44
625.433	82.44
625.639	82.44
625.846	73.44
626.053	83.44
626.259	70.44
626.466	78.44
626.673	78.44
626.879	86.44
627.086	93.44
627.293	90.44
627.499	80.44
627.706	96.44
627.912	71.44
628.119	68.44
628.325	95.44
628.532	88.44
628.738	72.44
628.945	76.44
629.151	83.44
629.357	84.44
629.564	82.44
629.77	94.44
629.976	75.44
630.183	74.44
630.389	88.44
630.595	82.44
630.802	78.44
631.008	77.44
631.214	82.44
631.42	83.44
631.627	82.44
631.833	84.44
632.039	83.44
632.245	88.44
632.451	85.44
632.657	91.44
632.863	83.44
633.069	72.44
633.275	82.44
633.481	71.44
633.688	88.44
633.893	80.44
634.099	79.44
634.305	68.44
634.511	100.44
634.717	97.44
634.923	80.44
635.129	86.44
635.335	84.44
635.541	69.44
635.747	80.44
635.952	82.44
636.158	73.44
636.364	91.44
636.57	81.44
636.775	84.44
636.981	76.44
637.187	74.44
637.392	78.44
637.598	76.44
637.804	75.44
638.009	86.44
638.215	95.44
638.421	84.44
638.626	63.44
638.832	77.44
639.037	81.44
639.243	77.44
639.448	69.44
639.654	103.44
639.859	78.44
640.065	72.44
640.27	85.44
640.475	73.44
640.681	85.44
640.886	86.44
641.091	95.44
641.297	86.44
641.502	88.44
641.707	77.44
641.913	91.44
642.118	95.44
642.323	78.44
642.528	77.44
642.733	82.44
642.939	80.44
643.144	81.44
643.349	78.44
643.554	76.44
643.759	87.44
643.964	93.44
644.169	86.44
644.374	86.44
644.579	85.44
644.784	84.44
644.989	73.44
645.194	81.44
645.399	79.44
645.604	74.44
645.809	84.44
646.014	59.44
646.219	78.44
646.423	77.44
646.628	89.44
646.833	87.44
647.038	72.44
647.243	86.44
647.447	85.44
647.652	98.44
647.857	81.44
648.062	86.44
648.266	94.44
648.471	98.44
648.676	100.44
648.88	86.44
649.085	96.44
649.289	84.44
649.494	93.44
649.698	105.44
649.903	93.44
650.107	87.44
650.312	76.44
650.516	79.44
650.721	82.44
650.925	78.44
651.13	83.44
651.334	77.44
651.539	78.44
651.743	91.44
651.947	71.44
652.152	66.44
652.356	82.44
652.56	78.44
652.764	69.44
652.969	86.44
653.173	67.44
653.377	68.44
653.581	89.44
653.785	92.44
653.99	78.44
654.194	87.44
654.398	88.44
654.602	88.44
654.806	83.44
655.01	97.44
655.214	79.44
655.418	94.44
655.622	84.44
655.826	75.44
656.03	85.44
656.234	87.44
656.438	98.44
656.642	97.44
656.846	82.44
657.049	82.44
657.253	78.44
657.457	87.44
657.661	78.44
657.865	79.44
658.068	78.44
658.272	81.44
658.476	85.44
658.68	74.44
658.883	73.44
659.087	79.44
659.291	95.44
659.494	81.44
659.698	72.44
659.901	78.44
660.105	77.44
660.309	81.44
660.512	84.44
660.716	86.44
660.919	78.44
661.123	77.44
661.326	86.44
661.53	84.44
661.733	84.44
661.936	84.44
662.14	60.44
662.343	69.44
662.546	77.44
662.75	86.44
662.953	81.44
663.156	65.44
663.36	63.44
663.563	76.44
663.766	80.44
663.969	75.44
664.173	71.44
664.376	72.44
664.579	70.44
664.782	79.44
664.985	86.44
665.188	89.44
665.391	79.44
665.594	74.44
665.797	85.44
666	80.44
666.203	77.44
666.406	74.44
666.609	64.44
666.812	83.44
667.015	80.44
667.218	87.44
667.421	81.44
667.624	79.44
667.827	70.44
668.03	84.44
668.232	84.44
668.435	82.44
668.638	71.44
668.841	85.44
669.043	65.44
669.246	64.44
669.449	64.44
669.651	79.44
669.854	80.44
670.057	67.44
670.259	76.44
670.462	69.44
670.665	69.44
670.867	78.44
671.07	69.44
671.272	64.44
671.475	71.44
671.677	77.44
671.88	82.44
672.082	81.44
672.284	69.44
672.487	77.44
672.689	84.44
672.892	91.44
