Data from Circ_1986_H10_HRD10591_00023.txt Node
Date: Wed Jan 03 12:15:30 EST 2024
User: Yrep
Spectrometer: HR+D1059
Trigger mode: 1
Integration Time (sec): 1.000000E-1
Scans to average: 1
Electric dark correction enabled: true
Nonlinearity correction enabled: false
Boxcar width: 0
XAxis mode: Wavelengths
Number of Pixels in Spectrum: 2048
>>>>>Begin Spectral Data<<<<<
223.165	-22.56
223.4	-22.56
223.635	-22.56
223.869	-18.56
224.104	-19.56
224.338	-7.56
224.573	-2.56
224.808	-19.56
225.042	-13.56
225.277	-6.56
225.511	-2.56
225.746	2.44
225.98	13.44
226.215	6.44
226.449	10.44
226.683	25.44
226.918	21.44
227.152	33.44
227.387	40.44
227.621	34.44
227.856	60.44
228.09	37.44
228.324	44.44
228.559	60.44
228.793	54.44
229.027	71.44
229.262	69.44
229.496	71.44
229.73	76.44
229.964	72.44
230.199	78.44
230.433	81.44
230.667	80.44
230.901	86.44
231.136	74.44
231.37	74.44
231.604	91.44
231.838	75.44
232.072	84.44
232.306	84.44
232.541	90.44
232.775	96.44
233.009	106.44
233.243	82.44
233.477	81.44
233.711	82.44
233.945	85.44
234.179	77.44
234.413	72.44
234.647	88.44
234.881	84.44
235.115	83.44
235.349	84.44
235.583	82.44
235.817	89.44
236.051	90.44
236.285	85.44
236.519	87.44
236.753	71.44
236.987	73.44
237.221	81.44
237.455	78.44
237.689	74.44
237.922	83.44
238.156	88.44
238.39	82.44
238.624	81.44
238.858	90.44
239.091	91.44
239.325	87.44
239.559	80.44
239.793	80.44
240.027	87.44
240.26	88.44
240.494	68.44
240.728	64.44
240.961	76.44
241.195	98.44
241.429	93.44
241.662	69.44
241.896	66.44
242.13	92.44
242.363	82.44
242.597	67.44
242.83	77.44
243.064	76.44
243.298	86.44
243.531	80.44
243.765	82.44
243.998	84.44
244.232	76.44
244.465	78.44
244.699	61.44
244.932	68.44
245.166	71.44
245.399	86.44
245.633	70.44
245.866	85.44
246.099	75.44
246.333	80.44
246.566	75.44
246.8	73.44
247.033	87.44
247.266	82.44
247.5	68.44
247.733	87.44
247.966	70.44
248.2	79.44
248.433	79.44
248.666	82.44
248.899	72.44
249.133	86.44
249.366	94.44
249.599	97.44
249.832	87.44
250.066	88.44
250.299	85.44
250.532	82.44
250.765	84.44
250.998	72.44
251.231	93.44
251.465	86.44
251.698	88.44
251.931	78.44
252.164	67.44
252.397	81.44
252.63	85.44
252.863	93.44
253.096	89.44
253.329	89.44
253.562	77.44
253.795	100.44
254.028	92.44
254.261	80.44
254.494	87.44
254.727	81.44
254.96	74.44
255.193	86.44
255.426	90.44
255.659	80.44
255.892	77.44
256.124	86.44
256.357	83.44
256.59	82.44
256.823	85.44
257.056	91.44
257.289	92.44
257.521	72.44
257.754	90.44
257.987	97.44
258.22	89.44
258.452	89.44
258.685	73.44
258.918	73.44
259.151	69.44
259.383	77.44
259.616	77.44
259.849	92.44
260.081	96.44
260.314	83.44
260.547	86.44
260.779	70.44
261.012	86.44
261.244	80.44
261.477	90.44
261.71	83.44
261.942	92.44
262.175	116.44
262.407	97.44
262.64	90.44
262.872	92.44
263.105	80.44
263.337	89.44
263.57	88.44
263.802	89.44
264.035	93.44
264.267	90.44
264.499	98.44
264.732	91.44
264.964	87.44
265.197	77.44
265.429	91.44
265.661	83.44
265.894	81.44
266.126	78.44
266.358	78.44
266.591	89.44
266.823	98.44
267.055	73.44
267.287	94.44
267.52	73.44
267.752	90.44
267.984	81.44
268.216	82.44
268.448	83.44
268.681	85.44
268.913	78.44
269.145	91.44
269.377	76.44
269.609	85.44
269.841	80.44
270.073	87.44
270.306	88.44
270.538	81.44
270.77	80.44
271.002	88.44
271.234	89.44
271.466	89.44
271.698	93.44
271.93	92.44
272.162	88.44
272.394	96.44
272.626	87.44
272.858	72.44
273.09	88.44
273.322	91.44
273.553	89.44
273.785	68.44
274.017	82.44
274.249	87.44
274.481	100.44
274.713	85.44
274.945	92.44
275.176	84.44
275.408	90.44
275.64	89.44
275.872	84.44
276.104	78.44
276.335	92.44
276.567	96.44
276.799	102.44
277.031	99.44
277.262	88.44
277.494	80.44
277.726	78.44
277.957	80.44
278.189	88.44
278.421	96.44
278.652	93.44
278.884	77.44
279.115	84.44
279.347	82.44
279.579	90.44
279.81	92.44
280.042	91.44
280.273	101.44
280.505	86.44
280.736	93.44
280.968	78.44
281.199	88.44
281.431	81.44
281.662	89.44
281.894	78.44
282.125	100.44
282.356	109.44
282.588	124.44
282.819	105.44
283.051	86.44
283.282	82.44
283.513	94.44
283.745	88.44
283.976	96.44
284.207	84.44
284.439	88.44
284.67	99.44
284.901	98.44
285.132	91.44
285.364	96.44
285.595	85.44
285.826	82.44
286.057	86.44
286.288	75.44
286.52	96.44
286.751	86.44
286.982	80.44
287.213	86.44
287.444	98.44
287.675	88.44
287.906	86.44
288.138	86.44
288.369	86.44
288.6	70.44
288.831	89.44
289.062	80.44
289.293	78.44
289.524	82.44
289.755	71.44
289.986	90.44
290.217	88.44
290.448	84.44
290.679	92.44
290.91	99.44
291.141	97.44
291.371	93.44
291.602	91.44
291.833	86.44
292.064	88.44
292.295	81.44
292.526	97.44
292.757	93.44
292.987	100.44
293.218	101.44
293.449	99.44
293.68	82.44
293.91	91.44
294.141	87.44
294.372	74.44
294.603	87.44
294.833	102.44
295.064	96.44
295.295	96.44
295.525	98.44
295.756	105.44
295.987	105.44
296.217	109.44
296.448	109.44
296.679	95.44
296.909	96.44
297.14	93.44
297.37	80.44
297.601	82.44
297.831	93.44
298.062	93.44
298.292	89.44
298.523	90.44
298.753	93.44
298.984	83.44
299.214	92.44
299.445	92.44
299.675	87.44
299.905	96.44
300.136	85.44
300.366	82.44
300.597	82.44
300.827	88.44
301.057	77.44
301.288	96.44
301.518	91.44
301.748	80.44
301.979	110.44
302.209	96.44
302.439	97.44
302.669	85.44
302.9	85.44
303.13	73.44
303.36	72.44
303.59	90.44
303.82	92.44
304.051	87.44
304.281	97.44
304.511	93.44
304.741	103.44
304.971	86.44
305.201	88.44
305.431	88.44
305.661	93.44
305.891	92.44
306.121	96.44
306.352	107.44
306.582	90.44
306.812	90.44
307.042	96.44
307.272	104.44
307.502	84.44
307.731	88.44
307.961	90.44
308.191	84.44
308.421	112.44
308.651	90.44
308.881	95.44
309.111	89.44
309.341	83.44
309.571	89.44
309.8	76.44
310.03	91.44
310.26	86.44
310.49	89.44
310.72	94.44
310.949	96.44
311.179	96.44
311.409	92.44
311.639	92.44
311.868	94.44
312.098	97.44
312.328	95.44
312.557	91.44
312.787	96.44
313.017	108.44
313.246	91.44
313.476	90.44
313.706	91.44
313.935	95.44
314.165	94.44
314.394	100.44
314.624	112.44
314.853	89.44
315.083	83.44
315.312	92.44
315.542	78.44
315.771	106.44
316.001	92.44
316.23	100.44
316.46	88.44
316.689	89.44
316.919	94.44
317.148	82.44
317.377	89.44
317.607	101.44
317.836	84.44
318.065	81.44
318.295	85.44
318.524	85.44
318.753	93.44
318.983	102.44
319.212	96.44
319.441	97.44
319.67	100.44
319.9	76.44
320.129	73.44
320.358	88.44
320.587	88.44
320.816	94.44
321.046	109.44
321.275	104.44
321.504	97.44
321.733	99.44
321.962	92.44
322.191	110.44
322.42	99.44
322.649	115.44
322.878	109.44
323.108	108.44
323.337	109.44
323.566	129.44
323.795	150.44
324.024	164.44
324.253	291.44
324.482	556.44
324.71	1195.44
324.939	1526.44
325.168	573.44
325.397	199.44
325.626	126.44
325.855	114.44
326.084	100.44
326.313	119.44
326.542	132.44
326.77	186.44
326.999	343.44
327.228	693.44
327.457	1232.44
327.686	980.44
327.914	292.44
328.143	174.44
328.372	135.44
328.6	113.44
328.829	124.44
329.058	120.44
329.287	106.44
329.515	106.44
329.744	101.44
329.972	111.44
330.201	100.44
330.43	134.44
330.658	132.44
330.887	131.44
331.115	111.44
331.344	98.44
331.572	94.44
331.801	81.44
332.03	104.44
332.258	90.44
332.486	101.44
332.715	90.44
332.943	91.44
333.172	92.44
333.4	94.44
333.629	108.44
333.857	111.44
334.085	86.44
334.314	108.44
334.542	136.44
334.771	129.44
334.999	100.44
335.227	92.44
335.455	106.44
335.684	93.44
335.912	117.44
336.14	94.44
336.369	82.44
336.597	99.44
336.825	85.44
337.053	92.44
337.281	99.44
337.51	88.44
337.738	83.44
337.966	93.44
338.194	102.44
338.422	100.44
338.65	91.44
338.878	94.44
339.106	100.44
339.334	90.44
339.562	100.44
339.79	100.44
340.018	81.44
340.246	115.44
340.474	103.44
340.702	94.44
340.93	100.44
341.158	98.44
341.386	98.44
341.614	92.44
341.842	88.44
342.07	97.44
342.298	93.44
342.526	96.44
342.754	89.44
342.981	81.44
343.209	93.44
343.437	105.44
343.665	76.44
343.893	106.44
344.12	102.44
344.348	99.44
344.576	93.44
344.804	100.44
345.031	98.44
345.259	80.44
345.487	80.44
345.714	88.44
345.942	104.44
346.17	99.44
346.397	84.44
346.625	90.44
346.853	91.44
347.08	93.44
347.308	97.44
347.535	97.44
347.763	101.44
347.99	89.44
348.218	91.44
348.445	106.44
348.673	84.44
348.9	97.44
349.128	98.44
349.355	98.44
349.583	101.44
349.81	100.44
350.037	94.44
350.265	80.44
350.492	90.44
350.72	98.44
350.947	102.44
351.174	105.44
351.402	110.44
351.629	98.44
351.856	101.44
352.083	98.44
352.311	109.44
352.538	111.44
352.765	112.44
352.992	92.44
353.22	118.44
353.447	118.44
353.674	104.44
353.901	99.44
354.128	94.44
354.355	105.44
354.583	101.44
354.81	102.44
355.037	101.44
355.264	87.44
355.491	95.44
355.718	86.44
355.945	88.44
356.172	94.44
356.399	87.44
356.626	111.44
356.853	93.44
357.08	96.44
357.307	93.44
357.534	109.44
357.761	110.44
357.988	93.44
358.215	106.44
358.441	98.44
358.668	128.44
358.895	88.44
359.122	102.44
359.349	100.44
359.576	97.44
359.802	112.44
360.029	103.44
360.256	108.44
360.483	87.44
360.709	83.44
360.936	100.44
361.163	89.44
361.39	96.44
361.616	97.44
361.843	93.44
362.07	90.44
362.296	83.44
362.523	88.44
362.749	99.44
362.976	91.44
363.203	99.44
363.429	83.44
363.656	81.44
363.882	100.44
364.109	96.44
364.335	91.44
364.562	99.44
364.788	98.44
365.015	103.44
365.241	97.44
365.468	92.44
365.694	101.44
365.92	96.44
366.147	67.44
366.373	98.44
366.599	94.44
366.826	74.44
367.052	100.44
367.278	88.44
367.505	91.44
367.731	96.44
367.957	89.44
368.184	92.44
368.41	100.44
368.636	108.44
368.862	120.44
369.089	110.44
369.315	86.44
369.541	99.44
369.767	93.44
369.993	91.44
370.219	87.44
370.445	89.44
370.672	87.44
370.898	92.44
371.124	97.44
371.35	96.44
371.576	95.44
371.802	84.44
372.028	82.44
372.254	89.44
372.48	81.44
372.706	88.44
372.932	106.44
373.158	90.44
373.384	101.44
373.61	90.44
373.835	96.44
374.061	80.44
374.287	82.44
374.513	103.44
374.739	99.44
374.965	78.44
375.191	95.44
375.416	96.44
375.642	93.44
375.868	93.44
376.094	100.44
376.319	93.44
376.545	99.44
376.771	106.44
376.997	82.44
377.222	86.44
377.448	91.44
377.674	94.44
377.899	93.44
378.125	100.44
378.35	107.44
378.576	105.44
378.802	107.44
379.027	82.44
379.253	92.44
379.478	98.44
379.704	97.44
379.929	109.44
380.155	104.44
380.38	97.44
380.606	101.44
380.831	106.44
381.057	99.44
381.282	97.44
381.507	108.44
381.733	103.44
381.958	104.44
382.184	94.44
382.409	94.44
382.634	103.44
382.86	100.44
383.085	115.44
383.31	107.44
383.535	111.44
383.761	109.44
383.986	98.44
384.211	105.44
384.436	106.44
384.662	102.44
384.887	121.44
385.112	116.44
385.337	113.44
385.562	117.44
385.787	111.44
386.013	128.44
386.238	128.44
386.463	119.44
386.688	108.44
386.913	124.44
387.138	107.44
387.363	121.44
387.588	120.44
387.813	121.44
388.038	113.44
388.263	115.44
388.488	115.44
388.713	108.44
388.938	92.44
389.163	87.44
389.387	83.44
389.612	86.44
389.837	83.44
390.062	95.44
390.287	100.44
390.512	100.44
390.736	90.44
390.961	86.44
391.186	108.44
391.411	89.44
391.636	91.44
391.86	83.44
392.085	77.44
392.31	75.44
392.534	90.44
392.759	107.44
392.984	96.44
393.208	99.44
393.433	84.44
393.658	90.44
393.882	74.44
394.107	91.44
394.331	92.44
394.556	79.44
394.78	78.44
395.005	80.44
395.229	92.44
395.454	89.44
395.678	78.44
395.903	89.44
396.127	90.44
396.352	80.44
396.576	81.44
396.801	86.44
397.025	96.44
397.249	93.44
397.474	85.44
397.698	87.44
397.922	87.44
398.147	98.44
398.371	87.44
398.595	92.44
398.82	89.44
399.044	83.44
399.268	93.44
399.492	100.44
399.717	87.44
399.941	88.44
400.165	112.44
400.389	88.44
400.613	102.44
400.837	96.44
401.062	87.44
401.286	92.44
401.51	95.44
401.734	85.44
401.958	113.44
402.182	126.44
402.406	124.44
402.63	105.44
402.854	96.44
403.078	84.44
403.302	92.44
403.526	90.44
403.75	91.44
403.974	89.44
404.198	99.44
404.422	78.44
404.645	84.44
404.869	84.44
405.093	91.44
405.317	100.44
405.541	88.44
405.765	77.44
405.988	105.44
406.212	141.44
406.436	169.44
406.66	103.44
406.883	96.44
407.107	105.44
407.331	105.44
407.555	79.44
407.778	92.44
408.002	96.44
408.226	80.44
408.449	86.44
408.673	88.44
408.896	106.44
409.12	101.44
409.344	94.44
409.567	92.44
409.791	106.44
410.014	99.44
410.238	85.44
410.461	99.44
410.685	88.44
410.908	119.44
411.132	105.44
411.355	96.44
411.578	103.44
411.802	81.44
412.025	87.44
412.249	81.44
412.472	81.44
412.695	92.44
412.919	114.44
413.142	100.44
413.365	94.44
413.589	99.44
413.812	92.44
414.035	92.44
414.258	99.44
414.482	96.44
414.705	85.44
414.928	96.44
415.151	93.44
415.374	91.44
415.597	92.44
415.821	93.44
416.044	95.44
416.267	92.44
416.49	89.44
416.713	105.44
416.936	96.44
417.159	90.44
417.382	82.44
417.605	91.44
417.828	110.44
418.051	99.44
418.274	87.44
418.497	84.44
418.72	95.44
418.943	78.44
419.166	98.44
419.389	110.44
419.611	100.44
419.834	102.44
420.057	93.44
420.28	97.44
420.503	86.44
420.726	91.44
420.948	90.44
421.171	90.44
421.394	93.44
421.617	94.44
421.839	104.44
422.062	92.44
422.285	108.44
422.507	102.44
422.73	113.44
422.953	107.44
423.175	96.44
423.398	71.44
423.621	94.44
423.843	85.44
424.066	83.44
424.288	86.44
424.511	89.44
424.733	94.44
424.956	103.44
425.178	97.44
425.401	93.44
425.623	73.44
425.846	104.44
426.068	92.44
426.291	77.44
426.513	97.44
426.735	104.44
426.958	80.44
427.18	95.44
427.402	111.44
427.625	131.44
427.847	117.44
428.069	105.44
428.292	81.44
428.514	103.44
428.736	99.44
428.958	85.44
429.181	89.44
429.403	77.44
429.625	84.44
429.847	92.44
430.069	86.44
430.292	86.44
430.514	86.44
430.736	88.44
430.958	98.44
431.18	93.44
431.402	88.44
431.624	91.44
431.846	90.44
432.068	96.44
432.29	80.44
432.512	75.44
432.734	79.44
432.956	96.44
433.178	96.44
433.4	94.44
433.622	100.44
433.844	90.44
434.066	95.44
434.287	98.44
434.509	94.44
434.731	88.44
434.953	75.44
435.175	104.44
435.397	100.44
435.618	101.44
435.84	108.44
436.062	110.44
436.284	107.44
436.505	98.44
436.727	96.44
436.949	91.44
437.17	94.44
437.392	79.44
437.614	82.44
437.835	94.44
438.057	93.44
438.278	108.44
438.5	94.44
438.721	116.44
438.943	92.44
439.165	79.44
439.386	92.44
439.608	91.44
439.829	93.44
440.05	101.44
440.272	121.44
440.493	93.44
440.715	97.44
440.936	81.44
441.158	86.44
441.379	83.44
441.6	94.44
441.822	102.44
442.043	93.44
442.264	93.44
442.486	104.44
442.707	100.44
442.928	95.44
443.149	118.44
443.371	113.44
443.592	94.44
443.813	90.44
444.034	93.44
444.255	92.44
444.476	85.44
444.698	89.44
444.919	76.44
445.14	109.44
445.361	119.44
445.582	117.44
445.803	124.44
446.024	114.44
446.245	124.44
446.466	114.44
446.687	83.44
446.908	94.44
447.129	69.44
447.35	104.44
447.571	96.44
447.792	90.44
448.013	91.44
448.234	114.44
448.455	96.44
448.675	119.44
448.896	104.44
449.117	93.44
449.338	104.44
449.559	110.44
449.779	112.44
450	105.44
450.221	104.44
450.442	95.44
450.662	85.44
450.883	94.44
451.104	99.44
451.324	86.44
451.545	102.44
451.766	98.44
451.986	92.44
452.207	83.44
452.428	92.44
452.648	87.44
452.869	105.44
453.089	105.44
453.31	106.44
453.53	115.44
453.751	96.44
453.971	113.44
454.192	99.44
454.412	92.44
454.633	89.44
454.853	76.44
455.073	55.44
455.294	84.44
455.514	101.44
455.734	84.44
455.955	89.44
456.175	77.44
456.395	73.44
456.616	78.44
456.836	84.44
457.056	91.44
457.276	94.44
457.497	89.44
457.717	96.44
457.937	94.44
458.157	76.44
458.377	104.44
458.598	89.44
458.818	112.44
459.038	128.44
459.258	97.44
459.478	89.44
459.698	76.44
459.918	102.44
460.138	82.44
460.358	91.44
460.578	89.44
460.798	90.44
461.018	71.44
461.238	93.44
461.458	89.44
461.678	93.44
461.898	86.44
462.118	82.44
462.338	85.44
462.558	88.44
462.777	86.44
462.997	85.44
463.217	93.44
463.437	83.44
463.657	88.44
463.876	76.44
464.096	90.44
464.316	86.44
464.536	92.44
464.755	95.44
464.975	97.44
465.195	136.44
465.414	124.44
465.634	91.44
465.854	92.44
466.073	83.44
466.293	98.44
466.512	89.44
466.732	88.44
466.951	89.44
467.171	100.44
467.391	104.44
467.61	97.44
467.829	100.44
468.049	113.44
468.268	105.44
468.488	89.44
468.707	90.44
468.927	71.44
469.146	84.44
469.365	93.44
469.585	78.44
469.804	81.44
470.023	88.44
470.243	80.44
470.462	85.44
470.681	96.44
470.901	100.44
471.12	99.44
471.339	93.44
471.558	85.44
471.777	89.44
471.997	84.44
472.216	112.44
472.435	141.44
472.654	87.44
472.873	89.44
473.092	99.44
473.311	99.44
473.53	91.44
473.749	93.44
473.968	83.44
474.187	102.44
474.406	99.44
474.625	93.44
474.844	96.44
475.063	93.44
475.282	83.44
475.501	90.44
475.72	76.44
475.939	88.44
476.158	82.44
476.377	90.44
476.596	97.44
476.814	92.44
477.033	90.44
477.252	95.44
477.471	84.44
477.69	101.44
477.908	86.44
478.127	96.44
478.346	89.44
478.564	92.44
478.783	98.44
479.002	98.44
479.22	93.44
479.439	95.44
479.658	102.44
479.876	97.44
480.095	96.44
480.313	97.44
480.532	83.44
480.751	101.44
480.969	104.44
481.188	194.44
481.406	148.44
481.624	99.44
481.843	92.44
482.061	86.44
482.28	88.44
482.498	90.44
482.717	90.44
482.935	92.44
483.153	91.44
483.372	87.44
483.59	77.44
483.808	87.44
484.027	103.44
484.245	95.44
484.463	94.44
484.681	113.44
484.9	94.44
485.118	92.44
485.336	100.44
485.554	102.44
485.772	88.44
485.99	110.44
486.209	106.44
486.427	93.44
486.645	115.44
486.863	96.44
487.081	111.44
487.299	102.44
487.517	108.44
487.735	87.44
487.953	106.44
488.171	103.44
488.389	105.44
488.607	93.44
488.825	85.44
489.043	94.44
489.261	88.44
489.479	89.44
489.696	94.44
489.914	84.44
490.132	84.44
490.35	82.44
490.568	81.44
490.786	89.44
491.003	84.44
491.221	103.44
491.439	94.44
491.657	110.44
491.874	102.44
492.092	92.44
492.31	96.44
492.527	82.44
492.745	96.44
492.963	93.44
493.18	88.44
493.398	64.44
493.615	89.44
493.833	99.44
494.05	92.44
494.268	98.44
494.485	95.44
494.703	93.44
494.92	84.44
495.138	96.44
495.355	98.44
495.573	91.44
495.79	98.44
496.008	94.44
496.225	86.44
496.442	92.44
496.66	100.44
496.877	106.44
497.094	96.44
497.312	91.44
497.529	90.44
497.746	102.44
497.963	100.44
498.181	102.44
498.398	84.44
498.615	103.44
498.832	114.44
499.049	112.44
499.267	88.44
499.484	92.44
499.701	94.44
499.918	81.44
500.135	90.44
500.352	85.44
500.569	83.44
500.786	91.44
501.003	94.44
501.22	74.44
501.437	80.44
501.654	95.44
501.871	100.44
502.088	84.44
502.305	96.44
502.522	88.44
502.739	87.44
502.956	96.44
503.172	66.44
503.389	104.44
503.606	108.44
503.823	100.44
504.04	91.44
504.256	99.44
504.473	97.44
504.69	66.44
504.907	107.44
505.123	84.44
505.34	91.44
505.557	90.44
505.773	85.44
505.99	91.44
506.207	72.44
506.423	89.44
506.64	82.44
506.856	95.44
507.073	85.44
507.289	90.44
507.506	94.44
507.722	95.44
507.939	89.44
508.155	85.44
508.372	87.44
508.588	77.44
508.805	92.44
509.021	90.44
509.238	106.44
509.454	91.44
509.67	89.44
509.887	115.44
510.103	118.44
510.319	172.44
510.536	534.44
510.752	1501.44
510.968	454.44
511.184	131.44
511.401	103.44
511.617	89.44
511.833	87.44
512.049	103.44
512.265	86.44
512.481	84.44
512.698	89.44
512.914	99.44
513.13	108.44
513.346	96.44
513.562	99.44
513.778	87.44
513.994	96.44
514.21	90.44
514.426	116.44
514.642	118.44
514.858	113.44
515.074	139.44
515.29	312.44
515.506	872.44
515.721	336.44
515.937	119.44
516.153	89.44
516.369	98.44
516.585	84.44
516.801	104.44
517.016	100.44
517.232	96.44
517.448	90.44
517.664	82.44
517.879	97.44
518.095	90.44
518.311	98.44
518.527	88.44
518.742	89.44
518.958	114.44
519.173	99.44
519.389	83.44
519.605	93.44
519.82	102.44
520.036	101.44
520.251	106.44
520.467	100.44
520.682	114.44
520.898	100.44
521.113	106.44
521.329	118.44
521.544	161.44
521.76	372.44
521.975	1409.44
522.19	843.44
522.406	209.44
522.621	125.44
522.836	90.44
523.052	87.44
523.267	95.44
523.482	89.44
523.698	90.44
523.913	117.44
524.128	99.44
524.343	98.44
524.559	94.44
524.774	89.44
524.989	95.44
525.204	83.44
525.419	96.44
525.634	90.44
525.849	101.44
526.064	83.44
526.28	106.44
526.495	84.44
526.71	91.44
526.925	85.44
527.14	91.44
527.355	96.44
527.57	91.44
527.785	95.44
527.999	67.44
528.214	88.44
528.429	107.44
528.644	107.44
528.859	96.44
529.074	93.44
529.289	108.44
529.503	142.44
529.718	108.44
529.933	86.44
530.148	105.44
530.363	99.44
530.577	87.44
530.792	80.44
531.007	106.44
531.221	83.44
531.436	93.44
531.651	105.44
531.865	95.44
532.08	96.44
532.295	95.44
532.509	93.44
532.724	97.44
532.938	76.44
533.153	111.44
533.367	102.44
533.582	96.44
533.796	92.44
534.011	81.44
534.225	110.44
534.44	96.44
534.654	97.44
534.868	92.44
535.083	84.44
535.297	88.44
535.511	98.44
535.726	101.44
535.94	92.44
536.154	109.44
536.369	95.44
536.583	80.44
536.797	95.44
537.011	94.44
537.225	100.44
537.44	85.44
537.654	96.44
537.868	86.44
538.082	90.44
538.296	104.44
538.51	105.44
538.724	84.44
538.938	90.44
539.153	97.44
539.367	99.44
539.581	96.44
539.795	95.44
540.009	77.44
540.222	104.44
540.436	86.44
540.65	88.44
540.864	78.44
541.078	96.44
541.292	106.44
541.506	99.44
541.72	81.44
541.934	102.44
542.147	96.44
542.361	100.44
542.575	82.44
542.789	98.44
543.002	76.44
543.216	82.44
543.43	97.44
543.644	96.44
543.857	92.44
544.071	97.44
544.285	93.44
544.498	90.44
544.712	80.44
544.925	84.44
545.139	89.44
545.352	81.44
545.566	96.44
545.779	93.44
545.993	87.44
546.206	86.44
546.42	90.44
546.633	92.44
546.847	96.44
547.06	97.44
547.274	94.44
547.487	86.44
547.7	90.44
547.914	87.44
548.127	95.44
548.34	91.44
548.554	95.44
548.767	76.44
548.98	87.44
549.193	78.44
549.407	91.44
549.62	115.44
549.833	81.44
550.046	101.44
550.259	93.44
550.473	76.44
550.686	91.44
550.899	96.44
551.112	98.44
551.325	91.44
551.538	85.44
551.751	85.44
551.964	89.44
552.177	84.44
552.39	94.44
552.603	85.44
552.816	90.44
553.029	97.44
553.242	91.44
553.455	100.44
553.667	87.44
553.88	97.44
554.093	98.44
554.306	98.44
554.519	103.44
554.732	98.44
554.944	88.44
555.157	91.44
555.37	80.44
555.583	90.44
555.795	103.44
556.008	84.44
556.221	94.44
556.433	94.44
556.646	77.44
556.859	82.44
557.071	90.44
557.284	88.44
557.496	93.44
557.709	87.44
557.921	82.44
558.134	85.44
558.346	85.44
558.559	102.44
558.771	84.44
558.984	96.44
559.196	97.44
559.409	88.44
559.621	90.44
559.833	95.44
560.046	73.44
560.258	86.44
560.47	86.44
560.683	92.44
560.895	90.44
561.107	83.44
561.32	82.44
561.532	98.44
561.744	89.44
561.956	97.44
562.168	85.44
562.381	84.44
562.593	99.44
562.805	91.44
563.017	100.44
563.229	92.44
563.441	83.44
563.653	91.44
563.865	77.44
564.077	93.44
564.289	88.44
564.501	109.44
564.713	83.44
564.925	96.44
565.137	87.44
565.349	90.44
565.561	102.44
565.773	80.44
565.985	89.44
566.197	102.44
566.408	92.44
566.62	82.44
566.832	87.44
567.044	92.44
567.255	81.44
567.467	83.44
567.679	77.44
567.891	96.44
568.102	90.44
568.314	85.44
568.526	80.44
568.737	82.44
568.949	98.44
569.161	90.44
569.372	93.44
569.584	99.44
569.795	86.44
570.007	102.44
570.218	183.44
570.43	121.44
570.641	84.44
570.853	90.44
571.064	88.44
571.276	88.44
571.487	100.44
571.698	93.44
571.91	100.44
572.121	87.44
572.333	84.44
572.544	73.44
572.755	94.44
572.966	88.44
573.178	82.44
573.389	86.44
573.6	87.44
573.811	98.44
574.023	89.44
574.234	81.44
574.445	93.44
574.656	91.44
574.867	80.44
575.078	92.44
575.289	99.44
575.501	94.44
575.712	85.44
575.923	97.44
576.134	105.44
576.345	84.44
576.556	84.44
576.767	91.44
576.978	83.44
577.188	97.44
577.399	85.44
577.61	93.44
577.821	95.44
578.032	91.44
578.243	204.44
578.454	483.44
578.665	175.44
578.875	104.44
579.086	96.44
579.297	84.44
579.508	91.44
579.718	81.44
579.929	76.44
580.14	89.44
580.35	82.44
580.561	91.44
580.772	90.44
580.982	94.44
581.193	91.44
581.403	85.44
581.614	79.44
581.825	94.44
582.035	94.44
582.246	88.44
582.456	97.44
582.667	90.44
582.877	92.44
583.087	83.44
583.298	89.44
583.508	77.44
583.719	94.44
583.929	101.44
584.139	81.44
584.35	81.44
584.56	89.44
584.77	89.44
584.981	77.44
585.191	94.44
585.401	88.44
585.611	87.44
585.821	100.44
586.032	93.44
586.242	102.44
586.452	84.44
586.662	92.44
586.872	91.44
587.082	86.44
587.292	90.44
587.502	77.44
587.713	83.44
587.923	101.44
588.133	97.44
588.343	77.44
588.553	94.44
588.762	102.44
588.972	79.44
589.182	117.44
589.392	100.44
589.602	88.44
589.812	106.44
590.022	94.44
590.232	85.44
590.441	89.44
590.651	82.44
590.861	96.44
591.071	86.44
591.281	101.44
591.49	98.44
591.7	89.44
591.91	84.44
592.119	80.44
592.329	76.44
592.539	83.44
592.748	98.44
592.958	99.44
593.167	83.44
593.377	88.44
593.587	86.44
593.796	82.44
594.006	83.44
594.215	90.44
594.424	103.44
594.634	77.44
594.843	87.44
595.053	94.44
595.262	74.44
595.472	84.44
595.681	92.44
595.89	82.44
596.1	81.44
596.309	93.44
596.518	87.44
596.727	89.44
596.937	87.44
597.146	87.44
597.355	86.44
597.564	96.44
597.774	87.44
597.983	76.44
598.192	84.44
598.401	89.44
598.61	88.44
598.819	91.44
599.028	91.44
599.237	92.44
599.446	96.44
599.655	90.44
599.864	69.44
600.073	84.44
600.282	98.44
600.491	78.44
600.7	102.44
600.909	84.44
601.118	106.44
601.327	95.44
601.536	83.44
601.745	92.44
601.953	90.44
602.162	92.44
602.371	78.44
602.58	70.44
602.789	81.44
602.997	95.44
603.206	86.44
603.415	87.44
603.623	83.44
603.832	110.44
604.041	90.44
604.249	87.44
604.458	100.44
604.666	82.44
604.875	92.44
605.084	88.44
605.292	75.44
605.501	91.44
605.709	82.44
605.918	83.44
606.126	93.44
606.334	83.44
606.543	90.44
606.751	85.44
606.96	97.44
607.168	91.44
607.376	86.44
607.585	88.44
607.793	90.44
608.001	102.44
608.21	94.44
608.418	85.44
608.626	96.44
608.834	96.44
609.043	85.44
609.251	86.44
609.459	87.44
609.667	90.44
609.875	80.44
610.083	96.44
610.291	78.44
610.499	97.44
610.707	101.44
610.916	82.44
611.124	96.44
611.332	81.44
611.54	94.44
611.748	68.44
611.955	82.44
612.163	81.44
612.371	102.44
612.579	88.44
612.787	84.44
612.995	70.44
613.203	86.44
613.411	88.44
613.618	70.44
613.826	80.44
614.034	90.44
614.242	87.44
614.449	86.44
614.657	88.44
614.865	85.44
615.072	86.44
615.28	75.44
615.488	89.44
615.695	101.44
615.903	102.44
616.111	101.44
616.318	89.44
616.526	93.44
616.733	88.44
616.941	102.44
617.148	73.44
617.356	90.44
617.563	78.44
617.771	77.44
617.978	83.44
618.185	84.44
618.393	76.44
618.6	88.44
618.807	76.44
619.015	75.44
619.222	84.44
619.429	92.44
619.637	102.44
619.844	80.44
620.051	98.44
620.258	73.44
620.466	77.44
620.673	89.44
620.88	76.44
621.087	86.44
621.294	96.44
621.501	85.44
621.708	83.44
621.915	86.44
622.122	93.44
622.329	87.44
622.536	96.44
622.743	98.44
622.95	96.44
623.157	89.44
623.364	92.44
623.571	93.44
623.778	91.44
623.985	87.44
624.192	68.44
624.399	84.44
624.606	88.44
624.812	92.44
625.019	86.44
625.226	95.44
625.433	82.44
625.639	91.44
625.846	94.44
626.053	85.44
626.259	84.44
626.466	90.44
626.673	82.44
626.879	73.44
627.086	105.44
627.293	86.44
627.499	74.44
627.706	93.44
627.912	84.44
628.119	81.44
628.325	89.44
628.532	85.44
628.738	75.44
628.945	96.44
629.151	66.44
629.357	87.44
629.564	88.44
629.77	92.44
629.976	83.44
630.183	87.44
630.389	84.44
630.595	74.44
630.802	88.44
631.008	74.44
631.214	100.44
631.42	99.44
631.627	82.44
631.833	93.44
632.039	89.44
632.245	104.44
632.451	83.44
632.657	82.44
632.863	81.44
633.069	78.44
633.275	92.44
633.481	84.44
633.688	92.44
633.893	91.44
634.099	98.44
634.305	93.44
634.511	90.44
634.717	91.44
634.923	88.44
635.129	85.44
635.335	89.44
635.541	84.44
635.747	89.44
635.952	81.44
636.158	84.44
636.364	78.44
636.57	86.44
636.775	88.44
636.981	79.44
637.187	105.44
637.392	100.44
637.598	83.44
637.804	85.44
638.009	92.44
638.215	86.44
638.421	73.44
638.626	83.44
638.832	97.44
639.037	80.44
639.243	82.44
639.448	66.44
639.654	87.44
639.859	88.44
640.065	90.44
640.27	103.44
640.475	78.44
640.681	72.44
640.886	94.44
641.091	87.44
641.297	92.44
641.502	101.44
641.707	88.44
641.913	84.44
642.118	85.44
642.323	92.44
642.528	93.44
642.733	89.44
642.939	87.44
643.144	99.44
643.349	77.44
643.554	104.44
643.759	91.44
643.964	83.44
644.169	86.44
644.374	76.44
644.579	85.44
644.784	99.44
644.989	92.44
645.194	92.44
645.399	92.44
645.604	84.44
645.809	88.44
646.014	91.44
646.219	77.44
646.423	91.44
646.628	85.44
646.833	84.44
647.038	88.44
647.243	83.44
647.447	88.44
647.652	92.44
647.857	95.44
648.062	106.44
648.266	89.44
648.471	91.44
648.676	104.44
648.88	85.44
649.085	82.44
649.289	101.44
649.494	105.44
649.698	116.44
649.903	100.44
650.107	87.44
650.312	95.44
650.516	92.44
650.721	87.44
650.925	80.44
651.13	84.44
651.334	82.44
651.539	81.44
651.743	90.44
651.947	96.44
652.152	78.44
652.356	74.44
652.56	86.44
652.764	92.44
652.969	89.44
653.173	80.44
653.377	89.44
653.581	94.44
653.785	94.44
653.99	85.44
654.194	76.44
654.398	96.44
654.602	80.44
654.806	83.44
655.01	89.44
655.214	82.44
655.418	79.44
655.622	90.44
655.826	84.44
656.03	90.44
656.234	101.44
656.438	106.44
656.642	91.44
656.846	85.44
657.049	61.44
657.253	80.44
657.457	93.44
657.661	92.44
657.865	84.44
658.068	84.44
658.272	71.44
658.476	75.44
658.68	86.44
658.883	90.44
659.087	82.44
659.291	73.44
659.494	87.44
659.698	75.44
659.901	92.44
660.105	90.44
660.309	79.44
660.512	72.44
660.716	87.44
660.919	71.44
661.123	96.44
661.326	85.44
661.53	72.44
661.733	84.44
661.936	100.44
662.14	88.44
662.343	80.44
662.546	68.44
662.75	78.44
662.953	93.44
663.156	95.44
663.36	97.44
663.563	96.44
663.766	85.44
663.969	92.44
664.173	80.44
664.376	103.44
664.579	87.44
664.782	94.44
664.985	90.44
665.188	80.44
665.391	87.44
665.594	91.44
665.797	88.44
666	82.44
666.203	97.44
666.406	78.44
666.609	76.44
666.812	77.44
667.015	86.44
667.218	85.44
667.421	85.44
667.624	85.44
667.827	95.44
668.03	85.44
668.232	89.44
668.435	93.44
668.638	80.44
668.841	89.44
669.043	62.44
669.246	77.44
669.449	70.44
669.651	89.44
669.854	82.44
670.057	84.44
670.259	81.44
670.462	92.44
670.665	84.44
670.867	90.44
671.07	93.44
671.272	96.44
671.475	68.44
671.677	78.44
671.88	97.44
672.082	91.44
672.284	68.44
672.487	93.44
672.689	84.44
672.892	69.44
