Data from Circ_1986_H10_HRD10591_00035.txt Node
Date: Wed Jan 03 12:15:33 EST 2024
User: Yrep
Spectrometer: HR+D1059
Trigger mode: 1
Integration Time (sec): 1.000000E-1
Scans to average: 1
Electric dark correction enabled: true
Nonlinearity correction enabled: false
Boxcar width: 0
XAxis mode: Wavelengths
Number of Pixels in Spectrum: 2048
>>>>>Begin Spectral Data<<<<<
223.165	-4.56
223.4	-4.56
223.635	-4.56
223.869	-28.56
224.104	-28.56
224.338	-20.56
224.573	-30.56
224.808	-10.56
225.042	-0.56
225.277	-4.56
225.511	-10.56
225.746	2.44
225.98	13.44
226.215	10.44
226.449	21.44
226.683	31.44
226.918	26.44
227.152	33.44
227.387	46.44
227.621	51.44
227.856	45.44
228.09	40.44
228.324	44.44
228.559	60.44
228.793	76.44
229.027	54.44
229.262	81.44
229.496	55.44
229.73	75.44
229.964	74.44
230.199	79.44
230.433	69.44
230.667	66.44
230.901	89.44
231.136	62.44
231.37	74.44
231.604	84.44
231.838	87.44
232.072	75.44
232.306	78.44
232.541	75.44
232.775	80.44
233.009	84.44
233.243	82.44
233.477	81.44
233.711	73.44
233.945	70.44
234.179	87.44
234.413	90.44
234.647	81.44
234.881	75.44
235.115	95.44
235.349	81.44
235.583	87.44
235.817	77.44
236.051	75.44
236.285	87.44
236.519	76.44
236.753	78.44
236.987	92.44
237.221	70.44
237.455	79.44
237.689	76.44
237.922	70.44
238.156	68.44
238.39	82.44
238.624	81.44
238.858	83.44
239.091	68.44
239.325	65.44
239.559	74.44
239.793	76.44
240.027	63.44
240.26	82.44
240.494	73.44
240.728	72.44
240.961	69.44
241.195	79.44
241.429	76.44
241.662	70.44
241.896	75.44
242.13	66.44
242.363	92.44
242.597	72.44
242.83	74.44
243.064	72.44
243.298	82.44
243.531	74.44
243.765	87.44
243.998	70.44
244.232	89.44
244.465	83.44
244.699	79.44
244.932	65.44
245.166	70.44
245.399	79.44
245.633	67.44
245.866	68.44
246.099	66.44
246.333	80.44
246.566	90.44
246.8	85.44
247.033	79.44
247.266	80.44
247.5	83.44
247.733	75.44
247.966	88.44
248.2	88.44
248.433	65.44
248.666	74.44
248.899	88.44
249.133	80.44
249.366	80.44
249.599	93.44
249.832	88.44
250.066	88.44
250.299	73.44
250.532	74.44
250.765	83.44
250.998	70.44
251.231	86.44
251.465	84.44
251.698	80.44
251.931	77.44
252.164	99.44
252.397	86.44
252.63	89.44
252.863	83.44
253.096	87.44
253.329	87.44
253.562	79.44
253.795	81.44
254.028	84.44
254.261	98.44
254.494	72.44
254.727	84.44
254.96	81.44
255.193	83.44
255.426	68.44
255.659	82.44
255.892	85.44
256.124	83.44
256.357	74.44
256.59	86.44
256.823	80.44
257.056	83.44
257.289	92.44
257.521	74.44
257.754	75.44
257.987	92.44
258.22	80.44
258.452	75.44
258.685	79.44
258.918	68.44
259.151	76.44
259.383	80.44
259.616	81.44
259.849	87.44
260.081	89.44
260.314	78.44
260.547	85.44
260.779	89.44
261.012	87.44
261.244	90.44
261.477	93.44
261.71	87.44
261.942	111.44
262.175	112.44
262.407	91.44
262.64	89.44
262.872	85.44
263.105	70.44
263.337	88.44
263.57	81.44
263.802	91.44
264.035	79.44
264.267	82.44
264.499	83.44
264.732	83.44
264.964	71.44
265.197	70.44
265.429	89.44
265.661	99.44
265.894	88.44
266.126	85.44
266.358	74.44
266.591	63.44
266.823	87.44
267.055	89.44
267.287	77.44
267.52	74.44
267.752	75.44
267.984	86.44
268.216	77.44
268.448	79.44
268.681	84.44
268.913	78.44
269.145	83.44
269.377	96.44
269.609	93.44
269.841	72.44
270.073	87.44
270.306	84.44
270.538	86.44
270.77	86.44
271.002	78.44
271.234	92.44
271.466	83.44
271.698	80.44
271.93	72.44
272.162	85.44
272.394	88.44
272.626	88.44
272.858	80.44
273.09	95.44
273.322	75.44
273.553	79.44
273.785	87.44
274.017	83.44
274.249	97.44
274.481	88.44
274.713	88.44
274.945	85.44
275.176	82.44
275.408	99.44
275.64	81.44
275.872	87.44
276.104	97.44
276.335	90.44
276.567	95.44
276.799	95.44
277.031	85.44
277.262	77.44
277.494	85.44
277.726	106.44
277.957	98.44
278.189	74.44
278.421	93.44
278.652	80.44
278.884	95.44
279.115	86.44
279.347	76.44
279.579	97.44
279.81	89.44
280.042	95.44
280.273	90.44
280.505	91.44
280.736	83.44
280.968	72.44
281.199	79.44
281.431	90.44
281.662	84.44
281.894	87.44
282.125	99.44
282.356	118.44
282.588	127.44
282.819	101.44
283.051	96.44
283.282	91.44
283.513	87.44
283.745	97.44
283.976	84.44
284.207	87.44
284.439	90.44
284.67	75.44
284.901	70.44
285.132	86.44
285.364	93.44
285.595	98.44
285.826	92.44
286.057	94.44
286.288	85.44
286.52	89.44
286.751	90.44
286.982	71.44
287.213	80.44
287.444	99.44
287.675	92.44
287.906	77.44
288.138	89.44
288.369	95.44
288.6	77.44
288.831	94.44
289.062	99.44
289.293	90.44
289.524	91.44
289.755	88.44
289.986	81.44
290.217	82.44
290.448	83.44
290.679	98.44
290.91	104.44
291.141	76.44
291.371	81.44
291.602	98.44
291.833	83.44
292.064	90.44
292.295	86.44
292.526	84.44
292.757	93.44
292.987	87.44
293.218	86.44
293.449	90.44
293.68	88.44
293.91	92.44
294.141	99.44
294.372	92.44
294.603	95.44
294.833	89.44
295.064	85.44
295.295	69.44
295.525	87.44
295.756	89.44
295.987	122.44
296.217	124.44
296.448	115.44
296.679	99.44
296.909	101.44
297.14	90.44
297.37	94.44
297.601	95.44
297.831	80.44
298.062	89.44
298.292	97.44
298.523	100.44
298.753	85.44
298.984	93.44
299.214	79.44
299.445	105.44
299.675	100.44
299.905	96.44
300.136	108.44
300.366	88.44
300.597	77.44
300.827	95.44
301.057	107.44
301.288	102.44
301.518	82.44
301.748	92.44
301.979	109.44
302.209	99.44
302.439	101.44
302.669	89.44
302.9	96.44
303.13	93.44
303.36	111.44
303.59	95.44
303.82	92.44
304.051	87.44
304.281	106.44
304.511	85.44
304.741	89.44
304.971	82.44
305.201	73.44
305.431	81.44
305.661	108.44
305.891	80.44
306.121	96.44
306.352	95.44
306.582	97.44
306.812	91.44
307.042	81.44
307.272	95.44
307.502	105.44
307.731	99.44
307.961	91.44
308.191	90.44
308.421	95.44
308.651	85.44
308.881	107.44
309.111	100.44
309.341	96.44
309.571	104.44
309.8	106.44
310.03	94.44
310.26	87.44
310.49	108.44
310.72	104.44
310.949	109.44
311.179	95.44
311.409	103.44
311.639	95.44
311.868	86.44
312.098	82.44
312.328	103.44
312.557	87.44
312.787	94.44
313.017	100.44
313.246	98.44
313.476	96.44
313.706	105.44
313.935	97.44
314.165	96.44
314.394	93.44
314.624	96.44
314.853	97.44
315.083	90.44
315.312	87.44
315.542	91.44
315.771	84.44
316.001	104.44
316.23	89.44
316.46	89.44
316.689	89.44
316.919	99.44
317.148	86.44
317.377	99.44
317.607	103.44
317.836	81.44
318.065	94.44
318.295	89.44
318.524	93.44
318.753	79.44
318.983	102.44
319.212	92.44
319.441	87.44
319.67	87.44
319.9	89.44
320.129	96.44
320.358	91.44
320.587	95.44
320.816	100.44
321.046	92.44
321.275	103.44
321.504	96.44
321.733	92.44
321.962	82.44
322.191	101.44
322.42	100.44
322.649	102.44
322.878	101.44
323.108	110.44
323.337	117.44
323.566	111.44
323.795	150.44
324.024	183.44
324.253	332.44
324.482	675.44
324.71	1371.44
324.939	1835.44
325.168	669.44
325.397	231.44
325.626	129.44
325.855	123.44
326.084	100.44
326.313	115.44
326.542	148.44
326.77	214.44
326.999	361.44
327.228	781.44
327.457	1437.44
327.686	1136.44
327.914	311.44
328.143	180.44
328.372	143.44
328.6	118.44
328.829	102.44
329.058	107.44
329.287	102.44
329.515	106.44
329.744	107.44
329.972	93.44
330.201	117.44
330.43	135.44
330.658	111.44
330.887	122.44
331.115	101.44
331.344	108.44
331.572	102.44
331.801	104.44
332.03	96.44
332.258	95.44
332.486	90.44
332.715	85.44
332.943	83.44
333.172	106.44
333.4	99.44
333.629	89.44
333.857	96.44
334.085	117.44
334.314	114.44
334.542	163.44
334.771	163.44
334.999	103.44
335.227	95.44
335.455	108.44
335.684	98.44
335.912	92.44
336.14	103.44
336.369	102.44
336.597	96.44
336.825	108.44
337.053	96.44
337.281	96.44
337.51	90.44
337.738	103.44
337.966	96.44
338.194	100.44
338.422	110.44
338.65	103.44
338.878	93.44
339.106	93.44
339.334	87.44
339.562	102.44
339.79	91.44
340.018	83.44
340.246	93.44
340.474	95.44
340.702	95.44
340.93	81.44
341.158	86.44
341.386	113.44
341.614	92.44
341.842	93.44
342.07	79.44
342.298	83.44
342.526	94.44
342.754	95.44
342.981	91.44
343.209	96.44
343.437	89.44
343.665	101.44
343.893	88.44
344.12	80.44
344.348	97.44
344.576	87.44
344.804	93.44
345.031	102.44
345.259	90.44
345.487	102.44
345.714	91.44
345.942	95.44
346.17	97.44
346.397	84.44
346.625	87.44
346.853	81.44
347.08	88.44
347.308	100.44
347.535	99.44
347.763	94.44
347.99	95.44
348.218	92.44
348.445	99.44
348.673	92.44
348.9	91.44
349.128	97.44
349.355	98.44
349.583	75.44
349.81	96.44
350.037	102.44
350.265	92.44
350.492	92.44
350.72	89.44
350.947	91.44
351.174	93.44
351.402	100.44
351.629	109.44
351.856	97.44
352.083	105.44
352.311	91.44
352.538	91.44
352.765	113.44
352.992	109.44
353.22	113.44
353.447	102.44
353.674	106.44
353.901	100.44
354.128	95.44
354.355	83.44
354.583	103.44
354.81	100.44
355.037	106.44
355.264	88.44
355.491	115.44
355.718	93.44
355.945	92.44
356.172	89.44
356.399	84.44
356.626	105.44
356.853	108.44
357.08	91.44
357.307	88.44
357.534	98.44
357.761	100.44
357.988	89.44
358.215	105.44
358.441	96.44
358.668	108.44
358.895	95.44
359.122	103.44
359.349	98.44
359.576	83.44
359.802	108.44
360.029	106.44
360.256	113.44
360.483	98.44
360.709	85.44
360.936	92.44
361.163	81.44
361.39	108.44
361.616	89.44
361.843	97.44
362.07	81.44
362.296	75.44
362.523	87.44
362.749	86.44
362.976	84.44
363.203	95.44
363.429	71.44
363.656	87.44
363.882	84.44
364.109	99.44
364.335	91.44
364.562	95.44
364.788	96.44
365.015	96.44
365.241	104.44
365.468	89.44
365.694	92.44
365.92	87.44
366.147	88.44
366.373	82.44
366.599	84.44
366.826	90.44
367.052	101.44
367.278	96.44
367.505	86.44
367.731	99.44
367.957	90.44
368.184	101.44
368.41	105.44
368.636	94.44
368.862	112.44
369.089	102.44
369.315	107.44
369.541	93.44
369.767	84.44
369.993	82.44
370.219	96.44
370.445	84.44
370.672	99.44
370.898	79.44
371.124	93.44
371.35	90.44
371.576	94.44
371.802	88.44
372.028	94.44
372.254	86.44
372.48	89.44
372.706	100.44
372.932	109.44
373.158	78.44
373.384	88.44
373.61	103.44
373.835	98.44
374.061	90.44
374.287	83.44
374.513	92.44
374.739	92.44
374.965	88.44
375.191	79.44
375.416	96.44
375.642	101.44
375.868	99.44
376.094	87.44
376.319	94.44
376.545	98.44
376.771	97.44
376.997	83.44
377.222	93.44
377.448	84.44
377.674	88.44
377.899	76.44
378.125	88.44
378.35	101.44
378.576	88.44
378.802	87.44
379.027	82.44
379.253	97.44
379.478	91.44
379.704	83.44
379.929	86.44
380.155	111.44
380.38	100.44
380.606	98.44
380.831	82.44
381.057	107.44
381.282	84.44
381.507	95.44
381.733	97.44
381.958	97.44
382.184	102.44
382.409	100.44
382.634	100.44
382.86	104.44
383.085	100.44
383.31	99.44
383.535	100.44
383.761	106.44
383.986	93.44
384.211	107.44
384.436	104.44
384.662	113.44
384.887	100.44
385.112	102.44
385.337	117.44
385.562	117.44
385.787	116.44
386.013	122.44
386.238	110.44
386.463	124.44
386.688	117.44
386.913	103.44
387.138	101.44
387.363	92.44
387.588	103.44
387.813	108.44
388.038	106.44
388.263	120.44
388.488	117.44
388.713	107.44
388.938	110.44
389.163	113.44
389.387	81.44
389.612	86.44
389.837	87.44
390.062	94.44
390.287	92.44
390.512	95.44
390.736	89.44
390.961	97.44
391.186	106.44
391.411	89.44
391.636	88.44
391.86	82.44
392.085	101.44
392.31	92.44
392.534	100.44
392.759	96.44
392.984	107.44
393.208	79.44
393.433	87.44
393.658	80.44
393.882	87.44
394.107	95.44
394.331	97.44
394.556	96.44
394.78	100.44
395.005	98.44
395.229	85.44
395.454	82.44
395.678	77.44
395.903	104.44
396.127	84.44
396.352	88.44
396.576	93.44
396.801	91.44
397.025	86.44
397.249	109.44
397.474	110.44
397.698	87.44
397.922	89.44
398.147	100.44
398.371	82.44
398.595	83.44
398.82	91.44
399.044	95.44
399.268	83.44
399.492	79.44
399.717	84.44
399.941	95.44
400.165	85.44
400.389	89.44
400.613	83.44
400.837	80.44
401.062	102.44
401.286	94.44
401.51	96.44
401.734	91.44
401.958	114.44
402.182	118.44
402.406	130.44
402.63	106.44
402.854	92.44
403.078	99.44
403.302	76.44
403.526	89.44
403.75	85.44
403.974	84.44
404.198	78.44
404.422	89.44
404.645	99.44
404.869	97.44
405.093	97.44
405.317	92.44
405.541	95.44
405.765	92.44
405.988	115.44
406.212	159.44
406.436	177.44
406.66	134.44
406.883	95.44
407.107	92.44
407.331	96.44
407.555	104.44
407.778	94.44
408.002	92.44
408.226	104.44
408.449	97.44
408.673	104.44
408.896	103.44
409.12	100.44
409.344	90.44
409.567	87.44
409.791	94.44
410.014	105.44
410.238	98.44
410.461	104.44
410.685	96.44
410.908	102.44
411.132	105.44
411.355	99.44
411.578	96.44
411.802	96.44
412.025	109.44
412.249	102.44
412.472	100.44
412.695	103.44
412.919	92.44
413.142	89.44
413.365	99.44
413.589	89.44
413.812	87.44
414.035	99.44
414.258	89.44
414.482	81.44
414.705	97.44
414.928	88.44
415.151	89.44
415.374	103.44
415.597	86.44
415.821	91.44
416.044	85.44
416.267	93.44
416.49	93.44
416.713	91.44
416.936	105.44
417.159	95.44
417.382	85.44
417.605	79.44
417.828	87.44
418.051	96.44
418.274	87.44
418.497	88.44
418.72	85.44
418.943	91.44
419.166	89.44
419.389	87.44
419.611	85.44
419.834	84.44
420.057	88.44
420.28	87.44
420.503	95.44
420.726	86.44
420.948	86.44
421.171	90.44
421.394	86.44
421.617	97.44
421.839	87.44
422.062	86.44
422.285	89.44
422.507	103.44
422.73	96.44
422.953	90.44
423.175	97.44
423.398	75.44
423.621	91.44
423.843	69.44
424.066	90.44
424.288	85.44
424.511	87.44
424.733	80.44
424.956	101.44
425.178	107.44
425.401	106.44
425.623	102.44
425.846	88.44
426.068	98.44
426.291	96.44
426.513	87.44
426.735	107.44
426.958	81.44
427.18	100.44
427.402	112.44
427.625	144.44
427.847	129.44
428.069	103.44
428.292	84.44
428.514	95.44
428.736	103.44
428.958	95.44
429.181	84.44
429.403	84.44
429.625	88.44
429.847	94.44
430.069	100.44
430.292	79.44
430.514	84.44
430.736	93.44
430.958	95.44
431.18	91.44
431.402	82.44
431.624	76.44
431.846	93.44
432.068	82.44
432.29	84.44
432.512	102.44
432.734	96.44
432.956	80.44
433.178	95.44
433.4	105.44
433.622	102.44
433.844	100.44
434.066	99.44
434.287	92.44
434.509	99.44
434.731	88.44
434.953	89.44
435.175	94.44
435.397	95.44
435.618	91.44
435.84	103.44
436.062	101.44
436.284	105.44
436.505	98.44
436.727	106.44
436.949	89.44
437.17	95.44
437.392	84.44
437.614	91.44
437.835	103.44
438.057	104.44
438.278	85.44
438.5	89.44
438.721	100.44
438.943	103.44
439.165	90.44
439.386	96.44
439.608	83.44
439.829	96.44
440.05	125.44
440.272	119.44
440.493	91.44
440.715	94.44
440.936	92.44
441.158	76.44
441.379	82.44
441.6	86.44
441.822	96.44
442.043	106.44
442.264	107.44
442.486	83.44
442.707	87.44
442.928	97.44
443.149	121.44
443.371	119.44
443.592	105.44
443.813	115.44
444.034	110.44
444.255	104.44
444.476	76.44
444.698	88.44
444.919	93.44
445.14	133.44
445.361	123.44
445.582	109.44
445.803	109.44
446.024	106.44
446.245	104.44
446.466	99.44
446.687	86.44
446.908	83.44
447.129	73.44
447.35	89.44
447.571	89.44
447.792	70.44
448.013	101.44
448.234	101.44
448.455	83.44
448.675	105.44
448.896	95.44
449.117	113.44
449.338	102.44
449.559	119.44
449.779	121.44
450	88.44
450.221	95.44
450.442	99.44
450.662	91.44
450.883	105.44
451.104	100.44
451.324	87.44
451.545	79.44
451.766	80.44
451.986	82.44
452.207	74.44
452.428	80.44
452.648	97.44
452.869	98.44
453.089	100.44
453.31	116.44
453.53	88.44
453.751	108.44
453.971	90.44
454.192	103.44
454.412	87.44
454.633	81.44
454.853	90.44
455.073	79.44
455.294	89.44
455.514	98.44
455.734	92.44
455.955	97.44
456.175	81.44
456.395	77.44
456.616	72.44
456.836	88.44
457.056	89.44
457.276	82.44
457.497	82.44
457.717	88.44
457.937	89.44
458.157	83.44
458.377	74.44
458.598	97.44
458.818	138.44
459.038	121.44
459.258	109.44
459.478	88.44
459.698	92.44
459.918	87.44
460.138	87.44
460.358	85.44
460.578	89.44
460.798	88.44
461.018	94.44
461.238	101.44
461.458	87.44
461.678	67.44
461.898	93.44
462.118	81.44
462.338	90.44
462.558	97.44
462.777	81.44
462.997	88.44
463.217	88.44
463.437	86.44
463.657	84.44
463.876	81.44
464.096	94.44
464.316	85.44
464.536	92.44
464.755	92.44
464.975	105.44
465.195	128.44
465.414	133.44
465.634	97.44
465.854	92.44
466.073	97.44
466.293	108.44
466.512	82.44
466.732	76.44
466.951	100.44
467.171	104.44
467.391	99.44
467.61	94.44
467.829	106.44
468.049	112.44
468.268	124.44
468.488	85.44
468.707	87.44
468.927	80.44
469.146	81.44
469.365	98.44
469.585	79.44
469.804	86.44
470.023	101.44
470.243	103.44
470.462	98.44
470.681	108.44
470.901	84.44
471.12	100.44
471.339	93.44
471.558	91.44
471.777	87.44
471.997	100.44
472.216	111.44
472.435	172.44
472.654	104.44
472.873	108.44
473.092	86.44
473.311	89.44
473.53	90.44
473.749	83.44
473.968	99.44
474.187	107.44
474.406	88.44
474.625	87.44
474.844	94.44
475.063	87.44
475.282	85.44
475.501	91.44
475.72	87.44
475.939	83.44
476.158	84.44
476.377	83.44
476.596	88.44
476.814	90.44
477.033	104.44
477.252	83.44
477.471	86.44
477.69	97.44
477.908	98.44
478.127	95.44
478.346	69.44
478.564	88.44
478.783	101.44
479.002	87.44
479.22	76.44
479.439	101.44
479.658	89.44
479.876	79.44
480.095	81.44
480.313	86.44
480.532	87.44
480.751	91.44
480.969	132.44
481.188	277.44
481.406	183.44
481.624	92.44
481.843	91.44
482.061	87.44
482.28	75.44
482.498	67.44
482.717	81.44
482.935	88.44
483.153	86.44
483.372	94.44
483.59	92.44
483.808	89.44
484.027	88.44
484.245	92.44
484.463	78.44
484.681	112.44
484.9	99.44
485.118	99.44
485.336	103.44
485.554	112.44
485.772	99.44
485.99	115.44
486.209	110.44
486.427	116.44
486.645	109.44
486.863	90.44
487.081	100.44
487.299	105.44
487.517	92.44
487.735	85.44
487.953	99.44
488.171	109.44
488.389	106.44
488.607	102.44
488.825	84.44
489.043	86.44
489.261	83.44
489.479	88.44
489.696	99.44
489.914	93.44
490.132	97.44
490.35	91.44
490.568	94.44
490.786	83.44
491.003	80.44
491.221	88.44
491.439	83.44
491.657	98.44
491.874	91.44
492.092	97.44
492.31	90.44
492.527	105.44
492.745	88.44
492.963	100.44
493.18	85.44
493.398	81.44
493.615	99.44
493.833	94.44
494.05	84.44
494.268	83.44
494.485	74.44
494.703	107.44
494.92	91.44
495.138	90.44
495.355	93.44
495.573	81.44
495.79	90.44
496.008	94.44
496.225	81.44
496.442	82.44
496.66	97.44
496.877	90.44
497.094	87.44
497.312	89.44
497.529	84.44
497.746	86.44
497.963	95.44
498.181	100.44
498.398	94.44
498.615	99.44
498.832	98.44
499.049	83.44
499.267	88.44
499.484	97.44
499.701	98.44
499.918	104.44
500.135	95.44
500.352	109.44
500.569	97.44
500.786	79.44
501.003	102.44
501.22	94.44
501.437	89.44
501.654	107.44
501.871	93.44
502.088	91.44
502.305	96.44
502.522	99.44
502.739	87.44
502.956	82.44
503.172	97.44
503.389	80.44
503.606	89.44
503.823	99.44
504.04	95.44
504.256	92.44
504.473	86.44
504.69	91.44
504.907	86.44
505.123	97.44
505.34	105.44
505.557	90.44
505.773	82.44
505.99	92.44
506.207	99.44
506.423	95.44
506.64	85.44
506.856	112.44
507.073	94.44
507.289	82.44
507.506	96.44
507.722	113.44
507.939	105.44
508.155	100.44
508.372	87.44
508.588	89.44
508.805	102.44
509.021	118.44
509.238	92.44
509.454	92.44
509.67	116.44
509.887	120.44
510.103	120.44
510.319	181.44
510.536	620.44
510.752	1801.44
510.968	512.44
511.184	147.44
511.401	117.44
511.617	106.44
511.833	101.44
512.049	98.44
512.265	88.44
512.481	87.44
512.698	97.44
512.914	95.44
513.13	84.44
513.346	88.44
513.562	89.44
513.778	92.44
513.994	106.44
514.21	95.44
514.426	113.44
514.642	121.44
514.858	130.44
515.074	143.44
515.29	360.44
515.506	1079.44
515.721	406.44
515.937	127.44
516.153	116.44
516.369	99.44
516.585	91.44
516.801	87.44
517.016	87.44
517.232	97.44
517.448	96.44
517.664	101.44
517.879	89.44
518.095	88.44
518.311	93.44
518.527	91.44
518.742	87.44
518.958	93.44
519.173	84.44
519.389	87.44
519.605	85.44
519.82	95.44
520.036	94.44
520.251	129.44
520.467	101.44
520.682	90.44
520.898	94.44
521.113	114.44
521.329	117.44
521.544	183.44
521.76	441.44
521.975	1741.44
522.19	1030.44
522.406	243.44
522.621	113.44
522.836	83.44
523.052	98.44
523.267	82.44
523.482	107.44
523.698	97.44
523.913	119.44
524.128	100.44
524.343	85.44
524.559	98.44
524.774	101.44
524.989	94.44
525.204	107.44
525.419	101.44
525.634	80.44
525.849	88.44
526.064	93.44
526.28	95.44
526.495	89.44
526.71	102.44
526.925	79.44
527.14	84.44
527.355	97.44
527.57	90.44
527.785	99.44
527.999	80.44
528.214	82.44
528.429	97.44
528.644	105.44
528.859	88.44
529.074	85.44
529.289	107.44
529.503	145.44
529.718	115.44
529.933	102.44
530.148	79.44
530.363	91.44
530.577	85.44
530.792	99.44
531.007	80.44
531.221	100.44
531.436	92.44
531.651	97.44
531.865	86.44
532.08	87.44
532.295	94.44
532.509	91.44
532.724	85.44
532.938	83.44
533.153	90.44
533.367	103.44
533.582	91.44
533.796	82.44
534.011	96.44
534.225	97.44
534.44	80.44
534.654	84.44
534.868	80.44
535.083	98.44
535.297	101.44
535.511	88.44
535.726	107.44
535.94	104.44
536.154	91.44
536.369	87.44
536.583	90.44
536.797	106.44
537.011	88.44
537.225	105.44
537.44	84.44
537.654	88.44
537.868	103.44
538.082	106.44
538.296	87.44
538.51	89.44
538.724	87.44
538.938	91.44
539.153	88.44
539.367	93.44
539.581	98.44
539.795	93.44
540.009	96.44
540.222	94.44
540.436	91.44
540.65	89.44
540.864	85.44
541.078	103.44
541.292	97.44
541.506	91.44
541.72	85.44
541.934	99.44
542.147	88.44
542.361	84.44
542.575	90.44
542.789	83.44
543.002	87.44
543.216	97.44
543.43	91.44
543.644	89.44
543.857	96.44
544.071	99.44
544.285	86.44
544.498	103.44
544.712	88.44
544.925	88.44
545.139	98.44
545.352	92.44
545.566	92.44
545.779	80.44
545.993	87.44
546.206	89.44
546.42	79.44
546.633	98.44
546.847	101.44
547.06	105.44
547.274	88.44
547.487	96.44
547.7	93.44
547.914	88.44
548.127	78.44
548.34	95.44
548.554	95.44
548.767	92.44
548.98	103.44
549.193	96.44
549.407	94.44
549.62	100.44
549.833	84.44
550.046	92.44
550.259	93.44
550.473	99.44
550.686	78.44
550.899	89.44
551.112	97.44
551.325	88.44
551.538	76.44
551.751	75.44
551.964	110.44
552.177	93.44
552.39	83.44
552.603	81.44
552.816	85.44
553.029	94.44
553.242	91.44
553.455	85.44
553.667	105.44
553.88	95.44
554.093	92.44
554.306	87.44
554.519	85.44
554.732	85.44
554.944	88.44
555.157	91.44
555.37	100.44
555.583	90.44
555.795	86.44
556.008	80.44
556.221	87.44
556.433	84.44
556.646	103.44
556.859	91.44
557.071	94.44
557.284	103.44
557.496	81.44
557.709	87.44
557.921	97.44
558.134	98.44
558.346	92.44
558.559	91.44
558.771	82.44
558.984	91.44
559.196	89.44
559.409	98.44
559.621	86.44
559.833	95.44
560.046	99.44
560.258	86.44
560.47	87.44
560.683	90.44
560.895	77.44
561.107	84.44
561.32	93.44
561.532	86.44
561.744	87.44
561.956	86.44
562.168	106.44
562.381	96.44
562.593	91.44
562.805	97.44
563.017	98.44
563.229	106.44
563.441	86.44
563.653	91.44
563.865	102.44
564.077	82.44
564.289	87.44
564.501	85.44
564.713	83.44
564.925	98.44
565.137	87.44
565.349	89.44
565.561	97.44
565.773	94.44
565.985	91.44
566.197	95.44
566.408	83.44
566.62	90.44
566.832	89.44
567.044	87.44
567.255	81.44
567.467	96.44
567.679	89.44
567.891	93.44
568.102	83.44
568.314	83.44
568.526	84.44
568.737	99.44
568.949	91.44
569.161	80.44
569.372	75.44
569.584	75.44
569.795	91.44
570.007	125.44
570.218	189.44
570.43	131.44
570.641	108.44
570.853	81.44
571.064	88.44
571.276	90.44
571.487	83.44
571.698	84.44
571.91	95.44
572.121	96.44
572.333	68.44
572.544	97.44
572.755	89.44
572.966	91.44
573.178	94.44
573.389	100.44
573.6	80.44
573.811	93.44
574.023	92.44
574.234	94.44
574.445	96.44
574.656	81.44
574.867	75.44
575.078	93.44
575.289	91.44
575.501	93.44
575.712	91.44
575.923	93.44
576.134	81.44
576.345	81.44
576.556	91.44
576.767	87.44
576.978	97.44
577.188	92.44
577.399	89.44
577.61	97.44
577.821	91.44
578.032	117.44
578.243	223.44
578.454	578.44
578.665	169.44
578.875	87.44
579.086	86.44
579.297	108.44
579.508	92.44
579.718	98.44
579.929	83.44
580.14	94.44
580.35	79.44
580.561	117.44
580.772	99.44
580.982	76.44
581.193	77.44
581.403	102.44
581.614	93.44
581.825	77.44
582.035	90.44
582.246	70.44
582.456	96.44
582.667	89.44
582.877	91.44
583.087	93.44
583.298	92.44
583.508	79.44
583.719	87.44
583.929	81.44
584.139	91.44
584.35	72.44
584.56	96.44
584.77	85.44
584.981	86.44
585.191	82.44
585.401	94.44
585.611	80.44
585.821	83.44
586.032	96.44
586.242	89.44
586.452	84.44
586.662	95.44
586.872	87.44
587.082	89.44
587.292	104.44
587.502	101.44
587.713	87.44
587.923	82.44
588.133	76.44
588.343	91.44
588.553	101.44
588.762	105.44
588.972	76.44
589.182	108.44
589.392	91.44
589.602	90.44
589.812	98.44
590.022	86.44
590.232	93.44
590.441	92.44
590.651	84.44
590.861	93.44
591.071	89.44
591.281	93.44
591.49	85.44
591.7	82.44
591.91	83.44
592.119	103.44
592.329	79.44
592.539	88.44
592.748	77.44
592.958	87.44
593.167	84.44
593.377	84.44
593.587	101.44
593.796	97.44
594.006	77.44
594.215	81.44
594.424	99.44
594.634	82.44
594.843	95.44
595.053	99.44
595.262	81.44
595.472	81.44
595.681	92.44
595.89	104.44
596.1	75.44
596.309	90.44
596.518	71.44
596.727	92.44
596.937	100.44
597.146	96.44
597.355	78.44
597.564	93.44
597.774	91.44
597.983	87.44
598.192	70.44
598.401	85.44
598.61	91.44
598.819	81.44
599.028	92.44
599.237	76.44
599.446	78.44
599.655	89.44
599.864	83.44
600.073	106.44
600.282	89.44
600.491	97.44
600.7	94.44
600.909	102.44
601.118	89.44
601.327	106.44
601.536	95.44
601.745	70.44
601.953	95.44
602.162	87.44
602.371	105.44
602.58	93.44
602.789	89.44
602.997	90.44
603.206	94.44
603.415	97.44
603.623	83.44
603.832	107.44
604.041	76.44
604.249	91.44
604.458	87.44
604.666	92.44
604.875	96.44
605.084	80.44
605.292	90.44
605.501	85.44
605.709	95.44
605.918	83.44
606.126	83.44
606.334	87.44
606.543	89.44
606.751	89.44
606.96	81.44
607.168	97.44
607.376	89.44
607.585	96.44
607.793	87.44
608.001	85.44
608.21	94.44
608.418	101.44
608.626	89.44
608.834	83.44
609.043	101.44
609.251	79.44
609.459	89.44
609.667	81.44
609.875	100.44
610.083	92.44
610.291	89.44
610.499	77.44
610.707	75.44
610.916	84.44
611.124	72.44
611.332	101.44
611.54	84.44
611.748	98.44
611.955	88.44
612.163	91.44
612.371	92.44
612.579	75.44
612.787	100.44
612.995	98.44
613.203	97.44
613.411	99.44
613.618	86.44
613.826	77.44
614.034	95.44
614.242	96.44
614.449	94.44
614.657	87.44
614.865	79.44
615.072	101.44
615.28	91.44
615.488	88.44
615.695	96.44
615.903	85.44
616.111	95.44
616.318	93.44
616.526	112.44
616.733	89.44
616.941	93.44
617.148	83.44
617.356	93.44
617.563	61.44
617.771	91.44
617.978	84.44
618.185	88.44
618.393	76.44
618.6	89.44
618.807	78.44
619.015	85.44
619.222	79.44
619.429	96.44
619.637	95.44
619.844	82.44
620.051	79.44
620.258	81.44
620.466	87.44
620.673	89.44
620.88	93.44
621.087	88.44
621.294	91.44
621.501	85.44
621.708	83.44
621.915	89.44
622.122	87.44
622.329	96.44
622.536	86.44
622.743	73.44
622.95	75.44
623.157	86.44
623.364	87.44
623.571	85.44
623.778	67.44
623.985	85.44
624.192	96.44
624.399	90.44
624.606	81.44
624.812	87.44
625.019	78.44
625.226	86.44
625.433	90.44
625.639	68.44
625.846	95.44
626.053	74.44
626.259	83.44
626.466	95.44
626.673	95.44
626.879	79.44
627.086	87.44
627.293	77.44
627.499	88.44
627.706	87.44
627.912	90.44
628.119	79.44
628.325	79.44
628.532	85.44
628.738	77.44
628.945	84.44
629.151	81.44
629.357	82.44
629.564	89.44
629.77	84.44
629.976	79.44
630.183	74.44
630.389	91.44
630.595	83.44
630.802	85.44
631.008	85.44
631.214	80.44
631.42	90.44
631.627	96.44
631.833	79.44
632.039	92.44
632.245	81.44
632.451	81.44
632.657	75.44
632.863	95.44
633.069	91.44
633.275	89.44
633.481	101.44
633.688	98.44
633.893	92.44
634.099	81.44
634.305	92.44
634.511	83.44
634.717	77.44
634.923	91.44
635.129	102.44
635.335	69.44
635.541	76.44
635.747	83.44
635.952	73.44
636.158	87.44
636.364	92.44
636.57	88.44
636.775	83.44
636.981	99.44
637.187	91.44
637.392	88.44
637.598	87.44
637.804	96.44
638.009	81.44
638.215	87.44
638.421	80.44
638.626	87.44
638.832	80.44
639.037	83.44
639.243	87.44
639.448	93.44
639.654	96.44
639.859	88.44
640.065	89.44
640.27	98.44
640.475	86.44
640.681	81.44
640.886	95.44
641.091	80.44
641.297	92.44
641.502	86.44
641.707	93.44
641.913	77.44
642.118	89.44
642.323	86.44
642.528	79.44
642.733	98.44
642.939	100.44
643.144	96.44
643.349	90.44
643.554	77.44
643.759	96.44
643.964	97.44
644.169	87.44
644.374	85.44
644.579	85.44
644.784	96.44
644.989	82.44
645.194	77.44
645.399	81.44
645.604	84.44
645.809	99.44
646.014	97.44
646.219	85.44
646.423	73.44
646.628	93.44
646.833	88.44
647.038	87.44
647.243	94.44
647.447	97.44
647.652	89.44
647.857	87.44
648.062	90.44
648.266	93.44
648.471	88.44
648.676	92.44
648.88	95.44
649.085	99.44
649.289	86.44
649.494	105.44
649.698	127.44
649.903	109.44
650.107	95.44
650.312	89.44
650.516	76.44
650.721	93.44
650.925	69.44
651.13	96.44
651.334	83.44
651.539	90.44
651.743	84.44
651.947	82.44
652.152	96.44
652.356	85.44
652.56	81.44
652.764	85.44
652.969	77.44
653.173	81.44
653.377	86.44
653.581	81.44
653.785	82.44
653.99	85.44
654.194	96.44
654.398	76.44
654.602	83.44
654.806	85.44
655.01	97.44
655.214	82.44
655.418	98.44
655.622	87.44
655.826	91.44
656.03	100.44
656.234	89.44
656.438	99.44
656.642	97.44
656.846	81.44
657.049	90.44
657.253	88.44
657.457	79.44
657.661	81.44
657.865	95.44
658.068	79.44
658.272	76.44
658.476	75.44
658.68	74.44
658.883	86.44
659.087	68.44
659.291	81.44
659.494	92.44
659.698	91.44
659.901	75.44
660.105	75.44
660.309	71.44
660.512	75.44
660.716	93.44
660.919	84.44
661.123	97.44
661.326	82.44
661.53	89.44
661.733	90.44
661.936	85.44
662.14	71.44
662.343	72.44
662.546	81.44
662.75	83.44
662.953	74.44
663.156	79.44
663.36	87.44
663.563	77.44
663.766	74.44
663.969	101.44
664.173	87.44
664.376	79.44
664.579	83.44
664.782	79.44
664.985	84.44
665.188	88.44
665.391	63.44
665.594	85.44
665.797	87.44
666	90.44
666.203	85.44
666.406	91.44
666.609	71.44
666.812	93.44
667.015	91.44
667.218	81.44
667.421	84.44
667.624	79.44
667.827	77.44
668.03	76.44
668.232	67.44
668.435	72.44
668.638	84.44
668.841	77.44
669.043	72.44
669.246	69.44
669.449	85.44
669.651	96.44
669.854	81.44
670.057	69.44
670.259	76.44
670.462	92.44
670.665	84.44
670.867	74.44
671.07	87.44
671.272	85.44
671.475	79.44
671.677	83.44
671.88	101.44
672.082	74.44
672.284	72.44
672.487	83.44
672.689	77.44
672.892	77.44
