Data from Circ_1986_H10_HRD10591_00074.txt Node
Date: Wed Jan 03 12:15:40 EST 2024
User: Yrep
Spectrometer: HR+D1059
Trigger mode: 1
Integration Time (sec): 1.000000E-1
Scans to average: 1
Electric dark correction enabled: true
Nonlinearity correction enabled: false
Boxcar width: 0
XAxis mode: Wavelengths
Number of Pixels in Spectrum: 2048
>>>>>Begin Spectral Data<<<<<
223.165	-5.75
223.4	-5.75
223.635	-5.75
223.869	-14.75
224.104	-20.75
224.338	-9.75
224.573	-9.75
224.808	-18.75
225.042	-1.75
225.277	-20.75
225.511	-7.75
225.746	5.25
225.98	3.25
226.215	17.25
226.449	22.25
226.683	19.25
226.918	13.25
227.152	29.25
227.387	40.25
227.621	53.25
227.856	44.25
228.09	40.25
228.324	38.25
228.559	76.25
228.793	59.25
229.027	70.25
229.262	69.25
229.496	84.25
229.73	84.25
229.964	67.25
230.199	78.25
230.433	84.25
230.667	89.25
230.901	77.25
231.136	67.25
231.37	83.25
231.604	85.25
231.838	89.25
232.072	89.25
232.306	86.25
232.541	88.25
232.775	91.25
233.009	92.25
233.243	78.25
233.477	84.25
233.711	82.25
233.945	73.25
234.179	88.25
234.413	90.25
234.647	80.25
234.881	81.25
235.115	88.25
235.349	89.25
235.583	87.25
235.817	74.25
236.051	69.25
236.285	82.25
236.519	88.25
236.753	66.25
236.987	90.25
237.221	85.25
237.455	80.25
237.689	88.25
237.922	62.25
238.156	75.25
238.39	65.25
238.624	72.25
238.858	83.25
239.091	92.25
239.325	98.25
239.559	82.25
239.793	70.25
240.027	77.25
240.26	74.25
240.494	76.25
240.728	72.25
240.961	92.25
241.195	89.25
241.429	80.25
241.662	68.25
241.896	73.25
242.13	63.25
242.363	61.25
242.597	78.25
242.83	77.25
243.064	85.25
243.298	87.25
243.531	77.25
243.765	80.25
243.998	76.25
244.232	86.25
244.465	84.25
244.699	78.25
244.932	92.25
245.166	73.25
245.399	75.25
245.633	78.25
245.866	95.25
246.099	76.25
246.333	78.25
246.566	97.25
246.8	88.25
247.033	83.25
247.266	73.25
247.5	70.25
247.733	77.25
247.966	85.25
248.2	79.25
248.433	85.25
248.666	90.25
248.899	72.25
249.133	90.25
249.366	104.25
249.599	90.25
249.832	84.25
250.066	74.25
250.299	84.25
250.532	100.25
250.765	97.25
250.998	85.25
251.231	74.25
251.465	82.25
251.698	87.25
251.931	73.25
252.164	86.25
252.397	86.25
252.63	74.25
252.863	82.25
253.096	70.25
253.329	84.25
253.562	73.25
253.795	75.25
254.028	91.25
254.261	78.25
254.494	82.25
254.727	82.25
254.96	86.25
255.193	76.25
255.426	73.25
255.659	78.25
255.892	83.25
256.124	92.25
256.357	97.25
256.59	90.25
256.823	79.25
257.056	86.25
257.289	98.25
257.521	75.25
257.754	76.25
257.987	92.25
258.22	101.25
258.452	86.25
258.685	84.25
258.918	82.25
259.151	90.25
259.383	89.25
259.616	82.25
259.849	98.25
260.081	86.25
260.314	89.25
260.547	78.25
260.779	92.25
261.012	89.25
261.244	87.25
261.477	85.25
261.71	100.25
261.942	103.25
262.175	104.25
262.407	94.25
262.64	98.25
262.872	87.25
263.105	95.25
263.337	85.25
263.57	82.25
263.802	84.25
264.035	87.25
264.267	90.25
264.499	74.25
264.732	89.25
264.964	83.25
265.197	73.25
265.429	84.25
265.661	91.25
265.894	84.25
266.126	86.25
266.358	82.25
266.591	89.25
266.823	93.25
267.055	88.25
267.287	74.25
267.52	72.25
267.752	91.25
267.984	93.25
268.216	72.25
268.448	91.25
268.681	92.25
268.913	78.25
269.145	81.25
269.377	90.25
269.609	87.25
269.841	85.25
270.073	99.25
270.306	80.25
270.538	83.25
270.77	90.25
271.002	76.25
271.234	98.25
271.466	93.25
271.698	82.25
271.93	101.25
272.162	80.25
272.394	88.25
272.626	90.25
272.858	89.25
273.09	92.25
273.322	83.25
273.553	86.25
273.785	104.25
274.017	83.25
274.249	90.25
274.481	80.25
274.713	89.25
274.945	78.25
275.176	84.25
275.408	93.25
275.64	92.25
275.872	89.25
276.104	93.25
276.335	85.25
276.567	89.25
276.799	98.25
277.031	91.25
277.262	104.25
277.494	91.25
277.726	83.25
277.957	98.25
278.189	84.25
278.421	78.25
278.652	90.25
278.884	89.25
279.115	103.25
279.347	81.25
279.579	104.25
279.81	95.25
280.042	86.25
280.273	94.25
280.505	103.25
280.736	101.25
280.968	93.25
281.199	90.25
281.431	91.25
281.662	94.25
281.894	93.25
282.125	82.25
282.356	117.25
282.588	146.25
282.819	116.25
283.051	103.25
283.282	98.25
283.513	93.25
283.745	96.25
283.976	100.25
284.207	94.25
284.439	74.25
284.67	94.25
284.901	96.25
285.132	98.25
285.364	94.25
285.595	85.25
285.826	82.25
286.057	81.25
286.288	72.25
286.52	94.25
286.751	88.25
286.982	94.25
287.213	96.25
287.444	76.25
287.675	102.25
287.906	97.25
288.138	88.25
288.369	87.25
288.6	96.25
288.831	78.25
289.062	82.25
289.293	107.25
289.524	91.25
289.755	92.25
289.986	89.25
290.217	78.25
290.448	80.25
290.679	89.25
290.91	87.25
291.141	107.25
291.371	82.25
291.602	82.25
291.833	88.25
292.064	102.25
292.295	103.25
292.526	96.25
292.757	81.25
292.987	92.25
293.218	90.25
293.449	98.25
293.68	94.25
293.91	101.25
294.141	100.25
294.372	84.25
294.603	72.25
294.833	101.25
295.064	100.25
295.295	74.25
295.525	90.25
295.756	114.25
295.987	109.25
296.217	132.25
296.448	121.25
296.679	93.25
296.909	106.25
297.14	98.25
297.37	101.25
297.601	84.25
297.831	97.25
298.062	90.25
298.292	86.25
298.523	88.25
298.753	88.25
298.984	87.25
299.214	81.25
299.445	94.25
299.675	97.25
299.905	104.25
300.136	74.25
300.366	81.25
300.597	92.25
300.827	100.25
301.057	89.25
301.288	96.25
301.518	86.25
301.748	103.25
301.979	102.25
302.209	94.25
302.439	85.25
302.669	93.25
302.9	84.25
303.13	99.25
303.36	97.25
303.59	105.25
303.82	110.25
304.051	90.25
304.281	101.25
304.511	96.25
304.741	93.25
304.971	84.25
305.201	94.25
305.431	82.25
305.661	86.25
305.891	102.25
306.121	93.25
306.352	107.25
306.582	93.25
306.812	99.25
307.042	100.25
307.272	92.25
307.502	100.25
307.731	105.25
307.961	102.25
308.191	95.25
308.421	101.25
308.651	86.25
308.881	95.25
309.111	87.25
309.341	113.25
309.571	106.25
309.8	88.25
310.03	84.25
310.26	108.25
310.49	89.25
310.72	94.25
310.949	98.25
311.179	89.25
311.409	87.25
311.639	96.25
311.868	102.25
312.098	94.25
312.328	85.25
312.557	102.25
312.787	100.25
313.017	102.25
313.246	95.25
313.476	96.25
313.706	101.25
313.935	76.25
314.165	101.25
314.394	92.25
314.624	99.25
314.853	108.25
315.083	98.25
315.312	88.25
315.542	100.25
315.771	89.25
316.001	98.25
316.23	87.25
316.46	92.25
316.689	89.25
316.919	92.25
317.148	101.25
317.377	99.25
317.607	95.25
317.836	94.25
318.065	90.25
318.295	100.25
318.524	87.25
318.753	91.25
318.983	84.25
319.212	99.25
319.441	99.25
319.67	104.25
319.9	94.25
320.129	93.25
320.358	87.25
320.587	106.25
320.816	99.25
321.046	89.25
321.275	105.25
321.504	100.25
321.733	107.25
321.962	87.25
322.191	126.25
322.42	112.25
322.649	99.25
322.878	117.25
323.108	112.25
323.337	125.25
323.566	123.25
323.795	161.25
324.024	188.25
324.253	369.25
324.482	781.25
324.71	1557.25
324.939	2168.25
325.168	768.25
325.397	220.25
325.626	154.25
325.855	138.25
326.084	124.25
326.313	130.25
326.542	153.25
326.77	210.25
326.999	424.25
327.228	877.25
327.457	1617.25
327.686	1318.25
327.914	351.25
328.143	200.25
328.372	168.25
328.6	135.25
328.829	125.25
329.058	124.25
329.287	128.25
329.515	108.25
329.744	112.25
329.972	119.25
330.201	164.25
330.43	191.25
330.658	138.25
330.887	130.25
331.115	121.25
331.344	102.25
331.572	94.25
331.801	106.25
332.03	97.25
332.258	96.25
332.486	99.25
332.715	84.25
332.943	91.25
333.172	101.25
333.4	101.25
333.629	120.25
333.857	108.25
334.085	125.25
334.314	181.25
334.542	244.25
334.771	222.25
334.999	112.25
335.227	101.25
335.455	98.25
335.684	103.25
335.912	92.25
336.14	104.25
336.369	101.25
336.597	117.25
336.825	110.25
337.053	98.25
337.281	98.25
337.51	98.25
337.738	76.25
337.966	82.25
338.194	88.25
338.422	89.25
338.65	85.25
338.878	98.25
339.106	86.25
339.334	83.25
339.562	92.25
339.79	81.25
340.018	91.25
340.246	109.25
340.474	101.25
340.702	90.25
340.93	99.25
341.158	94.25
341.386	107.25
341.614	101.25
341.842	102.25
342.07	90.25
342.298	88.25
342.526	104.25
342.754	100.25
342.981	92.25
343.209	83.25
343.437	105.25
343.665	99.25
343.893	80.25
344.12	98.25
344.348	97.25
344.576	87.25
344.804	101.25
345.031	97.25
345.259	91.25
345.487	96.25
345.714	100.25
345.942	104.25
346.17	100.25
346.397	98.25
346.625	88.25
346.853	77.25
347.08	101.25
347.308	104.25
347.535	111.25
347.763	91.25
347.99	97.25
348.218	100.25
348.445	94.25
348.673	104.25
348.9	80.25
349.128	93.25
349.355	101.25
349.583	94.25
349.81	88.25
350.037	100.25
350.265	101.25
350.492	103.25
350.72	102.25
350.947	92.25
351.174	110.25
351.402	113.25
351.629	109.25
351.856	114.25
352.083	100.25
352.311	104.25
352.538	92.25
352.765	99.25
352.992	102.25
353.22	120.25
353.447	110.25
353.674	102.25
353.901	97.25
354.128	97.25
354.355	81.25
354.583	101.25
354.81	103.25
355.037	94.25
355.264	115.25
355.491	93.25
355.718	97.25
355.945	93.25
356.172	108.25
356.399	98.25
356.626	115.25
356.853	100.25
357.08	93.25
357.307	94.25
357.534	100.25
357.761	93.25
357.988	94.25
358.215	101.25
358.441	97.25
358.668	94.25
358.895	91.25
359.122	82.25
359.349	73.25
359.576	86.25
359.802	110.25
360.029	118.25
360.256	105.25
360.483	103.25
360.709	104.25
360.936	103.25
361.163	85.25
361.39	91.25
361.616	119.25
361.843	100.25
362.07	85.25
362.296	103.25
362.523	109.25
362.749	86.25
362.976	77.25
363.203	101.25
363.429	102.25
363.656	87.25
363.882	86.25
364.109	96.25
364.335	91.25
364.562	95.25
364.788	82.25
365.015	99.25
365.241	91.25
365.468	105.25
365.694	94.25
365.92	112.25
366.147	101.25
366.373	101.25
366.599	88.25
366.826	96.25
367.052	78.25
367.278	80.25
367.505	95.25
367.731	94.25
367.957	92.25
368.184	99.25
368.41	98.25
368.636	83.25
368.862	105.25
369.089	109.25
369.315	89.25
369.541	101.25
369.767	88.25
369.993	104.25
370.219	100.25
370.445	88.25
370.672	73.25
370.898	84.25
371.124	86.25
371.35	81.25
371.576	77.25
371.802	76.25
372.028	94.25
372.254	93.25
372.48	87.25
372.706	84.25
372.932	91.25
373.158	85.25
373.384	86.25
373.61	91.25
373.835	90.25
374.061	100.25
374.287	84.25
374.513	110.25
374.739	100.25
374.965	100.25
375.191	103.25
375.416	76.25
375.642	82.25
375.868	88.25
376.094	91.25
376.319	86.25
376.545	76.25
376.771	88.25
376.997	102.25
377.222	97.25
377.448	80.25
377.674	96.25
377.899	87.25
378.125	92.25
378.35	89.25
378.576	76.25
378.802	84.25
379.027	87.25
379.253	91.25
379.478	91.25
379.704	109.25
379.929	104.25
380.155	100.25
380.38	91.25
380.606	83.25
380.831	108.25
381.057	103.25
381.282	99.25
381.507	107.25
381.733	96.25
381.958	97.25
382.184	92.25
382.409	96.25
382.634	94.25
382.86	104.25
383.085	84.25
383.31	101.25
383.535	109.25
383.761	98.25
383.986	115.25
384.211	112.25
384.436	100.25
384.662	103.25
384.887	108.25
385.112	107.25
385.337	112.25
385.562	106.25
385.787	110.25
386.013	109.25
386.238	110.25
386.463	107.25
386.688	113.25
386.913	114.25
387.138	117.25
387.363	104.25
387.588	107.25
387.813	100.25
388.038	102.25
388.263	102.25
388.488	123.25
388.713	117.25
388.938	109.25
389.163	87.25
389.387	106.25
389.612	104.25
389.837	87.25
390.062	95.25
390.287	96.25
390.512	93.25
390.736	93.25
390.961	103.25
391.186	86.25
391.411	102.25
391.636	86.25
391.86	94.25
392.085	84.25
392.31	96.25
392.534	85.25
392.759	80.25
392.984	87.25
393.208	89.25
393.433	97.25
393.658	99.25
393.882	90.25
394.107	92.25
394.331	76.25
394.556	102.25
394.78	84.25
395.005	99.25
395.229	82.25
395.454	92.25
395.678	95.25
395.903	98.25
396.127	91.25
396.352	104.25
396.576	90.25
396.801	82.25
397.025	82.25
397.249	90.25
397.474	88.25
397.698	91.25
397.922	80.25
398.147	78.25
398.371	84.25
398.595	102.25
398.82	80.25
399.044	95.25
399.268	96.25
399.492	85.25
399.717	88.25
399.941	89.25
400.165	99.25
400.389	97.25
400.613	97.25
400.837	75.25
401.062	100.25
401.286	75.25
401.51	96.25
401.734	108.25
401.958	112.25
402.182	113.25
402.406	130.25
402.63	126.25
402.854	93.25
403.078	98.25
403.302	96.25
403.526	81.25
403.75	84.25
403.974	98.25
404.198	84.25
404.422	74.25
404.645	96.25
404.869	85.25
405.093	80.25
405.317	108.25
405.541	116.25
405.765	95.25
405.988	114.25
406.212	145.25
406.436	213.25
406.66	129.25
406.883	102.25
407.107	104.25
407.331	101.25
407.555	100.25
407.778	110.25
408.002	110.25
408.226	73.25
408.449	83.25
408.673	78.25
408.896	90.25
409.12	93.25
409.344	107.25
409.567	93.25
409.791	91.25
410.014	86.25
410.238	85.25
410.461	86.25
410.685	109.25
410.908	93.25
411.132	112.25
411.355	94.25
411.578	94.25
411.802	83.25
412.025	88.25
412.249	92.25
412.472	97.25
412.695	106.25
412.919	103.25
413.142	87.25
413.365	84.25
413.589	93.25
413.812	98.25
414.035	100.25
414.258	87.25
414.482	90.25
414.705	82.25
414.928	85.25
415.151	90.25
415.374	96.25
415.597	71.25
415.821	84.25
416.044	103.25
416.267	91.25
416.49	101.25
416.713	92.25
416.936	101.25
417.159	84.25
417.382	118.25
417.605	92.25
417.828	93.25
418.051	88.25
418.274	90.25
418.497	88.25
418.72	93.25
418.943	92.25
419.166	89.25
419.389	90.25
419.611	95.25
419.834	98.25
420.057	88.25
420.28	75.25
420.503	82.25
420.726	83.25
420.948	92.25
421.171	106.25
421.394	88.25
421.617	87.25
421.839	84.25
422.062	83.25
422.285	100.25
422.507	88.25
422.73	92.25
422.953	82.25
423.175	98.25
423.398	97.25
423.621	114.25
423.843	89.25
424.066	76.25
424.288	104.25
424.511	92.25
424.733	110.25
424.956	100.25
425.178	109.25
425.401	106.25
425.623	91.25
425.846	86.25
426.068	90.25
426.291	99.25
426.513	78.25
426.735	94.25
426.958	93.25
427.18	114.25
427.402	148.25
427.625	176.25
427.847	137.25
428.069	109.25
428.292	107.25
428.514	94.25
428.736	100.25
428.958	96.25
429.181	102.25
429.403	82.25
429.625	77.25
429.847	89.25
430.069	106.25
430.292	97.25
430.514	105.25
430.736	101.25
430.958	96.25
431.18	93.25
431.402	88.25
431.624	90.25
431.846	80.25
432.068	92.25
432.29	86.25
432.512	90.25
432.734	80.25
432.956	93.25
433.178	87.25
433.4	96.25
433.622	84.25
433.844	96.25
434.066	101.25
434.287	70.25
434.509	106.25
434.731	100.25
434.953	103.25
435.175	88.25
435.397	105.25
435.618	97.25
435.84	99.25
436.062	123.25
436.284	112.25
436.505	100.25
436.727	113.25
436.949	95.25
437.17	92.25
437.392	98.25
437.614	95.25
437.835	102.25
438.057	104.25
438.278	91.25
438.5	110.25
438.721	114.25
438.943	111.25
439.165	96.25
439.386	89.25
439.608	91.25
439.829	99.25
440.05	126.25
440.272	154.25
440.493	100.25
440.715	84.25
440.936	83.25
441.158	81.25
441.379	91.25
441.6	103.25
441.822	98.25
442.043	101.25
442.264	110.25
442.486	102.25
442.707	106.25
442.928	103.25
443.149	112.25
443.371	116.25
443.592	108.25
443.813	121.25
444.034	105.25
444.255	94.25
444.476	86.25
444.698	85.25
444.919	90.25
445.14	131.25
445.361	137.25
445.582	114.25
445.803	125.25
446.024	121.25
446.245	128.25
446.466	103.25
446.687	94.25
446.908	96.25
447.129	95.25
447.35	84.25
447.571	96.25
447.792	102.25
448.013	95.25
448.234	102.25
448.455	95.25
448.675	118.25
448.896	117.25
449.117	107.25
449.338	105.25
449.559	123.25
449.779	134.25
450	114.25
450.221	92.25
450.442	91.25
450.662	76.25
450.883	114.25
451.104	104.25
451.324	93.25
451.545	79.25
451.766	91.25
451.986	89.25
452.207	84.25
452.428	93.25
452.648	113.25
452.869	118.25
453.089	109.25
453.31	103.25
453.53	99.25
453.751	94.25
453.971	109.25
454.192	122.25
454.412	99.25
454.633	98.25
454.853	75.25
455.073	93.25
455.294	88.25
455.514	94.25
455.734	105.25
455.955	97.25
456.175	96.25
456.395	93.25
456.616	89.25
456.836	93.25
457.056	73.25
457.276	82.25
457.497	84.25
457.717	89.25
457.937	92.25
458.157	88.25
458.377	97.25
458.598	107.25
458.818	155.25
459.038	161.25
459.258	114.25
459.478	99.25
459.698	90.25
459.918	96.25
460.138	84.25
460.358	88.25
460.578	82.25
460.798	92.25
461.018	97.25
461.238	84.25
461.458	69.25
461.678	84.25
461.898	93.25
462.118	88.25
462.338	77.25
462.558	94.25
462.777	94.25
462.997	84.25
463.217	103.25
463.437	92.25
463.657	99.25
463.876	92.25
464.096	83.25
464.316	102.25
464.536	109.25
464.755	96.25
464.975	108.25
465.195	158.25
465.414	148.25
465.634	89.25
465.854	107.25
466.073	89.25
466.293	94.25
466.512	93.25
466.732	73.25
466.951	84.25
467.171	91.25
467.391	108.25
467.61	106.25
467.829	100.25
468.049	112.25
468.268	132.25
468.488	84.25
468.707	94.25
468.927	87.25
469.146	89.25
469.365	85.25
469.585	91.25
469.804	100.25
470.023	91.25
470.243	97.25
470.462	92.25
470.681	105.25
470.901	102.25
471.12	92.25
471.339	92.25
471.558	97.25
471.777	93.25
471.997	107.25
472.216	185.25
472.435	288.25
472.654	130.25
472.873	104.25
473.092	96.25
473.311	83.25
473.53	90.25
473.749	92.25
473.968	91.25
474.187	105.25
474.406	100.25
474.625	77.25
474.844	98.25
475.063	100.25
475.282	86.25
475.501	96.25
475.72	95.25
475.939	85.25
476.158	86.25
476.377	87.25
476.596	92.25
476.814	85.25
477.033	103.25
477.252	102.25
477.471	96.25
477.69	93.25
477.908	101.25
478.127	96.25
478.346	101.25
478.564	93.25
478.783	101.25
479.002	96.25
479.22	87.25
479.439	91.25
479.658	122.25
479.876	97.25
480.095	100.25
480.313	93.25
480.532	86.25
480.751	100.25
480.969	173.25
481.188	456.25
481.406	294.25
481.624	110.25
481.843	100.25
482.061	90.25
482.28	86.25
482.498	95.25
482.717	88.25
482.935	91.25
483.153	83.25
483.372	90.25
483.59	87.25
483.808	91.25
484.027	101.25
484.245	104.25
484.463	96.25
484.681	93.25
484.9	92.25
485.118	97.25
485.336	92.25
485.554	93.25
485.772	99.25
485.99	111.25
486.209	120.25
486.427	108.25
486.645	92.25
486.863	104.25
487.081	107.25
487.299	98.25
487.517	84.25
487.735	110.25
487.953	92.25
488.171	82.25
488.389	100.25
488.607	105.25
488.825	98.25
489.043	86.25
489.261	101.25
489.479	89.25
489.696	92.25
489.914	85.25
490.132	95.25
490.35	90.25
490.568	90.25
490.786	91.25
491.003	88.25
491.221	96.25
491.439	95.25
491.657	101.25
491.874	96.25
492.092	102.25
492.31	84.25
492.527	94.25
492.745	107.25
492.963	109.25
493.18	90.25
493.398	88.25
493.615	104.25
493.833	107.25
494.05	94.25
494.268	90.25
494.485	99.25
494.703	105.25
494.92	97.25
495.138	99.25
495.355	86.25
495.573	97.25
495.79	103.25
496.008	86.25
496.225	93.25
496.442	93.25
496.66	102.25
496.877	78.25
497.094	99.25
497.312	94.25
497.529	88.25
497.746	106.25
497.963	92.25
498.181	92.25
498.398	95.25
498.615	105.25
498.832	105.25
499.049	106.25
499.267	94.25
499.484	99.25
499.701	113.25
499.918	93.25
500.135	98.25
500.352	92.25
500.569	88.25
500.786	99.25
501.003	94.25
501.22	88.25
501.437	94.25
501.654	111.25
501.871	99.25
502.088	84.25
502.305	99.25
502.522	80.25
502.739	98.25
502.956	91.25
503.172	92.25
503.389	97.25
503.606	118.25
503.823	106.25
504.04	102.25
504.256	101.25
504.473	101.25
504.69	96.25
504.907	99.25
505.123	97.25
505.34	101.25
505.557	90.25
505.773	85.25
505.99	83.25
506.207	104.25
506.423	89.25
506.64	82.25
506.856	104.25
507.073	84.25
507.289	88.25
507.506	96.25
507.722	105.25
507.939	104.25
508.155	88.25
508.372	86.25
508.588	101.25
508.805	92.25
509.021	96.25
509.238	106.25
509.454	105.25
509.67	91.25
509.887	98.25
510.103	134.25
510.319	209.25
510.536	681.25
510.752	2116.25
510.968	553.25
511.184	148.25
511.401	117.25
511.617	113.25
511.833	89.25
512.049	93.25
512.265	88.25
512.481	89.25
512.698	91.25
512.914	89.25
513.13	102.25
513.346	101.25
513.562	110.25
513.778	102.25
513.994	80.25
514.21	103.25
514.426	125.25
514.642	123.25
514.858	117.25
515.074	148.25
515.29	415.25
515.506	1299.25
515.721	467.25
515.937	140.25
516.153	111.25
516.369	106.25
516.585	103.25
516.801	99.25
517.016	105.25
517.232	86.25
517.448	89.25
517.664	94.25
517.879	125.25
518.095	102.25
518.311	104.25
518.527	102.25
518.742	90.25
518.958	97.25
519.173	108.25
519.389	108.25
519.605	123.25
519.82	98.25
520.036	103.25
520.251	106.25
520.467	116.25
520.682	104.25
520.898	88.25
521.113	106.25
521.329	130.25
521.544	165.25
521.76	504.25
521.975	2114.25
522.19	1266.25
522.406	289.25
522.621	132.25
522.836	107.25
523.052	106.25
523.267	94.25
523.482	107.25
523.698	102.25
523.913	131.25
524.128	114.25
524.343	109.25
524.559	100.25
524.774	90.25
524.989	90.25
525.204	98.25
525.419	90.25
525.634	85.25
525.849	94.25
526.064	90.25
526.28	93.25
526.495	85.25
526.71	105.25
526.925	94.25
527.14	92.25
527.355	101.25
527.57	96.25
527.785	98.25
527.999	104.25
528.214	97.25
528.429	82.25
528.644	94.25
528.859	91.25
529.074	99.25
529.289	109.25
529.503	172.25
529.718	96.25
529.933	99.25
530.148	105.25
530.363	99.25
530.577	101.25
530.792	107.25
531.007	100.25
531.221	89.25
531.436	85.25
531.651	80.25
531.865	93.25
532.08	85.25
532.295	96.25
532.509	104.25
532.724	97.25
532.938	97.25
533.153	98.25
533.367	101.25
533.582	100.25
533.796	94.25
534.011	80.25
534.225	107.25
534.44	89.25
534.654	92.25
534.868	101.25
535.083	106.25
535.297	101.25
535.511	101.25
535.726	117.25
535.94	100.25
536.154	97.25
536.369	90.25
536.583	86.25
536.797	94.25
537.011	93.25
537.225	90.25
537.44	97.25
537.654	74.25
537.868	82.25
538.082	88.25
538.296	85.25
538.51	93.25
538.724	100.25
538.938	91.25
539.153	89.25
539.367	97.25
539.581	95.25
539.795	90.25
540.009	92.25
540.222	89.25
540.436	95.25
540.65	95.25
540.864	91.25
541.078	109.25
541.292	96.25
541.506	100.25
541.72	90.25
541.934	97.25
542.147	102.25
542.361	92.25
542.575	93.25
542.789	86.25
543.002	94.25
543.216	94.25
543.43	97.25
543.644	96.25
543.857	91.25
544.071	105.25
544.285	96.25
544.498	81.25
544.712	97.25
544.925	101.25
545.139	103.25
545.352	92.25
545.566	92.25
545.779	102.25
545.993	97.25
546.206	100.25
546.42	88.25
546.633	103.25
546.847	83.25
547.06	91.25
547.274	92.25
547.487	75.25
547.7	104.25
547.914	106.25
548.127	102.25
548.34	87.25
548.554	98.25
548.767	98.25
548.98	91.25
549.193	108.25
549.407	98.25
549.62	93.25
549.833	100.25
550.046	95.25
550.259	107.25
550.473	98.25
550.686	89.25
550.899	95.25
551.112	98.25
551.325	110.25
551.538	88.25
551.751	84.25
551.964	95.25
552.177	101.25
552.39	104.25
552.603	91.25
552.816	95.25
553.029	90.25
553.242	92.25
553.455	102.25
553.667	113.25
553.88	114.25
554.093	102.25
554.306	114.25
554.519	101.25
554.732	81.25
554.944	97.25
555.157	99.25
555.37	82.25
555.583	110.25
555.795	99.25
556.008	93.25
556.221	101.25
556.433	92.25
556.646	87.25
556.859	90.25
557.071	89.25
557.284	88.25
557.496	107.25
557.709	106.25
557.921	94.25
558.134	82.25
558.346	89.25
558.559	90.25
558.771	88.25
558.984	80.25
559.196	93.25
559.409	86.25
559.621	98.25
559.833	72.25
560.046	90.25
560.258	87.25
560.47	105.25
560.683	81.25
560.895	90.25
561.107	98.25
561.32	102.25
561.532	93.25
561.744	95.25
561.956	88.25
562.168	93.25
562.381	87.25
562.593	89.25
562.805	103.25
563.017	92.25
563.229	86.25
563.441	102.25
563.653	97.25
563.865	91.25
564.077	89.25
564.289	91.25
564.501	78.25
564.713	98.25
564.925	96.25
565.137	109.25
565.349	85.25
565.561	92.25
565.773	79.25
565.985	105.25
566.197	94.25
566.408	84.25
566.62	77.25
566.832	86.25
567.044	102.25
567.255	92.25
567.467	82.25
567.679	96.25
567.891	82.25
568.102	76.25
568.314	78.25
568.526	91.25
568.737	98.25
568.949	96.25
569.161	90.25
569.372	93.25
569.584	103.25
569.795	106.25
570.007	118.25
570.218	228.25
570.43	121.25
570.641	82.25
570.853	104.25
571.064	91.25
571.276	88.25
571.487	77.25
571.698	96.25
571.91	87.25
572.121	92.25
572.333	105.25
572.544	88.25
572.755	99.25
572.966	88.25
573.178	91.25
573.389	76.25
573.6	87.25
573.811	94.25
574.023	92.25
574.234	89.25
574.445	97.25
574.656	97.25
574.867	105.25
575.078	87.25
575.289	86.25
575.501	99.25
575.712	94.25
575.923	76.25
576.134	98.25
576.345	81.25
576.556	74.25
576.767	96.25
576.978	105.25
577.188	90.25
577.399	95.25
577.61	86.25
577.821	103.25
578.032	122.25
578.243	235.25
578.454	666.25
578.665	203.25
578.875	106.25
579.086	93.25
579.297	86.25
579.508	88.25
579.718	84.25
579.929	92.25
580.14	82.25
580.35	86.25
580.561	74.25
580.772	96.25
580.982	92.25
581.193	93.25
581.403	101.25
581.614	93.25
581.825	101.25
582.035	97.25
582.246	93.25
582.456	92.25
582.667	97.25
582.877	87.25
583.087	85.25
583.298	98.25
583.508	86.25
583.719	78.25
583.929	98.25
584.139	96.25
584.35	90.25
584.56	102.25
584.77	91.25
584.981	92.25
585.191	90.25
585.401	89.25
585.611	91.25
585.821	89.25
586.032	96.25
586.242	88.25
586.452	88.25
586.662	95.25
586.872	83.25
587.082	89.25
587.292	87.25
587.502	80.25
587.713	103.25
587.923	84.25
588.133	96.25
588.343	80.25
588.553	78.25
588.762	92.25
588.972	90.25
589.182	110.25
589.392	91.25
589.602	91.25
589.812	105.25
590.022	93.25
590.232	89.25
590.441	93.25
590.651	98.25
590.861	96.25
591.071	93.25
591.281	93.25
591.49	80.25
591.7	91.25
591.91	82.25
592.119	93.25
592.329	92.25
592.539	86.25
592.748	100.25
592.958	89.25
593.167	85.25
593.377	84.25
593.587	91.25
593.796	88.25
594.006	96.25
594.215	79.25
594.424	92.25
594.634	93.25
594.843	107.25
595.053	96.25
595.262	84.25
595.472	91.25
595.681	77.25
595.89	90.25
596.1	87.25
596.309	99.25
596.518	88.25
596.727	108.25
596.937	91.25
597.146	99.25
597.355	81.25
597.564	83.25
597.774	85.25
597.983	80.25
598.192	91.25
598.401	90.25
598.61	97.25
598.819	83.25
599.028	97.25
599.237	93.25
599.446	87.25
599.655	84.25
599.864	91.25
600.073	75.25
600.282	99.25
600.491	100.25
600.7	102.25
600.909	91.25
601.118	86.25
601.327	102.25
601.536	89.25
601.745	88.25
601.953	93.25
602.162	88.25
602.371	92.25
602.58	93.25
602.789	95.25
602.997	94.25
603.206	102.25
603.415	92.25
603.623	86.25
603.832	97.25
604.041	90.25
604.249	91.25
604.458	90.25
604.666	89.25
604.875	97.25
605.084	88.25
605.292	76.25
605.501	77.25
605.709	81.25
605.918	86.25
606.126	91.25
606.334	82.25
606.543	85.25
606.751	90.25
606.96	101.25
607.168	93.25
607.376	89.25
607.585	86.25
607.793	88.25
608.001	81.25
608.21	88.25
608.418	83.25
608.626	86.25
608.834	83.25
609.043	84.25
609.251	81.25
609.459	86.25
609.667	90.25
609.875	99.25
610.083	88.25
610.291	79.25
610.499	98.25
610.707	96.25
610.916	74.25
611.124	73.25
611.332	95.25
611.54	84.25
611.748	107.25
611.955	82.25
612.163	93.25
612.371	90.25
612.579	94.25
612.787	83.25
612.995	92.25
613.203	102.25
613.411	87.25
613.618	78.25
613.826	84.25
614.034	92.25
614.242	72.25
614.449	97.25
614.657	82.25
614.865	90.25
615.072	89.25
615.28	87.25
615.488	99.25
615.695	93.25
615.903	89.25
616.111	108.25
616.318	106.25
616.526	90.25
616.733	101.25
616.941	97.25
617.148	117.25
617.356	85.25
617.563	81.25
617.771	80.25
617.978	104.25
618.185	100.25
618.393	89.25
618.6	66.25
618.807	92.25
619.015	86.25
619.222	88.25
619.429	84.25
619.637	84.25
619.844	91.25
620.051	89.25
620.258	95.25
620.466	90.25
620.673	88.25
620.88	80.25
621.087	105.25
621.294	71.25
621.501	95.25
621.708	85.25
621.915	93.25
622.122	85.25
622.329	83.25
622.536	97.25
622.743	92.25
622.95	80.25
623.157	90.25
623.364	84.25
623.571	93.25
623.778	81.25
623.985	99.25
624.192	101.25
624.399	104.25
624.606	89.25
624.812	84.25
625.019	97.25
625.226	92.25
625.433	95.25
625.639	82.25
625.846	79.25
626.053	84.25
626.259	89.25
626.466	91.25
626.673	86.25
626.879	73.25
627.086	92.25
627.293	86.25
627.499	88.25
627.706	87.25
627.912	84.25
628.119	92.25
628.325	92.25
628.532	80.25
628.738	95.25
628.945	84.25
629.151	86.25
629.357	89.25
629.564	87.25
629.77	90.25
629.976	80.25
630.183	91.25
630.389	82.25
630.595	83.25
630.802	86.25
631.008	97.25
631.214	96.25
631.42	84.25
631.627	89.25
631.833	97.25
632.039	81.25
632.245	96.25
632.451	85.25
632.657	88.25
632.863	88.25
633.069	80.25
633.275	96.25
633.481	81.25
633.688	101.25
633.893	92.25
634.099	84.25
634.305	87.25
634.511	93.25
634.717	80.25
634.923	91.25
635.129	83.25
635.335	76.25
635.541	75.25
635.747	93.25
635.952	80.25
636.158	89.25
636.364	98.25
636.57	112.25
636.775	94.25
636.981	90.25
637.187	94.25
637.392	91.25
637.598	85.25
637.804	85.25
638.009	82.25
638.215	88.25
638.421	91.25
638.626	86.25
638.832	87.25
639.037	93.25
639.243	88.25
639.448	99.25
639.654	90.25
639.859	98.25
640.065	90.25
640.27	87.25
640.475	97.25
640.681	86.25
640.886	71.25
641.091	88.25
641.297	73.25
641.502	81.25
641.707	86.25
641.913	88.25
642.118	103.25
642.323	78.25
642.528	89.25
642.733	99.25
642.939	95.25
643.144	88.25
643.349	90.25
643.554	92.25
643.759	89.25
643.964	91.25
644.169	92.25
644.374	88.25
644.579	87.25
644.784	84.25
644.989	76.25
645.194	98.25
645.399	86.25
645.604	94.25
645.809	99.25
646.014	99.25
646.219	95.25
646.423	91.25
646.628	76.25
646.833	96.25
647.038	86.25
647.243	101.25
647.447	76.25
647.652	86.25
647.857	75.25
648.062	100.25
648.266	85.25
648.471	85.25
648.676	87.25
648.88	82.25
649.085	105.25
649.289	82.25
649.494	103.25
649.698	127.25
649.903	95.25
650.107	98.25
650.312	91.25
650.516	88.25
650.721	84.25
650.925	76.25
651.13	99.25
651.334	81.25
651.539	84.25
651.743	87.25
651.947	78.25
652.152	86.25
652.356	83.25
652.56	91.25
652.764	91.25
652.969	85.25
653.173	85.25
653.377	67.25
653.581	89.25
653.785	86.25
653.99	84.25
654.194	86.25
654.398	92.25
654.602	89.25
654.806	110.25
655.01	110.25
655.214	93.25
655.418	78.25
655.622	80.25
655.826	77.25
656.03	76.25
656.234	90.25
656.438	92.25
656.642	105.25
656.846	111.25
657.049	99.25
657.253	83.25
657.457	80.25
657.661	80.25
657.865	80.25
658.068	78.25
658.272	94.25
658.476	90.25
658.68	89.25
658.883	71.25
659.087	91.25
659.291	73.25
659.494	95.25
659.698	76.25
659.901	96.25
660.105	92.25
660.309	86.25
660.512	74.25
660.716	72.25
660.919	84.25
661.123	102.25
661.326	84.25
661.53	82.25
661.733	92.25
661.936	87.25
662.14	92.25
662.343	96.25
662.546	85.25
662.75	80.25
662.953	100.25
663.156	84.25
663.36	74.25
663.563	82.25
663.766	73.25
663.969	96.25
664.173	84.25
664.376	66.25
664.579	67.25
664.782	85.25
664.985	76.25
665.188	84.25
665.391	90.25
665.594	87.25
665.797	84.25
666	85.25
666.203	86.25
666.406	79.25
666.609	95.25
666.812	82.25
667.015	62.25
667.218	78.25
667.421	91.25
667.624	97.25
667.827	89.25
668.03	82.25
668.232	88.25
668.435	91.25
668.638	79.25
668.841	89.25
669.043	80.25
669.246	75.25
669.449	83.25
669.651	78.25
669.854	83.25
670.057	86.25
670.259	89.25
670.462	81.25
670.665	79.25
670.867	96.25
671.07	94.25
671.272	83.25
671.475	99.25
671.677	83.25
671.88	92.25
672.082	67.25
672.284	88.25
672.487	76.25
672.689	100.25
672.892	91.25
