Data from Circ_1986_H10_HRD10591_00012.txt Node
Date: Wed Jan 03 12:15:28 EST 2024
User: Yrep
Spectrometer: HR+D1059
Trigger mode: 1
Integration Time (sec): 1.000000E-1
Scans to average: 1
Electric dark correction enabled: true
Nonlinearity correction enabled: false
Boxcar width: 0
XAxis mode: Wavelengths
Number of Pixels in Spectrum: 2048
>>>>>Begin Spectral Data<<<<<
223.165	-19.12
223.4	-19.12
223.635	-19.12
223.869	-26.12
224.104	-10.12
224.338	-10.12
224.573	-18.12
224.808	-20.12
225.042	-16.12
225.277	-7.12
225.511	-9.12
225.746	-1.12
225.98	6.88
226.215	23.88
226.449	17.88
226.683	22.88
226.918	25.88
227.152	39.88
227.387	31.88
227.621	31.88
227.856	32.88
228.09	53.88
228.324	54.88
228.559	65.88
228.793	64.88
229.027	63.88
229.262	63.88
229.496	70.88
229.73	83.88
229.964	78.88
230.199	75.88
230.433	78.88
230.667	69.88
230.901	70.88
231.136	93.88
231.37	86.88
231.604	83.88
231.838	78.88
232.072	77.88
232.306	84.88
232.541	91.88
232.775	75.88
233.009	83.88
233.243	81.88
233.477	84.88
233.711	78.88
233.945	72.88
234.179	95.88
234.413	86.88
234.647	66.88
234.881	77.88
235.115	77.88
235.349	71.88
235.583	81.88
235.817	87.88
236.051	85.88
236.285	81.88
236.519	58.88
236.753	72.88
236.987	78.88
237.221	79.88
237.455	74.88
237.689	55.88
237.922	75.88
238.156	70.88
238.39	93.88
238.624	85.88
238.858	67.88
239.091	77.88
239.325	70.88
239.559	88.88
239.793	86.88
240.027	72.88
240.26	77.88
240.494	60.88
240.728	64.88
240.961	72.88
241.195	72.88
241.429	71.88
241.662	72.88
241.896	81.88
242.13	72.88
242.363	75.88
242.597	75.88
242.83	81.88
243.064	58.88
243.298	70.88
243.531	63.88
243.765	80.88
243.998	90.88
244.232	70.88
244.465	89.88
244.699	76.88
244.932	93.88
245.166	79.88
245.399	94.88
245.633	72.88
245.866	75.88
246.099	76.88
246.333	78.88
246.566	103.88
246.8	67.88
247.033	70.88
247.266	87.88
247.5	98.88
247.733	75.88
247.966	93.88
248.2	73.88
248.433	77.88
248.666	68.88
248.899	65.88
249.133	93.88
249.366	96.88
249.599	82.88
249.832	68.88
250.066	78.88
250.299	83.88
250.532	70.88
250.765	79.88
250.998	72.88
251.231	80.88
251.465	79.88
251.698	84.88
251.931	62.88
252.164	75.88
252.397	72.88
252.63	83.88
252.863	79.88
253.096	70.88
253.329	83.88
253.562	62.88
253.795	79.88
254.028	79.88
254.261	75.88
254.494	83.88
254.727	69.88
254.96	83.88
255.193	92.88
255.426	82.88
255.659	75.88
255.892	83.88
256.124	70.88
256.357	90.88
256.59	90.88
256.823	80.88
257.056	74.88
257.289	72.88
257.521	92.88
257.754	71.88
257.987	78.88
258.22	76.88
258.452	77.88
258.685	85.88
258.918	74.88
259.151	80.88
259.383	73.88
259.616	79.88
259.849	72.88
260.081	76.88
260.314	77.88
260.547	72.88
260.779	77.88
261.012	81.88
261.244	70.88
261.477	83.88
261.71	82.88
261.942	111.88
262.175	105.88
262.407	80.88
262.64	67.88
262.872	89.88
263.105	83.88
263.337	79.88
263.57	80.88
263.802	73.88
264.035	80.88
264.267	94.88
264.499	85.88
264.732	65.88
264.964	87.88
265.197	81.88
265.429	84.88
265.661	72.88
265.894	80.88
266.126	77.88
266.358	94.88
266.591	83.88
266.823	79.88
267.055	86.88
267.287	87.88
267.52	89.88
267.752	77.88
267.984	84.88
268.216	86.88
268.448	83.88
268.681	87.88
268.913	82.88
269.145	83.88
269.377	70.88
269.609	76.88
269.841	92.88
270.073	77.88
270.306	102.88
270.538	74.88
270.77	76.88
271.002	84.88
271.234	83.88
271.466	89.88
271.698	83.88
271.93	100.88
272.162	83.88
272.394	78.88
272.626	84.88
272.858	84.88
273.09	81.88
273.322	92.88
273.553	87.88
273.785	82.88
274.017	72.88
274.249	77.88
274.481	87.88
274.713	86.88
274.945	66.88
275.176	69.88
275.408	85.88
275.64	79.88
275.872	63.88
276.104	91.88
276.335	81.88
276.567	91.88
276.799	91.88
277.031	87.88
277.262	84.88
277.494	89.88
277.726	75.88
277.957	76.88
278.189	81.88
278.421	78.88
278.652	77.88
278.884	83.88
279.115	81.88
279.347	82.88
279.579	82.88
279.81	79.88
280.042	67.88
280.273	79.88
280.505	94.88
280.736	70.88
280.968	76.88
281.199	73.88
281.431	80.88
281.662	91.88
281.894	87.88
282.125	93.88
282.356	112.88
282.588	113.88
282.819	108.88
283.051	96.88
283.282	70.88
283.513	93.88
283.745	84.88
283.976	77.88
284.207	91.88
284.439	77.88
284.67	93.88
284.901	79.88
285.132	87.88
285.364	85.88
285.595	86.88
285.826	81.88
286.057	79.88
286.288	79.88
286.52	83.88
286.751	84.88
286.982	81.88
287.213	91.88
287.444	65.88
287.675	99.88
287.906	87.88
288.138	85.88
288.369	72.88
288.6	82.88
288.831	65.88
289.062	83.88
289.293	80.88
289.524	70.88
289.755	101.88
289.986	77.88
290.217	72.88
290.448	79.88
290.679	79.88
290.91	89.88
291.141	77.88
291.371	71.88
291.602	93.88
291.833	85.88
292.064	85.88
292.295	90.88
292.526	91.88
292.757	82.88
292.987	95.88
293.218	65.88
293.449	79.88
293.68	91.88
293.91	86.88
294.141	85.88
294.372	102.88
294.603	88.88
294.833	88.88
295.064	76.88
295.295	79.88
295.525	66.88
295.756	91.88
295.987	98.88
296.217	109.88
296.448	108.88
296.679	83.88
296.909	97.88
297.14	87.88
297.37	75.88
297.601	88.88
297.831	90.88
298.062	83.88
298.292	83.88
298.523	86.88
298.753	86.88
298.984	86.88
299.214	103.88
299.445	84.88
299.675	105.88
299.905	70.88
300.136	88.88
300.366	87.88
300.597	85.88
300.827	97.88
301.057	96.88
301.288	90.88
301.518	75.88
301.748	71.88
301.979	95.88
302.209	89.88
302.439	104.88
302.669	88.88
302.9	81.88
303.13	84.88
303.36	93.88
303.59	81.88
303.82	86.88
304.051	73.88
304.281	83.88
304.511	89.88
304.741	94.88
304.971	83.88
305.201	81.88
305.431	87.88
305.661	91.88
305.891	87.88
306.121	91.88
306.352	95.88
306.582	94.88
306.812	91.88
307.042	94.88
307.272	77.88
307.502	73.88
307.731	79.88
307.961	77.88
308.191	99.88
308.421	93.88
308.651	94.88
308.881	93.88
309.111	89.88
309.341	85.88
309.571	86.88
309.8	93.88
310.03	83.88
310.26	87.88
310.49	103.88
310.72	99.88
310.949	95.88
311.179	100.88
311.409	82.88
311.639	84.88
311.868	95.88
312.098	91.88
312.328	87.88
312.557	97.88
312.787	99.88
313.017	89.88
313.246	88.88
313.476	94.88
313.706	79.88
313.935	85.88
314.165	95.88
314.394	86.88
314.624	97.88
314.853	104.88
315.083	88.88
315.312	92.88
315.542	87.88
315.771	82.88
316.001	95.88
316.23	88.88
316.46	78.88
316.689	81.88
316.919	84.88
317.148	92.88
317.377	76.88
317.607	85.88
317.836	83.88
318.065	85.88
318.295	91.88
318.524	88.88
318.753	97.88
318.983	84.88
319.212	97.88
319.441	91.88
319.67	98.88
319.9	92.88
320.129	88.88
320.358	77.88
320.587	91.88
320.816	90.88
321.046	100.88
321.275	81.88
321.504	84.88
321.733	97.88
321.962	100.88
322.191	97.88
322.42	113.88
322.649	111.88
322.878	106.88
323.108	103.88
323.337	104.88
323.566	122.88
323.795	123.88
324.024	176.88
324.253	303.88
324.482	580.88
324.71	1218.88
324.939	1648.88
325.168	617.88
325.397	194.88
325.626	128.88
325.855	112.88
326.084	122.88
326.313	121.88
326.542	139.88
326.77	187.88
326.999	349.88
327.228	743.88
327.457	1295.88
327.686	1020.88
327.914	281.88
328.143	167.88
328.372	127.88
328.6	105.88
328.829	108.88
329.058	114.88
329.287	103.88
329.515	93.88
329.744	88.88
329.972	105.88
330.201	107.88
330.43	105.88
330.658	103.88
330.887	116.88
331.115	96.88
331.344	97.88
331.572	88.88
331.801	83.88
332.03	89.88
332.258	81.88
332.486	88.88
332.715	92.88
332.943	89.88
333.172	109.88
333.4	101.88
333.629	86.88
333.857	102.88
334.085	105.88
334.314	82.88
334.542	110.88
334.771	93.88
334.999	83.88
335.227	87.88
335.455	87.88
335.684	97.88
335.912	95.88
336.14	101.88
336.369	77.88
336.597	102.88
336.825	96.88
337.053	86.88
337.281	85.88
337.51	93.88
337.738	99.88
337.966	92.88
338.194	84.88
338.422	85.88
338.65	91.88
338.878	87.88
339.106	93.88
339.334	96.88
339.562	83.88
339.79	89.88
340.018	95.88
340.246	94.88
340.474	95.88
340.702	96.88
340.93	97.88
341.158	91.88
341.386	91.88
341.614	94.88
341.842	80.88
342.07	79.88
342.298	78.88
342.526	96.88
342.754	92.88
342.981	88.88
343.209	89.88
343.437	79.88
343.665	78.88
343.893	62.88
344.12	73.88
344.348	96.88
344.576	73.88
344.804	79.88
345.031	81.88
345.259	101.88
345.487	97.88
345.714	86.88
345.942	89.88
346.17	82.88
346.397	89.88
346.625	82.88
346.853	79.88
347.08	91.88
347.308	90.88
347.535	88.88
347.763	85.88
347.99	84.88
348.218	83.88
348.445	87.88
348.673	82.88
348.9	87.88
349.128	99.88
349.355	97.88
349.583	82.88
349.81	77.88
350.037	92.88
350.265	83.88
350.492	91.88
350.72	95.88
350.947	89.88
351.174	95.88
351.402	94.88
351.629	85.88
351.856	92.88
352.083	94.88
352.311	87.88
352.538	97.88
352.765	92.88
352.992	101.88
353.22	95.88
353.447	95.88
353.674	105.88
353.901	80.88
354.128	92.88
354.355	94.88
354.583	79.88
354.81	78.88
355.037	107.88
355.264	92.88
355.491	92.88
355.718	109.88
355.945	79.88
356.172	100.88
356.399	91.88
356.626	86.88
356.853	90.88
357.08	83.88
357.307	71.88
357.534	93.88
357.761	109.88
357.988	82.88
358.215	83.88
358.441	104.88
358.668	92.88
358.895	93.88
359.122	96.88
359.349	87.88
359.576	93.88
359.802	97.88
360.029	97.88
360.256	99.88
360.483	85.88
360.709	82.88
360.936	82.88
361.163	96.88
361.39	100.88
361.616	85.88
361.843	87.88
362.07	95.88
362.296	75.88
362.523	81.88
362.749	80.88
362.976	82.88
363.203	91.88
363.429	98.88
363.656	80.88
363.882	85.88
364.109	83.88
364.335	80.88
364.562	79.88
364.788	84.88
365.015	81.88
365.241	92.88
365.468	105.88
365.694	96.88
365.92	84.88
366.147	91.88
366.373	95.88
366.599	94.88
366.826	94.88
367.052	88.88
367.278	88.88
367.505	89.88
367.731	81.88
367.957	87.88
368.184	96.88
368.41	91.88
368.636	101.88
368.862	108.88
369.089	88.88
369.315	96.88
369.541	99.88
369.767	87.88
369.993	92.88
370.219	77.88
370.445	77.88
370.672	72.88
370.898	90.88
371.124	95.88
371.35	96.88
371.576	92.88
371.802	87.88
372.028	97.88
372.254	87.88
372.48	98.88
372.706	72.88
372.932	95.88
373.158	71.88
373.384	81.88
373.61	83.88
373.835	83.88
374.061	89.88
374.287	85.88
374.513	79.88
374.739	84.88
374.965	81.88
375.191	91.88
375.416	81.88
375.642	83.88
375.868	84.88
376.094	96.88
376.319	75.88
376.545	82.88
376.771	91.88
376.997	99.88
377.222	91.88
377.448	88.88
377.674	97.88
377.899	87.88
378.125	106.88
378.35	91.88
378.576	91.88
378.802	70.88
379.027	96.88
379.253	94.88
379.478	103.88
379.704	86.88
379.929	86.88
380.155	85.88
380.38	91.88
380.606	97.88
380.831	90.88
381.057	91.88
381.282	105.88
381.507	100.88
381.733	99.88
381.958	116.88
382.184	115.88
382.409	111.88
382.634	115.88
382.86	100.88
383.085	105.88
383.31	94.88
383.535	104.88
383.761	96.88
383.986	118.88
384.211	112.88
384.436	94.88
384.662	103.88
384.887	111.88
385.112	134.88
385.337	130.88
385.562	114.88
385.787	113.88
386.013	111.88
386.238	138.88
386.463	110.88
386.688	135.88
386.913	125.88
387.138	109.88
387.363	119.88
387.588	109.88
387.813	116.88
388.038	130.88
388.263	139.88
388.488	135.88
388.713	97.88
388.938	88.88
389.163	88.88
389.387	89.88
389.612	96.88
389.837	86.88
390.062	87.88
390.287	88.88
390.512	93.88
390.736	82.88
390.961	79.88
391.186	86.88
391.411	74.88
391.636	92.88
391.86	93.88
392.085	72.88
392.31	72.88
392.534	70.88
392.759	88.88
392.984	71.88
393.208	91.88
393.433	89.88
393.658	86.88
393.882	94.88
394.107	79.88
394.331	77.88
394.556	95.88
394.78	88.88
395.005	87.88
395.229	79.88
395.454	83.88
395.678	82.88
395.903	86.88
396.127	89.88
396.352	85.88
396.576	82.88
396.801	81.88
397.025	70.88
397.249	84.88
397.474	85.88
397.698	72.88
397.922	84.88
398.147	78.88
398.371	78.88
398.595	87.88
398.82	73.88
399.044	81.88
399.268	84.88
399.492	84.88
399.717	82.88
399.941	80.88
400.165	101.88
400.389	92.88
400.613	82.88
400.837	79.88
401.062	87.88
401.286	71.88
401.51	87.88
401.734	91.88
401.958	85.88
402.182	91.88
402.406	120.88
402.63	107.88
402.854	88.88
403.078	92.88
403.302	89.88
403.526	88.88
403.75	79.88
403.974	96.88
404.198	78.88
404.422	99.88
404.645	93.88
404.869	79.88
405.093	88.88
405.317	96.88
405.541	86.88
405.765	91.88
405.988	110.88
406.212	150.88
406.436	177.88
406.66	120.88
406.883	96.88
407.107	84.88
407.331	75.88
407.555	95.88
407.778	92.88
408.002	86.88
408.226	96.88
408.449	79.88
408.673	95.88
408.896	87.88
409.12	88.88
409.344	88.88
409.567	86.88
409.791	97.88
410.014	92.88
410.238	93.88
410.461	93.88
410.685	98.88
410.908	95.88
411.132	92.88
411.355	85.88
411.578	98.88
411.802	83.88
412.025	85.88
412.249	87.88
412.472	88.88
412.695	85.88
412.919	94.88
413.142	106.88
413.365	87.88
413.589	93.88
413.812	88.88
414.035	94.88
414.258	82.88
414.482	91.88
414.705	89.88
414.928	91.88
415.151	91.88
415.374	88.88
415.597	94.88
415.821	88.88
416.044	80.88
416.267	85.88
416.49	70.88
416.713	86.88
416.936	90.88
417.159	103.88
417.382	91.88
417.605	84.88
417.828	92.88
418.051	96.88
418.274	91.88
418.497	78.88
418.72	83.88
418.943	79.88
419.166	86.88
419.389	79.88
419.611	80.88
419.834	89.88
420.057	101.88
420.28	75.88
420.503	85.88
420.726	84.88
420.948	82.88
421.171	71.88
421.394	81.88
421.617	94.88
421.839	87.88
422.062	90.88
422.285	95.88
422.507	99.88
422.73	95.88
422.953	105.88
423.175	82.88
423.398	81.88
423.621	88.88
423.843	91.88
424.066	78.88
424.288	83.88
424.511	97.88
424.733	91.88
424.956	102.88
425.178	96.88
425.401	91.88
425.623	95.88
425.846	89.88
426.068	98.88
426.291	75.88
426.513	96.88
426.735	100.88
426.958	85.88
427.18	94.88
427.402	123.88
427.625	136.88
427.847	119.88
428.069	92.88
428.292	81.88
428.514	77.88
428.736	71.88
428.958	86.88
429.181	83.88
429.403	73.88
429.625	85.88
429.847	88.88
430.069	87.88
430.292	95.88
430.514	88.88
430.736	80.88
430.958	79.88
431.18	85.88
431.402	84.88
431.624	80.88
431.846	81.88
432.068	91.88
432.29	86.88
432.512	88.88
432.734	87.88
432.956	76.88
433.178	108.88
433.4	90.88
433.622	96.88
433.844	83.88
434.066	88.88
434.287	95.88
434.509	89.88
434.731	85.88
434.953	93.88
435.175	94.88
435.397	78.88
435.618	83.88
435.84	101.88
436.062	105.88
436.284	95.88
436.505	88.88
436.727	97.88
436.949	72.88
437.17	87.88
437.392	69.88
437.614	91.88
437.835	83.88
438.057	97.88
438.278	95.88
438.5	87.88
438.721	99.88
438.943	99.88
439.165	99.88
439.386	81.88
439.608	88.88
439.829	86.88
440.05	111.88
440.272	124.88
440.493	81.88
440.715	79.88
440.936	79.88
441.158	83.88
441.379	93.88
441.6	80.88
441.822	85.88
442.043	91.88
442.264	82.88
442.486	99.88
442.707	83.88
442.928	92.88
443.149	116.88
443.371	120.88
443.592	93.88
443.813	92.88
444.034	99.88
444.255	99.88
444.476	81.88
444.698	81.88
444.919	73.88
445.14	117.88
445.361	118.88
445.582	109.88
445.803	114.88
446.024	111.88
446.245	105.88
446.466	96.88
446.687	94.88
446.908	84.88
447.129	98.88
447.35	81.88
447.571	83.88
447.792	92.88
448.013	98.88
448.234	87.88
448.455	92.88
448.675	107.88
448.896	105.88
449.117	86.88
449.338	95.88
449.559	110.88
449.779	116.88
450	92.88
450.221	85.88
450.442	77.88
450.662	90.88
450.883	103.88
451.104	103.88
451.324	90.88
451.545	88.88
451.766	86.88
451.986	86.88
452.207	80.88
452.428	75.88
452.648	97.88
452.869	106.88
453.089	94.88
453.31	104.88
453.53	78.88
453.751	86.88
453.971	107.88
454.192	103.88
454.412	82.88
454.633	77.88
454.853	87.88
455.073	93.88
455.294	81.88
455.514	88.88
455.734	86.88
455.955	78.88
456.175	91.88
456.395	84.88
456.616	93.88
456.836	89.88
457.056	67.88
457.276	80.88
457.497	77.88
457.717	86.88
457.937	78.88
458.157	76.88
458.377	76.88
458.598	89.88
458.818	120.88
459.038	126.88
459.258	102.88
459.478	81.88
459.698	83.88
459.918	88.88
460.138	89.88
460.358	79.88
460.578	69.88
460.798	86.88
461.018	81.88
461.238	89.88
461.458	91.88
461.678	95.88
461.898	76.88
462.118	68.88
462.338	79.88
462.558	99.88
462.777	83.88
462.997	85.88
463.217	100.88
463.437	90.88
463.657	74.88
463.876	82.88
464.096	80.88
464.316	95.88
464.536	87.88
464.755	80.88
464.975	97.88
465.195	131.88
465.414	139.88
465.634	99.88
465.854	80.88
466.073	84.88
466.293	93.88
466.512	83.88
466.732	95.88
466.951	87.88
467.171	80.88
467.391	86.88
467.61	95.88
467.829	93.88
468.049	86.88
468.268	86.88
468.488	90.88
468.707	86.88
468.927	82.88
469.146	87.88
469.365	88.88
469.585	97.88
469.804	89.88
470.023	96.88
470.243	95.88
470.462	95.88
470.681	109.88
470.901	84.88
471.12	84.88
471.339	94.88
471.558	87.88
471.777	81.88
471.997	95.88
472.216	100.88
472.435	120.88
472.654	94.88
472.873	81.88
473.092	90.88
473.311	87.88
473.53	69.88
473.749	78.88
473.968	96.88
474.187	94.88
474.406	92.88
474.625	83.88
474.844	83.88
475.063	88.88
475.282	91.88
475.501	78.88
475.72	87.88
475.939	93.88
476.158	83.88
476.377	77.88
476.596	97.88
476.814	88.88
477.033	83.88
477.252	85.88
477.471	80.88
477.69	95.88
477.908	90.88
478.127	88.88
478.346	69.88
478.564	91.88
478.783	93.88
479.002	82.88
479.22	83.88
479.439	101.88
479.658	91.88
479.876	86.88
480.095	87.88
480.313	79.88
480.532	109.88
480.751	77.88
480.969	96.88
481.188	142.88
481.406	109.88
481.624	90.88
481.843	91.88
482.061	100.88
482.28	94.88
482.498	70.88
482.717	86.88
482.935	97.88
483.153	85.88
483.372	86.88
483.59	82.88
483.808	88.88
484.027	89.88
484.245	89.88
484.463	92.88
484.681	86.88
484.9	83.88
485.118	89.88
485.336	93.88
485.554	81.88
485.772	92.88
485.99	101.88
486.209	101.88
486.427	96.88
486.645	98.88
486.863	101.88
487.081	89.88
487.299	96.88
487.517	92.88
487.735	84.88
487.953	101.88
488.171	88.88
488.389	92.88
488.607	81.88
488.825	87.88
489.043	96.88
489.261	99.88
489.479	97.88
489.696	87.88
489.914	97.88
490.132	96.88
490.35	85.88
490.568	71.88
490.786	77.88
491.003	91.88
491.221	94.88
491.439	95.88
491.657	87.88
491.874	87.88
492.092	101.88
492.31	80.88
492.527	78.88
492.745	80.88
492.963	77.88
493.18	72.88
493.398	84.88
493.615	82.88
493.833	91.88
494.05	85.88
494.268	105.88
494.485	84.88
494.703	85.88
494.92	82.88
495.138	71.88
495.355	93.88
495.573	77.88
495.79	67.88
496.008	100.88
496.225	91.88
496.442	83.88
496.66	81.88
496.877	86.88
497.094	91.88
497.312	96.88
497.529	90.88
497.746	102.88
497.963	96.88
498.181	77.88
498.398	85.88
498.615	97.88
498.832	88.88
499.049	94.88
499.267	86.88
499.484	82.88
499.701	71.88
499.918	97.88
500.135	87.88
500.352	96.88
500.569	92.88
500.786	86.88
501.003	88.88
501.22	85.88
501.437	92.88
501.654	88.88
501.871	91.88
502.088	97.88
502.305	86.88
502.522	85.88
502.739	75.88
502.956	85.88
503.172	93.88
503.389	88.88
503.606	86.88
503.823	89.88
504.04	97.88
504.256	91.88
504.473	94.88
504.69	92.88
504.907	83.88
505.123	96.88
505.34	99.88
505.557	101.88
505.773	83.88
505.99	94.88
506.207	66.88
506.423	92.88
506.64	94.88
506.856	88.88
507.073	97.88
507.289	99.88
507.506	88.88
507.722	98.88
507.939	101.88
508.155	79.88
508.372	89.88
508.588	86.88
508.805	98.88
509.021	94.88
509.238	96.88
509.454	88.88
509.67	100.88
509.887	97.88
510.103	101.88
510.319	173.88
510.536	553.88
510.752	1598.88
510.968	465.88
511.184	145.88
511.401	87.88
511.617	83.88
511.833	82.88
512.049	101.88
512.265	92.88
512.481	86.88
512.698	95.88
512.914	79.88
513.13	87.88
513.346	84.88
513.562	88.88
513.778	98.88
513.994	91.88
514.21	95.88
514.426	116.88
514.642	109.88
514.858	110.88
515.074	131.88
515.29	317.88
515.506	941.88
515.721	372.88
515.937	115.88
516.153	97.88
516.369	91.88
516.585	97.88
516.801	93.88
517.016	89.88
517.232	72.88
517.448	100.88
517.664	76.88
517.879	81.88
518.095	89.88
518.311	94.88
518.527	93.88
518.742	93.88
518.958	91.88
519.173	82.88
519.389	74.88
519.605	87.88
519.82	85.88
520.036	97.88
520.251	110.88
520.467	86.88
520.682	108.88
520.898	97.88
521.113	108.88
521.329	105.88
521.544	151.88
521.76	400.88
521.975	1565.88
522.19	935.88
522.406	230.88
522.621	109.88
522.836	99.88
523.052	99.88
523.267	67.88
523.482	89.88
523.698	88.88
523.913	101.88
524.128	96.88
524.343	93.88
524.559	77.88
524.774	93.88
524.989	75.88
525.204	86.88
525.419	82.88
525.634	96.88
525.849	87.88
526.064	88.88
526.28	80.88
526.495	84.88
526.71	84.88
526.925	78.88
527.14	88.88
527.355	89.88
527.57	84.88
527.785	96.88
527.999	75.88
528.214	105.88
528.429	90.88
528.644	88.88
528.859	96.88
529.074	92.88
529.289	96.88
529.503	140.88
529.718	97.88
529.933	99.88
530.148	105.88
530.363	76.88
530.577	87.88
530.792	89.88
531.007	79.88
531.221	83.88
531.436	85.88
531.651	84.88
531.865	97.88
532.08	79.88
532.295	92.88
532.509	78.88
532.724	84.88
532.938	91.88
533.153	91.88
533.367	77.88
533.582	87.88
533.796	89.88
534.011	88.88
534.225	91.88
534.44	80.88
534.654	79.88
534.868	71.88
535.083	85.88
535.297	88.88
535.511	92.88
535.726	91.88
535.94	104.88
536.154	83.88
536.369	85.88
536.583	92.88
536.797	88.88
537.011	81.88
537.225	79.88
537.44	93.88
537.654	75.88
537.868	95.88
538.082	106.88
538.296	92.88
538.51	88.88
538.724	71.88
538.938	68.88
539.153	94.88
539.367	89.88
539.581	88.88
539.795	94.88
540.009	103.88
540.222	87.88
540.436	91.88
540.65	87.88
540.864	78.88
541.078	80.88
541.292	87.88
541.506	88.88
541.72	84.88
541.934	89.88
542.147	78.88
542.361	83.88
542.575	84.88
542.789	81.88
543.002	86.88
543.216	82.88
543.43	100.88
543.644	89.88
543.857	103.88
544.071	85.88
544.285	96.88
544.498	96.88
544.712	83.88
544.925	85.88
545.139	70.88
545.352	86.88
545.566	83.88
545.779	93.88
545.993	90.88
546.206	96.88
546.42	94.88
546.633	91.88
546.847	78.88
547.06	85.88
547.274	80.88
547.487	82.88
547.7	87.88
547.914	75.88
548.127	83.88
548.34	100.88
548.554	86.88
548.767	92.88
548.98	88.88
549.193	89.88
549.407	82.88
549.62	83.88
549.833	88.88
550.046	86.88
550.259	81.88
550.473	93.88
550.686	80.88
550.899	93.88
551.112	92.88
551.325	79.88
551.538	96.88
551.751	84.88
551.964	82.88
552.177	97.88
552.39	86.88
552.603	76.88
552.816	101.88
553.029	86.88
553.242	97.88
553.455	104.88
553.667	105.88
553.88	91.88
554.093	102.88
554.306	97.88
554.519	93.88
554.732	72.88
554.944	97.88
555.157	88.88
555.37	99.88
555.583	97.88
555.795	79.88
556.008	79.88
556.221	93.88
556.433	87.88
556.646	83.88
556.859	80.88
557.071	81.88
557.284	89.88
557.496	86.88
557.709	89.88
557.921	104.88
558.134	92.88
558.346	93.88
558.559	91.88
558.771	78.88
558.984	69.88
559.196	87.88
559.409	81.88
559.621	96.88
559.833	89.88
560.046	94.88
560.258	72.88
560.47	75.88
560.683	93.88
560.895	83.88
561.107	81.88
561.32	92.88
561.532	79.88
561.744	87.88
561.956	87.88
562.168	84.88
562.381	95.88
562.593	93.88
562.805	76.88
563.017	72.88
563.229	98.88
563.441	100.88
563.653	94.88
563.865	66.88
564.077	90.88
564.289	87.88
564.501	79.88
564.713	89.88
564.925	83.88
565.137	95.88
565.349	89.88
565.561	105.88
565.773	90.88
565.985	81.88
566.197	84.88
566.408	87.88
566.62	83.88
566.832	73.88
567.044	83.88
567.255	94.88
567.467	93.88
567.679	91.88
567.891	85.88
568.102	83.88
568.314	73.88
568.526	78.88
568.737	95.88
568.949	86.88
569.161	75.88
569.372	87.88
569.584	90.88
569.795	85.88
570.007	95.88
570.218	181.88
570.43	114.88
570.641	81.88
570.853	87.88
571.064	79.88
571.276	87.88
571.487	87.88
571.698	80.88
571.91	84.88
572.121	79.88
572.333	84.88
572.544	83.88
572.755	91.88
572.966	85.88
573.178	92.88
573.389	88.88
573.6	95.88
573.811	101.88
574.023	89.88
574.234	88.88
574.445	84.88
574.656	91.88
574.867	93.88
575.078	90.88
575.289	73.88
575.501	87.88
575.712	77.88
575.923	93.88
576.134	90.88
576.345	79.88
576.556	77.88
576.767	95.88
576.978	81.88
577.188	83.88
577.399	93.88
577.61	92.88
577.821	88.88
578.032	108.88
578.243	215.88
578.454	530.88
578.665	168.88
578.875	93.88
579.086	93.88
579.297	87.88
579.508	92.88
579.718	90.88
579.929	79.88
580.14	88.88
580.35	95.88
580.561	79.88
580.772	84.88
580.982	91.88
581.193	89.88
581.403	86.88
581.614	88.88
581.825	79.88
582.035	80.88
582.246	84.88
582.456	94.88
582.667	87.88
582.877	90.88
583.087	85.88
583.298	98.88
583.508	69.88
583.719	101.88
583.929	92.88
584.139	83.88
584.35	79.88
584.56	91.88
584.77	88.88
584.981	87.88
585.191	82.88
585.401	87.88
585.611	83.88
585.821	65.88
586.032	91.88
586.242	93.88
586.452	81.88
586.662	81.88
586.872	67.88
587.082	75.88
587.292	81.88
587.502	99.88
587.713	86.88
587.923	101.88
588.133	84.88
588.343	87.88
588.553	86.88
588.762	85.88
588.972	93.88
589.182	115.88
589.392	94.88
589.602	81.88
589.812	101.88
590.022	97.88
590.232	89.88
590.441	70.88
590.651	79.88
590.861	91.88
591.071	92.88
591.281	86.88
591.49	91.88
591.7	80.88
591.91	81.88
592.119	86.88
592.329	80.88
592.539	93.88
592.748	67.88
592.958	84.88
593.167	80.88
593.377	77.88
593.587	92.88
593.796	91.88
594.006	81.88
594.215	90.88
594.424	81.88
594.634	87.88
594.843	91.88
595.053	82.88
595.262	77.88
595.472	85.88
595.681	90.88
595.89	82.88
596.1	79.88
596.309	87.88
596.518	84.88
596.727	81.88
596.937	85.88
597.146	86.88
597.355	83.88
597.564	71.88
597.774	89.88
597.983	90.88
598.192	93.88
598.401	85.88
598.61	98.88
598.819	83.88
599.028	88.88
599.237	87.88
599.446	77.88
599.655	99.88
599.864	94.88
600.073	89.88
600.282	80.88
600.491	76.88
600.7	71.88
600.909	85.88
601.118	83.88
601.327	81.88
601.536	76.88
601.745	77.88
601.953	87.88
602.162	91.88
602.371	89.88
602.58	89.88
602.789	97.88
602.997	79.88
603.206	86.88
603.415	78.88
603.623	81.88
603.832	81.88
604.041	83.88
604.249	74.88
604.458	77.88
604.666	83.88
604.875	79.88
605.084	90.88
605.292	87.88
605.501	60.88
605.709	96.88
605.918	89.88
606.126	82.88
606.334	84.88
606.543	84.88
606.751	75.88
606.96	89.88
607.168	80.88
607.376	97.88
607.585	98.88
607.793	91.88
608.001	85.88
608.21	85.88
608.418	87.88
608.626	95.88
608.834	83.88
609.043	73.88
609.251	80.88
609.459	72.88
609.667	80.88
609.875	73.88
610.083	80.88
610.291	76.88
610.499	67.88
610.707	95.88
610.916	82.88
611.124	74.88
611.332	93.88
611.54	92.88
611.748	73.88
611.955	94.88
612.163	84.88
612.371	89.88
612.579	75.88
612.787	79.88
612.995	94.88
613.203	81.88
613.411	88.88
613.618	93.88
613.826	97.88
614.034	88.88
614.242	75.88
614.449	79.88
614.657	71.88
614.865	97.88
615.072	86.88
615.28	81.88
615.488	89.88
615.695	92.88
615.903	93.88
616.111	102.88
616.318	87.88
616.526	76.88
616.733	91.88
616.941	76.88
617.148	81.88
617.356	84.88
617.563	78.88
617.771	97.88
617.978	95.88
618.185	92.88
618.393	92.88
618.6	88.88
618.807	64.88
619.015	75.88
619.222	79.88
619.429	89.88
619.637	94.88
619.844	88.88
620.051	70.88
620.258	82.88
620.466	88.88
620.673	87.88
620.88	85.88
621.087	92.88
621.294	80.88
621.501	89.88
621.708	77.88
621.915	84.88
622.122	84.88
622.329	66.88
622.536	81.88
622.743	82.88
622.95	85.88
623.157	91.88
623.364	85.88
623.571	73.88
623.778	76.88
623.985	75.88
624.192	64.88
624.399	86.88
624.606	77.88
624.812	74.88
625.019	86.88
625.226	80.88
625.433	93.88
625.639	81.88
625.846	79.88
626.053	77.88
626.259	83.88
626.466	89.88
626.673	82.88
626.879	77.88
627.086	80.88
627.293	82.88
627.499	95.88
627.706	77.88
627.912	85.88
628.119	95.88
628.325	96.88
628.532	94.88
628.738	79.88
628.945	72.88
629.151	72.88
629.357	84.88
629.564	91.88
629.77	85.88
629.976	84.88
630.183	80.88
630.389	86.88
630.595	76.88
630.802	86.88
631.008	69.88
631.214	64.88
631.42	91.88
631.627	88.88
631.833	87.88
632.039	78.88
632.245	86.88
632.451	88.88
632.657	95.88
632.863	71.88
633.069	77.88
633.275	70.88
633.481	61.88
633.688	70.88
633.893	76.88
634.099	85.88
634.305	67.88
634.511	82.88
634.717	72.88
634.923	91.88
635.129	89.88
635.335	80.88
635.541	87.88
635.747	74.88
635.952	76.88
636.158	79.88
636.364	77.88
636.57	81.88
636.775	74.88
636.981	77.88
637.187	91.88
637.392	87.88
637.598	76.88
637.804	77.88
638.009	80.88
638.215	86.88
638.421	68.88
638.626	65.88
638.832	86.88
639.037	81.88
639.243	80.88
639.448	91.88
639.654	71.88
639.859	81.88
640.065	72.88
640.27	78.88
640.475	81.88
640.681	83.88
640.886	82.88
641.091	79.88
641.297	88.88
641.502	100.88
641.707	108.88
641.913	71.88
642.118	75.88
642.323	94.88
642.528	84.88
642.733	99.88
642.939	81.88
643.144	76.88
643.349	80.88
643.554	87.88
643.759	77.88
643.964	79.88
644.169	74.88
644.374	98.88
644.579	83.88
644.784	85.88
644.989	88.88
645.194	93.88
645.399	85.88
645.604	84.88
645.809	85.88
646.014	87.88
646.219	86.88
646.423	93.88
646.628	87.88
646.833	89.88
647.038	79.88
647.243	81.88
647.447	79.88
647.652	81.88
647.857	90.88
648.062	92.88
648.266	84.88
648.471	91.88
648.676	98.88
648.88	96.88
649.085	86.88
649.289	69.88
649.494	72.88
649.698	99.88
649.903	98.88
650.107	87.88
650.312	85.88
650.516	70.88
650.721	90.88
650.925	81.88
651.13	89.88
651.334	86.88
651.539	80.88
651.743	84.88
651.947	81.88
652.152	83.88
652.356	71.88
652.56	83.88
652.764	66.88
652.969	80.88
653.173	78.88
653.377	65.88
653.581	83.88
653.785	83.88
653.99	95.88
654.194	82.88
654.398	69.88
654.602	79.88
654.806	77.88
655.01	110.88
655.214	79.88
655.418	94.88
655.622	81.88
655.826	101.88
656.03	80.88
656.234	81.88
656.438	90.88
656.642	89.88
656.846	75.88
657.049	75.88
657.253	92.88
657.457	80.88
657.661	93.88
657.865	91.88
658.068	84.88
658.272	81.88
658.476	84.88
658.68	91.88
658.883	81.88
659.087	79.88
659.291	66.88
659.494	75.88
659.698	79.88
659.901	77.88
660.105	97.88
660.309	60.88
660.512	73.88
660.716	102.88
660.919	80.88
661.123	84.88
661.326	81.88
661.53	85.88
661.733	81.88
661.936	79.88
662.14	67.88
662.343	89.88
662.546	81.88
662.75	89.88
662.953	62.88
663.156	77.88
663.36	90.88
663.563	80.88
663.766	77.88
663.969	97.88
664.173	71.88
664.376	79.88
664.579	73.88
664.782	89.88
664.985	88.88
665.188	78.88
665.391	76.88
665.594	82.88
665.797	79.88
666	70.88
666.203	89.88
666.406	80.88
666.609	73.88
666.812	85.88
667.015	77.88
667.218	79.88
667.421	84.88
667.624	84.88
667.827	90.88
668.03	88.88
668.232	69.88
668.435	69.88
668.638	95.88
668.841	85.88
669.043	80.88
669.246	79.88
669.449	79.88
669.651	70.88
669.854	81.88
670.057	95.88
670.259	82.88
670.462	73.88
670.665	75.88
670.867	77.88
671.07	68.88
671.272	73.88
671.475	82.88
671.677	66.88
671.88	75.88
672.082	87.88
672.284	72.88
672.487	95.88
672.689	79.88
672.892	85.88
