Data from Circ_1982_H10_HRD10591_00012.txt Node
Date: Wed Jan 03 12:30:43 EST 2024
User: Yrep
Spectrometer: HR+D1059
Trigger mode: 1
Integration Time (sec): 1.000000E-1
Scans to average: 1
Electric dark correction enabled: true
Nonlinearity correction enabled: false
Boxcar width: 0
XAxis mode: Wavelengths
Number of Pixels in Spectrum: 2048
>>>>>Begin Spectral Data<<<<<
223.165	-13.81
223.4	-13.81
223.635	-13.81
223.869	-16.81
224.104	-17.81
224.338	-15.81
224.573	-6.81
224.808	-12.81
225.042	-9.81
225.277	-13.81
225.511	-6.81
225.746	2.19
225.98	13.19
226.215	2.19
226.449	10.19
226.683	16.19
226.918	37.19
227.152	33.19
227.387	42.19
227.621	33.19
227.856	48.19
228.09	37.19
228.324	49.19
228.559	57.19
228.793	65.19
229.027	56.19
229.262	63.19
229.496	55.19
229.73	67.19
229.964	77.19
230.199	84.19
230.433	88.19
230.667	72.19
230.901	75.19
231.136	69.19
231.37	75.19
231.604	86.19
231.838	74.19
232.072	72.19
232.306	92.19
232.541	82.19
232.775	81.19
233.009	77.19
233.243	85.19
233.477	82.19
233.711	93.19
233.945	101.19
234.179	73.19
234.413	85.19
234.647	85.19
234.881	82.19
235.115	66.19
235.349	71.19
235.583	78.19
235.817	76.19
236.051	84.19
236.285	79.19
236.519	71.19
236.753	87.19
236.987	71.19
237.221	73.19
237.455	70.19
237.689	74.19
237.922	71.19
238.156	71.19
238.39	72.19
238.624	85.19
238.858	82.19
239.091	88.19
239.325	61.19
239.559	85.19
239.793	77.19
240.027	82.19
240.26	73.19
240.494	56.19
240.728	77.19
240.961	75.19
241.195	73.19
241.429	64.19
241.662	83.19
241.896	74.19
242.13	71.19
242.363	68.19
242.597	71.19
242.83	79.19
243.064	84.19
243.298	83.19
243.531	69.19
243.765	72.19
243.998	86.19
244.232	76.19
244.465	81.19
244.699	84.19
244.932	87.19
245.166	88.19
245.399	77.19
245.633	83.19
245.866	79.19
246.099	81.19
246.333	72.19
246.566	79.19
246.8	85.19
247.033	67.19
247.266	67.19
247.5	80.19
247.733	72.19
247.966	92.19
248.2	81.19
248.433	88.19
248.666	95.19
248.899	77.19
249.133	91.19
249.366	97.19
249.599	93.19
249.832	67.19
250.066	83.19
250.299	96.19
250.532	69.19
250.765	67.19
250.998	79.19
251.231	90.19
251.465	87.19
251.698	87.19
251.931	85.19
252.164	65.19
252.397	71.19
252.63	82.19
252.863	71.19
253.096	74.19
253.329	85.19
253.562	82.19
253.795	89.19
254.028	87.19
254.261	77.19
254.494	81.19
254.727	88.19
254.96	70.19
255.193	76.19
255.426	72.19
255.659	80.19
255.892	77.19
256.124	86.19
256.357	76.19
256.59	72.19
256.823	91.19
257.056	68.19
257.289	83.19
257.521	92.19
257.754	84.19
257.987	96.19
258.22	83.19
258.452	88.19
258.685	88.19
258.918	81.19
259.151	81.19
259.383	90.19
259.616	84.19
259.849	75.19
260.081	84.19
260.314	68.19
260.547	100.19
260.779	57.19
261.012	62.19
261.244	89.19
261.477	93.19
261.71	99.19
261.942	90.19
262.175	94.19
262.407	74.19
262.64	96.19
262.872	81.19
263.105	87.19
263.337	80.19
263.57	79.19
263.802	80.19
264.035	87.19
264.267	99.19
264.499	81.19
264.732	77.19
264.964	78.19
265.197	80.19
265.429	80.19
265.661	88.19
265.894	75.19
266.126	83.19
266.358	85.19
266.591	89.19
266.823	79.19
267.055	76.19
267.287	87.19
267.52	83.19
267.752	81.19
267.984	87.19
268.216	84.19
268.448	89.19
268.681	82.19
268.913	63.19
269.145	88.19
269.377	77.19
269.609	106.19
269.841	73.19
270.073	83.19
270.306	74.19
270.538	87.19
270.77	91.19
271.002	84.19
271.234	78.19
271.466	83.19
271.698	77.19
271.93	79.19
272.162	91.19
272.394	79.19
272.626	86.19
272.858	84.19
273.09	73.19
273.322	89.19
273.553	92.19
273.785	88.19
274.017	93.19
274.249	83.19
274.481	84.19
274.713	79.19
274.945	90.19
275.176	81.19
275.408	89.19
275.64	92.19
275.872	84.19
276.104	80.19
276.335	75.19
276.567	90.19
276.799	92.19
277.031	98.19
277.262	87.19
277.494	89.19
277.726	83.19
277.957	95.19
278.189	79.19
278.421	84.19
278.652	71.19
278.884	72.19
279.115	81.19
279.347	88.19
279.579	76.19
279.81	92.19
280.042	69.19
280.273	90.19
280.505	72.19
280.736	79.19
280.968	99.19
281.199	90.19
281.431	94.19
281.662	88.19
281.894	91.19
282.125	83.19
282.356	93.19
282.588	105.19
282.819	98.19
283.051	75.19
283.282	83.19
283.513	97.19
283.745	101.19
283.976	87.19
284.207	104.19
284.439	88.19
284.67	76.19
284.901	92.19
285.132	79.19
285.364	66.19
285.595	81.19
285.826	68.19
286.057	82.19
286.288	71.19
286.52	83.19
286.751	88.19
286.982	73.19
287.213	66.19
287.444	76.19
287.675	83.19
287.906	95.19
288.138	102.19
288.369	87.19
288.6	86.19
288.831	76.19
289.062	83.19
289.293	87.19
289.524	76.19
289.755	87.19
289.986	89.19
290.217	74.19
290.448	73.19
290.679	90.19
290.91	90.19
291.141	81.19
291.371	80.19
291.602	84.19
291.833	68.19
292.064	81.19
292.295	76.19
292.526	100.19
292.757	81.19
292.987	82.19
293.218	79.19
293.449	79.19
293.68	76.19
293.91	95.19
294.141	103.19
294.372	97.19
294.603	82.19
294.833	91.19
295.064	87.19
295.295	78.19
295.525	83.19
295.756	100.19
295.987	99.19
296.217	114.19
296.448	113.19
296.679	75.19
296.909	83.19
297.14	91.19
297.37	90.19
297.601	69.19
297.831	81.19
298.062	91.19
298.292	91.19
298.523	100.19
298.753	81.19
298.984	91.19
299.214	86.19
299.445	95.19
299.675	92.19
299.905	87.19
300.136	90.19
300.366	75.19
300.597	82.19
300.827	91.19
301.057	103.19
301.288	94.19
301.518	87.19
301.748	85.19
301.979	101.19
302.209	85.19
302.439	80.19
302.669	84.19
302.9	91.19
303.13	83.19
303.36	80.19
303.59	95.19
303.82	96.19
304.051	97.19
304.281	87.19
304.511	98.19
304.741	86.19
304.971	93.19
305.201	95.19
305.431	93.19
305.661	81.19
305.891	92.19
306.121	107.19
306.352	88.19
306.582	93.19
306.812	85.19
307.042	83.19
307.272	84.19
307.502	93.19
307.731	93.19
307.961	81.19
308.191	83.19
308.421	101.19
308.651	98.19
308.881	91.19
309.111	106.19
309.341	93.19
309.571	83.19
309.8	93.19
310.03	98.19
310.26	87.19
310.49	79.19
310.72	93.19
310.949	102.19
311.179	94.19
311.409	89.19
311.639	91.19
311.868	101.19
312.098	90.19
312.328	106.19
312.557	102.19
312.787	96.19
313.017	103.19
313.246	93.19
313.476	87.19
313.706	83.19
313.935	104.19
314.165	88.19
314.394	87.19
314.624	95.19
314.853	89.19
315.083	86.19
315.312	107.19
315.542	97.19
315.771	91.19
316.001	97.19
316.23	87.19
316.46	76.19
316.689	99.19
316.919	89.19
317.148	95.19
317.377	97.19
317.607	106.19
317.836	97.19
318.065	89.19
318.295	89.19
318.524	87.19
318.753	83.19
318.983	93.19
319.212	88.19
319.441	106.19
319.67	99.19
319.9	85.19
320.129	85.19
320.358	82.19
320.587	87.19
320.816	77.19
321.046	95.19
321.275	90.19
321.504	92.19
321.733	94.19
321.962	88.19
322.191	95.19
322.42	101.19
322.649	98.19
322.878	98.19
323.108	101.19
323.337	115.19
323.566	114.19
323.795	119.19
324.024	167.19
324.253	258.19
324.482	538.19
324.71	1087.19
324.939	1395.19
325.168	524.19
325.397	182.19
325.626	127.19
325.855	105.19
326.084	109.19
326.313	124.19
326.542	130.19
326.77	170.19
326.999	327.19
327.228	631.19
327.457	1103.19
327.686	863.19
327.914	250.19
328.143	155.19
328.372	146.19
328.6	112.19
328.829	98.19
329.058	106.19
329.287	103.19
329.515	98.19
329.744	101.19
329.972	97.19
330.201	113.19
330.43	104.19
330.658	107.19
330.887	120.19
331.115	103.19
331.344	103.19
331.572	103.19
331.801	101.19
332.03	89.19
332.258	93.19
332.486	94.19
332.715	95.19
332.943	102.19
333.172	93.19
333.4	96.19
333.629	87.19
333.857	115.19
334.085	102.19
334.314	121.19
334.542	119.19
334.771	115.19
334.999	96.19
335.227	96.19
335.455	104.19
335.684	106.19
335.912	94.19
336.14	95.19
336.369	94.19
336.597	119.19
336.825	99.19
337.053	87.19
337.281	87.19
337.51	89.19
337.738	89.19
337.966	89.19
338.194	83.19
338.422	103.19
338.65	91.19
338.878	87.19
339.106	84.19
339.334	88.19
339.562	79.19
339.79	69.19
340.018	79.19
340.246	93.19
340.474	97.19
340.702	101.19
340.93	97.19
341.158	84.19
341.386	87.19
341.614	87.19
341.842	79.19
342.07	101.19
342.298	86.19
342.526	89.19
342.754	101.19
342.981	72.19
343.209	85.19
343.437	104.19
343.665	89.19
343.893	91.19
344.12	85.19
344.348	99.19
344.576	90.19
344.804	94.19
345.031	92.19
345.259	92.19
345.487	88.19
345.714	83.19
345.942	96.19
346.17	96.19
346.397	71.19
346.625	95.19
346.853	91.19
347.08	83.19
347.308	84.19
347.535	86.19
347.763	95.19
347.99	97.19
348.218	102.19
348.445	97.19
348.673	97.19
348.9	106.19
349.128	103.19
349.355	88.19
349.583	89.19
349.81	94.19
350.037	80.19
350.265	88.19
350.492	83.19
350.72	89.19
350.947	105.19
351.174	99.19
351.402	107.19
351.629	82.19
351.856	95.19
352.083	89.19
352.311	95.19
352.538	91.19
352.765	96.19
352.992	113.19
353.22	95.19
353.447	96.19
353.674	96.19
353.901	106.19
354.128	91.19
354.355	101.19
354.583	85.19
354.81	91.19
355.037	94.19
355.264	97.19
355.491	91.19
355.718	91.19
355.945	82.19
356.172	86.19
356.399	89.19
356.626	91.19
356.853	101.19
357.08	96.19
357.307	93.19
357.534	85.19
357.761	99.19
357.988	89.19
358.215	89.19
358.441	87.19
358.668	101.19
358.895	92.19
359.122	87.19
359.349	72.19
359.576	92.19
359.802	102.19
360.029	97.19
360.256	93.19
360.483	90.19
360.709	91.19
360.936	82.19
361.163	95.19
361.39	96.19
361.616	84.19
361.843	88.19
362.07	82.19
362.296	101.19
362.523	103.19
362.749	94.19
362.976	91.19
363.203	87.19
363.429	79.19
363.656	76.19
363.882	88.19
364.109	89.19
364.335	83.19
364.562	96.19
364.788	91.19
365.015	91.19
365.241	95.19
365.468	96.19
365.694	103.19
365.92	94.19
366.147	84.19
366.373	99.19
366.599	65.19
366.826	65.19
367.052	92.19
367.278	76.19
367.505	98.19
367.731	78.19
367.957	73.19
368.184	69.19
368.41	95.19
368.636	83.19
368.862	109.19
369.089	99.19
369.315	81.19
369.541	80.19
369.767	73.19
369.993	90.19
370.219	75.19
370.445	73.19
370.672	85.19
370.898	91.19
371.124	92.19
371.35	82.19
371.576	69.19
371.802	71.19
372.028	88.19
372.254	82.19
372.48	85.19
372.706	79.19
372.932	96.19
373.158	89.19
373.384	100.19
373.61	102.19
373.835	92.19
374.061	97.19
374.287	81.19
374.513	106.19
374.739	89.19
374.965	83.19
375.191	78.19
375.416	94.19
375.642	86.19
375.868	91.19
376.094	93.19
376.319	84.19
376.545	80.19
376.771	98.19
376.997	103.19
377.222	84.19
377.448	106.19
377.674	76.19
377.899	83.19
378.125	97.19
378.35	103.19
378.576	87.19
378.802	85.19
379.027	85.19
379.253	92.19
379.478	84.19
379.704	99.19
379.929	96.19
380.155	89.19
380.38	109.19
380.606	101.19
380.831	92.19
381.057	106.19
381.282	85.19
381.507	106.19
381.733	98.19
381.958	99.19
382.184	103.19
382.409	94.19
382.634	106.19
382.86	96.19
383.085	99.19
383.31	97.19
383.535	102.19
383.761	108.19
383.986	93.19
384.211	95.19
384.436	98.19
384.662	103.19
384.887	119.19
385.112	115.19
385.337	99.19
385.562	106.19
385.787	102.19
386.013	106.19
386.238	110.19
386.463	122.19
386.688	97.19
386.913	115.19
387.138	115.19
387.363	95.19
387.588	102.19
387.813	111.19
388.038	99.19
388.263	128.19
388.488	111.19
388.713	114.19
388.938	100.19
389.163	88.19
389.387	92.19
389.612	85.19
389.837	90.19
390.062	107.19
390.287	95.19
390.512	93.19
390.736	85.19
390.961	100.19
391.186	85.19
391.411	95.19
391.636	96.19
391.86	87.19
392.085	89.19
392.31	102.19
392.534	87.19
392.759	92.19
392.984	91.19
393.208	76.19
393.433	101.19
393.658	93.19
393.882	80.19
394.107	83.19
394.331	85.19
394.556	89.19
394.78	95.19
395.005	79.19
395.229	83.19
395.454	84.19
395.678	91.19
395.903	93.19
396.127	78.19
396.352	102.19
396.576	84.19
396.801	95.19
397.025	94.19
397.249	87.19
397.474	91.19
397.698	74.19
397.922	79.19
398.147	76.19
398.371	92.19
398.595	85.19
398.82	74.19
399.044	82.19
399.268	84.19
399.492	90.19
399.717	84.19
399.941	90.19
400.165	84.19
400.389	97.19
400.613	74.19
400.837	73.19
401.062	70.19
401.286	74.19
401.51	95.19
401.734	83.19
401.958	101.19
402.182	106.19
402.406	131.19
402.63	113.19
402.854	79.19
403.078	79.19
403.302	98.19
403.526	76.19
403.75	79.19
403.974	76.19
404.198	87.19
404.422	88.19
404.645	79.19
404.869	92.19
405.093	81.19
405.317	80.19
405.541	87.19
405.765	82.19
405.988	107.19
406.212	136.19
406.436	161.19
406.66	117.19
406.883	98.19
407.107	83.19
407.331	77.19
407.555	108.19
407.778	103.19
408.002	89.19
408.226	84.19
408.449	90.19
408.673	82.19
408.896	90.19
409.12	103.19
409.344	88.19
409.567	89.19
409.791	96.19
410.014	91.19
410.238	84.19
410.461	79.19
410.685	98.19
410.908	101.19
411.132	103.19
411.355	100.19
411.578	108.19
411.802	79.19
412.025	91.19
412.249	88.19
412.472	84.19
412.695	90.19
412.919	75.19
413.142	83.19
413.365	92.19
413.589	88.19
413.812	76.19
414.035	90.19
414.258	91.19
414.482	96.19
414.705	94.19
414.928	90.19
415.151	75.19
415.374	102.19
415.597	85.19
415.821	80.19
416.044	102.19
416.267	98.19
416.49	95.19
416.713	105.19
416.936	103.19
417.159	99.19
417.382	92.19
417.605	95.19
417.828	102.19
418.051	95.19
418.274	88.19
418.497	83.19
418.72	92.19
418.943	84.19
419.166	81.19
419.389	92.19
419.611	101.19
419.834	83.19
420.057	82.19
420.28	83.19
420.503	96.19
420.726	81.19
420.948	89.19
421.171	92.19
421.394	76.19
421.617	96.19
421.839	89.19
422.062	99.19
422.285	79.19
422.507	89.19
422.73	105.19
422.953	104.19
423.175	95.19
423.398	100.19
423.621	72.19
423.843	83.19
424.066	72.19
424.288	95.19
424.511	93.19
424.733	74.19
424.956	112.19
425.178	81.19
425.401	94.19
425.623	93.19
425.846	80.19
426.068	100.19
426.291	93.19
426.513	88.19
426.735	97.19
426.958	93.19
427.18	92.19
427.402	107.19
427.625	127.19
427.847	116.19
428.069	108.19
428.292	83.19
428.514	95.19
428.736	81.19
428.958	85.19
429.181	101.19
429.403	82.19
429.625	83.19
429.847	74.19
430.069	92.19
430.292	81.19
430.514	96.19
430.736	93.19
430.958	94.19
431.18	100.19
431.402	85.19
431.624	72.19
431.846	89.19
432.068	79.19
432.29	88.19
432.512	82.19
432.734	85.19
432.956	86.19
433.178	97.19
433.4	95.19
433.622	81.19
433.844	97.19
434.066	79.19
434.287	96.19
434.509	66.19
434.731	92.19
434.953	58.19
435.175	81.19
435.397	91.19
435.618	87.19
435.84	89.19
436.062	94.19
436.284	101.19
436.505	87.19
436.727	91.19
436.949	81.19
437.17	96.19
437.392	77.19
437.614	88.19
437.835	93.19
438.057	88.19
438.278	106.19
438.5	104.19
438.721	120.19
438.943	101.19
439.165	92.19
439.386	91.19
439.608	82.19
439.829	85.19
440.05	103.19
440.272	111.19
440.493	91.19
440.715	93.19
440.936	86.19
441.158	91.19
441.379	67.19
441.6	72.19
441.822	100.19
442.043	98.19
442.264	96.19
442.486	99.19
442.707	80.19
442.928	100.19
443.149	108.19
443.371	100.19
443.592	96.19
443.813	96.19
444.034	95.19
444.255	84.19
444.476	91.19
444.698	96.19
444.919	88.19
445.14	133.19
445.361	109.19
445.582	103.19
445.803	107.19
446.024	108.19
446.245	113.19
446.466	107.19
446.687	97.19
446.908	79.19
447.129	90.19
447.35	85.19
447.571	82.19
447.792	91.19
448.013	94.19
448.234	108.19
448.455	99.19
448.675	125.19
448.896	91.19
449.117	104.19
449.338	91.19
449.559	107.19
449.779	98.19
450	84.19
450.221	79.19
450.442	86.19
450.662	91.19
450.883	88.19
451.104	98.19
451.324	85.19
451.545	92.19
451.766	94.19
451.986	79.19
452.207	98.19
452.428	89.19
452.648	83.19
452.869	90.19
453.089	101.19
453.31	106.19
453.53	96.19
453.751	91.19
453.971	91.19
454.192	98.19
454.412	76.19
454.633	91.19
454.853	85.19
455.073	80.19
455.294	76.19
455.514	92.19
455.734	81.19
455.955	84.19
456.175	99.19
456.395	91.19
456.616	91.19
456.836	85.19
457.056	74.19
457.276	88.19
457.497	73.19
457.717	85.19
457.937	87.19
458.157	66.19
458.377	74.19
458.598	108.19
458.818	125.19
459.038	122.19
459.258	104.19
459.478	77.19
459.698	85.19
459.918	89.19
460.138	70.19
460.358	99.19
460.578	87.19
460.798	75.19
461.018	94.19
461.238	86.19
461.458	93.19
461.678	84.19
461.898	80.19
462.118	85.19
462.338	80.19
462.558	96.19
462.777	75.19
462.997	87.19
463.217	81.19
463.437	81.19
463.657	82.19
463.876	96.19
464.096	84.19
464.316	97.19
464.536	94.19
464.755	76.19
464.975	107.19
465.195	114.19
465.414	108.19
465.634	93.19
465.854	85.19
466.073	89.19
466.293	93.19
466.512	83.19
466.732	84.19
466.951	86.19
467.171	92.19
467.391	89.19
467.61	101.19
467.829	106.19
468.049	104.19
468.268	91.19
468.488	101.19
468.707	86.19
468.927	91.19
469.146	96.19
469.365	88.19
469.585	89.19
469.804	99.19
470.023	74.19
470.243	95.19
470.462	100.19
470.681	95.19
470.901	79.19
471.12	90.19
471.339	80.19
471.558	81.19
471.777	79.19
471.997	89.19
472.216	106.19
472.435	113.19
472.654	83.19
472.873	90.19
473.092	85.19
473.311	95.19
473.53	90.19
473.749	93.19
473.968	92.19
474.187	69.19
474.406	101.19
474.625	75.19
474.844	72.19
475.063	88.19
475.282	79.19
475.501	73.19
475.72	91.19
475.939	80.19
476.158	82.19
476.377	84.19
476.596	89.19
476.814	84.19
477.033	99.19
477.252	97.19
477.471	84.19
477.69	96.19
477.908	100.19
478.127	73.19
478.346	88.19
478.564	99.19
478.783	99.19
479.002	91.19
479.22	101.19
479.439	97.19
479.658	99.19
479.876	97.19
480.095	92.19
480.313	89.19
480.532	88.19
480.751	83.19
480.969	103.19
481.188	139.19
481.406	120.19
481.624	89.19
481.843	89.19
482.061	74.19
482.28	65.19
482.498	79.19
482.717	86.19
482.935	100.19
483.153	89.19
483.372	83.19
483.59	92.19
483.808	81.19
484.027	94.19
484.245	101.19
484.463	81.19
484.681	93.19
484.9	92.19
485.118	95.19
485.336	93.19
485.554	102.19
485.772	85.19
485.99	103.19
486.209	98.19
486.427	99.19
486.645	107.19
486.863	107.19
487.081	103.19
487.299	93.19
487.517	89.19
487.735	97.19
487.953	89.19
488.171	87.19
488.389	93.19
488.607	106.19
488.825	91.19
489.043	91.19
489.261	89.19
489.479	87.19
489.696	91.19
489.914	87.19
490.132	81.19
490.35	92.19
490.568	94.19
490.786	88.19
491.003	87.19
491.221	89.19
491.439	92.19
491.657	94.19
491.874	98.19
492.092	91.19
492.31	95.19
492.527	69.19
492.745	76.19
492.963	87.19
493.18	100.19
493.398	86.19
493.615	92.19
493.833	96.19
494.05	95.19
494.268	103.19
494.485	105.19
494.703	81.19
494.92	88.19
495.138	85.19
495.355	66.19
495.573	97.19
495.79	88.19
496.008	83.19
496.225	89.19
496.442	90.19
496.66	107.19
496.877	85.19
497.094	88.19
497.312	97.19
497.529	85.19
497.746	96.19
497.963	89.19
498.181	86.19
498.398	85.19
498.615	104.19
498.832	97.19
499.049	93.19
499.267	84.19
499.484	105.19
499.701	90.19
499.918	83.19
500.135	81.19
500.352	108.19
500.569	88.19
500.786	94.19
501.003	97.19
501.22	99.19
501.437	82.19
501.654	98.19
501.871	90.19
502.088	94.19
502.305	97.19
502.522	94.19
502.739	79.19
502.956	99.19
503.172	87.19
503.389	100.19
503.606	105.19
503.823	109.19
504.04	101.19
504.256	84.19
504.473	89.19
504.69	90.19
504.907	91.19
505.123	79.19
505.34	90.19
505.557	97.19
505.773	89.19
505.99	99.19
506.207	85.19
506.423	96.19
506.64	90.19
506.856	73.19
507.073	95.19
507.289	83.19
507.506	93.19
507.722	93.19
507.939	113.19
508.155	79.19
508.372	81.19
508.588	80.19
508.805	90.19
509.021	94.19
509.238	79.19
509.454	82.19
509.67	98.19
509.887	104.19
510.103	116.19
510.319	156.19
510.536	520.19
510.752	1478.19
510.968	436.19
511.184	118.19
511.401	101.19
511.617	105.19
511.833	103.19
512.049	94.19
512.265	103.19
512.481	69.19
512.698	89.19
512.914	88.19
513.13	99.19
513.346	96.19
513.562	101.19
513.778	90.19
513.994	88.19
514.21	85.19
514.426	102.19
514.642	104.19
514.858	105.19
515.074	134.19
515.29	305.19
515.506	859.19
515.721	344.19
515.937	121.19
516.153	87.19
516.369	91.19
516.585	89.19
516.801	89.19
517.016	98.19
517.232	91.19
517.448	94.19
517.664	84.19
517.879	92.19
518.095	90.19
518.311	107.19
518.527	93.19
518.742	89.19
518.958	87.19
519.173	93.19
519.389	85.19
519.605	88.19
519.82	90.19
520.036	104.19
520.251	100.19
520.467	96.19
520.682	96.19
520.898	103.19
521.113	114.19
521.329	123.19
521.544	158.19
521.76	378.19
521.975	1367.19
522.19	828.19
522.406	202.19
522.621	106.19
522.836	97.19
523.052	88.19
523.267	88.19
523.482	100.19
523.698	89.19
523.913	109.19
524.128	99.19
524.343	84.19
524.559	91.19
524.774	91.19
524.989	95.19
525.204	105.19
525.419	84.19
525.634	93.19
525.849	91.19
526.064	91.19
526.28	86.19
526.495	98.19
526.71	97.19
526.925	71.19
527.14	82.19
527.355	93.19
527.57	91.19
527.785	89.19
527.999	83.19
528.214	81.19
528.429	79.19
528.644	89.19
528.859	95.19
529.074	99.19
529.289	104.19
529.503	123.19
529.718	98.19
529.933	95.19
530.148	84.19
530.363	95.19
530.577	87.19
530.792	80.19
531.007	89.19
531.221	99.19
531.436	91.19
531.651	98.19
531.865	93.19
532.08	92.19
532.295	84.19
532.509	88.19
532.724	87.19
532.938	79.19
533.153	102.19
533.367	80.19
533.582	89.19
533.796	95.19
534.011	92.19
534.225	88.19
534.44	107.19
534.654	113.19
534.868	97.19
535.083	84.19
535.297	83.19
535.511	104.19
535.726	89.19
535.94	89.19
536.154	87.19
536.369	83.19
536.583	88.19
536.797	87.19
537.011	89.19
537.225	86.19
537.44	88.19
537.654	93.19
537.868	87.19
538.082	87.19
538.296	86.19
538.51	86.19
538.724	94.19
538.938	80.19
539.153	86.19
539.367	100.19
539.581	94.19
539.795	103.19
540.009	99.19
540.222	92.19
540.436	93.19
540.65	79.19
540.864	96.19
541.078	89.19
541.292	88.19
541.506	82.19
541.72	88.19
541.934	76.19
542.147	88.19
542.361	88.19
542.575	82.19
542.789	83.19
543.002	74.19
543.216	87.19
543.43	107.19
543.644	101.19
543.857	88.19
544.071	85.19
544.285	79.19
544.498	83.19
544.712	94.19
544.925	83.19
545.139	92.19
545.352	81.19
545.566	90.19
545.779	74.19
545.993	83.19
546.206	71.19
546.42	93.19
546.633	97.19
546.847	94.19
547.06	99.19
547.274	93.19
547.487	80.19
547.7	95.19
547.914	88.19
548.127	81.19
548.34	85.19
548.554	80.19
548.767	77.19
548.98	93.19
549.193	96.19
549.407	89.19
549.62	100.19
549.833	85.19
550.046	84.19
550.259	83.19
550.473	85.19
550.686	93.19
550.899	96.19
551.112	96.19
551.325	94.19
551.538	72.19
551.751	92.19
551.964	96.19
552.177	89.19
552.39	89.19
552.603	86.19
552.816	82.19
553.029	92.19
553.242	96.19
553.455	81.19
553.667	92.19
553.88	81.19
554.093	98.19
554.306	84.19
554.519	75.19
554.732	83.19
554.944	79.19
555.157	92.19
555.37	76.19
555.583	90.19
555.795	107.19
556.008	86.19
556.221	81.19
556.433	102.19
556.646	88.19
556.859	90.19
557.071	93.19
557.284	83.19
557.496	98.19
557.709	84.19
557.921	79.19
558.134	89.19
558.346	87.19
558.559	79.19
558.771	100.19
558.984	99.19
559.196	94.19
559.409	85.19
559.621	91.19
559.833	81.19
560.046	93.19
560.258	81.19
560.47	92.19
560.683	85.19
560.895	84.19
561.107	93.19
561.32	103.19
561.532	83.19
561.744	87.19
561.956	82.19
562.168	83.19
562.381	86.19
562.593	91.19
562.805	89.19
563.017	89.19
563.229	94.19
563.441	91.19
563.653	90.19
563.865	75.19
564.077	67.19
564.289	82.19
564.501	65.19
564.713	91.19
564.925	99.19
565.137	103.19
565.349	72.19
565.561	92.19
565.773	76.19
565.985	80.19
566.197	73.19
566.408	83.19
566.62	95.19
566.832	91.19
567.044	96.19
567.255	98.19
567.467	82.19
567.679	89.19
567.891	83.19
568.102	71.19
568.314	91.19
568.526	85.19
568.737	84.19
568.949	74.19
569.161	85.19
569.372	90.19
569.584	100.19
569.795	84.19
570.007	109.19
570.218	183.19
570.43	107.19
570.641	87.19
570.853	76.19
571.064	85.19
571.276	88.19
571.487	97.19
571.698	88.19
571.91	94.19
572.121	88.19
572.333	79.19
572.544	93.19
572.755	97.19
572.966	90.19
573.178	65.19
573.389	90.19
573.6	67.19
573.811	85.19
574.023	77.19
574.234	90.19
574.445	89.19
574.656	75.19
574.867	91.19
575.078	76.19
575.289	81.19
575.501	93.19
575.712	90.19
575.923	96.19
576.134	88.19
576.345	91.19
576.556	79.19
576.767	94.19
576.978	90.19
577.188	91.19
577.399	88.19
577.61	87.19
577.821	99.19
578.032	104.19
578.243	203.19
578.454	453.19
578.665	164.19
578.875	97.19
579.086	92.19
579.297	90.19
579.508	83.19
579.718	86.19
579.929	86.19
580.14	92.19
580.35	79.19
580.561	73.19
580.772	76.19
580.982	94.19
581.193	109.19
581.403	86.19
581.614	91.19
581.825	91.19
582.035	95.19
582.246	80.19
582.456	91.19
582.667	78.19
582.877	87.19
583.087	95.19
583.298	93.19
583.508	79.19
583.719	80.19
583.929	84.19
584.139	82.19
584.35	84.19
584.56	77.19
584.77	84.19
584.981	78.19
585.191	76.19
585.401	83.19
585.611	84.19
585.821	93.19
586.032	79.19
586.242	81.19
586.452	92.19
586.662	91.19
586.872	88.19
587.082	83.19
587.292	93.19
587.502	86.19
587.713	93.19
587.923	88.19
588.133	84.19
588.343	84.19
588.553	82.19
588.762	83.19
588.972	99.19
589.182	171.19
589.392	113.19
589.602	82.19
589.812	119.19
590.022	101.19
590.232	88.19
590.441	71.19
590.651	89.19
590.861	85.19
591.071	76.19
591.281	95.19
591.49	83.19
591.7	89.19
591.91	100.19
592.119	87.19
592.329	103.19
592.539	79.19
592.748	100.19
592.958	89.19
593.167	84.19
593.377	99.19
593.587	65.19
593.796	93.19
594.006	84.19
594.215	96.19
594.424	84.19
594.634	79.19
594.843	74.19
595.053	85.19
595.262	78.19
595.472	81.19
595.681	79.19
595.89	88.19
596.1	96.19
596.309	86.19
596.518	83.19
596.727	100.19
596.937	77.19
597.146	80.19
597.355	99.19
597.564	90.19
597.774	82.19
597.983	88.19
598.192	80.19
598.401	84.19
598.61	88.19
598.819	93.19
599.028	74.19
599.237	95.19
599.446	75.19
599.655	79.19
599.864	85.19
600.073	89.19
600.282	95.19
600.491	75.19
600.7	92.19
600.909	84.19
601.118	98.19
601.327	106.19
601.536	95.19
601.745	77.19
601.953	79.19
602.162	96.19
602.371	87.19
602.58	84.19
602.789	73.19
602.997	83.19
603.206	87.19
603.415	84.19
603.623	81.19
603.832	76.19
604.041	88.19
604.249	92.19
604.458	75.19
604.666	79.19
604.875	79.19
605.084	86.19
605.292	89.19
605.501	89.19
605.709	79.19
605.918	83.19
606.126	81.19
606.334	85.19
606.543	92.19
606.751	92.19
606.96	85.19
607.168	93.19
607.376	71.19
607.585	85.19
607.793	83.19
608.001	86.19
608.21	83.19
608.418	90.19
608.626	72.19
608.834	76.19
609.043	89.19
609.251	83.19
609.459	70.19
609.667	97.19
609.875	85.19
610.083	65.19
610.291	78.19
610.499	91.19
610.707	84.19
610.916	79.19
611.124	81.19
611.332	70.19
611.54	75.19
611.748	89.19
611.955	82.19
612.163	79.19
612.371	86.19
612.579	75.19
612.787	88.19
612.995	99.19
613.203	77.19
613.411	88.19
613.618	83.19
613.826	82.19
614.034	84.19
614.242	97.19
614.449	85.19
614.657	86.19
614.865	89.19
615.072	90.19
615.28	76.19
615.488	88.19
615.695	81.19
615.903	86.19
616.111	98.19
616.318	101.19
616.526	83.19
616.733	99.19
616.941	91.19
617.148	89.19
617.356	83.19
617.563	89.19
617.771	92.19
617.978	70.19
618.185	87.19
618.393	78.19
618.6	102.19
618.807	98.19
619.015	73.19
619.222	95.19
619.429	91.19
619.637	91.19
619.844	85.19
620.051	91.19
620.258	78.19
620.466	81.19
620.673	67.19
620.88	76.19
621.087	89.19
621.294	71.19
621.501	79.19
621.708	105.19
621.915	98.19
622.122	65.19
622.329	93.19
622.536	86.19
622.743	67.19
622.95	80.19
623.157	76.19
623.364	84.19
623.571	91.19
623.778	87.19
623.985	82.19
624.192	102.19
624.399	91.19
624.606	84.19
624.812	96.19
625.019	70.19
625.226	88.19
625.433	76.19
625.639	91.19
625.846	88.19
626.053	87.19
626.259	79.19
626.466	84.19
626.673	86.19
626.879	86.19
627.086	82.19
627.293	91.19
627.499	93.19
627.706	76.19
627.912	89.19
628.119	87.19
628.325	92.19
628.532	86.19
628.738	69.19
628.945	87.19
629.151	88.19
629.357	87.19
629.564	63.19
629.77	83.19
629.976	85.19
630.183	75.19
630.389	80.19
630.595	83.19
630.802	90.19
631.008	87.19
631.214	95.19
631.42	89.19
631.627	88.19
631.833	95.19
632.039	84.19
632.245	76.19
632.451	77.19
632.657	83.19
632.863	79.19
633.069	89.19
633.275	80.19
633.481	96.19
633.688	83.19
633.893	84.19
634.099	84.19
634.305	69.19
634.511	91.19
634.717	89.19
634.923	84.19
635.129	90.19
635.335	82.19
635.541	80.19
635.747	72.19
635.952	92.19
636.158	87.19
636.364	94.19
636.57	86.19
636.775	87.19
636.981	81.19
637.187	85.19
637.392	78.19
637.598	87.19
637.804	92.19
638.009	70.19
638.215	93.19
638.421	91.19
638.626	76.19
638.832	76.19
639.037	83.19
639.243	81.19
639.448	85.19
639.654	83.19
639.859	92.19
640.065	76.19
640.27	81.19
640.475	95.19
640.681	88.19
640.886	89.19
641.091	82.19
641.297	91.19
641.502	84.19
641.707	84.19
641.913	94.19
642.118	94.19
642.323	87.19
642.528	93.19
642.733	86.19
642.939	70.19
643.144	104.19
643.349	90.19
643.554	89.19
643.759	89.19
643.964	71.19
644.169	89.19
644.374	67.19
644.579	94.19
644.784	88.19
644.989	87.19
645.194	92.19
645.399	88.19
645.604	76.19
645.809	75.19
646.014	88.19
646.219	79.19
646.423	57.19
646.628	72.19
646.833	87.19
647.038	92.19
647.243	76.19
647.447	94.19
647.652	81.19
647.857	81.19
648.062	84.19
648.266	85.19
648.471	84.19
648.676	95.19
648.88	74.19
649.085	91.19
649.289	103.19
649.494	107.19
649.698	109.19
649.903	108.19
650.107	86.19
650.312	93.19
650.516	75.19
650.721	80.19
650.925	84.19
651.13	83.19
651.334	84.19
651.539	75.19
651.743	81.19
651.947	81.19
652.152	80.19
652.356	95.19
652.56	79.19
652.764	73.19
652.969	88.19
653.173	78.19
653.377	66.19
653.581	80.19
653.785	68.19
653.99	82.19
654.194	80.19
654.398	72.19
654.602	79.19
654.806	99.19
655.01	96.19
655.214	79.19
655.418	68.19
655.622	88.19
655.826	87.19
656.03	94.19
656.234	100.19
656.438	103.19
656.642	94.19
656.846	93.19
657.049	88.19
657.253	80.19
657.457	81.19
657.661	87.19
657.865	86.19
658.068	85.19
658.272	85.19
658.476	86.19
658.68	77.19
658.883	76.19
659.087	85.19
659.291	71.19
659.494	77.19
659.698	79.19
659.901	73.19
660.105	76.19
660.309	96.19
660.512	79.19
660.716	74.19
660.919	86.19
661.123	84.19
661.326	81.19
661.53	89.19
661.733	91.19
661.936	79.19
662.14	90.19
662.343	81.19
662.546	92.19
662.75	85.19
662.953	77.19
663.156	92.19
663.36	81.19
663.563	97.19
663.766	75.19
663.969	87.19
664.173	96.19
664.376	84.19
664.579	89.19
664.782	81.19
664.985	87.19
665.188	93.19
665.391	72.19
665.594	87.19
665.797	73.19
666	82.19
666.203	77.19
666.406	89.19
666.609	72.19
666.812	82.19
667.015	87.19
667.218	81.19
667.421	73.19
667.624	79.19
667.827	73.19
668.03	85.19
668.232	75.19
668.435	91.19
668.638	95.19
668.841	79.19
669.043	78.19
669.246	74.19
669.449	77.19
669.651	69.19
669.854	72.19
670.057	77.19
670.259	76.19
670.462	77.19
670.665	89.19
670.867	88.19
671.07	73.19
671.272	87.19
671.475	79.19
671.677	79.19
671.88	90.19
672.082	83.19
672.284	87.19
672.487	88.19
672.689	83.19
672.892	71.19
