Data from Circ_1982_H10_HRD10591_00068.txt Node
Date: Wed Jan 03 12:30:54 EST 2024
User: Yrep
Spectrometer: HR+D1059
Trigger mode: 1
Integration Time (sec): 1.000000E-1
Scans to average: 1
Electric dark correction enabled: true
Nonlinearity correction enabled: false
Boxcar width: 0
XAxis mode: Wavelengths
Number of Pixels in Spectrum: 2048
>>>>>Begin Spectral Data<<<<<
223.165	-21.69
223.4	-21.69
223.635	-21.69
223.869	-12.69
224.104	-0.69
224.338	-14.69
224.573	-8.69
224.808	-12.69
225.042	-4.69
225.277	-10.69
225.511	-2.69
225.746	-2.69
225.98	6.31
226.215	10.31
226.449	13.31
226.683	9.31
226.918	20.31
227.152	32.31
227.387	41.31
227.621	46.31
227.856	47.31
228.09	37.31
228.324	54.31
228.559	58.31
228.793	57.31
229.027	75.31
229.262	71.31
229.496	74.31
229.73	90.31
229.964	88.31
230.199	73.31
230.433	64.31
230.667	84.31
230.901	74.31
231.136	74.31
231.37	69.31
231.604	76.31
231.838	82.31
232.072	77.31
232.306	71.31
232.541	60.31
232.775	72.31
233.009	76.31
233.243	85.31
233.477	81.31
233.711	65.31
233.945	65.31
234.179	72.31
234.413	78.31
234.647	70.31
234.881	81.31
235.115	71.31
235.349	72.31
235.583	86.31
235.817	90.31
236.051	78.31
236.285	67.31
236.519	85.31
236.753	88.31
236.987	73.31
237.221	86.31
237.455	100.31
237.689	85.31
237.922	76.31
238.156	68.31
238.39	77.31
238.624	92.31
238.858	70.31
239.091	78.31
239.325	82.31
239.559	91.31
239.793	76.31
240.027	86.31
240.26	62.31
240.494	64.31
240.728	93.31
240.961	80.31
241.195	88.31
241.429	57.31
241.662	77.31
241.896	85.31
242.13	80.31
242.363	86.31
242.597	77.31
242.83	88.31
243.064	83.31
243.298	77.31
243.531	76.31
243.765	83.31
243.998	80.31
244.232	82.31
244.465	72.31
244.699	70.31
244.932	76.31
245.166	70.31
245.399	80.31
245.633	86.31
245.866	82.31
246.099	83.31
246.333	61.31
246.566	68.31
246.8	81.31
247.033	75.31
247.266	74.31
247.5	75.31
247.733	82.31
247.966	77.31
248.2	80.31
248.433	77.31
248.666	61.31
248.899	80.31
249.133	84.31
249.366	83.31
249.599	87.31
249.832	88.31
250.066	70.31
250.299	85.31
250.532	84.31
250.765	83.31
250.998	69.31
251.231	74.31
251.465	75.31
251.698	82.31
251.931	72.31
252.164	75.31
252.397	72.31
252.63	86.31
252.863	71.31
253.096	73.31
253.329	80.31
253.562	88.31
253.795	72.31
254.028	82.31
254.261	84.31
254.494	69.31
254.727	81.31
254.96	74.31
255.193	80.31
255.426	86.31
255.659	81.31
255.892	82.31
256.124	89.31
256.357	80.31
256.59	73.31
256.823	93.31
257.056	63.31
257.289	84.31
257.521	73.31
257.754	75.31
257.987	69.31
258.22	89.31
258.452	80.31
258.685	84.31
258.918	74.31
259.151	66.31
259.383	86.31
259.616	90.31
259.849	94.31
260.081	81.31
260.314	74.31
260.547	86.31
260.779	89.31
261.012	79.31
261.244	69.31
261.477	90.31
261.71	88.31
261.942	98.31
262.175	120.31
262.407	81.31
262.64	73.31
262.872	77.31
263.105	89.31
263.337	76.31
263.57	84.31
263.802	87.31
264.035	82.31
264.267	92.31
264.499	98.31
264.732	68.31
264.964	80.31
265.197	77.31
265.429	89.31
265.661	75.31
265.894	80.31
266.126	81.31
266.358	90.31
266.591	69.31
266.823	92.31
267.055	79.31
267.287	77.31
267.52	86.31
267.752	78.31
267.984	78.31
268.216	87.31
268.448	77.31
268.681	76.31
268.913	90.31
269.145	73.31
269.377	78.31
269.609	89.31
269.841	75.31
270.073	87.31
270.306	97.31
270.538	82.31
270.77	76.31
271.002	88.31
271.234	100.31
271.466	91.31
271.698	76.31
271.93	93.31
272.162	77.31
272.394	91.31
272.626	86.31
272.858	92.31
273.09	70.31
273.322	83.31
273.553	62.31
273.785	87.31
274.017	77.31
274.249	98.31
274.481	88.31
274.713	88.31
274.945	78.31
275.176	66.31
275.408	88.31
275.64	80.31
275.872	96.31
276.104	83.31
276.335	73.31
276.567	99.31
276.799	107.31
277.031	104.31
277.262	87.31
277.494	79.31
277.726	77.31
277.957	89.31
278.189	97.31
278.421	84.31
278.652	77.31
278.884	84.31
279.115	86.31
279.347	74.31
279.579	75.31
279.81	81.31
280.042	80.31
280.273	83.31
280.505	84.31
280.736	92.31
280.968	81.31
281.199	103.31
281.431	94.31
281.662	83.31
281.894	92.31
282.125	100.31
282.356	101.31
282.588	100.31
282.819	113.31
283.051	85.31
283.282	86.31
283.513	74.31
283.745	80.31
283.976	82.31
284.207	82.31
284.439	92.31
284.67	72.31
284.901	70.31
285.132	85.31
285.364	84.31
285.595	93.31
285.826	90.31
286.057	91.31
286.288	88.31
286.52	86.31
286.751	82.31
286.982	88.31
287.213	103.31
287.444	88.31
287.675	86.31
287.906	89.31
288.138	88.31
288.369	68.31
288.6	84.31
288.831	82.31
289.062	85.31
289.293	76.31
289.524	92.31
289.755	78.31
289.986	98.31
290.217	81.31
290.448	79.31
290.679	95.31
290.91	77.31
291.141	83.31
291.371	87.31
291.602	81.31
291.833	84.31
292.064	81.31
292.295	86.31
292.526	92.31
292.757	84.31
292.987	79.31
293.218	72.31
293.449	84.31
293.68	84.31
293.91	94.31
294.141	90.31
294.372	88.31
294.603	91.31
294.833	96.31
295.064	76.31
295.295	92.31
295.525	108.31
295.756	105.31
295.987	102.31
296.217	125.31
296.448	112.31
296.679	84.31
296.909	82.31
297.14	100.31
297.37	88.31
297.601	82.31
297.831	95.31
298.062	93.31
298.292	85.31
298.523	85.31
298.753	89.31
298.984	80.31
299.214	88.31
299.445	94.31
299.675	103.31
299.905	86.31
300.136	88.31
300.366	90.31
300.597	85.31
300.827	93.31
301.057	95.31
301.288	98.31
301.518	110.31
301.748	93.31
301.979	94.31
302.209	88.31
302.439	100.31
302.669	80.31
302.9	77.31
303.13	91.31
303.36	89.31
303.59	107.31
303.82	98.31
304.051	99.31
304.281	98.31
304.511	84.31
304.741	99.31
304.971	88.31
305.201	103.31
305.431	89.31
305.661	92.31
305.891	94.31
306.121	74.31
306.352	100.31
306.582	108.31
306.812	89.31
307.042	85.31
307.272	88.31
307.502	78.31
307.731	85.31
307.961	92.31
308.191	91.31
308.421	98.31
308.651	84.31
308.881	93.31
309.111	76.31
309.341	99.31
309.571	96.31
309.8	82.31
310.03	106.31
310.26	91.31
310.49	86.31
310.72	82.31
310.949	80.31
311.179	110.31
311.409	73.31
311.639	82.31
311.868	98.31
312.098	83.31
312.328	97.31
312.557	115.31
312.787	105.31
313.017	106.31
313.246	107.31
313.476	93.31
313.706	89.31
313.935	96.31
314.165	95.31
314.394	88.31
314.624	105.31
314.853	82.31
315.083	84.31
315.312	97.31
315.542	98.31
315.771	91.31
316.001	81.31
316.23	91.31
316.46	89.31
316.689	80.31
316.919	91.31
317.148	86.31
317.377	76.31
317.607	85.31
317.836	97.31
318.065	88.31
318.295	89.31
318.524	87.31
318.753	100.31
318.983	96.31
319.212	102.31
319.441	100.31
319.67	95.31
319.9	98.31
320.129	92.31
320.358	96.31
320.587	98.31
320.816	93.31
321.046	94.31
321.275	83.31
321.504	87.31
321.733	100.31
321.962	99.31
322.191	97.31
322.42	105.31
322.649	112.31
322.878	107.31
323.108	110.31
323.337	111.31
323.566	139.31
323.795	134.31
324.024	172.31
324.253	306.31
324.482	621.31
324.71	1269.31
324.939	1699.31
325.168	638.31
325.397	201.31
325.626	118.31
325.855	111.31
326.084	109.31
326.313	112.31
326.542	141.31
326.77	188.31
326.999	358.31
327.228	750.31
327.457	1317.31
327.686	1046.31
327.914	316.31
328.143	162.31
328.372	138.31
328.6	116.31
328.829	102.31
329.058	115.31
329.287	109.31
329.515	100.31
329.744	111.31
329.972	101.31
330.201	108.31
330.43	116.31
330.658	110.31
330.887	122.31
331.115	116.31
331.344	93.31
331.572	87.31
331.801	86.31
332.03	99.31
332.258	100.31
332.486	84.31
332.715	92.31
332.943	100.31
333.172	82.31
333.4	94.31
333.629	100.31
333.857	107.31
334.085	111.31
334.314	112.31
334.542	119.31
334.771	112.31
334.999	90.31
335.227	96.31
335.455	96.31
335.684	90.31
335.912	92.31
336.14	99.31
336.369	76.31
336.597	90.31
336.825	104.31
337.053	86.31
337.281	102.31
337.51	82.31
337.738	88.31
337.966	94.31
338.194	86.31
338.422	97.31
338.65	88.31
338.878	77.31
339.106	94.31
339.334	98.31
339.562	90.31
339.79	97.31
340.018	84.31
340.246	96.31
340.474	88.31
340.702	89.31
340.93	88.31
341.158	94.31
341.386	98.31
341.614	108.31
341.842	101.31
342.07	72.31
342.298	93.31
342.526	78.31
342.754	81.31
342.981	89.31
343.209	89.31
343.437	98.31
343.665	83.31
343.893	94.31
344.12	90.31
344.348	75.31
344.576	95.31
344.804	78.31
345.031	98.31
345.259	96.31
345.487	93.31
345.714	80.31
345.942	90.31
346.17	91.31
346.397	98.31
346.625	101.31
346.853	90.31
347.08	90.31
347.308	97.31
347.535	93.31
347.763	93.31
347.99	101.31
348.218	101.31
348.445	93.31
348.673	109.31
348.9	93.31
349.128	87.31
349.355	89.31
349.583	91.31
349.81	95.31
350.037	88.31
350.265	105.31
350.492	82.31
350.72	83.31
350.947	81.31
351.174	102.31
351.402	109.31
351.629	92.31
351.856	98.31
352.083	101.31
352.311	114.31
352.538	108.31
352.765	107.31
352.992	106.31
353.22	104.31
353.447	118.31
353.674	89.31
353.901	96.31
354.128	93.31
354.355	92.31
354.583	82.31
354.81	95.31
355.037	100.31
355.264	86.31
355.491	85.31
355.718	102.31
355.945	96.31
356.172	88.31
356.399	105.31
356.626	87.31
356.853	81.31
357.08	94.31
357.307	80.31
357.534	96.31
357.761	114.31
357.988	96.31
358.215	97.31
358.441	91.31
358.668	92.31
358.895	89.31
359.122	99.31
359.349	83.31
359.576	93.31
359.802	90.31
360.029	109.31
360.256	101.31
360.483	97.31
360.709	92.31
360.936	77.31
361.163	90.31
361.39	88.31
361.616	98.31
361.843	104.31
362.07	96.31
362.296	75.31
362.523	80.31
362.749	73.31
362.976	84.31
363.203	83.31
363.429	91.31
363.656	84.31
363.882	85.31
364.109	94.31
364.335	94.31
364.562	90.31
364.788	82.31
365.015	102.31
365.241	88.31
365.468	90.31
365.694	99.31
365.92	93.31
366.147	90.31
366.373	90.31
366.599	78.31
366.826	88.31
367.052	88.31
367.278	96.31
367.505	89.31
367.731	92.31
367.957	97.31
368.184	95.31
368.41	109.31
368.636	106.31
368.862	110.31
369.089	104.31
369.315	77.31
369.541	88.31
369.767	95.31
369.993	88.31
370.219	104.31
370.445	84.31
370.672	90.31
370.898	83.31
371.124	78.31
371.35	97.31
371.576	98.31
371.802	88.31
372.028	91.31
372.254	85.31
372.48	81.31
372.706	73.31
372.932	95.31
373.158	87.31
373.384	92.31
373.61	94.31
373.835	92.31
374.061	94.31
374.287	89.31
374.513	92.31
374.739	94.31
374.965	75.31
375.191	92.31
375.416	95.31
375.642	84.31
375.868	106.31
376.094	93.31
376.319	95.31
376.545	81.31
376.771	88.31
376.997	87.31
377.222	92.31
377.448	84.31
377.674	92.31
377.899	93.31
378.125	77.31
378.35	104.31
378.576	90.31
378.802	86.31
379.027	88.31
379.253	82.31
379.478	103.31
379.704	84.31
379.929	84.31
380.155	83.31
380.38	85.31
380.606	92.31
380.831	81.31
381.057	70.31
381.282	88.31
381.507	84.31
381.733	93.31
381.958	95.31
382.184	101.31
382.409	107.31
382.634	104.31
382.86	96.31
383.085	112.31
383.31	94.31
383.535	100.31
383.761	94.31
383.986	97.31
384.211	98.31
384.436	110.31
384.662	83.31
384.887	103.31
385.112	85.31
385.337	92.31
385.562	101.31
385.787	94.31
386.013	108.31
386.238	118.31
386.463	107.31
386.688	96.31
386.913	98.31
387.138	97.31
387.363	108.31
387.588	91.31
387.813	99.31
388.038	84.31
388.263	105.31
388.488	101.31
388.713	97.31
388.938	84.31
389.163	100.31
389.387	76.31
389.612	91.31
389.837	80.31
390.062	107.31
390.287	106.31
390.512	86.31
390.736	92.31
390.961	84.31
391.186	100.31
391.411	76.31
391.636	97.31
391.86	94.31
392.085	91.31
392.31	77.31
392.534	91.31
392.759	95.31
392.984	91.31
393.208	93.31
393.433	96.31
393.658	82.31
393.882	93.31
394.107	86.31
394.331	92.31
394.556	90.31
394.78	89.31
395.005	91.31
395.229	81.31
395.454	89.31
395.678	74.31
395.903	78.31
396.127	91.31
396.352	77.31
396.576	88.31
396.801	84.31
397.025	86.31
397.249	73.31
397.474	79.31
397.698	90.31
397.922	102.31
398.147	82.31
398.371	93.31
398.595	91.31
398.82	86.31
399.044	85.31
399.268	88.31
399.492	88.31
399.717	92.31
399.941	102.31
400.165	85.31
400.389	85.31
400.613	80.31
400.837	86.31
401.062	79.31
401.286	83.31
401.51	82.31
401.734	94.31
401.958	93.31
402.182	115.31
402.406	129.31
402.63	104.31
402.854	90.31
403.078	88.31
403.302	76.31
403.526	96.31
403.75	74.31
403.974	85.31
404.198	95.31
404.422	97.31
404.645	93.31
404.869	88.31
405.093	90.31
405.317	96.31
405.541	93.31
405.765	84.31
405.988	116.31
406.212	156.31
406.436	186.31
406.66	124.31
406.883	99.31
407.107	94.31
407.331	88.31
407.555	88.31
407.778	85.31
408.002	91.31
408.226	94.31
408.449	93.31
408.673	85.31
408.896	91.31
409.12	100.31
409.344	91.31
409.567	93.31
409.791	98.31
410.014	83.31
410.238	94.31
410.461	80.31
410.685	102.31
410.908	103.31
411.132	101.31
411.355	97.31
411.578	96.31
411.802	83.31
412.025	95.31
412.249	90.31
412.472	88.31
412.695	104.31
412.919	96.31
413.142	94.31
413.365	103.31
413.589	89.31
413.812	96.31
414.035	74.31
414.258	99.31
414.482	96.31
414.705	73.31
414.928	100.31
415.151	90.31
415.374	89.31
415.597	87.31
415.821	90.31
416.044	92.31
416.267	90.31
416.49	81.31
416.713	83.31
416.936	81.31
417.159	77.31
417.382	97.31
417.605	106.31
417.828	77.31
418.051	95.31
418.274	91.31
418.497	75.31
418.72	95.31
418.943	98.31
419.166	86.31
419.389	77.31
419.611	98.31
419.834	92.31
420.057	73.31
420.28	87.31
420.503	82.31
420.726	68.31
420.948	74.31
421.171	90.31
421.394	96.31
421.617	98.31
421.839	94.31
422.062	96.31
422.285	91.31
422.507	103.31
422.73	104.31
422.953	97.31
423.175	98.31
423.398	93.31
423.621	100.31
423.843	82.31
424.066	82.31
424.288	89.31
424.511	98.31
424.733	93.31
424.956	93.31
425.178	102.31
425.401	108.31
425.623	103.31
425.846	92.31
426.068	89.31
426.291	84.31
426.513	86.31
426.735	86.31
426.958	113.31
427.18	103.31
427.402	130.31
427.625	151.31
427.847	120.31
428.069	107.31
428.292	91.31
428.514	86.31
428.736	92.31
428.958	87.31
429.181	81.31
429.403	92.31
429.625	95.31
429.847	84.31
430.069	98.31
430.292	82.31
430.514	101.31
430.736	84.31
430.958	68.31
431.18	89.31
431.402	95.31
431.624	91.31
431.846	92.31
432.068	80.31
432.29	77.31
432.512	83.31
432.734	88.31
432.956	88.31
433.178	91.31
433.4	105.31
433.622	90.31
433.844	76.31
434.066	86.31
434.287	98.31
434.509	77.31
434.731	92.31
434.953	88.31
435.175	94.31
435.397	84.31
435.618	88.31
435.84	100.31
436.062	115.31
436.284	122.31
436.505	109.31
436.727	93.31
436.949	75.31
437.17	97.31
437.392	74.31
437.614	76.31
437.835	103.31
438.057	103.31
438.278	104.31
438.5	100.31
438.721	116.31
438.943	89.31
439.165	87.31
439.386	88.31
439.608	90.31
439.829	86.31
440.05	116.31
440.272	130.31
440.493	98.31
440.715	70.31
440.936	81.31
441.158	84.31
441.379	82.31
441.6	93.31
441.822	96.31
442.043	86.31
442.264	87.31
442.486	105.31
442.707	79.31
442.928	110.31
443.149	113.31
443.371	116.31
443.592	111.31
443.813	103.31
444.034	95.31
444.255	82.31
444.476	87.31
444.698	91.31
444.919	82.31
445.14	129.31
445.361	116.31
445.582	97.31
445.803	121.31
446.024	120.31
446.245	118.31
446.466	105.31
446.687	92.31
446.908	85.31
447.129	96.31
447.35	88.31
447.571	118.31
447.792	90.31
448.013	90.31
448.234	97.31
448.455	105.31
448.675	102.31
448.896	110.31
449.117	101.31
449.338	94.31
449.559	106.31
449.779	125.31
450	89.31
450.221	85.31
450.442	89.31
450.662	85.31
450.883	89.31
451.104	112.31
451.324	98.31
451.545	95.31
451.766	89.31
451.986	81.31
452.207	90.31
452.428	89.31
452.648	88.31
452.869	113.31
453.089	102.31
453.31	98.31
453.53	85.31
453.751	98.31
453.971	110.31
454.192	100.31
454.412	97.31
454.633	97.31
454.853	93.31
455.073	103.31
455.294	86.31
455.514	88.31
455.734	102.31
455.955	78.31
456.175	84.31
456.395	97.31
456.616	98.31
456.836	81.31
457.056	71.31
457.276	90.31
457.497	82.31
457.717	96.31
457.937	98.31
458.157	75.31
458.377	82.31
458.598	108.31
458.818	133.31
459.038	131.31
459.258	100.31
459.478	90.31
459.698	73.31
459.918	84.31
460.138	96.31
460.358	88.31
460.578	98.31
460.798	99.31
461.018	78.31
461.238	83.31
461.458	82.31
461.678	87.31
461.898	88.31
462.118	86.31
462.338	77.31
462.558	84.31
462.777	100.31
462.997	65.31
463.217	76.31
463.437	78.31
463.657	93.31
463.876	94.31
464.096	82.31
464.316	85.31
464.536	84.31
464.755	92.31
464.975	99.31
465.195	137.31
465.414	139.31
465.634	96.31
465.854	91.31
466.073	76.31
466.293	101.31
466.512	100.31
466.732	76.31
466.951	91.31
467.171	88.31
467.391	85.31
467.61	94.31
467.829	106.31
468.049	104.31
468.268	101.31
468.488	81.31
468.707	72.31
468.927	86.31
469.146	86.31
469.365	85.31
469.585	91.31
469.804	88.31
470.023	103.31
470.243	96.31
470.462	90.31
470.681	103.31
470.901	97.31
471.12	85.31
471.339	90.31
471.558	91.31
471.777	89.31
471.997	98.31
472.216	109.31
472.435	127.31
472.654	88.31
472.873	66.31
473.092	97.31
473.311	90.31
473.53	84.31
473.749	92.31
473.968	97.31
474.187	81.31
474.406	94.31
474.625	77.31
474.844	65.31
475.063	90.31
475.282	104.31
475.501	90.31
475.72	90.31
475.939	84.31
476.158	77.31
476.377	98.31
476.596	93.31
476.814	80.31
477.033	92.31
477.252	88.31
477.471	93.31
477.69	101.31
477.908	80.31
478.127	91.31
478.346	94.31
478.564	100.31
478.783	87.31
479.002	96.31
479.22	88.31
479.439	110.31
479.658	111.31
479.876	88.31
480.095	84.31
480.313	93.31
480.532	83.31
480.751	77.31
480.969	109.31
481.188	170.31
481.406	128.31
481.624	93.31
481.843	94.31
482.061	75.31
482.28	99.31
482.498	80.31
482.717	83.31
482.935	89.31
483.153	74.31
483.372	98.31
483.59	96.31
483.808	106.31
484.027	97.31
484.245	97.31
484.463	92.31
484.681	88.31
484.9	92.31
485.118	99.31
485.336	92.31
485.554	98.31
485.772	95.31
485.99	90.31
486.209	114.31
486.427	98.31
486.645	92.31
486.863	106.31
487.081	93.31
487.299	100.31
487.517	87.31
487.735	102.31
487.953	92.31
488.171	88.31
488.389	96.31
488.607	97.31
488.825	96.31
489.043	100.31
489.261	82.31
489.479	107.31
489.696	100.31
489.914	93.31
490.132	96.31
490.35	88.31
490.568	86.31
490.786	86.31
491.003	100.31
491.221	84.31
491.439	73.31
491.657	99.31
491.874	83.31
492.092	88.31
492.31	88.31
492.527	91.31
492.745	88.31
492.963	92.31
493.18	95.31
493.398	86.31
493.615	105.31
493.833	77.31
494.05	98.31
494.268	98.31
494.485	88.31
494.703	82.31
494.92	96.31
495.138	97.31
495.355	92.31
495.573	97.31
495.79	92.31
496.008	89.31
496.225	105.31
496.442	70.31
496.66	106.31
496.877	94.31
497.094	84.31
497.312	86.31
497.529	92.31
497.746	96.31
497.963	100.31
498.181	96.31
498.398	88.31
498.615	90.31
498.832	101.31
499.049	113.31
499.267	84.31
499.484	84.31
499.701	81.31
499.918	84.31
500.135	102.31
500.352	97.31
500.569	98.31
500.786	90.31
501.003	92.31
501.22	83.31
501.437	75.31
501.654	87.31
501.871	86.31
502.088	98.31
502.305	98.31
502.522	88.31
502.739	93.31
502.956	97.31
503.172	89.31
503.389	82.31
503.606	105.31
503.823	106.31
504.04	81.31
504.256	89.31
504.473	92.31
504.69	89.31
504.907	101.31
505.123	83.31
505.34	85.31
505.557	94.31
505.773	77.31
505.99	90.31
506.207	100.31
506.423	73.31
506.64	78.31
506.856	93.31
507.073	94.31
507.289	107.31
507.506	84.31
507.722	103.31
507.939	92.31
508.155	88.31
508.372	88.31
508.588	86.31
508.805	102.31
509.021	85.31
509.238	106.31
509.454	101.31
509.67	104.31
509.887	102.31
510.103	125.31
510.319	206.31
510.536	634.31
510.752	1876.31
510.968	528.31
511.184	141.31
511.401	104.31
511.617	108.31
511.833	92.31
512.049	89.31
512.265	83.31
512.481	88.31
512.698	86.31
512.914	83.31
513.13	95.31
513.346	102.31
513.562	94.31
513.778	104.31
513.994	86.31
514.21	92.31
514.426	124.31
514.642	123.31
514.858	114.31
515.074	136.31
515.29	378.31
515.506	1156.31
515.721	434.31
515.937	144.31
516.153	107.31
516.369	100.31
516.585	89.31
516.801	89.31
517.016	93.31
517.232	109.31
517.448	101.31
517.664	90.31
517.879	94.31
518.095	92.31
518.311	91.31
518.527	98.31
518.742	94.31
518.958	80.31
519.173	93.31
519.389	87.31
519.605	93.31
519.82	94.31
520.036	110.31
520.251	117.31
520.467	105.31
520.682	100.31
520.898	95.31
521.113	100.31
521.329	125.31
521.544	185.31
521.76	460.31
521.975	1832.31
522.19	1112.31
522.406	264.31
522.621	124.31
522.836	115.31
523.052	106.31
523.267	96.31
523.482	101.31
523.698	101.31
523.913	107.31
524.128	99.31
524.343	90.31
524.559	88.31
524.774	88.31
524.989	121.31
525.204	96.31
525.419	97.31
525.634	86.31
525.849	87.31
526.064	90.31
526.28	83.31
526.495	98.31
526.71	99.31
526.925	86.31
527.14	95.31
527.355	84.31
527.57	86.31
527.785	89.31
527.999	100.31
528.214	84.31
528.429	75.31
528.644	86.31
528.859	84.31
529.074	96.31
529.289	123.31
529.503	145.31
529.718	92.31
529.933	96.31
530.148	68.31
530.363	87.31
530.577	88.31
530.792	91.31
531.007	85.31
531.221	94.31
531.436	83.31
531.651	92.31
531.865	88.31
532.08	108.31
532.295	84.31
532.509	94.31
532.724	82.31
532.938	91.31
533.153	90.31
533.367	85.31
533.582	96.31
533.796	94.31
534.011	101.31
534.225	84.31
534.44	70.31
534.654	80.31
534.868	101.31
535.083	98.31
535.297	88.31
535.511	97.31
535.726	89.31
535.94	92.31
536.154	101.31
536.369	100.31
536.583	93.31
536.797	89.31
537.011	92.31
537.225	107.31
537.44	88.31
537.654	91.31
537.868	78.31
538.082	74.31
538.296	97.31
538.51	90.31
538.724	97.31
538.938	91.31
539.153	82.31
539.367	104.31
539.581	103.31
539.795	81.31
540.009	94.31
540.222	90.31
540.436	78.31
540.65	90.31
540.864	82.31
541.078	98.31
541.292	93.31
541.506	96.31
541.72	87.31
541.934	92.31
542.147	101.31
542.361	87.31
542.575	85.31
542.789	88.31
543.002	88.31
543.216	94.31
543.43	87.31
543.644	85.31
543.857	106.31
544.071	86.31
544.285	85.31
544.498	96.31
544.712	90.31
544.925	91.31
545.139	72.31
545.352	86.31
545.566	85.31
545.779	84.31
545.993	88.31
546.206	96.31
546.42	90.31
546.633	101.31
546.847	86.31
547.06	96.31
547.274	86.31
547.487	80.31
547.7	86.31
547.914	81.31
548.127	88.31
548.34	86.31
548.554	97.31
548.767	93.31
548.98	92.31
549.193	105.31
549.407	84.31
549.62	76.31
549.833	80.31
550.046	82.31
550.259	95.31
550.473	88.31
550.686	71.31
550.899	88.31
551.112	94.31
551.325	89.31
551.538	82.31
551.751	85.31
551.964	92.31
552.177	95.31
552.39	88.31
552.603	83.31
552.816	80.31
553.029	81.31
553.242	89.31
553.455	90.31
553.667	87.31
553.88	97.31
554.093	102.31
554.306	92.31
554.519	77.31
554.732	93.31
554.944	87.31
555.157	83.31
555.37	83.31
555.583	78.31
555.795	96.31
556.008	86.31
556.221	101.31
556.433	85.31
556.646	84.31
556.859	107.31
557.071	88.31
557.284	84.31
557.496	90.31
557.709	90.31
557.921	94.31
558.134	87.31
558.346	90.31
558.559	84.31
558.771	99.31
558.984	77.31
559.196	86.31
559.409	87.31
559.621	98.31
559.833	87.31
560.046	88.31
560.258	94.31
560.47	94.31
560.683	99.31
560.895	79.31
561.107	82.31
561.32	87.31
561.532	92.31
561.744	71.31
561.956	91.31
562.168	85.31
562.381	68.31
562.593	84.31
562.805	90.31
563.017	85.31
563.229	89.31
563.441	98.31
563.653	83.31
563.865	86.31
564.077	77.31
564.289	86.31
564.501	103.31
564.713	98.31
564.925	97.31
565.137	98.31
565.349	108.31
565.561	74.31
565.773	88.31
565.985	92.31
566.197	57.31
566.408	70.31
566.62	77.31
566.832	89.31
567.044	97.31
567.255	85.31
567.467	100.31
567.679	96.31
567.891	86.31
568.102	81.31
568.314	81.31
568.526	104.31
568.737	81.31
568.949	92.31
569.161	101.31
569.372	96.31
569.584	69.31
569.795	89.31
570.007	104.31
570.218	201.31
570.43	128.31
570.641	89.31
570.853	87.31
571.064	88.31
571.276	82.31
571.487	86.31
571.698	92.31
571.91	82.31
572.121	94.31
572.333	84.31
572.544	89.31
572.755	68.31
572.966	75.31
573.178	74.31
573.389	94.31
573.6	75.31
573.811	82.31
574.023	82.31
574.234	93.31
574.445	77.31
574.656	70.31
574.867	92.31
575.078	98.31
575.289	100.31
575.501	83.31
575.712	93.31
575.923	89.31
576.134	89.31
576.345	87.31
576.556	99.31
576.767	86.31
576.978	108.31
577.188	93.31
577.399	92.31
577.61	88.31
577.821	105.31
578.032	110.31
578.243	231.31
578.454	585.31
578.665	168.31
578.875	107.31
579.086	90.31
579.297	92.31
579.508	84.31
579.718	73.31
579.929	73.31
580.14	77.31
580.35	78.31
580.561	92.31
580.772	89.31
580.982	107.31
581.193	88.31
581.403	80.31
581.614	99.31
581.825	100.31
582.035	90.31
582.246	97.31
582.456	84.31
582.667	90.31
582.877	82.31
583.087	81.31
583.298	73.31
583.508	97.31
583.719	86.31
583.929	91.31
584.139	84.31
584.35	97.31
584.56	84.31
584.77	80.31
584.981	85.31
585.191	80.31
585.401	90.31
585.611	85.31
585.821	84.31
586.032	86.31
586.242	100.31
586.452	91.31
586.662	85.31
586.872	96.31
587.082	92.31
587.292	83.31
587.502	93.31
587.713	75.31
587.923	70.31
588.133	88.31
588.343	86.31
588.553	89.31
588.762	110.31
588.972	92.31
589.182	105.31
589.392	88.31
589.602	95.31
589.812	105.31
590.022	78.31
590.232	90.31
590.441	90.31
590.651	77.31
590.861	77.31
591.071	77.31
591.281	91.31
591.49	94.31
591.7	99.31
591.91	91.31
592.119	73.31
592.329	83.31
592.539	94.31
592.748	96.31
592.958	78.31
593.167	73.31
593.377	94.31
593.587	89.31
593.796	75.31
594.006	81.31
594.215	90.31
594.424	77.31
594.634	84.31
594.843	90.31
595.053	89.31
595.262	100.31
595.472	102.31
595.681	93.31
595.89	84.31
596.1	84.31
596.309	83.31
596.518	76.31
596.727	91.31
596.937	90.31
597.146	78.31
597.355	89.31
597.564	84.31
597.774	104.31
597.983	62.31
598.192	95.31
598.401	65.31
598.61	86.31
598.819	84.31
599.028	79.31
599.237	80.31
599.446	77.31
599.655	88.31
599.864	86.31
600.073	80.31
600.282	86.31
600.491	88.31
600.7	93.31
600.909	86.31
601.118	82.31
601.327	72.31
601.536	88.31
601.745	77.31
601.953	96.31
602.162	102.31
602.371	82.31
602.58	87.31
602.789	89.31
602.997	88.31
603.206	95.31
603.415	82.31
603.623	68.31
603.832	82.31
604.041	88.31
604.249	80.31
604.458	83.31
604.666	93.31
604.875	91.31
605.084	64.31
605.292	80.31
605.501	90.31
605.709	93.31
605.918	94.31
606.126	92.31
606.334	89.31
606.543	90.31
606.751	77.31
606.96	80.31
607.168	91.31
607.376	68.31
607.585	82.31
607.793	94.31
608.001	87.31
608.21	95.31
608.418	85.31
608.626	89.31
608.834	81.31
609.043	78.31
609.251	80.31
609.459	94.31
609.667	93.31
609.875	90.31
610.083	87.31
610.291	96.31
610.499	93.31
610.707	88.31
610.916	83.31
611.124	89.31
611.332	66.31
611.54	95.31
611.748	94.31
611.955	87.31
612.163	86.31
612.371	84.31
612.579	90.31
612.787	86.31
612.995	77.31
613.203	94.31
613.411	91.31
613.618	93.31
613.826	90.31
614.034	82.31
614.242	98.31
614.449	82.31
614.657	95.31
614.865	69.31
615.072	90.31
615.28	82.31
615.488	89.31
615.695	83.31
615.903	102.31
616.111	91.31
616.318	101.31
616.526	84.31
616.733	98.31
616.941	87.31
617.148	86.31
617.356	85.31
617.563	72.31
617.771	91.31
617.978	86.31
618.185	82.31
618.393	85.31
618.6	88.31
618.807	76.31
619.015	88.31
619.222	90.31
619.429	91.31
619.637	80.31
619.844	85.31
620.051	102.31
620.258	88.31
620.466	82.31
620.673	81.31
620.88	108.31
621.087	95.31
621.294	98.31
621.501	81.31
621.708	73.31
621.915	80.31
622.122	88.31
622.329	82.31
622.536	77.31
622.743	88.31
622.95	97.31
623.157	95.31
623.364	75.31
623.571	98.31
623.778	74.31
623.985	93.31
624.192	80.31
624.399	92.31
624.606	83.31
624.812	81.31
625.019	94.31
625.226	83.31
625.433	93.31
625.639	100.31
625.846	93.31
626.053	88.31
626.259	94.31
626.466	88.31
626.673	82.31
626.879	81.31
627.086	88.31
627.293	84.31
627.499	85.31
627.706	92.31
627.912	97.31
628.119	90.31
628.325	76.31
628.532	80.31
628.738	97.31
628.945	90.31
629.151	79.31
629.357	77.31
629.564	80.31
629.77	86.31
629.976	81.31
630.183	87.31
630.389	89.31
630.595	81.31
630.802	75.31
631.008	84.31
631.214	84.31
631.42	99.31
631.627	92.31
631.833	82.31
632.039	86.31
632.245	92.31
632.451	91.31
632.657	92.31
632.863	73.31
633.069	85.31
633.275	88.31
633.481	80.31
633.688	77.31
633.893	91.31
634.099	79.31
634.305	98.31
634.511	85.31
634.717	82.31
634.923	86.31
635.129	74.31
635.335	72.31
635.541	78.31
635.747	73.31
635.952	78.31
636.158	96.31
636.364	95.31
636.57	84.31
636.775	93.31
636.981	84.31
637.187	88.31
637.392	88.31
637.598	69.31
637.804	83.31
638.009	96.31
638.215	75.31
638.421	69.31
638.626	82.31
638.832	85.31
639.037	91.31
639.243	97.31
639.448	69.31
639.654	76.31
639.859	78.31
640.065	78.31
640.27	91.31
640.475	66.31
640.681	76.31
640.886	77.31
641.091	94.31
641.297	100.31
641.502	82.31
641.707	81.31
641.913	89.31
642.118	78.31
642.323	84.31
642.528	88.31
642.733	85.31
642.939	89.31
643.144	89.31
643.349	77.31
643.554	82.31
643.759	82.31
643.964	92.31
644.169	72.31
644.374	84.31
644.579	84.31
644.784	103.31
644.989	83.31
645.194	90.31
645.399	74.31
645.604	64.31
645.809	92.31
646.014	78.31
646.219	83.31
646.423	82.31
646.628	75.31
646.833	94.31
647.038	89.31
647.243	89.31
647.447	88.31
647.652	90.31
647.857	82.31
648.062	85.31
648.266	88.31
648.471	92.31
648.676	87.31
648.88	77.31
649.085	93.31
649.289	90.31
649.494	110.31
649.698	122.31
649.903	101.31
650.107	77.31
650.312	88.31
650.516	83.31
650.721	85.31
650.925	88.31
651.13	82.31
651.334	76.31
651.539	90.31
651.743	94.31
651.947	90.31
652.152	75.31
652.356	84.31
652.56	74.31
652.764	83.31
652.969	76.31
653.173	85.31
653.377	69.31
653.581	82.31
653.785	87.31
653.99	68.31
654.194	82.31
654.398	81.31
654.602	83.31
654.806	90.31
655.01	98.31
655.214	81.31
655.418	84.31
655.622	74.31
655.826	91.31
656.03	98.31
656.234	88.31
656.438	93.31
656.642	86.31
656.846	94.31
657.049	82.31
657.253	90.31
657.457	101.31
657.661	89.31
657.865	68.31
658.068	64.31
658.272	76.31
658.476	93.31
658.68	67.31
658.883	80.31
659.087	72.31
659.291	87.31
659.494	77.31
659.698	76.31
659.901	65.31
660.105	73.31
660.309	86.31
660.512	87.31
660.716	73.31
660.919	90.31
661.123	88.31
661.326	77.31
661.53	82.31
661.733	73.31
661.936	81.31
662.14	77.31
662.343	78.31
662.546	82.31
662.75	84.31
662.953	77.31
663.156	85.31
663.36	70.31
663.563	85.31
663.766	81.31
663.969	83.31
664.173	96.31
664.376	72.31
664.579	80.31
664.782	88.31
664.985	86.31
665.188	60.31
665.391	73.31
665.594	82.31
665.797	77.31
666	81.31
666.203	93.31
666.406	100.31
666.609	75.31
666.812	84.31
667.015	80.31
667.218	74.31
667.421	72.31
667.624	80.31
667.827	77.31
668.03	85.31
668.232	71.31
668.435	90.31
668.638	90.31
668.841	84.31
669.043	88.31
669.246	88.31
669.449	89.31
669.651	78.31
669.854	82.31
670.057	66.31
670.259	84.31
670.462	88.31
670.665	88.31
670.867	89.31
671.07	74.31
671.272	75.31
671.475	67.31
671.677	85.31
671.88	96.31
672.082	87.31
672.284	82.31
672.487	87.31
672.689	82.31
672.892	78.31
