Data from Circ_1982_H10_HRD10591_00032.txt Node
Date: Wed Jan 03 12:30:47 EST 2024
User: Yrep
Spectrometer: HR+D1059
Trigger mode: 1
Integration Time (sec): 1.000000E-1
Scans to average: 1
Electric dark correction enabled: true
Nonlinearity correction enabled: false
Boxcar width: 0
XAxis mode: Wavelengths
Number of Pixels in Spectrum: 2048
>>>>>Begin Spectral Data<<<<<
223.165	-8.06
223.4	-8.06
223.635	-8.06
223.869	-21.06
224.104	-24.06
224.338	-4.06
224.573	-7.06
224.808	-18.06
225.042	-0.06
225.277	-11.06
225.511	-2.06
225.746	1.94
225.98	15.94
226.215	3.94
226.449	18.94
226.683	11.94
226.918	28.94
227.152	13.94
227.387	14.94
227.621	36.94
227.856	44.94
228.09	39.94
228.324	68.94
228.559	55.94
228.793	44.94
229.027	64.94
229.262	66.94
229.496	60.94
229.73	82.94
229.964	84.94
230.199	74.94
230.433	70.94
230.667	84.94
230.901	66.94
231.136	64.94
231.37	83.94
231.604	78.94
231.838	71.94
232.072	79.94
232.306	70.94
232.541	83.94
232.775	72.94
233.009	80.94
233.243	74.94
233.477	83.94
233.711	62.94
233.945	72.94
234.179	73.94
234.413	80.94
234.647	85.94
234.881	80.94
235.115	60.94
235.349	75.94
235.583	77.94
235.817	73.94
236.051	67.94
236.285	71.94
236.519	74.94
236.753	78.94
236.987	86.94
237.221	80.94
237.455	79.94
237.689	82.94
237.922	84.94
238.156	91.94
238.39	70.94
238.624	71.94
238.858	70.94
239.091	85.94
239.325	66.94
239.559	76.94
239.793	75.94
240.027	66.94
240.26	65.94
240.494	71.94
240.728	68.94
240.961	69.94
241.195	91.94
241.429	70.94
241.662	66.94
241.896	70.94
242.13	73.94
242.363	75.94
242.597	70.94
242.83	81.94
243.064	71.94
243.298	73.94
243.531	73.94
243.765	86.94
243.998	88.94
244.232	74.94
244.465	89.94
244.699	95.94
244.932	63.94
245.166	83.94
245.399	74.94
245.633	75.94
245.866	87.94
246.099	86.94
246.333	72.94
246.566	83.94
246.8	72.94
247.033	76.94
247.266	91.94
247.5	74.94
247.733	85.94
247.966	71.94
248.2	78.94
248.433	81.94
248.666	83.94
248.899	73.94
249.133	78.94
249.366	70.94
249.599	91.94
249.832	84.94
250.066	83.94
250.299	85.94
250.532	70.94
250.765	79.94
250.998	82.94
251.231	71.94
251.465	74.94
251.698	80.94
251.931	76.94
252.164	80.94
252.397	75.94
252.63	63.94
252.863	82.94
253.096	82.94
253.329	84.94
253.562	73.94
253.795	71.94
254.028	83.94
254.261	81.94
254.494	82.94
254.727	74.94
254.96	81.94
255.193	74.94
255.426	78.94
255.659	78.94
255.892	80.94
256.124	87.94
256.357	76.94
256.59	88.94
256.823	81.94
257.056	85.94
257.289	78.94
257.521	87.94
257.754	79.94
257.987	70.94
258.22	67.94
258.452	86.94
258.685	77.94
258.918	84.94
259.151	78.94
259.383	76.94
259.616	72.94
259.849	74.94
260.081	85.94
260.314	65.94
260.547	94.94
260.779	80.94
261.012	79.94
261.244	80.94
261.477	83.94
261.71	78.94
261.942	86.94
262.175	99.94
262.407	74.94
262.64	75.94
262.872	83.94
263.105	81.94
263.337	74.94
263.57	84.94
263.802	78.94
264.035	80.94
264.267	88.94
264.499	77.94
264.732	72.94
264.964	68.94
265.197	88.94
265.429	74.94
265.661	76.94
265.894	80.94
266.126	74.94
266.358	80.94
266.591	74.94
266.823	90.94
267.055	87.94
267.287	80.94
267.52	74.94
267.752	95.94
267.984	80.94
268.216	85.94
268.448	84.94
268.681	89.94
268.913	74.94
269.145	87.94
269.377	83.94
269.609	70.94
269.841	76.94
270.073	75.94
270.306	90.94
270.538	86.94
270.77	92.94
271.002	73.94
271.234	72.94
271.466	90.94
271.698	88.94
271.93	83.94
272.162	95.94
272.394	88.94
272.626	71.94
272.858	71.94
273.09	84.94
273.322	95.94
273.553	82.94
273.785	83.94
274.017	81.94
274.249	73.94
274.481	86.94
274.713	75.94
274.945	72.94
275.176	94.94
275.408	87.94
275.64	80.94
275.872	92.94
276.104	93.94
276.335	94.94
276.567	98.94
276.799	88.94
277.031	85.94
277.262	88.94
277.494	96.94
277.726	87.94
277.957	86.94
278.189	83.94
278.421	84.94
278.652	77.94
278.884	88.94
279.115	83.94
279.347	80.94
279.579	80.94
279.81	87.94
280.042	93.94
280.273	82.94
280.505	81.94
280.736	77.94
280.968	79.94
281.199	74.94
281.431	82.94
281.662	94.94
281.894	93.94
282.125	84.94
282.356	99.94
282.588	109.94
282.819	98.94
283.051	84.94
283.282	87.94
283.513	73.94
283.745	84.94
283.976	83.94
284.207	85.94
284.439	85.94
284.67	88.94
284.901	81.94
285.132	80.94
285.364	69.94
285.595	70.94
285.826	83.94
286.057	87.94
286.288	81.94
286.52	90.94
286.751	84.94
286.982	70.94
287.213	58.94
287.444	74.94
287.675	83.94
287.906	69.94
288.138	86.94
288.369	90.94
288.6	79.94
288.831	84.94
289.062	82.94
289.293	83.94
289.524	84.94
289.755	73.94
289.986	72.94
290.217	86.94
290.448	91.94
290.679	83.94
290.91	89.94
291.141	80.94
291.371	79.94
291.602	92.94
291.833	82.94
292.064	92.94
292.295	66.94
292.526	96.94
292.757	70.94
292.987	83.94
293.218	84.94
293.449	81.94
293.68	91.94
293.91	94.94
294.141	80.94
294.372	92.94
294.603	94.94
294.833	86.94
295.064	85.94
295.295	81.94
295.525	94.94
295.756	110.94
295.987	103.94
296.217	113.94
296.448	106.94
296.679	75.94
296.909	92.94
297.14	76.94
297.37	84.94
297.601	95.94
297.831	97.94
298.062	76.94
298.292	82.94
298.523	90.94
298.753	81.94
298.984	90.94
299.214	76.94
299.445	95.94
299.675	82.94
299.905	86.94
300.136	82.94
300.366	75.94
300.597	80.94
300.827	96.94
301.057	92.94
301.288	89.94
301.518	86.94
301.748	92.94
301.979	91.94
302.209	96.94
302.439	87.94
302.669	82.94
302.9	85.94
303.13	100.94
303.36	81.94
303.59	80.94
303.82	92.94
304.051	81.94
304.281	88.94
304.511	80.94
304.741	76.94
304.971	83.94
305.201	84.94
305.431	82.94
305.661	83.94
305.891	94.94
306.121	84.94
306.352	87.94
306.582	100.94
306.812	88.94
307.042	108.94
307.272	83.94
307.502	84.94
307.731	81.94
307.961	85.94
308.191	78.94
308.421	94.94
308.651	94.94
308.881	84.94
309.111	98.94
309.341	82.94
309.571	96.94
309.8	99.94
310.03	100.94
310.26	99.94
310.49	94.94
310.72	92.94
310.949	111.94
311.179	97.94
311.409	94.94
311.639	80.94
311.868	94.94
312.098	103.94
312.328	105.94
312.557	90.94
312.787	96.94
313.017	84.94
313.246	99.94
313.476	94.94
313.706	79.94
313.935	92.94
314.165	102.94
314.394	90.94
314.624	83.94
314.853	100.94
315.083	92.94
315.312	94.94
315.542	94.94
315.771	86.94
316.001	90.94
316.23	88.94
316.46	107.94
316.689	91.94
316.919	78.94
317.148	86.94
317.377	88.94
317.607	99.94
317.836	90.94
318.065	85.94
318.295	74.94
318.524	86.94
318.753	72.94
318.983	100.94
319.212	89.94
319.441	97.94
319.67	95.94
319.9	85.94
320.129	98.94
320.358	85.94
320.587	102.94
320.816	90.94
321.046	99.94
321.275	94.94
321.504	89.94
321.733	86.94
321.962	101.94
322.191	109.94
322.42	88.94
322.649	111.94
322.878	114.94
323.108	117.94
323.337	96.94
323.566	116.94
323.795	125.94
324.024	155.94
324.253	286.94
324.482	548.94
324.71	1140.94
324.939	1435.94
325.168	563.94
325.397	186.94
325.626	113.94
325.855	114.94
326.084	104.94
326.313	104.94
326.542	127.94
326.77	177.94
326.999	318.94
327.228	617.94
327.457	1195.94
327.686	912.94
327.914	265.94
328.143	150.94
328.372	131.94
328.6	100.94
328.829	108.94
329.058	103.94
329.287	122.94
329.515	99.94
329.744	101.94
329.972	95.94
330.201	104.94
330.43	101.94
330.658	109.94
330.887	131.94
331.115	111.94
331.344	87.94
331.572	94.94
331.801	91.94
332.03	100.94
332.258	89.94
332.486	91.94
332.715	89.94
332.943	76.94
333.172	97.94
333.4	93.94
333.629	105.94
333.857	107.94
334.085	86.94
334.314	100.94
334.542	104.94
334.771	113.94
334.999	98.94
335.227	92.94
335.455	86.94
335.684	101.94
335.912	97.94
336.14	89.94
336.369	101.94
336.597	99.94
336.825	98.94
337.053	94.94
337.281	75.94
337.51	75.94
337.738	82.94
337.966	75.94
338.194	88.94
338.422	100.94
338.65	87.94
338.878	92.94
339.106	98.94
339.334	87.94
339.562	80.94
339.79	87.94
340.018	92.94
340.246	75.94
340.474	105.94
340.702	83.94
340.93	82.94
341.158	85.94
341.386	94.94
341.614	85.94
341.842	98.94
342.07	85.94
342.298	89.94
342.526	89.94
342.754	84.94
342.981	84.94
343.209	91.94
343.437	101.94
343.665	87.94
343.893	84.94
344.12	87.94
344.348	100.94
344.576	80.94
344.804	96.94
345.031	83.94
345.259	80.94
345.487	87.94
345.714	87.94
345.942	103.94
346.17	82.94
346.397	82.94
346.625	83.94
346.853	91.94
347.08	86.94
347.308	86.94
347.535	94.94
347.763	86.94
347.99	94.94
348.218	94.94
348.445	89.94
348.673	107.94
348.9	96.94
349.128	95.94
349.355	104.94
349.583	97.94
349.81	88.94
350.037	95.94
350.265	91.94
350.492	97.94
350.72	89.94
350.947	91.94
351.174	101.94
351.402	104.94
351.629	100.94
351.856	95.94
352.083	90.94
352.311	89.94
352.538	111.94
352.765	98.94
352.992	115.94
353.22	115.94
353.447	102.94
353.674	91.94
353.901	107.94
354.128	92.94
354.355	105.94
354.583	94.94
354.81	87.94
355.037	98.94
355.264	94.94
355.491	106.94
355.718	77.94
355.945	90.94
356.172	105.94
356.399	90.94
356.626	84.94
356.853	82.94
357.08	88.94
357.307	107.94
357.534	82.94
357.761	95.94
357.988	95.94
358.215	108.94
358.441	98.94
358.668	102.94
358.895	86.94
359.122	103.94
359.349	97.94
359.576	96.94
359.802	85.94
360.029	90.94
360.256	101.94
360.483	107.94
360.709	97.94
360.936	88.94
361.163	86.94
361.39	97.94
361.616	99.94
361.843	90.94
362.07	85.94
362.296	103.94
362.523	86.94
362.749	83.94
362.976	97.94
363.203	79.94
363.429	92.94
363.656	91.94
363.882	85.94
364.109	88.94
364.335	88.94
364.562	85.94
364.788	74.94
365.015	88.94
365.241	93.94
365.468	86.94
365.694	84.94
365.92	95.94
366.147	91.94
366.373	85.94
366.599	80.94
366.826	76.94
367.052	80.94
367.278	89.94
367.505	87.94
367.731	94.94
367.957	95.94
368.184	89.94
368.41	85.94
368.636	92.94
368.862	108.94
369.089	91.94
369.315	91.94
369.541	95.94
369.767	75.94
369.993	79.94
370.219	86.94
370.445	81.94
370.672	91.94
370.898	87.94
371.124	83.94
371.35	84.94
371.576	79.94
371.802	83.94
372.028	82.94
372.254	78.94
372.48	81.94
372.706	82.94
372.932	87.94
373.158	91.94
373.384	99.94
373.61	103.94
373.835	73.94
374.061	84.94
374.287	98.94
374.513	89.94
374.739	96.94
374.965	102.94
375.191	85.94
375.416	85.94
375.642	82.94
375.868	85.94
376.094	82.94
376.319	103.94
376.545	77.94
376.771	91.94
376.997	81.94
377.222	99.94
377.448	96.94
377.674	84.94
377.899	74.94
378.125	107.94
378.35	93.94
378.576	84.94
378.802	87.94
379.027	100.94
379.253	98.94
379.478	80.94
379.704	96.94
379.929	88.94
380.155	91.94
380.38	102.94
380.606	102.94
380.831	91.94
381.057	95.94
381.282	88.94
381.507	89.94
381.733	103.94
381.958	99.94
382.184	96.94
382.409	94.94
382.634	102.94
382.86	107.94
383.085	92.94
383.31	94.94
383.535	92.94
383.761	87.94
383.986	89.94
384.211	90.94
384.436	88.94
384.662	91.94
384.887	101.94
385.112	112.94
385.337	102.94
385.562	90.94
385.787	117.94
386.013	106.94
386.238	120.94
386.463	107.94
386.688	106.94
386.913	105.94
387.138	104.94
387.363	104.94
387.588	88.94
387.813	82.94
388.038	106.94
388.263	114.94
388.488	105.94
388.713	102.94
388.938	83.94
389.163	104.94
389.387	105.94
389.612	89.94
389.837	90.94
390.062	83.94
390.287	78.94
390.512	92.94
390.736	104.94
390.961	97.94
391.186	97.94
391.411	94.94
391.636	79.94
391.86	90.94
392.085	82.94
392.31	95.94
392.534	82.94
392.759	74.94
392.984	95.94
393.208	99.94
393.433	120.94
393.658	106.94
393.882	97.94
394.107	93.94
394.331	86.94
394.556	76.94
394.78	95.94
395.005	94.94
395.229	95.94
395.454	80.94
395.678	91.94
395.903	85.94
396.127	81.94
396.352	84.94
396.576	94.94
396.801	94.94
397.025	88.94
397.249	75.94
397.474	88.94
397.698	86.94
397.922	84.94
398.147	80.94
398.371	88.94
398.595	80.94
398.82	83.94
399.044	84.94
399.268	88.94
399.492	89.94
399.717	95.94
399.941	73.94
400.165	78.94
400.389	84.94
400.613	76.94
400.837	80.94
401.062	95.94
401.286	81.94
401.51	70.94
401.734	86.94
401.958	100.94
402.182	100.94
402.406	136.94
402.63	106.94
402.854	88.94
403.078	89.94
403.302	76.94
403.526	86.94
403.75	86.94
403.974	84.94
404.198	76.94
404.422	87.94
404.645	94.94
404.869	97.94
405.093	81.94
405.317	80.94
405.541	86.94
405.765	87.94
405.988	108.94
406.212	150.94
406.436	166.94
406.66	125.94
406.883	102.94
407.107	96.94
407.331	84.94
407.555	96.94
407.778	78.94
408.002	73.94
408.226	92.94
408.449	80.94
408.673	91.94
408.896	104.94
409.12	102.94
409.344	99.94
409.567	87.94
409.791	89.94
410.014	86.94
410.238	73.94
410.461	87.94
410.685	90.94
410.908	108.94
411.132	98.94
411.355	92.94
411.578	90.94
411.802	78.94
412.025	94.94
412.249	88.94
412.472	85.94
412.695	92.94
412.919	88.94
413.142	87.94
413.365	79.94
413.589	80.94
413.812	85.94
414.035	87.94
414.258	85.94
414.482	85.94
414.705	89.94
414.928	98.94
415.151	100.94
415.374	81.94
415.597	76.94
415.821	82.94
416.044	88.94
416.267	92.94
416.49	79.94
416.713	88.94
416.936	91.94
417.159	98.94
417.382	72.94
417.605	73.94
417.828	75.94
418.051	99.94
418.274	81.94
418.497	80.94
418.72	75.94
418.943	78.94
419.166	80.94
419.389	93.94
419.611	80.94
419.834	76.94
420.057	85.94
420.28	83.94
420.503	87.94
420.726	75.94
420.948	74.94
421.171	82.94
421.394	74.94
421.617	84.94
421.839	90.94
422.062	86.94
422.285	94.94
422.507	87.94
422.73	108.94
422.953	90.94
423.175	92.94
423.398	88.94
423.621	91.94
423.843	84.94
424.066	75.94
424.288	76.94
424.511	91.94
424.733	81.94
424.956	101.94
425.178	94.94
425.401	95.94
425.623	106.94
425.846	95.94
426.068	82.94
426.291	86.94
426.513	100.94
426.735	89.94
426.958	82.94
427.18	105.94
427.402	113.94
427.625	126.94
427.847	104.94
428.069	94.94
428.292	85.94
428.514	85.94
428.736	89.94
428.958	74.94
429.181	78.94
429.403	82.94
429.625	78.94
429.847	89.94
430.069	77.94
430.292	64.94
430.514	85.94
430.736	78.94
430.958	75.94
431.18	88.94
431.402	89.94
431.624	98.94
431.846	99.94
432.068	83.94
432.29	76.94
432.512	80.94
432.734	82.94
432.956	95.94
433.178	95.94
433.4	90.94
433.622	91.94
433.844	82.94
434.066	94.94
434.287	92.94
434.509	86.94
434.731	84.94
434.953	73.94
435.175	80.94
435.397	86.94
435.618	83.94
435.84	97.94
436.062	113.94
436.284	116.94
436.505	89.94
436.727	100.94
436.949	86.94
437.17	86.94
437.392	79.94
437.614	88.94
437.835	95.94
438.057	98.94
438.278	99.94
438.5	94.94
438.721	95.94
438.943	89.94
439.165	81.94
439.386	81.94
439.608	97.94
439.829	86.94
440.05	102.94
440.272	110.94
440.493	90.94
440.715	89.94
440.936	88.94
441.158	83.94
441.379	73.94
441.6	88.94
441.822	82.94
442.043	95.94
442.264	101.94
442.486	96.94
442.707	94.94
442.928	97.94
443.149	120.94
443.371	121.94
443.592	94.94
443.813	106.94
444.034	102.94
444.255	98.94
444.476	80.94
444.698	75.94
444.919	87.94
445.14	122.94
445.361	118.94
445.582	102.94
445.803	116.94
446.024	109.94
446.245	109.94
446.466	87.94
446.687	99.94
446.908	75.94
447.129	88.94
447.35	78.94
447.571	77.94
447.792	85.94
448.013	87.94
448.234	82.94
448.455	88.94
448.675	82.94
448.896	104.94
449.117	90.94
449.338	87.94
449.559	103.94
449.779	106.94
450	87.94
450.221	70.94
450.442	75.94
450.662	88.94
450.883	78.94
451.104	104.94
451.324	98.94
451.545	75.94
451.766	88.94
451.986	80.94
452.207	93.94
452.428	76.94
452.648	101.94
452.869	86.94
453.089	104.94
453.31	96.94
453.53	90.94
453.751	80.94
453.971	98.94
454.192	83.94
454.412	80.94
454.633	100.94
454.853	80.94
455.073	83.94
455.294	86.94
455.514	80.94
455.734	91.94
455.955	84.94
456.175	78.94
456.395	79.94
456.616	73.94
456.836	78.94
457.056	86.94
457.276	75.94
457.497	90.94
457.717	88.94
457.937	78.94
458.157	100.94
458.377	85.94
458.598	96.94
458.818	123.94
459.038	115.94
459.258	101.94
459.478	81.94
459.698	80.94
459.918	98.94
460.138	78.94
460.358	90.94
460.578	90.94
460.798	75.94
461.018	86.94
461.238	91.94
461.458	87.94
461.678	88.94
461.898	96.94
462.118	84.94
462.338	79.94
462.558	78.94
462.777	83.94
462.997	65.94
463.217	70.94
463.437	89.94
463.657	81.94
463.876	88.94
464.096	99.94
464.316	102.94
464.536	78.94
464.755	92.94
464.975	89.94
465.195	133.94
465.414	136.94
465.634	101.94
465.854	80.94
466.073	83.94
466.293	90.94
466.512	86.94
466.732	74.94
466.951	89.94
467.171	87.94
467.391	88.94
467.61	99.94
467.829	83.94
468.049	70.94
468.268	90.94
468.488	105.94
468.707	95.94
468.927	99.94
469.146	88.94
469.365	81.94
469.585	99.94
469.804	97.94
470.023	80.94
470.243	105.94
470.462	101.94
470.681	97.94
470.901	84.94
471.12	74.94
471.339	76.94
471.558	87.94
471.777	80.94
471.997	82.94
472.216	95.94
472.435	112.94
472.654	94.94
472.873	84.94
473.092	75.94
473.311	76.94
473.53	70.94
473.749	82.94
473.968	80.94
474.187	96.94
474.406	89.94
474.625	100.94
474.844	72.94
475.063	89.94
475.282	91.94
475.501	82.94
475.72	88.94
475.939	70.94
476.158	92.94
476.377	71.94
476.596	95.94
476.814	94.94
477.033	80.94
477.252	94.94
477.471	84.94
477.69	75.94
477.908	80.94
478.127	81.94
478.346	88.94
478.564	96.94
478.783	92.94
479.002	84.94
479.22	103.94
479.439	100.94
479.658	92.94
479.876	85.94
480.095	86.94
480.313	82.94
480.532	94.94
480.751	92.94
480.969	100.94
481.188	170.94
481.406	122.94
481.624	84.94
481.843	89.94
482.061	82.94
482.28	86.94
482.498	76.94
482.717	81.94
482.935	86.94
483.153	68.94
483.372	86.94
483.59	71.94
483.808	84.94
484.027	91.94
484.245	78.94
484.463	94.94
484.681	94.94
484.9	82.94
485.118	81.94
485.336	91.94
485.554	74.94
485.772	98.94
485.99	104.94
486.209	112.94
486.427	106.94
486.645	102.94
486.863	103.94
487.081	106.94
487.299	97.94
487.517	92.94
487.735	88.94
487.953	86.94
488.171	91.94
488.389	94.94
488.607	89.94
488.825	91.94
489.043	92.94
489.261	96.94
489.479	86.94
489.696	91.94
489.914	84.94
490.132	70.94
490.35	92.94
490.568	96.94
490.786	82.94
491.003	83.94
491.221	81.94
491.439	88.94
491.657	89.94
491.874	69.94
492.092	80.94
492.31	98.94
492.527	78.94
492.745	80.94
492.963	90.94
493.18	83.94
493.398	75.94
493.615	94.94
493.833	88.94
494.05	81.94
494.268	101.94
494.485	85.94
494.703	79.94
494.92	83.94
495.138	84.94
495.355	80.94
495.573	90.94
495.79	78.94
496.008	94.94
496.225	91.94
496.442	84.94
496.66	94.94
496.877	83.94
497.094	102.94
497.312	94.94
497.529	87.94
497.746	86.94
497.963	76.94
498.181	76.94
498.398	93.94
498.615	87.94
498.832	88.94
499.049	84.94
499.267	87.94
499.484	85.94
499.701	91.94
499.918	98.94
500.135	83.94
500.352	92.94
500.569	86.94
500.786	93.94
501.003	85.94
501.22	83.94
501.437	67.94
501.654	81.94
501.871	100.94
502.088	89.94
502.305	96.94
502.522	86.94
502.739	72.94
502.956	90.94
503.172	96.94
503.389	94.94
503.606	83.94
503.823	107.94
504.04	91.94
504.256	103.94
504.473	94.94
504.69	74.94
504.907	89.94
505.123	70.94
505.34	75.94
505.557	88.94
505.773	85.94
505.99	90.94
506.207	83.94
506.423	69.94
506.64	69.94
506.856	83.94
507.073	94.94
507.289	86.94
507.506	82.94
507.722	94.94
507.939	86.94
508.155	84.94
508.372	87.94
508.588	86.94
508.805	71.94
509.021	96.94
509.238	81.94
509.454	88.94
509.67	89.94
509.887	110.94
510.103	114.94
510.319	163.94
510.536	543.94
510.752	1669.94
510.968	485.94
511.184	123.94
511.401	89.94
511.617	98.94
511.833	84.94
512.049	82.94
512.265	92.94
512.481	75.94
512.698	94.94
512.914	86.94
513.13	81.94
513.346	90.94
513.562	93.94
513.778	86.94
513.994	85.94
514.21	92.94
514.426	102.94
514.642	114.94
514.858	98.94
515.074	130.94
515.29	303.94
515.506	956.94
515.721	377.94
515.937	128.94
516.153	94.94
516.369	87.94
516.585	96.94
516.801	90.94
517.016	98.94
517.232	95.94
517.448	78.94
517.664	102.94
517.879	94.94
518.095	92.94
518.311	76.94
518.527	96.94
518.742	82.94
518.958	82.94
519.173	84.94
519.389	101.94
519.605	90.94
519.82	100.94
520.036	89.94
520.251	94.94
520.467	98.94
520.682	89.94
520.898	93.94
521.113	100.94
521.329	117.94
521.544	162.94
521.76	394.94
521.975	1516.94
522.19	928.94
522.406	226.94
522.621	116.94
522.836	104.94
523.052	94.94
523.267	86.94
523.482	96.94
523.698	79.94
523.913	92.94
524.128	78.94
524.343	86.94
524.559	98.94
524.774	84.94
524.989	95.94
525.204	101.94
525.419	82.94
525.634	81.94
525.849	86.94
526.064	82.94
526.28	104.94
526.495	87.94
526.71	70.94
526.925	80.94
527.14	76.94
527.355	98.94
527.57	82.94
527.785	87.94
527.999	81.94
528.214	87.94
528.429	84.94
528.644	78.94
528.859	86.94
529.074	98.94
529.289	100.94
529.503	140.94
529.718	104.94
529.933	86.94
530.148	83.94
530.363	89.94
530.577	89.94
530.792	89.94
531.007	83.94
531.221	94.94
531.436	89.94
531.651	66.94
531.865	102.94
532.08	87.94
532.295	89.94
532.509	86.94
532.724	97.94
532.938	83.94
533.153	98.94
533.367	89.94
533.582	86.94
533.796	81.94
534.011	86.94
534.225	92.94
534.44	83.94
534.654	91.94
534.868	90.94
535.083	101.94
535.297	88.94
535.511	102.94
535.726	97.94
535.94	88.94
536.154	87.94
536.369	102.94
536.583	73.94
536.797	98.94
537.011	78.94
537.225	84.94
537.44	80.94
537.654	98.94
537.868	84.94
538.082	85.94
538.296	83.94
538.51	74.94
538.724	95.94
538.938	98.94
539.153	96.94
539.367	101.94
539.581	92.94
539.795	86.94
540.009	72.94
540.222	96.94
540.436	80.94
540.65	84.94
540.864	91.94
541.078	84.94
541.292	94.94
541.506	76.94
541.72	73.94
541.934	81.94
542.147	79.94
542.361	83.94
542.575	90.94
542.789	96.94
543.002	89.94
543.216	88.94
543.43	95.94
543.644	84.94
543.857	97.94
544.071	90.94
544.285	85.94
544.498	86.94
544.712	95.94
544.925	91.94
545.139	85.94
545.352	90.94
545.566	114.94
545.779	88.94
545.993	91.94
546.206	73.94
546.42	73.94
546.633	88.94
546.847	101.94
547.06	80.94
547.274	95.94
547.487	107.94
547.7	85.94
547.914	88.94
548.127	95.94
548.34	82.94
548.554	87.94
548.767	91.94
548.98	76.94
549.193	88.94
549.407	83.94
549.62	94.94
549.833	80.94
550.046	94.94
550.259	92.94
550.473	83.94
550.686	86.94
550.899	76.94
551.112	77.94
551.325	100.94
551.538	74.94
551.751	103.94
551.964	84.94
552.177	91.94
552.39	87.94
552.603	86.94
552.816	91.94
553.029	102.94
553.242	102.94
553.455	99.94
553.667	86.94
553.88	92.94
554.093	93.94
554.306	86.94
554.519	71.94
554.732	79.94
554.944	94.94
555.157	86.94
555.37	97.94
555.583	99.94
555.795	84.94
556.008	89.94
556.221	89.94
556.433	97.94
556.646	101.94
556.859	80.94
557.071	86.94
557.284	94.94
557.496	91.94
557.709	94.94
557.921	85.94
558.134	89.94
558.346	88.94
558.559	79.94
558.771	72.94
558.984	82.94
559.196	85.94
559.409	100.94
559.621	79.94
559.833	84.94
560.046	111.94
560.258	93.94
560.47	87.94
560.683	91.94
560.895	86.94
561.107	93.94
561.32	86.94
561.532	78.94
561.744	101.94
561.956	104.94
562.168	84.94
562.381	94.94
562.593	100.94
562.805	84.94
563.017	82.94
563.229	75.94
563.441	81.94
563.653	76.94
563.865	90.94
564.077	91.94
564.289	82.94
564.501	75.94
564.713	96.94
564.925	88.94
565.137	87.94
565.349	91.94
565.561	97.94
565.773	99.94
565.985	75.94
566.197	74.94
566.408	71.94
566.62	81.94
566.832	75.94
567.044	91.94
567.255	95.94
567.467	92.94
567.679	90.94
567.891	78.94
568.102	82.94
568.314	79.94
568.526	88.94
568.737	80.94
568.949	85.94
569.161	90.94
569.372	84.94
569.584	92.94
569.795	95.94
570.007	114.94
570.218	178.94
570.43	118.94
570.641	88.94
570.853	100.94
571.064	72.94
571.276	88.94
571.487	84.94
571.698	94.94
571.91	104.94
572.121	96.94
572.333	92.94
572.544	75.94
572.755	79.94
572.966	89.94
573.178	90.94
573.389	99.94
573.6	83.94
573.811	82.94
574.023	84.94
574.234	75.94
574.445	106.94
574.656	91.94
574.867	98.94
575.078	82.94
575.289	103.94
575.501	83.94
575.712	79.94
575.923	79.94
576.134	74.94
576.345	83.94
576.556	90.94
576.767	90.94
576.978	90.94
577.188	102.94
577.399	102.94
577.61	100.94
577.821	96.94
578.032	126.94
578.243	203.94
578.454	505.94
578.665	170.94
578.875	109.94
579.086	96.94
579.297	84.94
579.508	83.94
579.718	97.94
579.929	79.94
580.14	93.94
580.35	116.94
580.561	90.94
580.772	93.94
580.982	82.94
581.193	97.94
581.403	82.94
581.614	103.94
581.825	83.94
582.035	91.94
582.246	87.94
582.456	92.94
582.667	87.94
582.877	88.94
583.087	84.94
583.298	76.94
583.508	86.94
583.719	95.94
583.929	83.94
584.139	86.94
584.35	80.94
584.56	90.94
584.77	90.94
584.981	91.94
585.191	88.94
585.401	79.94
585.611	87.94
585.821	95.94
586.032	106.94
586.242	85.94
586.452	88.94
586.662	98.94
586.872	78.94
587.082	90.94
587.292	91.94
587.502	79.94
587.713	82.94
587.923	81.94
588.133	80.94
588.343	73.94
588.553	85.94
588.762	98.94
588.972	97.94
589.182	159.94
589.392	112.94
589.602	91.94
589.812	114.94
590.022	103.94
590.232	85.94
590.441	85.94
590.651	76.94
590.861	86.94
591.071	71.94
591.281	75.94
591.49	60.94
591.7	72.94
591.91	78.94
592.119	80.94
592.329	82.94
592.539	106.94
592.748	90.94
592.958	84.94
593.167	84.94
593.377	87.94
593.587	88.94
593.796	94.94
594.006	78.94
594.215	94.94
594.424	89.94
594.634	83.94
594.843	86.94
595.053	74.94
595.262	87.94
595.472	87.94
595.681	96.94
595.89	73.94
596.1	87.94
596.309	84.94
596.518	92.94
596.727	93.94
596.937	84.94
597.146	94.94
597.355	94.94
597.564	80.94
597.774	87.94
597.983	87.94
598.192	86.94
598.401	84.94
598.61	84.94
598.819	78.94
599.028	78.94
599.237	88.94
599.446	86.94
599.655	93.94
599.864	88.94
600.073	90.94
600.282	99.94
600.491	87.94
600.7	75.94
600.909	88.94
601.118	71.94
601.327	95.94
601.536	85.94
601.745	86.94
601.953	65.94
602.162	92.94
602.371	101.94
602.58	77.94
602.789	91.94
602.997	82.94
603.206	85.94
603.415	94.94
603.623	80.94
603.832	94.94
604.041	84.94
604.249	78.94
604.458	98.94
604.666	89.94
604.875	75.94
605.084	91.94
605.292	81.94
605.501	80.94
605.709	86.94
605.918	83.94
606.126	90.94
606.334	72.94
606.543	84.94
606.751	92.94
606.96	90.94
607.168	94.94
607.376	92.94
607.585	72.94
607.793	80.94
608.001	82.94
608.21	83.94
608.418	80.94
608.626	88.94
608.834	78.94
609.043	87.94
609.251	90.94
609.459	73.94
609.667	83.94
609.875	67.94
610.083	90.94
610.291	86.94
610.499	85.94
610.707	88.94
610.916	93.94
611.124	80.94
611.332	71.94
611.54	82.94
611.748	70.94
611.955	78.94
612.163	78.94
612.371	86.94
612.579	91.94
612.787	78.94
612.995	81.94
613.203	97.94
613.411	73.94
613.618	78.94
613.826	76.94
614.034	82.94
614.242	84.94
614.449	82.94
614.657	75.94
614.865	72.94
615.072	71.94
615.28	80.94
615.488	91.94
615.695	90.94
615.903	98.94
616.111	90.94
616.318	95.94
616.526	93.94
616.733	89.94
616.941	75.94
617.148	75.94
617.356	98.94
617.563	98.94
617.771	88.94
617.978	88.94
618.185	73.94
618.393	81.94
618.6	92.94
618.807	76.94
619.015	83.94
619.222	89.94
619.429	92.94
619.637	84.94
619.844	85.94
620.051	91.94
620.258	81.94
620.466	83.94
620.673	87.94
620.88	73.94
621.087	70.94
621.294	82.94
621.501	88.94
621.708	82.94
621.915	85.94
622.122	86.94
622.329	82.94
622.536	80.94
622.743	89.94
622.95	90.94
623.157	87.94
623.364	84.94
623.571	93.94
623.778	79.94
623.985	80.94
624.192	89.94
624.399	84.94
624.606	91.94
624.812	78.94
625.019	78.94
625.226	80.94
625.433	87.94
625.639	96.94
625.846	78.94
626.053	97.94
626.259	78.94
626.466	88.94
626.673	75.94
626.879	72.94
627.086	80.94
627.293	84.94
627.499	82.94
627.706	100.94
627.912	81.94
628.119	100.94
628.325	96.94
628.532	87.94
628.738	93.94
628.945	86.94
629.151	95.94
629.357	105.94
629.564	81.94
629.77	87.94
629.976	85.94
630.183	79.94
630.389	94.94
630.595	90.94
630.802	83.94
631.008	78.94
631.214	75.94
631.42	85.94
631.627	71.94
631.833	82.94
632.039	82.94
632.245	96.94
632.451	82.94
632.657	79.94
632.863	83.94
633.069	82.94
633.275	67.94
633.481	66.94
633.688	81.94
633.893	80.94
634.099	89.94
634.305	94.94
634.511	82.94
634.717	78.94
634.923	89.94
635.129	99.94
635.335	95.94
635.541	71.94
635.747	84.94
635.952	83.94
636.158	73.94
636.364	100.94
636.57	82.94
636.775	71.94
636.981	84.94
637.187	75.94
637.392	85.94
637.598	73.94
637.804	82.94
638.009	91.94
638.215	85.94
638.421	87.94
638.626	71.94
638.832	85.94
639.037	70.94
639.243	87.94
639.448	94.94
639.654	99.94
639.859	75.94
640.065	86.94
640.27	85.94
640.475	83.94
640.681	80.94
640.886	66.94
641.091	83.94
641.297	79.94
641.502	79.94
641.707	85.94
641.913	80.94
642.118	73.94
642.323	74.94
642.528	87.94
642.733	79.94
642.939	72.94
643.144	73.94
643.349	80.94
643.554	87.94
643.759	89.94
643.964	76.94
644.169	70.94
644.374	89.94
644.579	62.94
644.784	94.94
644.989	83.94
645.194	80.94
645.399	94.94
645.604	71.94
645.809	83.94
646.014	78.94
646.219	93.94
646.423	95.94
646.628	80.94
646.833	75.94
647.038	78.94
647.243	82.94
647.447	94.94
647.652	95.94
647.857	84.94
648.062	89.94
648.266	92.94
648.471	94.94
648.676	87.94
648.88	94.94
649.085	80.94
649.289	85.94
649.494	93.94
649.698	110.94
649.903	99.94
650.107	71.94
650.312	92.94
650.516	74.94
650.721	94.94
650.925	79.94
651.13	88.94
651.334	87.94
651.539	89.94
651.743	75.94
651.947	86.94
652.152	82.94
652.356	97.94
652.56	80.94
652.764	72.94
652.969	83.94
653.173	73.94
653.377	91.94
653.581	91.94
653.785	72.94
653.99	94.94
654.194	92.94
654.398	78.94
654.602	71.94
654.806	82.94
655.01	96.94
655.214	86.94
655.418	90.94
655.622	88.94
655.826	94.94
656.03	91.94
656.234	98.94
656.438	80.94
656.642	97.94
656.846	102.94
657.049	78.94
657.253	88.94
657.457	78.94
657.661	90.94
657.865	93.94
658.068	82.94
658.272	79.94
658.476	77.94
658.68	79.94
658.883	83.94
659.087	92.94
659.291	82.94
659.494	71.94
659.698	100.94
659.901	73.94
660.105	92.94
660.309	80.94
660.512	78.94
660.716	54.94
660.919	82.94
661.123	82.94
661.326	86.94
661.53	83.94
661.733	100.94
661.936	83.94
662.14	88.94
662.343	81.94
662.546	73.94
662.75	73.94
662.953	74.94
663.156	74.94
663.36	84.94
663.563	84.94
663.766	87.94
663.969	88.94
664.173	74.94
664.376	66.94
664.579	78.94
664.782	64.94
664.985	81.94
665.188	78.94
665.391	75.94
665.594	70.94
665.797	74.94
666	78.94
666.203	78.94
666.406	84.94
666.609	84.94
666.812	88.94
667.015	90.94
667.218	83.94
667.421	90.94
667.624	57.94
667.827	83.94
668.03	83.94
668.232	90.94
668.435	86.94
668.638	83.94
668.841	80.94
669.043	82.94
669.246	86.94
669.449	72.94
669.651	84.94
669.854	72.94
670.057	74.94
670.259	77.94
670.462	89.94
670.665	76.94
670.867	97.94
671.07	94.94
671.272	82.94
671.475	82.94
671.677	73.94
671.88	72.94
672.082	68.94
672.284	79.94
672.487	78.94
672.689	83.94
672.892	65.94
