Data from Circ_1982_H10_HRD10591_00025.txt Node
Date: Wed Jan 03 12:30:46 EST 2024
User: Yrep
Spectrometer: HR+D1059
Trigger mode: 1
Integration Time (sec): 1.000000E-1
Scans to average: 1
Electric dark correction enabled: true
Nonlinearity correction enabled: false
Boxcar width: 0
XAxis mode: Wavelengths
Number of Pixels in Spectrum: 2048
>>>>>Begin Spectral Data<<<<<
223.165	-5.06
223.4	-5.06
223.635	-5.06
223.869	-8.06
224.104	-19.06
224.338	-14.06
224.573	-18.06
224.808	-4.06
225.042	-9.06
225.277	-19.06
225.511	-2.06
225.746	3.94
225.98	10.94
226.215	7.94
226.449	7.94
226.683	4.94
226.918	27.94
227.152	34.94
227.387	35.94
227.621	44.94
227.856	49.94
228.09	38.94
228.324	43.94
228.559	58.94
228.793	58.94
229.027	63.94
229.262	62.94
229.496	75.94
229.73	82.94
229.964	85.94
230.199	81.94
230.433	71.94
230.667	67.94
230.901	84.94
231.136	86.94
231.37	83.94
231.604	86.94
231.838	78.94
232.072	81.94
232.306	78.94
232.541	91.94
232.775	92.94
233.009	84.94
233.243	95.94
233.477	86.94
233.711	86.94
233.945	83.94
234.179	84.94
234.413	81.94
234.647	87.94
234.881	76.94
235.115	89.94
235.349	79.94
235.583	74.94
235.817	75.94
236.051	86.94
236.285	81.94
236.519	82.94
236.753	71.94
236.987	66.94
237.221	74.94
237.455	85.94
237.689	77.94
237.922	72.94
238.156	70.94
238.39	73.94
238.624	72.94
238.858	75.94
239.091	59.94
239.325	79.94
239.559	84.94
239.793	83.94
240.027	78.94
240.26	72.94
240.494	79.94
240.728	71.94
240.961	82.94
241.195	84.94
241.429	73.94
241.662	72.94
241.896	62.94
242.13	66.94
242.363	77.94
242.597	65.94
242.83	85.94
243.064	66.94
243.298	79.94
243.531	74.94
243.765	66.94
243.998	81.94
244.232	72.94
244.465	84.94
244.699	74.94
244.932	75.94
245.166	80.94
245.399	86.94
245.633	74.94
245.866	87.94
246.099	69.94
246.333	71.94
246.566	80.94
246.8	86.94
247.033	70.94
247.266	85.94
247.5	84.94
247.733	72.94
247.966	74.94
248.2	78.94
248.433	76.94
248.666	78.94
248.899	62.94
249.133	83.94
249.366	90.94
249.599	101.94
249.832	83.94
250.066	90.94
250.299	82.94
250.532	90.94
250.765	54.94
250.998	69.94
251.231	79.94
251.465	74.94
251.698	90.94
251.931	82.94
252.164	85.94
252.397	62.94
252.63	83.94
252.863	87.94
253.096	82.94
253.329	73.94
253.562	66.94
253.795	73.94
254.028	82.94
254.261	88.94
254.494	85.94
254.727	90.94
254.96	82.94
255.193	89.94
255.426	70.94
255.659	76.94
255.892	85.94
256.124	88.94
256.357	84.94
256.59	79.94
256.823	74.94
257.056	83.94
257.289	74.94
257.521	91.94
257.754	67.94
257.987	69.94
258.22	83.94
258.452	83.94
258.685	89.94
258.918	70.94
259.151	71.94
259.383	78.94
259.616	82.94
259.849	86.94
260.081	79.94
260.314	81.94
260.547	79.94
260.779	76.94
261.012	77.94
261.244	67.94
261.477	78.94
261.71	83.94
261.942	101.94
262.175	96.94
262.407	100.94
262.64	90.94
262.872	79.94
263.105	101.94
263.337	81.94
263.57	84.94
263.802	95.94
264.035	85.94
264.267	89.94
264.499	83.94
264.732	84.94
264.964	64.94
265.197	71.94
265.429	90.94
265.661	74.94
265.894	85.94
266.126	73.94
266.358	73.94
266.591	79.94
266.823	84.94
267.055	66.94
267.287	80.94
267.52	70.94
267.752	86.94
267.984	83.94
268.216	80.94
268.448	86.94
268.681	86.94
268.913	75.94
269.145	83.94
269.377	91.94
269.609	91.94
269.841	90.94
270.073	77.94
270.306	76.94
270.538	80.94
270.77	98.94
271.002	85.94
271.234	96.94
271.466	90.94
271.698	70.94
271.93	79.94
272.162	94.94
272.394	80.94
272.626	79.94
272.858	63.94
273.09	92.94
273.322	72.94
273.553	74.94
273.785	82.94
274.017	94.94
274.249	85.94
274.481	97.94
274.713	90.94
274.945	88.94
275.176	72.94
275.408	88.94
275.64	87.94
275.872	97.94
276.104	84.94
276.335	78.94
276.567	92.94
276.799	91.94
277.031	94.94
277.262	90.94
277.494	89.94
277.726	80.94
277.957	90.94
278.189	66.94
278.421	87.94
278.652	76.94
278.884	75.94
279.115	87.94
279.347	85.94
279.579	82.94
279.81	90.94
280.042	86.94
280.273	100.94
280.505	91.94
280.736	82.94
280.968	71.94
281.199	88.94
281.431	79.94
281.662	75.94
281.894	97.94
282.125	94.94
282.356	104.94
282.588	104.94
282.819	114.94
283.051	84.94
283.282	96.94
283.513	85.94
283.745	88.94
283.976	81.94
284.207	70.94
284.439	85.94
284.67	90.94
284.901	79.94
285.132	90.94
285.364	69.94
285.595	83.94
285.826	95.94
286.057	89.94
286.288	73.94
286.52	75.94
286.751	76.94
286.982	95.94
287.213	86.94
287.444	80.94
287.675	97.94
287.906	93.94
288.138	90.94
288.369	82.94
288.6	88.94
288.831	89.94
289.062	82.94
289.293	98.94
289.524	83.94
289.755	88.94
289.986	79.94
290.217	86.94
290.448	94.94
290.679	90.94
290.91	96.94
291.141	74.94
291.371	83.94
291.602	95.94
291.833	90.94
292.064	92.94
292.295	88.94
292.526	92.94
292.757	86.94
292.987	78.94
293.218	81.94
293.449	87.94
293.68	104.94
293.91	99.94
294.141	94.94
294.372	90.94
294.603	94.94
294.833	90.94
295.064	94.94
295.295	93.94
295.525	98.94
295.756	94.94
295.987	105.94
296.217	113.94
296.448	107.94
296.679	98.94
296.909	84.94
297.14	102.94
297.37	107.94
297.601	94.94
297.831	80.94
298.062	91.94
298.292	92.94
298.523	89.94
298.753	86.94
298.984	90.94
299.214	95.94
299.445	92.94
299.675	88.94
299.905	98.94
300.136	96.94
300.366	90.94
300.597	92.94
300.827	92.94
301.057	90.94
301.288	92.94
301.518	93.94
301.748	80.94
301.979	89.94
302.209	89.94
302.439	104.94
302.669	89.94
302.9	85.94
303.13	91.94
303.36	107.94
303.59	96.94
303.82	87.94
304.051	79.94
304.281	87.94
304.511	85.94
304.741	80.94
304.971	90.94
305.201	79.94
305.431	82.94
305.661	94.94
305.891	104.94
306.121	94.94
306.352	93.94
306.582	98.94
306.812	88.94
307.042	85.94
307.272	86.94
307.502	101.94
307.731	87.94
307.961	88.94
308.191	96.94
308.421	88.94
308.651	85.94
308.881	95.94
309.111	87.94
309.341	96.94
309.571	100.94
309.8	88.94
310.03	81.94
310.26	99.94
310.49	91.94
310.72	108.94
310.949	89.94
311.179	93.94
311.409	91.94
311.639	98.94
311.868	78.94
312.098	85.94
312.328	99.94
312.557	109.94
312.787	111.94
313.017	88.94
313.246	81.94
313.476	99.94
313.706	86.94
313.935	98.94
314.165	91.94
314.394	112.94
314.624	100.94
314.853	88.94
315.083	97.94
315.312	89.94
315.542	84.94
315.771	90.94
316.001	95.94
316.23	92.94
316.46	99.94
316.689	91.94
316.919	89.94
317.148	103.94
317.377	80.94
317.607	84.94
317.836	92.94
318.065	91.94
318.295	98.94
318.524	88.94
318.753	95.94
318.983	91.94
319.212	97.94
319.441	90.94
319.67	94.94
319.9	90.94
320.129	81.94
320.358	83.94
320.587	99.94
320.816	74.94
321.046	94.94
321.275	85.94
321.504	86.94
321.733	90.94
321.962	85.94
322.191	83.94
322.42	110.94
322.649	94.94
322.878	95.94
323.108	109.94
323.337	103.94
323.566	114.94
323.795	137.94
324.024	175.94
324.253	279.94
324.482	556.94
324.71	1138.94
324.939	1495.94
325.168	568.94
325.397	186.94
325.626	131.94
325.855	116.94
326.084	108.94
326.313	116.94
326.542	127.94
326.77	176.94
326.999	334.94
327.228	683.94
327.457	1180.94
327.686	914.94
327.914	267.94
328.143	166.94
328.372	125.94
328.6	108.94
328.829	96.94
329.058	104.94
329.287	106.94
329.515	110.94
329.744	105.94
329.972	91.94
330.201	103.94
330.43	104.94
330.658	115.94
330.887	105.94
331.115	96.94
331.344	97.94
331.572	90.94
331.801	95.94
332.03	100.94
332.258	92.94
332.486	90.94
332.715	94.94
332.943	100.94
333.172	93.94
333.4	86.94
333.629	95.94
333.857	97.94
334.085	89.94
334.314	116.94
334.542	108.94
334.771	121.94
334.999	91.94
335.227	72.94
335.455	92.94
335.684	105.94
335.912	94.94
336.14	84.94
336.369	101.94
336.597	105.94
336.825	99.94
337.053	101.94
337.281	90.94
337.51	90.94
337.738	94.94
337.966	97.94
338.194	78.94
338.422	99.94
338.65	78.94
338.878	88.94
339.106	91.94
339.334	94.94
339.562	86.94
339.79	92.94
340.018	84.94
340.246	82.94
340.474	95.94
340.702	97.94
340.93	91.94
341.158	103.94
341.386	110.94
341.614	105.94
341.842	99.94
342.07	93.94
342.298	78.94
342.526	92.94
342.754	87.94
342.981	88.94
343.209	99.94
343.437	98.94
343.665	80.94
343.893	94.94
344.12	92.94
344.348	88.94
344.576	92.94
344.804	83.94
345.031	94.94
345.259	93.94
345.487	78.94
345.714	98.94
345.942	91.94
346.17	91.94
346.397	85.94
346.625	85.94
346.853	92.94
347.08	88.94
347.308	95.94
347.535	95.94
347.763	86.94
347.99	81.94
348.218	86.94
348.445	90.94
348.673	86.94
348.9	95.94
349.128	104.94
349.355	110.94
349.583	97.94
349.81	79.94
350.037	95.94
350.265	103.94
350.492	94.94
350.72	90.94
350.947	105.94
351.174	85.94
351.402	107.94
351.629	99.94
351.856	94.94
352.083	99.94
352.311	97.94
352.538	82.94
352.765	99.94
352.992	112.94
353.22	111.94
353.447	91.94
353.674	105.94
353.901	91.94
354.128	98.94
354.355	93.94
354.583	84.94
354.81	94.94
355.037	91.94
355.264	91.94
355.491	83.94
355.718	88.94
355.945	102.94
356.172	95.94
356.399	98.94
356.626	72.94
356.853	88.94
357.08	85.94
357.307	83.94
357.534	88.94
357.761	97.94
357.988	88.94
358.215	99.94
358.441	99.94
358.668	89.94
358.895	79.94
359.122	97.94
359.349	88.94
359.576	83.94
359.802	92.94
360.029	90.94
360.256	105.94
360.483	83.94
360.709	96.94
360.936	96.94
361.163	88.94
361.39	107.94
361.616	89.94
361.843	101.94
362.07	90.94
362.296	89.94
362.523	92.94
362.749	78.94
362.976	90.94
363.203	100.94
363.429	101.94
363.656	80.94
363.882	98.94
364.109	86.94
364.335	80.94
364.562	88.94
364.788	81.94
365.015	87.94
365.241	97.94
365.468	99.94
365.694	96.94
365.92	107.94
366.147	86.94
366.373	89.94
366.599	84.94
366.826	88.94
367.052	87.94
367.278	90.94
367.505	92.94
367.731	88.94
367.957	91.94
368.184	89.94
368.41	87.94
368.636	101.94
368.862	100.94
369.089	96.94
369.315	90.94
369.541	89.94
369.767	91.94
369.993	85.94
370.219	94.94
370.445	76.94
370.672	75.94
370.898	80.94
371.124	80.94
371.35	85.94
371.576	71.94
371.802	82.94
372.028	96.94
372.254	88.94
372.48	96.94
372.706	73.94
372.932	78.94
373.158	82.94
373.384	102.94
373.61	73.94
373.835	85.94
374.061	98.94
374.287	76.94
374.513	75.94
374.739	82.94
374.965	81.94
375.191	87.94
375.416	80.94
375.642	89.94
375.868	88.94
376.094	86.94
376.319	89.94
376.545	84.94
376.771	80.94
376.997	98.94
377.222	92.94
377.448	84.94
377.674	103.94
377.899	104.94
378.125	89.94
378.35	93.94
378.576	78.94
378.802	99.94
379.027	85.94
379.253	96.94
379.478	96.94
379.704	82.94
379.929	75.94
380.155	92.94
380.38	96.94
380.606	94.94
380.831	93.94
381.057	84.94
381.282	89.94
381.507	98.94
381.733	104.94
381.958	95.94
382.184	91.94
382.409	93.94
382.634	88.94
382.86	88.94
383.085	89.94
383.31	112.94
383.535	101.94
383.761	91.94
383.986	86.94
384.211	86.94
384.436	101.94
384.662	89.94
384.887	102.94
385.112	108.94
385.337	96.94
385.562	116.94
385.787	121.94
386.013	117.94
386.238	102.94
386.463	111.94
386.688	101.94
386.913	109.94
387.138	106.94
387.363	123.94
387.588	116.94
387.813	103.94
388.038	95.94
388.263	107.94
388.488	89.94
388.713	80.94
388.938	89.94
389.163	82.94
389.387	84.94
389.612	92.94
389.837	78.94
390.062	96.94
390.287	91.94
390.512	87.94
390.736	92.94
390.961	89.94
391.186	89.94
391.411	86.94
391.636	85.94
391.86	88.94
392.085	88.94
392.31	83.94
392.534	89.94
392.759	91.94
392.984	86.94
393.208	87.94
393.433	96.94
393.658	86.94
393.882	91.94
394.107	87.94
394.331	93.94
394.556	78.94
394.78	96.94
395.005	82.94
395.229	88.94
395.454	81.94
395.678	88.94
395.903	88.94
396.127	98.94
396.352	87.94
396.576	86.94
396.801	92.94
397.025	94.94
397.249	82.94
397.474	89.94
397.698	63.94
397.922	93.94
398.147	80.94
398.371	86.94
398.595	89.94
398.82	86.94
399.044	98.94
399.268	98.94
399.492	103.94
399.717	97.94
399.941	97.94
400.165	83.94
400.389	74.94
400.613	88.94
400.837	76.94
401.062	84.94
401.286	92.94
401.51	88.94
401.734	78.94
401.958	95.94
402.182	102.94
402.406	124.94
402.63	104.94
402.854	74.94
403.078	69.94
403.302	80.94
403.526	90.94
403.75	83.94
403.974	90.94
404.198	83.94
404.422	78.94
404.645	89.94
404.869	81.94
405.093	92.94
405.317	105.94
405.541	104.94
405.765	101.94
405.988	99.94
406.212	125.94
406.436	160.94
406.66	119.94
406.883	74.94
407.107	84.94
407.331	100.94
407.555	90.94
407.778	88.94
408.002	82.94
408.226	76.94
408.449	80.94
408.673	79.94
408.896	84.94
409.12	78.94
409.344	100.94
409.567	88.94
409.791	82.94
410.014	91.94
410.238	86.94
410.461	86.94
410.685	94.94
410.908	86.94
411.132	101.94
411.355	95.94
411.578	82.94
411.802	74.94
412.025	90.94
412.249	87.94
412.472	87.94
412.695	99.94
412.919	82.94
413.142	89.94
413.365	84.94
413.589	83.94
413.812	84.94
414.035	80.94
414.258	83.94
414.482	84.94
414.705	88.94
414.928	98.94
415.151	94.94
415.374	91.94
415.597	113.94
415.821	84.94
416.044	94.94
416.267	85.94
416.49	82.94
416.713	87.94
416.936	84.94
417.159	95.94
417.382	79.94
417.605	84.94
417.828	91.94
418.051	93.94
418.274	72.94
418.497	86.94
418.72	75.94
418.943	90.94
419.166	84.94
419.389	93.94
419.611	86.94
419.834	93.94
420.057	82.94
420.28	95.94
420.503	89.94
420.726	83.94
420.948	84.94
421.171	90.94
421.394	93.94
421.617	91.94
421.839	86.94
422.062	83.94
422.285	78.94
422.507	87.94
422.73	92.94
422.953	81.94
423.175	90.94
423.398	90.94
423.621	90.94
423.843	94.94
424.066	78.94
424.288	96.94
424.511	95.94
424.733	89.94
424.956	108.94
425.178	99.94
425.401	99.94
425.623	92.94
425.846	90.94
426.068	72.94
426.291	84.94
426.513	84.94
426.735	88.94
426.958	96.94
427.18	89.94
427.402	125.94
427.625	144.94
427.847	108.94
428.069	108.94
428.292	80.94
428.514	99.94
428.736	78.94
428.958	81.94
429.181	89.94
429.403	85.94
429.625	95.94
429.847	89.94
430.069	80.94
430.292	90.94
430.514	105.94
430.736	85.94
430.958	96.94
431.18	79.94
431.402	72.94
431.624	87.94
431.846	78.94
432.068	79.94
432.29	84.94
432.512	89.94
432.734	78.94
432.956	72.94
433.178	84.94
433.4	105.94
433.622	96.94
433.844	88.94
434.066	83.94
434.287	91.94
434.509	87.94
434.731	83.94
434.953	89.94
435.175	79.94
435.397	94.94
435.618	71.94
435.84	96.94
436.062	98.94
436.284	104.94
436.505	103.94
436.727	92.94
436.949	88.94
437.17	95.94
437.392	64.94
437.614	92.94
437.835	95.94
438.057	96.94
438.278	88.94
438.5	90.94
438.721	104.94
438.943	88.94
439.165	89.94
439.386	90.94
439.608	91.94
439.829	106.94
440.05	115.94
440.272	119.94
440.493	105.94
440.715	86.94
440.936	86.94
441.158	91.94
441.379	86.94
441.6	89.94
441.822	107.94
442.043	92.94
442.264	90.94
442.486	92.94
442.707	104.94
442.928	97.94
443.149	108.94
443.371	95.94
443.592	71.94
443.813	86.94
444.034	106.94
444.255	94.94
444.476	91.94
444.698	72.94
444.919	94.94
445.14	139.94
445.361	104.94
445.582	99.94
445.803	108.94
446.024	121.94
446.245	101.94
446.466	94.94
446.687	97.94
446.908	76.94
447.129	89.94
447.35	84.94
447.571	80.94
447.792	89.94
448.013	96.94
448.234	96.94
448.455	113.94
448.675	116.94
448.896	86.94
449.117	87.94
449.338	87.94
449.559	121.94
449.779	111.94
450	82.94
450.221	83.94
450.442	90.94
450.662	93.94
450.883	95.94
451.104	105.94
451.324	89.94
451.545	78.94
451.766	80.94
451.986	87.94
452.207	88.94
452.428	100.94
452.648	85.94
452.869	99.94
453.089	108.94
453.31	98.94
453.53	91.94
453.751	93.94
453.971	83.94
454.192	95.94
454.412	100.94
454.633	86.94
454.853	93.94
455.073	81.94
455.294	92.94
455.514	81.94
455.734	108.94
455.955	75.94
456.175	86.94
456.395	88.94
456.616	92.94
456.836	94.94
457.056	87.94
457.276	79.94
457.497	87.94
457.717	88.94
457.937	103.94
458.157	95.94
458.377	91.94
458.598	97.94
458.818	115.94
459.038	110.94
459.258	98.94
459.478	89.94
459.698	86.94
459.918	88.94
460.138	82.94
460.358	91.94
460.578	94.94
460.798	91.94
461.018	74.94
461.238	78.94
461.458	95.94
461.678	97.94
461.898	81.94
462.118	82.94
462.338	75.94
462.558	89.94
462.777	76.94
462.997	91.94
463.217	88.94
463.437	93.94
463.657	87.94
463.876	97.94
464.096	83.94
464.316	82.94
464.536	94.94
464.755	95.94
464.975	100.94
465.195	123.94
465.414	129.94
465.634	84.94
465.854	88.94
466.073	89.94
466.293	80.94
466.512	78.94
466.732	96.94
466.951	78.94
467.171	114.94
467.391	92.94
467.61	96.94
467.829	86.94
468.049	96.94
468.268	89.94
468.488	101.94
468.707	88.94
468.927	74.94
469.146	78.94
469.365	87.94
469.585	90.94
469.804	86.94
470.023	98.94
470.243	88.94
470.462	79.94
470.681	97.94
470.901	84.94
471.12	86.94
471.339	88.94
471.558	81.94
471.777	92.94
471.997	87.94
472.216	112.94
472.435	127.94
472.654	97.94
472.873	91.94
473.092	85.94
473.311	89.94
473.53	90.94
473.749	78.94
473.968	89.94
474.187	90.94
474.406	80.94
474.625	87.94
474.844	93.94
475.063	99.94
475.282	88.94
475.501	86.94
475.72	85.94
475.939	91.94
476.158	87.94
476.377	78.94
476.596	87.94
476.814	92.94
477.033	89.94
477.252	89.94
477.471	82.94
477.69	96.94
477.908	84.94
478.127	90.94
478.346	89.94
478.564	91.94
478.783	82.94
479.002	87.94
479.22	78.94
479.439	97.94
479.658	97.94
479.876	86.94
480.095	88.94
480.313	79.94
480.532	93.94
480.751	79.94
480.969	116.94
481.188	135.94
481.406	136.94
481.624	90.94
481.843	88.94
482.061	86.94
482.28	82.94
482.498	98.94
482.717	91.94
482.935	99.94
483.153	85.94
483.372	87.94
483.59	99.94
483.808	91.94
484.027	89.94
484.245	88.94
484.463	91.94
484.681	96.94
484.9	86.94
485.118	89.94
485.336	104.94
485.554	89.94
485.772	106.94
485.99	105.94
486.209	97.94
486.427	99.94
486.645	113.94
486.863	104.94
487.081	105.94
487.299	95.94
487.517	94.94
487.735	86.94
487.953	99.94
488.171	96.94
488.389	95.94
488.607	105.94
488.825	83.94
489.043	81.94
489.261	73.94
489.479	82.94
489.696	82.94
489.914	89.94
490.132	86.94
490.35	98.94
490.568	78.94
490.786	90.94
491.003	89.94
491.221	83.94
491.439	84.94
491.657	82.94
491.874	80.94
492.092	80.94
492.31	89.94
492.527	102.94
492.745	97.94
492.963	90.94
493.18	87.94
493.398	82.94
493.615	80.94
493.833	86.94
494.05	79.94
494.268	91.94
494.485	89.94
494.703	98.94
494.92	98.94
495.138	87.94
495.355	84.94
495.573	86.94
495.79	87.94
496.008	80.94
496.225	82.94
496.442	82.94
496.66	82.94
496.877	88.94
497.094	98.94
497.312	80.94
497.529	81.94
497.746	81.94
497.963	74.94
498.181	82.94
498.398	84.94
498.615	111.94
498.832	90.94
499.049	92.94
499.267	83.94
499.484	89.94
499.701	86.94
499.918	83.94
500.135	87.94
500.352	88.94
500.569	92.94
500.786	99.94
501.003	83.94
501.22	90.94
501.437	88.94
501.654	79.94
501.871	91.94
502.088	86.94
502.305	98.94
502.522	87.94
502.739	89.94
502.956	96.94
503.172	86.94
503.389	97.94
503.606	102.94
503.823	89.94
504.04	104.94
504.256	91.94
504.473	92.94
504.69	83.94
504.907	96.94
505.123	80.94
505.34	84.94
505.557	87.94
505.773	95.94
505.99	74.94
506.207	87.94
506.423	100.94
506.64	84.94
506.856	96.94
507.073	86.94
507.289	91.94
507.506	82.94
507.722	93.94
507.939	103.94
508.155	98.94
508.372	91.94
508.588	99.94
508.805	104.94
509.021	101.94
509.238	87.94
509.454	90.94
509.67	99.94
509.887	99.94
510.103	118.94
510.319	155.94
510.536	526.94
510.752	1528.94
510.968	438.94
511.184	119.94
511.401	86.94
511.617	92.94
511.833	82.94
512.049	93.94
512.265	86.94
512.481	73.94
512.698	80.94
512.914	88.94
513.13	97.94
513.346	91.94
513.562	102.94
513.778	90.94
513.994	88.94
514.21	88.94
514.426	100.94
514.642	124.94
514.858	112.94
515.074	130.94
515.29	311.94
515.506	897.94
515.721	334.94
515.937	122.94
516.153	97.94
516.369	73.94
516.585	80.94
516.801	90.94
517.016	90.94
517.232	87.94
517.448	89.94
517.664	86.94
517.879	88.94
518.095	104.94
518.311	82.94
518.527	91.94
518.742	86.94
518.958	89.94
519.173	101.94
519.389	92.94
519.605	92.94
519.82	99.94
520.036	111.94
520.251	113.94
520.467	104.94
520.682	89.94
520.898	83.94
521.113	102.94
521.329	110.94
521.544	154.94
521.76	362.94
521.975	1446.94
522.19	889.94
522.406	214.94
522.621	98.94
522.836	90.94
523.052	106.94
523.267	91.94
523.482	94.94
523.698	100.94
523.913	99.94
524.128	87.94
524.343	88.94
524.559	79.94
524.774	79.94
524.989	74.94
525.204	100.94
525.419	98.94
525.634	85.94
525.849	88.94
526.064	91.94
526.28	85.94
526.495	83.94
526.71	83.94
526.925	79.94
527.14	83.94
527.355	86.94
527.57	91.94
527.785	91.94
527.999	89.94
528.214	88.94
528.429	91.94
528.644	76.94
528.859	89.94
529.074	99.94
529.289	108.94
529.503	144.94
529.718	104.94
529.933	90.94
530.148	81.94
530.363	76.94
530.577	85.94
530.792	87.94
531.007	98.94
531.221	90.94
531.436	92.94
531.651	88.94
531.865	110.94
532.08	88.94
532.295	97.94
532.509	98.94
532.724	95.94
532.938	98.94
533.153	79.94
533.367	99.94
533.582	101.94
533.796	93.94
534.011	82.94
534.225	89.94
534.44	66.94
534.654	85.94
534.868	97.94
535.083	105.94
535.297	91.94
535.511	94.94
535.726	102.94
535.94	88.94
536.154	98.94
536.369	88.94
536.583	97.94
536.797	90.94
537.011	102.94
537.225	88.94
537.44	93.94
537.654	72.94
537.868	85.94
538.082	96.94
538.296	84.94
538.51	72.94
538.724	78.94
538.938	88.94
539.153	90.94
539.367	75.94
539.581	105.94
539.795	96.94
540.009	88.94
540.222	92.94
540.436	82.94
540.65	82.94
540.864	90.94
541.078	79.94
541.292	90.94
541.506	86.94
541.72	73.94
541.934	90.94
542.147	90.94
542.361	77.94
542.575	70.94
542.789	85.94
543.002	89.94
543.216	84.94
543.43	89.94
543.644	92.94
543.857	91.94
544.071	97.94
544.285	104.94
544.498	99.94
544.712	75.94
544.925	75.94
545.139	92.94
545.352	92.94
545.566	100.94
545.779	81.94
545.993	83.94
546.206	81.94
546.42	89.94
546.633	92.94
546.847	85.94
547.06	90.94
547.274	93.94
547.487	79.94
547.7	103.94
547.914	94.94
548.127	74.94
548.34	82.94
548.554	103.94
548.767	82.94
548.98	90.94
549.193	91.94
549.407	84.94
549.62	99.94
549.833	81.94
550.046	86.94
550.259	99.94
550.473	82.94
550.686	91.94
550.899	92.94
551.112	82.94
551.325	86.94
551.538	89.94
551.751	96.94
551.964	88.94
552.177	88.94
552.39	99.94
552.603	94.94
552.816	89.94
553.029	91.94
553.242	88.94
553.455	96.94
553.667	96.94
553.88	106.94
554.093	90.94
554.306	83.94
554.519	86.94
554.732	79.94
554.944	98.94
555.157	101.94
555.37	87.94
555.583	97.94
555.795	88.94
556.008	85.94
556.221	105.94
556.433	100.94
556.646	88.94
556.859	94.94
557.071	82.94
557.284	96.94
557.496	108.94
557.709	87.94
557.921	95.94
558.134	79.94
558.346	88.94
558.559	91.94
558.771	82.94
558.984	79.94
559.196	98.94
559.409	78.94
559.621	97.94
559.833	98.94
560.046	90.94
560.258	74.94
560.47	74.94
560.683	89.94
560.895	80.94
561.107	82.94
561.32	83.94
561.532	87.94
561.744	92.94
561.956	90.94
562.168	91.94
562.381	75.94
562.593	86.94
562.805	84.94
563.017	84.94
563.229	83.94
563.441	85.94
563.653	92.94
563.865	72.94
564.077	79.94
564.289	80.94
564.501	96.94
564.713	90.94
564.925	87.94
565.137	99.94
565.349	91.94
565.561	67.94
565.773	80.94
565.985	78.94
566.197	90.94
566.408	103.94
566.62	71.94
566.832	71.94
567.044	84.94
567.255	93.94
567.467	91.94
567.679	118.94
567.891	83.94
568.102	98.94
568.314	87.94
568.526	85.94
568.737	80.94
568.949	96.94
569.161	92.94
569.372	82.94
569.584	84.94
569.795	92.94
570.007	95.94
570.218	177.94
570.43	98.94
570.641	90.94
570.853	80.94
571.064	84.94
571.276	82.94
571.487	95.94
571.698	107.94
571.91	93.94
572.121	76.94
572.333	91.94
572.544	94.94
572.755	89.94
572.966	84.94
573.178	94.94
573.389	66.94
573.6	70.94
573.811	97.94
574.023	84.94
574.234	81.94
574.445	94.94
574.656	78.94
574.867	84.94
575.078	105.94
575.289	83.94
575.501	83.94
575.712	90.94
575.923	86.94
576.134	92.94
576.345	88.94
576.556	85.94
576.767	92.94
576.978	85.94
577.188	102.94
577.399	90.94
577.61	92.94
577.821	94.94
578.032	107.94
578.243	198.94
578.454	469.94
578.665	162.94
578.875	100.94
579.086	95.94
579.297	92.94
579.508	85.94
579.718	86.94
579.929	95.94
580.14	89.94
580.35	96.94
580.561	88.94
580.772	66.94
580.982	79.94
581.193	80.94
581.403	90.94
581.614	75.94
581.825	96.94
582.035	89.94
582.246	95.94
582.456	91.94
582.667	101.94
582.877	86.94
583.087	95.94
583.298	81.94
583.508	86.94
583.719	71.94
583.929	112.94
584.139	94.94
584.35	79.94
584.56	83.94
584.77	93.94
584.981	86.94
585.191	78.94
585.401	87.94
585.611	84.94
585.821	98.94
586.032	88.94
586.242	82.94
586.452	89.94
586.662	72.94
586.872	93.94
587.082	95.94
587.292	83.94
587.502	83.94
587.713	86.94
587.923	87.94
588.133	89.94
588.343	81.94
588.553	78.94
588.762	89.94
588.972	89.94
589.182	114.94
589.392	92.94
589.602	91.94
589.812	108.94
590.022	97.94
590.232	85.94
590.441	82.94
590.651	67.94
590.861	72.94
591.071	81.94
591.281	86.94
591.49	80.94
591.7	86.94
591.91	83.94
592.119	85.94
592.329	98.94
592.539	85.94
592.748	88.94
592.958	71.94
593.167	89.94
593.377	93.94
593.587	91.94
593.796	63.94
594.006	87.94
594.215	73.94
594.424	78.94
594.634	80.94
594.843	79.94
595.053	80.94
595.262	91.94
595.472	88.94
595.681	98.94
595.89	78.94
596.1	73.94
596.309	71.94
596.518	92.94
596.727	72.94
596.937	74.94
597.146	89.94
597.355	83.94
597.564	75.94
597.774	77.94
597.983	88.94
598.192	94.94
598.401	81.94
598.61	76.94
598.819	78.94
599.028	82.94
599.237	88.94
599.446	95.94
599.655	88.94
599.864	99.94
600.073	85.94
600.282	89.94
600.491	81.94
600.7	95.94
600.909	96.94
601.118	99.94
601.327	91.94
601.536	93.94
601.745	83.94
601.953	95.94
602.162	88.94
602.371	87.94
602.58	95.94
602.789	84.94
602.997	88.94
603.206	82.94
603.415	75.94
603.623	80.94
603.832	86.94
604.041	83.94
604.249	92.94
604.458	96.94
604.666	86.94
604.875	89.94
605.084	80.94
605.292	66.94
605.501	81.94
605.709	90.94
605.918	87.94
606.126	86.94
606.334	84.94
606.543	78.94
606.751	78.94
606.96	79.94
607.168	84.94
607.376	81.94
607.585	90.94
607.793	94.94
608.001	75.94
608.21	85.94
608.418	78.94
608.626	76.94
608.834	84.94
609.043	89.94
609.251	83.94
609.459	83.94
609.667	100.94
609.875	89.94
610.083	95.94
610.291	77.94
610.499	86.94
610.707	80.94
610.916	78.94
611.124	86.94
611.332	71.94
611.54	75.94
611.748	83.94
611.955	82.94
612.163	82.94
612.371	74.94
612.579	87.94
612.787	75.94
612.995	83.94
613.203	91.94
613.411	70.94
613.618	83.94
613.826	68.94
614.034	78.94
614.242	85.94
614.449	73.94
614.657	83.94
614.865	94.94
615.072	78.94
615.28	85.94
615.488	96.94
615.695	78.94
615.903	91.94
616.111	96.94
616.318	106.94
616.526	100.94
616.733	83.94
616.941	89.94
617.148	96.94
617.356	92.94
617.563	93.94
617.771	78.94
617.978	87.94
618.185	83.94
618.393	86.94
618.6	86.94
618.807	65.94
619.015	68.94
619.222	92.94
619.429	89.94
619.637	79.94
619.844	89.94
620.051	79.94
620.258	81.94
620.466	86.94
620.673	84.94
620.88	94.94
621.087	94.94
621.294	87.94
621.501	66.94
621.708	81.94
621.915	70.94
622.122	90.94
622.329	83.94
622.536	91.94
622.743	88.94
622.95	81.94
623.157	81.94
623.364	96.94
623.571	79.94
623.778	86.94
623.985	88.94
624.192	92.94
624.399	99.94
624.606	82.94
624.812	83.94
625.019	87.94
625.226	71.94
625.433	82.94
625.639	90.94
625.846	86.94
626.053	93.94
626.259	86.94
626.466	88.94
626.673	79.94
626.879	69.94
627.086	81.94
627.293	88.94
627.499	81.94
627.706	74.94
627.912	83.94
628.119	99.94
628.325	80.94
628.532	72.94
628.738	82.94
628.945	74.94
629.151	69.94
629.357	78.94
629.564	86.94
629.77	79.94
629.976	73.94
630.183	76.94
630.389	85.94
630.595	86.94
630.802	95.94
631.008	81.94
631.214	84.94
631.42	73.94
631.627	87.94
631.833	80.94
632.039	80.94
632.245	80.94
632.451	73.94
632.657	87.94
632.863	66.94
633.069	73.94
633.275	88.94
633.481	75.94
633.688	92.94
633.893	81.94
634.099	75.94
634.305	81.94
634.511	75.94
634.717	81.94
634.923	80.94
635.129	86.94
635.335	78.94
635.541	75.94
635.747	79.94
635.952	80.94
636.158	84.94
636.364	92.94
636.57	96.94
636.775	81.94
636.981	89.94
637.187	82.94
637.392	70.94
637.598	75.94
637.804	80.94
638.009	68.94
638.215	94.94
638.421	84.94
638.626	82.94
638.832	100.94
639.037	82.94
639.243	79.94
639.448	79.94
639.654	87.94
639.859	87.94
640.065	90.94
640.27	82.94
640.475	92.94
640.681	94.94
640.886	84.94
641.091	97.94
641.297	78.94
641.502	59.94
641.707	94.94
641.913	85.94
642.118	78.94
642.323	86.94
642.528	91.94
642.733	80.94
642.939	97.94
643.144	86.94
643.349	81.94
643.554	93.94
643.759	99.94
643.964	63.94
644.169	81.94
644.374	82.94
644.579	87.94
644.784	79.94
644.989	87.94
645.194	82.94
645.399	80.94
645.604	85.94
645.809	81.94
646.014	104.94
646.219	80.94
646.423	86.94
646.628	65.94
646.833	66.94
647.038	81.94
647.243	71.94
647.447	87.94
647.652	69.94
647.857	89.94
648.062	99.94
648.266	75.94
648.471	84.94
648.676	91.94
648.88	94.94
649.085	87.94
649.289	95.94
649.494	95.94
649.698	115.94
649.903	84.94
650.107	83.94
650.312	84.94
650.516	81.94
650.721	80.94
650.925	88.94
651.13	91.94
651.334	80.94
651.539	85.94
651.743	102.94
651.947	91.94
652.152	90.94
652.356	93.94
652.56	96.94
652.764	81.94
652.969	68.94
653.173	76.94
653.377	85.94
653.581	82.94
653.785	71.94
653.99	85.94
654.194	76.94
654.398	68.94
654.602	86.94
654.806	82.94
655.01	97.94
655.214	88.94
655.418	90.94
655.622	74.94
655.826	84.94
656.03	94.94
656.234	82.94
656.438	83.94
656.642	99.94
656.846	87.94
657.049	82.94
657.253	92.94
657.457	92.94
657.661	80.94
657.865	80.94
658.068	76.94
658.272	80.94
658.476	104.94
658.68	74.94
658.883	76.94
659.087	66.94
659.291	82.94
659.494	76.94
659.698	78.94
659.901	87.94
660.105	83.94
660.309	87.94
660.512	70.94
660.716	85.94
660.919	85.94
661.123	74.94
661.326	73.94
661.53	89.94
661.733	87.94
661.936	83.94
662.14	74.94
662.343	84.94
662.546	75.94
662.75	82.94
662.953	82.94
663.156	74.94
663.36	72.94
663.563	80.94
663.766	77.94
663.969	80.94
664.173	86.94
664.376	69.94
664.579	64.94
664.782	66.94
664.985	52.94
665.188	69.94
665.391	78.94
665.594	68.94
665.797	79.94
666	82.94
666.203	70.94
666.406	88.94
666.609	88.94
666.812	85.94
667.015	79.94
667.218	73.94
667.421	82.94
667.624	75.94
667.827	89.94
668.03	85.94
668.232	73.94
668.435	90.94
668.638	69.94
668.841	74.94
669.043	84.94
669.246	79.94
669.449	75.94
669.651	75.94
669.854	68.94
670.057	83.94
670.259	69.94
670.462	84.94
670.665	93.94
670.867	84.94
671.07	70.94
671.272	78.94
671.475	88.94
671.677	76.94
671.88	80.94
672.082	74.94
672.284	67.94
672.487	79.94
672.689	89.94
672.892	85.94
