Data from Circ_1982_H10_HRD10591_00013.txt Node
Date: Wed Jan 03 12:30:43 EST 2024
User: Yrep
Spectrometer: HR+D1059
Trigger mode: 1
Integration Time (sec): 1.000000E-1
Scans to average: 1
Electric dark correction enabled: true
Nonlinearity correction enabled: false
Boxcar width: 0
XAxis mode: Wavelengths
Number of Pixels in Spectrum: 2048
>>>>>Begin Spectral Data<<<<<
223.165	-4.56
223.4	-4.56
223.635	-4.56
223.869	-29.56
224.104	-19.56
224.338	-29.56
224.573	-16.56
224.808	-12.56
225.042	-9.56
225.277	-0.56
225.511	0.44
225.746	5.44
225.98	6.44
226.215	9.44
226.449	25.44
226.683	19.44
226.918	22.44
227.152	33.44
227.387	25.44
227.621	29.44
227.856	39.44
228.09	45.44
228.324	37.44
228.559	67.44
228.793	62.44
229.027	63.44
229.262	72.44
229.496	70.44
229.73	74.44
229.964	77.44
230.199	65.44
230.433	72.44
230.667	88.44
230.901	88.44
231.136	83.44
231.37	79.44
231.604	89.44
231.838	79.44
232.072	79.44
232.306	74.44
232.541	83.44
232.775	71.44
233.009	87.44
233.243	86.44
233.477	92.44
233.711	86.44
233.945	83.44
234.179	90.44
234.413	77.44
234.647	84.44
234.881	70.44
235.115	87.44
235.349	74.44
235.583	79.44
235.817	77.44
236.051	81.44
236.285	91.44
236.519	75.44
236.753	76.44
236.987	80.44
237.221	74.44
237.455	81.44
237.689	73.44
237.922	71.44
238.156	86.44
238.39	78.44
238.624	79.44
238.858	84.44
239.091	76.44
239.325	63.44
239.559	74.44
239.793	75.44
240.027	69.44
240.26	72.44
240.494	75.44
240.728	78.44
240.961	65.44
241.195	82.44
241.429	74.44
241.662	89.44
241.896	64.44
242.13	75.44
242.363	71.44
242.597	73.44
242.83	86.44
243.064	78.44
243.298	77.44
243.531	83.44
243.765	67.44
243.998	89.44
244.232	76.44
244.465	81.44
244.699	71.44
244.932	83.44
245.166	72.44
245.399	75.44
245.633	81.44
245.866	81.44
246.099	79.44
246.333	81.44
246.566	71.44
246.8	74.44
247.033	74.44
247.266	87.44
247.5	87.44
247.733	73.44
247.966	81.44
248.2	67.44
248.433	81.44
248.666	78.44
248.899	83.44
249.133	84.44
249.366	93.44
249.599	89.44
249.832	83.44
250.066	108.44
250.299	82.44
250.532	88.44
250.765	91.44
250.998	78.44
251.231	80.44
251.465	77.44
251.698	89.44
251.931	92.44
252.164	69.44
252.397	80.44
252.63	83.44
252.863	71.44
253.096	85.44
253.329	81.44
253.562	84.44
253.795	72.44
254.028	85.44
254.261	81.44
254.494	83.44
254.727	89.44
254.96	88.44
255.193	87.44
255.426	80.44
255.659	88.44
255.892	90.44
256.124	88.44
256.357	85.44
256.59	86.44
256.823	87.44
257.056	87.44
257.289	81.44
257.521	76.44
257.754	78.44
257.987	68.44
258.22	92.44
258.452	76.44
258.685	83.44
258.918	86.44
259.151	82.44
259.383	90.44
259.616	91.44
259.849	78.44
260.081	79.44
260.314	88.44
260.547	85.44
260.779	74.44
261.012	68.44
261.244	85.44
261.477	92.44
261.71	88.44
261.942	105.44
262.175	100.44
262.407	88.44
262.64	81.44
262.872	70.44
263.105	87.44
263.337	74.44
263.57	75.44
263.802	85.44
264.035	98.44
264.267	89.44
264.499	93.44
264.732	84.44
264.964	74.44
265.197	94.44
265.429	73.44
265.661	78.44
265.894	81.44
266.126	83.44
266.358	75.44
266.591	100.44
266.823	77.44
267.055	80.44
267.287	97.44
267.52	84.44
267.752	82.44
267.984	83.44
268.216	75.44
268.448	82.44
268.681	87.44
268.913	87.44
269.145	76.44
269.377	93.44
269.609	80.44
269.841	87.44
270.073	79.44
270.306	82.44
270.538	85.44
270.77	83.44
271.002	95.44
271.234	82.44
271.466	96.44
271.698	90.44
271.93	91.44
272.162	100.44
272.394	92.44
272.626	87.44
272.858	89.44
273.09	93.44
273.322	94.44
273.553	78.44
273.785	89.44
274.017	94.44
274.249	84.44
274.481	85.44
274.713	69.44
274.945	94.44
275.176	85.44
275.408	97.44
275.64	78.44
275.872	82.44
276.104	87.44
276.335	86.44
276.567	103.44
276.799	87.44
277.031	99.44
277.262	87.44
277.494	94.44
277.726	77.44
277.957	88.44
278.189	85.44
278.421	91.44
278.652	94.44
278.884	90.44
279.115	85.44
279.347	73.44
279.579	85.44
279.81	85.44
280.042	81.44
280.273	95.44
280.505	71.44
280.736	83.44
280.968	80.44
281.199	85.44
281.431	78.44
281.662	94.44
281.894	85.44
282.125	84.44
282.356	113.44
282.588	111.44
282.819	86.44
283.051	91.44
283.282	93.44
283.513	87.44
283.745	92.44
283.976	90.44
284.207	83.44
284.439	90.44
284.67	78.44
284.901	89.44
285.132	106.44
285.364	82.44
285.595	104.44
285.826	80.44
286.057	85.44
286.288	77.44
286.52	94.44
286.751	86.44
286.982	85.44
287.213	89.44
287.444	95.44
287.675	93.44
287.906	88.44
288.138	66.44
288.369	92.44
288.6	92.44
288.831	74.44
289.062	94.44
289.293	86.44
289.524	75.44
289.755	94.44
289.986	77.44
290.217	101.44
290.448	84.44
290.679	85.44
290.91	78.44
291.141	93.44
291.371	89.44
291.602	82.44
291.833	100.44
292.064	86.44
292.295	85.44
292.526	91.44
292.757	82.44
292.987	80.44
293.218	76.44
293.449	75.44
293.68	87.44
293.91	97.44
294.141	72.44
294.372	87.44
294.603	87.44
294.833	93.44
295.064	102.44
295.295	87.44
295.525	100.44
295.756	102.44
295.987	101.44
296.217	112.44
296.448	109.44
296.679	99.44
296.909	88.44
297.14	76.44
297.37	99.44
297.601	102.44
297.831	98.44
298.062	91.44
298.292	110.44
298.523	85.44
298.753	99.44
298.984	91.44
299.214	95.44
299.445	96.44
299.675	92.44
299.905	93.44
300.136	91.44
300.366	83.44
300.597	108.44
300.827	93.44
301.057	105.44
301.288	103.44
301.518	88.44
301.748	99.44
301.979	107.44
302.209	92.44
302.439	94.44
302.669	93.44
302.9	80.44
303.13	69.44
303.36	97.44
303.59	107.44
303.82	90.44
304.051	85.44
304.281	81.44
304.511	94.44
304.741	99.44
304.971	95.44
305.201	103.44
305.431	90.44
305.661	88.44
305.891	93.44
306.121	89.44
306.352	107.44
306.582	97.44
306.812	96.44
307.042	114.44
307.272	99.44
307.502	103.44
307.731	101.44
307.961	78.44
308.191	81.44
308.421	83.44
308.651	103.44
308.881	86.44
309.111	103.44
309.341	106.44
309.571	92.44
309.8	93.44
310.03	102.44
310.26	98.44
310.49	98.44
310.72	99.44
310.949	87.44
311.179	107.44
311.409	103.44
311.639	102.44
311.868	82.44
312.098	89.44
312.328	86.44
312.557	89.44
312.787	95.44
313.017	100.44
313.246	87.44
313.476	103.44
313.706	105.44
313.935	90.44
314.165	91.44
314.394	97.44
314.624	99.44
314.853	107.44
315.083	93.44
315.312	92.44
315.542	96.44
315.771	87.44
316.001	91.44
316.23	98.44
316.46	89.44
316.689	97.44
316.919	90.44
317.148	87.44
317.377	89.44
317.607	94.44
317.836	82.44
318.065	95.44
318.295	86.44
318.524	93.44
318.753	104.44
318.983	96.44
319.212	96.44
319.441	95.44
319.67	109.44
319.9	84.44
320.129	98.44
320.358	98.44
320.587	90.44
320.816	78.44
321.046	110.44
321.275	91.44
321.504	97.44
321.733	99.44
321.962	92.44
322.191	109.44
322.42	89.44
322.649	100.44
322.878	109.44
323.108	106.44
323.337	112.44
323.566	112.44
323.795	131.44
324.024	166.44
324.253	277.44
324.482	549.44
324.71	1076.44
324.939	1349.44
325.168	530.44
325.397	187.44
325.626	111.44
325.855	108.44
326.084	98.44
326.313	114.44
326.542	123.44
326.77	173.44
326.999	323.44
327.228	641.44
327.457	1125.44
327.686	894.44
327.914	266.44
328.143	151.44
328.372	121.44
328.6	98.44
328.829	102.44
329.058	110.44
329.287	123.44
329.515	109.44
329.744	98.44
329.972	103.44
330.201	103.44
330.43	107.44
330.658	117.44
330.887	117.44
331.115	110.44
331.344	103.44
331.572	100.44
331.801	105.44
332.03	83.44
332.258	85.44
332.486	88.44
332.715	93.44
332.943	109.44
333.172	82.44
333.4	95.44
333.629	100.44
333.857	108.44
334.085	90.44
334.314	106.44
334.542	108.44
334.771	110.44
334.999	101.44
335.227	94.44
335.455	105.44
335.684	106.44
335.912	93.44
336.14	94.44
336.369	102.44
336.597	101.44
336.825	83.44
337.053	100.44
337.281	95.44
337.51	93.44
337.738	99.44
337.966	98.44
338.194	97.44
338.422	88.44
338.65	98.44
338.878	85.44
339.106	85.44
339.334	89.44
339.562	86.44
339.79	91.44
340.018	85.44
340.246	83.44
340.474	79.44
340.702	91.44
340.93	85.44
341.158	95.44
341.386	98.44
341.614	95.44
341.842	109.44
342.07	90.44
342.298	92.44
342.526	92.44
342.754	94.44
342.981	90.44
343.209	89.44
343.437	91.44
343.665	84.44
343.893	103.44
344.12	97.44
344.348	87.44
344.576	106.44
344.804	96.44
345.031	102.44
345.259	104.44
345.487	85.44
345.714	105.44
345.942	89.44
346.17	96.44
346.397	90.44
346.625	90.44
346.853	97.44
347.08	96.44
347.308	103.44
347.535	105.44
347.763	102.44
347.99	93.44
348.218	95.44
348.445	87.44
348.673	96.44
348.9	94.44
349.128	89.44
349.355	98.44
349.583	93.44
349.81	93.44
350.037	90.44
350.265	104.44
350.492	87.44
350.72	100.44
350.947	81.44
351.174	96.44
351.402	106.44
351.629	97.44
351.856	91.44
352.083	92.44
352.311	100.44
352.538	101.44
352.765	105.44
352.992	91.44
353.22	102.44
353.447	92.44
353.674	108.44
353.901	82.44
354.128	110.44
354.355	95.44
354.583	100.44
354.81	103.44
355.037	89.44
355.264	94.44
355.491	102.44
355.718	89.44
355.945	78.44
356.172	91.44
356.399	89.44
356.626	89.44
356.853	99.44
357.08	83.44
357.307	95.44
357.534	89.44
357.761	99.44
357.988	107.44
358.215	107.44
358.441	93.44
358.668	95.44
358.895	102.44
359.122	89.44
359.349	85.44
359.576	88.44
359.802	114.44
360.029	101.44
360.256	92.44
360.483	100.44
360.709	100.44
360.936	86.44
361.163	85.44
361.39	88.44
361.616	97.44
361.843	94.44
362.07	84.44
362.296	100.44
362.523	93.44
362.749	90.44
362.976	94.44
363.203	85.44
363.429	95.44
363.656	94.44
363.882	83.44
364.109	83.44
364.335	94.44
364.562	94.44
364.788	77.44
365.015	81.44
365.241	95.44
365.468	99.44
365.694	95.44
365.92	104.44
366.147	86.44
366.373	91.44
366.599	86.44
366.826	90.44
367.052	85.44
367.278	89.44
367.505	86.44
367.731	83.44
367.957	92.44
368.184	89.44
368.41	95.44
368.636	97.44
368.862	105.44
369.089	103.44
369.315	86.44
369.541	87.44
369.767	101.44
369.993	89.44
370.219	87.44
370.445	92.44
370.672	94.44
370.898	83.44
371.124	92.44
371.35	89.44
371.576	75.44
371.802	87.44
372.028	87.44
372.254	95.44
372.48	94.44
372.706	83.44
372.932	91.44
373.158	90.44
373.384	98.44
373.61	103.44
373.835	100.44
374.061	100.44
374.287	93.44
374.513	87.44
374.739	77.44
374.965	85.44
375.191	98.44
375.416	87.44
375.642	105.44
375.868	89.44
376.094	97.44
376.319	79.44
376.545	85.44
376.771	100.44
376.997	92.44
377.222	97.44
377.448	96.44
377.674	86.44
377.899	87.44
378.125	108.44
378.35	92.44
378.576	90.44
378.802	78.44
379.027	95.44
379.253	88.44
379.478	89.44
379.704	89.44
379.929	104.44
380.155	112.44
380.38	100.44
380.606	91.44
380.831	85.44
381.057	113.44
381.282	95.44
381.507	91.44
381.733	102.44
381.958	90.44
382.184	98.44
382.409	110.44
382.634	97.44
382.86	90.44
383.085	98.44
383.31	115.44
383.535	112.44
383.761	119.44
383.986	95.44
384.211	93.44
384.436	103.44
384.662	119.44
384.887	100.44
385.112	109.44
385.337	103.44
385.562	122.44
385.787	109.44
386.013	108.44
386.238	123.44
386.463	107.44
386.688	108.44
386.913	110.44
387.138	112.44
387.363	114.44
387.588	102.44
387.813	99.44
388.038	115.44
388.263	126.44
388.488	119.44
388.713	106.44
388.938	96.44
389.163	101.44
389.387	105.44
389.612	94.44
389.837	94.44
390.062	99.44
390.287	90.44
390.512	90.44
390.736	95.44
390.961	85.44
391.186	97.44
391.411	96.44
391.636	106.44
391.86	91.44
392.085	84.44
392.31	90.44
392.534	93.44
392.759	81.44
392.984	78.44
393.208	95.44
393.433	99.44
393.658	78.44
393.882	80.44
394.107	97.44
394.331	101.44
394.556	85.44
394.78	81.44
395.005	89.44
395.229	97.44
395.454	89.44
395.678	85.44
395.903	75.44
396.127	90.44
396.352	85.44
396.576	82.44
396.801	85.44
397.025	82.44
397.249	90.44
397.474	97.44
397.698	85.44
397.922	94.44
398.147	100.44
398.371	77.44
398.595	93.44
398.82	93.44
399.044	93.44
399.268	92.44
399.492	99.44
399.717	88.44
399.941	91.44
400.165	101.44
400.389	67.44
400.613	81.44
400.837	85.44
401.062	87.44
401.286	88.44
401.51	89.44
401.734	85.44
401.958	117.44
402.182	103.44
402.406	120.44
402.63	106.44
402.854	91.44
403.078	77.44
403.302	92.44
403.526	98.44
403.75	99.44
403.974	82.44
404.198	89.44
404.422	77.44
404.645	93.44
404.869	86.44
405.093	91.44
405.317	91.44
405.541	93.44
405.765	92.44
405.988	109.44
406.212	134.44
406.436	157.44
406.66	121.44
406.883	83.44
407.107	89.44
407.331	98.44
407.555	88.44
407.778	99.44
408.002	76.44
408.226	95.44
408.449	86.44
408.673	97.44
408.896	92.44
409.12	90.44
409.344	97.44
409.567	89.44
409.791	89.44
410.014	90.44
410.238	92.44
410.461	103.44
410.685	103.44
410.908	99.44
411.132	100.44
411.355	101.44
411.578	105.44
411.802	97.44
412.025	85.44
412.249	83.44
412.472	93.44
412.695	91.44
412.919	80.44
413.142	85.44
413.365	68.44
413.589	88.44
413.812	94.44
414.035	81.44
414.258	106.44
414.482	78.44
414.705	81.44
414.928	97.44
415.151	95.44
415.374	98.44
415.597	98.44
415.821	92.44
416.044	93.44
416.267	86.44
416.49	82.44
416.713	81.44
416.936	81.44
417.159	93.44
417.382	90.44
417.605	85.44
417.828	97.44
418.051	90.44
418.274	89.44
418.497	78.44
418.72	97.44
418.943	92.44
419.166	83.44
419.389	95.44
419.611	88.44
419.834	82.44
420.057	93.44
420.28	116.44
420.503	87.44
420.726	75.44
420.948	89.44
421.171	94.44
421.394	86.44
421.617	87.44
421.839	95.44
422.062	74.44
422.285	97.44
422.507	87.44
422.73	79.44
422.953	100.44
423.175	88.44
423.398	94.44
423.621	102.44
423.843	86.44
424.066	72.44
424.288	94.44
424.511	85.44
424.733	91.44
424.956	89.44
425.178	104.44
425.401	99.44
425.623	98.44
425.846	85.44
426.068	79.44
426.291	76.44
426.513	90.44
426.735	89.44
426.958	84.44
427.18	111.44
427.402	101.44
427.625	126.44
427.847	132.44
428.069	108.44
428.292	84.44
428.514	79.44
428.736	81.44
428.958	83.44
429.181	103.44
429.403	103.44
429.625	87.44
429.847	85.44
430.069	73.44
430.292	86.44
430.514	97.44
430.736	83.44
430.958	92.44
431.18	78.44
431.402	83.44
431.624	97.44
431.846	97.44
432.068	88.44
432.29	85.44
432.512	77.44
432.734	78.44
432.956	84.44
433.178	93.44
433.4	98.44
433.622	100.44
433.844	102.44
434.066	97.44
434.287	87.44
434.509	84.44
434.731	89.44
434.953	87.44
435.175	91.44
435.397	102.44
435.618	94.44
435.84	83.44
436.062	108.44
436.284	103.44
436.505	92.44
436.727	87.44
436.949	88.44
437.17	83.44
437.392	83.44
437.614	99.44
437.835	106.44
438.057	101.44
438.278	107.44
438.5	103.44
438.721	87.44
438.943	96.44
439.165	103.44
439.386	93.44
439.608	95.44
439.829	79.44
440.05	106.44
440.272	122.44
440.493	93.44
440.715	98.44
440.936	72.44
441.158	99.44
441.379	76.44
441.6	90.44
441.822	92.44
442.043	95.44
442.264	100.44
442.486	113.44
442.707	101.44
442.928	95.44
443.149	107.44
443.371	111.44
443.592	109.44
443.813	99.44
444.034	89.44
444.255	96.44
444.476	97.44
444.698	94.44
444.919	79.44
445.14	138.44
445.361	105.44
445.582	100.44
445.803	120.44
446.024	118.44
446.245	115.44
446.466	104.44
446.687	87.44
446.908	82.44
447.129	93.44
447.35	93.44
447.571	97.44
447.792	81.44
448.013	76.44
448.234	87.44
448.455	89.44
448.675	93.44
448.896	98.44
449.117	96.44
449.338	101.44
449.559	120.44
449.779	117.44
450	89.44
450.221	91.44
450.442	94.44
450.662	89.44
450.883	103.44
451.104	110.44
451.324	97.44
451.545	77.44
451.766	83.44
451.986	83.44
452.207	94.44
452.428	104.44
452.648	93.44
452.869	87.44
453.089	95.44
453.31	94.44
453.53	77.44
453.751	96.44
453.971	89.44
454.192	92.44
454.412	87.44
454.633	100.44
454.853	75.44
455.073	79.44
455.294	75.44
455.514	88.44
455.734	103.44
455.955	70.44
456.175	86.44
456.395	92.44
456.616	103.44
456.836	89.44
457.056	76.44
457.276	77.44
457.497	75.44
457.717	90.44
457.937	97.44
458.157	78.44
458.377	89.44
458.598	88.44
458.818	112.44
459.038	143.44
459.258	108.44
459.478	92.44
459.698	87.44
459.918	87.44
460.138	94.44
460.358	92.44
460.578	98.44
460.798	85.44
461.018	78.44
461.238	89.44
461.458	80.44
461.678	83.44
461.898	97.44
462.118	78.44
462.338	82.44
462.558	88.44
462.777	80.44
462.997	85.44
463.217	93.44
463.437	77.44
463.657	86.44
463.876	83.44
464.096	89.44
464.316	98.44
464.536	106.44
464.755	86.44
464.975	89.44
465.195	126.44
465.414	123.44
465.634	104.44
465.854	95.44
466.073	98.44
466.293	71.44
466.512	81.44
466.732	82.44
466.951	93.44
467.171	92.44
467.391	98.44
467.61	91.44
467.829	99.44
468.049	90.44
468.268	91.44
468.488	101.44
468.707	97.44
468.927	74.44
469.146	93.44
469.365	86.44
469.585	83.44
469.804	89.44
470.023	89.44
470.243	90.44
470.462	86.44
470.681	83.44
470.901	89.44
471.12	92.44
471.339	84.44
471.558	97.44
471.777	77.44
471.997	78.44
472.216	107.44
472.435	117.44
472.654	73.44
472.873	75.44
473.092	91.44
473.311	81.44
473.53	79.44
473.749	88.44
473.968	92.44
474.187	88.44
474.406	83.44
474.625	91.44
474.844	94.44
475.063	83.44
475.282	94.44
475.501	85.44
475.72	85.44
475.939	92.44
476.158	95.44
476.377	86.44
476.596	81.44
476.814	81.44
477.033	92.44
477.252	91.44
477.471	83.44
477.69	85.44
477.908	97.44
478.127	78.44
478.346	83.44
478.564	91.44
478.783	86.44
479.002	87.44
479.22	103.44
479.439	105.44
479.658	99.44
479.876	90.44
480.095	87.44
480.313	90.44
480.532	83.44
480.751	83.44
480.969	105.44
481.188	149.44
481.406	123.44
481.624	98.44
481.843	109.44
482.061	100.44
482.28	110.44
482.498	101.44
482.717	73.44
482.935	95.44
483.153	92.44
483.372	80.44
483.59	85.44
483.808	102.44
484.027	87.44
484.245	82.44
484.463	87.44
484.681	83.44
484.9	92.44
485.118	95.44
485.336	100.44
485.554	97.44
485.772	97.44
485.99	103.44
486.209	107.44
486.427	106.44
486.645	85.44
486.863	110.44
487.081	115.44
487.299	101.44
487.517	97.44
487.735	99.44
487.953	68.44
488.171	94.44
488.389	90.44
488.607	89.44
488.825	91.44
489.043	90.44
489.261	94.44
489.479	94.44
489.696	98.44
489.914	80.44
490.132	98.44
490.35	95.44
490.568	94.44
490.786	91.44
491.003	98.44
491.221	87.44
491.439	77.44
491.657	85.44
491.874	94.44
492.092	77.44
492.31	95.44
492.527	77.44
492.745	82.44
492.963	96.44
493.18	71.44
493.398	101.44
493.615	89.44
493.833	95.44
494.05	77.44
494.268	99.44
494.485	85.44
494.703	92.44
494.92	98.44
495.138	95.44
495.355	81.44
495.573	103.44
495.79	87.44
496.008	96.44
496.225	90.44
496.442	89.44
496.66	89.44
496.877	87.44
497.094	89.44
497.312	74.44
497.529	89.44
497.746	99.44
497.963	89.44
498.181	87.44
498.398	100.44
498.615	112.44
498.832	100.44
499.049	106.44
499.267	87.44
499.484	85.44
499.701	93.44
499.918	75.44
500.135	96.44
500.352	82.44
500.569	90.44
500.786	91.44
501.003	109.44
501.22	91.44
501.437	97.44
501.654	94.44
501.871	97.44
502.088	87.44
502.305	83.44
502.522	90.44
502.739	91.44
502.956	86.44
503.172	86.44
503.389	92.44
503.606	97.44
503.823	92.44
504.04	101.44
504.256	81.44
504.473	77.44
504.69	90.44
504.907	99.44
505.123	97.44
505.34	86.44
505.557	90.44
505.773	93.44
505.99	81.44
506.207	79.44
506.423	91.44
506.64	92.44
506.856	96.44
507.073	92.44
507.289	98.44
507.506	98.44
507.722	103.44
507.939	92.44
508.155	101.44
508.372	77.44
508.588	92.44
508.805	97.44
509.021	102.44
509.238	107.44
509.454	99.44
509.67	90.44
509.887	109.44
510.103	114.44
510.319	146.44
510.536	508.44
510.752	1381.44
510.968	398.44
511.184	118.44
511.401	91.44
511.617	93.44
511.833	93.44
512.049	87.44
512.265	85.44
512.481	101.44
512.698	106.44
512.914	78.44
513.13	90.44
513.346	93.44
513.562	81.44
513.778	99.44
513.994	105.44
514.21	102.44
514.426	112.44
514.642	97.44
514.858	104.44
515.074	116.44
515.29	294.44
515.506	831.44
515.721	309.44
515.937	132.44
516.153	102.44
516.369	89.44
516.585	85.44
516.801	93.44
517.016	104.44
517.232	98.44
517.448	79.44
517.664	88.44
517.879	83.44
518.095	97.44
518.311	91.44
518.527	102.44
518.742	94.44
518.958	71.44
519.173	89.44
519.389	71.44
519.605	92.44
519.82	103.44
520.036	93.44
520.251	85.44
520.467	98.44
520.682	103.44
520.898	93.44
521.113	109.44
521.329	120.44
521.544	133.44
521.76	339.44
521.975	1333.44
522.19	801.44
522.406	201.44
522.621	102.44
522.836	105.44
523.052	105.44
523.267	81.44
523.482	88.44
523.698	108.44
523.913	99.44
524.128	108.44
524.343	95.44
524.559	89.44
524.774	88.44
524.989	95.44
525.204	85.44
525.419	93.44
525.634	69.44
525.849	103.44
526.064	85.44
526.28	76.44
526.495	93.44
526.71	93.44
526.925	92.44
527.14	103.44
527.355	97.44
527.57	91.44
527.785	88.44
527.999	86.44
528.214	84.44
528.429	94.44
528.644	102.44
528.859	103.44
529.074	84.44
529.289	85.44
529.503	128.44
529.718	102.44
529.933	88.44
530.148	88.44
530.363	99.44
530.577	92.44
530.792	97.44
531.007	89.44
531.221	98.44
531.436	89.44
531.651	89.44
531.865	88.44
532.08	84.44
532.295	93.44
532.509	81.44
532.724	89.44
532.938	89.44
533.153	90.44
533.367	98.44
533.582	94.44
533.796	92.44
534.011	105.44
534.225	83.44
534.44	89.44
534.654	89.44
534.868	83.44
535.083	96.44
535.297	81.44
535.511	93.44
535.726	86.44
535.94	91.44
536.154	92.44
536.369	93.44
536.583	89.44
536.797	99.44
537.011	87.44
537.225	83.44
537.44	83.44
537.654	85.44
537.868	89.44
538.082	90.44
538.296	102.44
538.51	86.44
538.724	105.44
538.938	91.44
539.153	92.44
539.367	107.44
539.581	94.44
539.795	73.44
540.009	86.44
540.222	91.44
540.436	107.44
540.65	94.44
540.864	91.44
541.078	91.44
541.292	93.44
541.506	90.44
541.72	100.44
541.934	78.44
542.147	82.44
542.361	90.44
542.575	98.44
542.789	85.44
543.002	83.44
543.216	103.44
543.43	96.44
543.644	79.44
543.857	85.44
544.071	83.44
544.285	99.44
544.498	88.44
544.712	98.44
544.925	98.44
545.139	92.44
545.352	102.44
545.566	77.44
545.779	87.44
545.993	90.44
546.206	100.44
546.42	106.44
546.633	94.44
546.847	99.44
547.06	93.44
547.274	86.44
547.487	81.44
547.7	77.44
547.914	81.44
548.127	97.44
548.34	94.44
548.554	91.44
548.767	66.44
548.98	97.44
549.193	95.44
549.407	80.44
549.62	87.44
549.833	86.44
550.046	88.44
550.259	81.44
550.473	88.44
550.686	89.44
550.899	81.44
551.112	85.44
551.325	86.44
551.538	96.44
551.751	85.44
551.964	104.44
552.177	95.44
552.39	79.44
552.603	81.44
552.816	100.44
553.029	83.44
553.242	86.44
553.455	91.44
553.667	97.44
553.88	97.44
554.093	95.44
554.306	97.44
554.519	108.44
554.732	91.44
554.944	86.44
555.157	98.44
555.37	76.44
555.583	102.44
555.795	99.44
556.008	85.44
556.221	105.44
556.433	89.44
556.646	96.44
556.859	86.44
557.071	90.44
557.284	89.44
557.496	87.44
557.709	93.44
557.921	93.44
558.134	83.44
558.346	97.44
558.559	89.44
558.771	83.44
558.984	77.44
559.196	86.44
559.409	90.44
559.621	74.44
559.833	76.44
560.046	97.44
560.258	81.44
560.47	93.44
560.683	94.44
560.895	89.44
561.107	83.44
561.32	95.44
561.532	97.44
561.744	87.44
561.956	75.44
562.168	85.44
562.381	87.44
562.593	106.44
562.805	85.44
563.017	96.44
563.229	116.44
563.441	91.44
563.653	89.44
563.865	90.44
564.077	84.44
564.289	76.44
564.501	88.44
564.713	82.44
564.925	94.44
565.137	84.44
565.349	90.44
565.561	91.44
565.773	92.44
565.985	97.44
566.197	81.44
566.408	92.44
566.62	70.44
566.832	78.44
567.044	86.44
567.255	75.44
567.467	77.44
567.679	85.44
567.891	87.44
568.102	83.44
568.314	91.44
568.526	85.44
568.737	94.44
568.949	104.44
569.161	91.44
569.372	81.44
569.584	83.44
569.795	97.44
570.007	102.44
570.218	175.44
570.43	119.44
570.641	92.44
570.853	97.44
571.064	86.44
571.276	77.44
571.487	78.44
571.698	78.44
571.91	83.44
572.121	84.44
572.333	80.44
572.544	85.44
572.755	82.44
572.966	90.44
573.178	81.44
573.389	93.44
573.6	82.44
573.811	94.44
574.023	75.44
574.234	81.44
574.445	75.44
574.656	89.44
574.867	94.44
575.078	78.44
575.289	85.44
575.501	87.44
575.712	92.44
575.923	87.44
576.134	104.44
576.345	105.44
576.556	89.44
576.767	90.44
576.978	84.44
577.188	89.44
577.399	92.44
577.61	89.44
577.821	91.44
578.032	112.44
578.243	191.44
578.454	445.44
578.665	160.44
578.875	87.44
579.086	93.44
579.297	95.44
579.508	81.44
579.718	86.44
579.929	106.44
580.14	97.44
580.35	86.44
580.561	84.44
580.772	81.44
580.982	97.44
581.193	89.44
581.403	88.44
581.614	99.44
581.825	77.44
582.035	75.44
582.246	82.44
582.456	102.44
582.667	81.44
582.877	92.44
583.087	110.44
583.298	93.44
583.508	87.44
583.719	78.44
583.929	92.44
584.139	91.44
584.35	82.44
584.56	91.44
584.77	79.44
584.981	87.44
585.191	95.44
585.401	87.44
585.611	92.44
585.821	77.44
586.032	89.44
586.242	91.44
586.452	86.44
586.662	98.44
586.872	93.44
587.082	88.44
587.292	83.44
587.502	93.44
587.713	98.44
587.923	98.44
588.133	91.44
588.343	95.44
588.553	78.44
588.762	92.44
588.972	103.44
589.182	150.44
589.392	117.44
589.602	90.44
589.812	97.44
590.022	99.44
590.232	91.44
590.441	85.44
590.651	84.44
590.861	95.44
591.071	78.44
591.281	86.44
591.49	91.44
591.7	83.44
591.91	83.44
592.119	97.44
592.329	96.44
592.539	93.44
592.748	85.44
592.958	88.44
593.167	99.44
593.377	95.44
593.587	102.44
593.796	89.44
594.006	84.44
594.215	88.44
594.424	93.44
594.634	90.44
594.843	90.44
595.053	74.44
595.262	98.44
595.472	91.44
595.681	87.44
595.89	91.44
596.1	97.44
596.309	89.44
596.518	93.44
596.727	94.44
596.937	99.44
597.146	90.44
597.355	89.44
597.564	93.44
597.774	69.44
597.983	93.44
598.192	86.44
598.401	92.44
598.61	79.44
598.819	84.44
599.028	92.44
599.237	86.44
599.446	93.44
599.655	86.44
599.864	98.44
600.073	81.44
600.282	102.44
600.491	92.44
600.7	94.44
600.909	92.44
601.118	102.44
601.327	84.44
601.536	99.44
601.745	90.44
601.953	89.44
602.162	68.44
602.371	84.44
602.58	83.44
602.789	90.44
602.997	87.44
603.206	83.44
603.415	92.44
603.623	86.44
603.832	78.44
604.041	87.44
604.249	77.44
604.458	97.44
604.666	68.44
604.875	84.44
605.084	106.44
605.292	98.44
605.501	89.44
605.709	89.44
605.918	102.44
606.126	91.44
606.334	85.44
606.543	101.44
606.751	85.44
606.96	93.44
607.168	88.44
607.376	81.44
607.585	86.44
607.793	92.44
608.001	97.44
608.21	83.44
608.418	78.44
608.626	85.44
608.834	74.44
609.043	85.44
609.251	87.44
609.459	87.44
609.667	87.44
609.875	71.44
610.083	78.44
610.291	77.44
610.499	71.44
610.707	87.44
610.916	100.44
611.124	81.44
611.332	88.44
611.54	95.44
611.748	98.44
611.955	61.44
612.163	93.44
612.371	85.44
612.579	83.44
612.787	93.44
612.995	94.44
613.203	97.44
613.411	81.44
613.618	92.44
613.826	93.44
614.034	83.44
614.242	94.44
614.449	83.44
614.657	91.44
614.865	86.44
615.072	98.44
615.28	85.44
615.488	85.44
615.695	96.44
615.903	103.44
616.111	90.44
616.318	95.44
616.526	96.44
616.733	106.44
616.941	83.44
617.148	109.44
617.356	85.44
617.563	83.44
617.771	81.44
617.978	86.44
618.185	101.44
618.393	91.44
618.6	81.44
618.807	87.44
619.015	90.44
619.222	69.44
619.429	81.44
619.637	91.44
619.844	91.44
620.051	96.44
620.258	87.44
620.466	91.44
620.673	90.44
620.88	83.44
621.087	90.44
621.294	88.44
621.501	108.44
621.708	83.44
621.915	83.44
622.122	96.44
622.329	97.44
622.536	87.44
622.743	77.44
622.95	101.44
623.157	91.44
623.364	87.44
623.571	77.44
623.778	84.44
623.985	91.44
624.192	88.44
624.399	90.44
624.606	93.44
624.812	85.44
625.019	76.44
625.226	83.44
625.433	89.44
625.639	93.44
625.846	90.44
626.053	96.44
626.259	82.44
626.466	81.44
626.673	85.44
626.879	82.44
627.086	87.44
627.293	88.44
627.499	82.44
627.706	86.44
627.912	90.44
628.119	90.44
628.325	91.44
628.532	104.44
628.738	91.44
628.945	82.44
629.151	83.44
629.357	98.44
629.564	83.44
629.77	101.44
629.976	93.44
630.183	93.44
630.389	93.44
630.595	84.44
630.802	94.44
631.008	87.44
631.214	105.44
631.42	94.44
631.627	82.44
631.833	78.44
632.039	92.44
632.245	85.44
632.451	82.44
632.657	77.44
632.863	92.44
633.069	91.44
633.275	84.44
633.481	83.44
633.688	100.44
633.893	83.44
634.099	87.44
634.305	91.44
634.511	90.44
634.717	84.44
634.923	83.44
635.129	105.44
635.335	82.44
635.541	84.44
635.747	90.44
635.952	91.44
636.158	83.44
636.364	84.44
636.57	89.44
636.775	90.44
636.981	81.44
637.187	101.44
637.392	92.44
637.598	93.44
637.804	73.44
638.009	72.44
638.215	81.44
638.421	75.44
638.626	91.44
638.832	87.44
639.037	79.44
639.243	83.44
639.448	84.44
639.654	90.44
639.859	96.44
640.065	90.44
640.27	78.44
640.475	83.44
640.681	89.44
640.886	81.44
641.091	84.44
641.297	109.44
641.502	89.44
641.707	70.44
641.913	90.44
642.118	81.44
642.323	95.44
642.528	98.44
642.733	81.44
642.939	75.44
643.144	85.44
643.349	98.44
643.554	81.44
643.759	91.44
643.964	75.44
644.169	100.44
644.374	70.44
644.579	88.44
644.784	99.44
644.989	96.44
645.194	87.44
645.399	100.44
645.604	89.44
645.809	98.44
646.014	83.44
646.219	78.44
646.423	91.44
646.628	83.44
646.833	84.44
647.038	88.44
647.243	83.44
647.447	91.44
647.652	76.44
647.857	115.44
648.062	95.44
648.266	98.44
648.471	74.44
648.676	97.44
648.88	86.44
649.085	81.44
649.289	85.44
649.494	102.44
649.698	123.44
649.903	95.44
650.107	98.44
650.312	92.44
650.516	90.44
650.721	106.44
650.925	85.44
651.13	86.44
651.334	83.44
651.539	79.44
651.743	84.44
651.947	69.44
652.152	76.44
652.356	86.44
652.56	74.44
652.764	90.44
652.969	89.44
653.173	79.44
653.377	93.44
653.581	76.44
653.785	79.44
653.99	88.44
654.194	81.44
654.398	75.44
654.602	81.44
654.806	91.44
655.01	98.44
655.214	85.44
655.418	94.44
655.622	82.44
655.826	100.44
656.03	92.44
656.234	95.44
656.438	95.44
656.642	96.44
656.846	94.44
657.049	99.44
657.253	81.44
657.457	90.44
657.661	84.44
657.865	79.44
658.068	73.44
658.272	94.44
658.476	91.44
658.68	77.44
658.883	84.44
659.087	88.44
659.291	87.44
659.494	84.44
659.698	88.44
659.901	96.44
660.105	76.44
660.309	78.44
660.512	83.44
660.716	81.44
660.919	76.44
661.123	97.44
661.326	82.44
661.53	65.44
661.733	90.44
661.936	85.44
662.14	77.44
662.343	83.44
662.546	77.44
662.75	91.44
662.953	83.44
663.156	83.44
663.36	90.44
663.563	74.44
663.766	73.44
663.969	89.44
664.173	79.44
664.376	83.44
664.579	76.44
664.782	76.44
664.985	89.44
665.188	76.44
665.391	77.44
665.594	78.44
665.797	88.44
666	78.44
666.203	73.44
666.406	74.44
666.609	78.44
666.812	86.44
667.015	97.44
667.218	86.44
667.421	81.44
667.624	81.44
667.827	89.44
668.03	80.44
668.232	81.44
668.435	88.44
668.638	84.44
668.841	90.44
669.043	67.44
669.246	79.44
669.449	88.44
669.651	92.44
669.854	98.44
670.057	94.44
670.259	61.44
670.462	80.44
670.665	86.44
670.867	84.44
671.07	76.44
671.272	85.44
671.475	85.44
671.677	73.44
671.88	85.44
672.082	82.44
672.284	97.44
672.487	70.44
672.689	91.44
672.892	92.44
