Data from Circ_1982_H10_HRD10591_00058.txt Node
Date: Wed Jan 03 12:30:52 EST 2024
User: Yrep
Spectrometer: HR+D1059
Trigger mode: 1
Integration Time (sec): 1.000000E-1
Scans to average: 1
Electric dark correction enabled: true
Nonlinearity correction enabled: false
Boxcar width: 0
XAxis mode: Wavelengths
Number of Pixels in Spectrum: 2048
>>>>>Begin Spectral Data<<<<<
223.165	-12.81
223.4	-12.81
223.635	-12.81
223.869	-22.81
224.104	-30.81
224.338	-21.81
224.573	-6.81
224.808	-15.81
225.042	-5.81
225.277	-11.81
225.511	-9.81
225.746	5.19
225.98	14.19
226.215	16.19
226.449	26.19
226.683	27.19
226.918	16.19
227.152	33.19
227.387	22.19
227.621	37.19
227.856	45.19
228.09	45.19
228.324	62.19
228.559	59.19
228.793	67.19
229.027	60.19
229.262	78.19
229.496	73.19
229.73	75.19
229.964	81.19
230.199	90.19
230.433	84.19
230.667	75.19
230.901	71.19
231.136	89.19
231.37	84.19
231.604	78.19
231.838	82.19
232.072	88.19
232.306	67.19
232.541	98.19
232.775	91.19
233.009	92.19
233.243	88.19
233.477	77.19
233.711	83.19
233.945	73.19
234.179	77.19
234.413	81.19
234.647	87.19
234.881	79.19
235.115	87.19
235.349	75.19
235.583	75.19
235.817	76.19
236.051	71.19
236.285	76.19
236.519	89.19
236.753	83.19
236.987	77.19
237.221	81.19
237.455	72.19
237.689	87.19
237.922	86.19
238.156	85.19
238.39	61.19
238.624	75.19
238.858	77.19
239.091	92.19
239.325	72.19
239.559	83.19
239.793	72.19
240.027	81.19
240.26	73.19
240.494	84.19
240.728	80.19
240.961	85.19
241.195	84.19
241.429	85.19
241.662	77.19
241.896	92.19
242.13	77.19
242.363	81.19
242.597	83.19
242.83	80.19
243.064	71.19
243.298	81.19
243.531	84.19
243.765	96.19
243.998	87.19
244.232	88.19
244.465	94.19
244.699	85.19
244.932	67.19
245.166	82.19
245.399	77.19
245.633	72.19
245.866	77.19
246.099	84.19
246.333	68.19
246.566	92.19
246.8	87.19
247.033	77.19
247.266	80.19
247.5	95.19
247.733	70.19
247.966	85.19
248.2	90.19
248.433	97.19
248.666	91.19
248.899	90.19
249.133	87.19
249.366	91.19
249.599	91.19
249.832	79.19
250.066	91.19
250.299	79.19
250.532	83.19
250.765	68.19
250.998	65.19
251.231	80.19
251.465	89.19
251.698	79.19
251.931	69.19
252.164	81.19
252.397	70.19
252.63	87.19
252.863	83.19
253.096	89.19
253.329	85.19
253.562	68.19
253.795	77.19
254.028	83.19
254.261	75.19
254.494	76.19
254.727	88.19
254.96	79.19
255.193	79.19
255.426	95.19
255.659	94.19
255.892	85.19
256.124	70.19
256.357	83.19
256.59	80.19
256.823	77.19
257.056	81.19
257.289	80.19
257.521	86.19
257.754	80.19
257.987	89.19
258.22	83.19
258.452	82.19
258.685	88.19
258.918	91.19
259.151	75.19
259.383	91.19
259.616	89.19
259.849	85.19
260.081	73.19
260.314	87.19
260.547	83.19
260.779	80.19
261.012	68.19
261.244	99.19
261.477	95.19
261.71	89.19
261.942	99.19
262.175	88.19
262.407	75.19
262.64	97.19
262.872	81.19
263.105	90.19
263.337	87.19
263.57	83.19
263.802	76.19
264.035	89.19
264.267	81.19
264.499	87.19
264.732	87.19
264.964	91.19
265.197	87.19
265.429	76.19
265.661	96.19
265.894	81.19
266.126	79.19
266.358	79.19
266.591	90.19
266.823	96.19
267.055	79.19
267.287	78.19
267.52	81.19
267.752	90.19
267.984	87.19
268.216	91.19
268.448	94.19
268.681	80.19
268.913	92.19
269.145	95.19
269.377	91.19
269.609	84.19
269.841	96.19
270.073	98.19
270.306	85.19
270.538	85.19
270.77	88.19
271.002	85.19
271.234	88.19
271.466	104.19
271.698	109.19
271.93	83.19
272.162	89.19
272.394	104.19
272.626	92.19
272.858	96.19
273.09	84.19
273.322	78.19
273.553	88.19
273.785	103.19
274.017	93.19
274.249	96.19
274.481	98.19
274.713	80.19
274.945	85.19
275.176	73.19
275.408	95.19
275.64	95.19
275.872	85.19
276.104	111.19
276.335	77.19
276.567	91.19
276.799	112.19
277.031	104.19
277.262	87.19
277.494	95.19
277.726	92.19
277.957	100.19
278.189	95.19
278.421	89.19
278.652	95.19
278.884	93.19
279.115	84.19
279.347	83.19
279.579	98.19
279.81	79.19
280.042	94.19
280.273	95.19
280.505	80.19
280.736	76.19
280.968	76.19
281.199	91.19
281.431	72.19
281.662	83.19
281.894	92.19
282.125	96.19
282.356	105.19
282.588	119.19
282.819	102.19
283.051	91.19
283.282	85.19
283.513	90.19
283.745	80.19
283.976	83.19
284.207	93.19
284.439	92.19
284.67	90.19
284.901	95.19
285.132	90.19
285.364	98.19
285.595	101.19
285.826	93.19
286.057	93.19
286.288	80.19
286.52	88.19
286.751	89.19
286.982	96.19
287.213	86.19
287.444	76.19
287.675	99.19
287.906	93.19
288.138	87.19
288.369	99.19
288.6	99.19
288.831	103.19
289.062	79.19
289.293	94.19
289.524	99.19
289.755	84.19
289.986	94.19
290.217	86.19
290.448	86.19
290.679	70.19
290.91	76.19
291.141	86.19
291.371	85.19
291.602	92.19
291.833	88.19
292.064	87.19
292.295	91.19
292.526	87.19
292.757	92.19
292.987	100.19
293.218	81.19
293.449	79.19
293.68	80.19
293.91	87.19
294.141	85.19
294.372	99.19
294.603	93.19
294.833	87.19
295.064	97.19
295.295	80.19
295.525	99.19
295.756	101.19
295.987	91.19
296.217	120.19
296.448	99.19
296.679	102.19
296.909	85.19
297.14	91.19
297.37	94.19
297.601	73.19
297.831	85.19
298.062	99.19
298.292	95.19
298.523	99.19
298.753	86.19
298.984	86.19
299.214	86.19
299.445	81.19
299.675	81.19
299.905	103.19
300.136	89.19
300.366	100.19
300.597	101.19
300.827	85.19
301.057	101.19
301.288	104.19
301.518	93.19
301.748	91.19
301.979	109.19
302.209	88.19
302.439	91.19
302.669	90.19
302.9	87.19
303.13	83.19
303.36	91.19
303.59	92.19
303.82	104.19
304.051	87.19
304.281	99.19
304.511	88.19
304.741	93.19
304.971	101.19
305.201	93.19
305.431	84.19
305.661	88.19
305.891	79.19
306.121	77.19
306.352	114.19
306.582	104.19
306.812	88.19
307.042	92.19
307.272	92.19
307.502	93.19
307.731	103.19
307.961	83.19
308.191	86.19
308.421	93.19
308.651	93.19
308.881	96.19
309.111	106.19
309.341	81.19
309.571	89.19
309.8	106.19
310.03	82.19
310.26	93.19
310.49	103.19
310.72	85.19
310.949	112.19
311.179	89.19
311.409	91.19
311.639	99.19
311.868	94.19
312.098	92.19
312.328	101.19
312.557	99.19
312.787	103.19
313.017	101.19
313.246	105.19
313.476	108.19
313.706	92.19
313.935	105.19
314.165	100.19
314.394	88.19
314.624	102.19
314.853	112.19
315.083	85.19
315.312	106.19
315.542	91.19
315.771	91.19
316.001	88.19
316.23	84.19
316.46	85.19
316.689	85.19
316.919	103.19
317.148	91.19
317.377	112.19
317.607	96.19
317.836	94.19
318.065	95.19
318.295	97.19
318.524	88.19
318.753	97.19
318.983	100.19
319.212	97.19
319.441	107.19
319.67	88.19
319.9	83.19
320.129	85.19
320.358	93.19
320.587	112.19
320.816	101.19
321.046	100.19
321.275	87.19
321.504	101.19
321.733	92.19
321.962	104.19
322.191	99.19
322.42	101.19
322.649	118.19
322.878	115.19
323.108	109.19
323.337	104.19
323.566	111.19
323.795	129.19
324.024	166.19
324.253	291.19
324.482	576.19
324.71	1177.19
324.939	1501.19
325.168	577.19
325.397	204.19
325.626	130.19
325.855	125.19
326.084	117.19
326.313	116.19
326.542	120.19
326.77	197.19
326.999	344.19
327.228	677.19
327.457	1206.19
327.686	987.19
327.914	276.19
328.143	147.19
328.372	127.19
328.6	116.19
328.829	107.19
329.058	96.19
329.287	126.19
329.515	117.19
329.744	118.19
329.972	98.19
330.201	107.19
330.43	103.19
330.658	112.19
330.887	110.19
331.115	112.19
331.344	107.19
331.572	93.19
331.801	89.19
332.03	108.19
332.258	105.19
332.486	99.19
332.715	89.19
332.943	84.19
333.172	100.19
333.4	90.19
333.629	104.19
333.857	112.19
334.085	110.19
334.314	103.19
334.542	113.19
334.771	106.19
334.999	97.19
335.227	94.19
335.455	104.19
335.684	110.19
335.912	99.19
336.14	95.19
336.369	115.19
336.597	87.19
336.825	102.19
337.053	88.19
337.281	97.19
337.51	95.19
337.738	102.19
337.966	92.19
338.194	96.19
338.422	97.19
338.65	81.19
338.878	121.19
339.106	93.19
339.334	90.19
339.562	106.19
339.79	86.19
340.018	83.19
340.246	103.19
340.474	95.19
340.702	94.19
340.93	89.19
341.158	99.19
341.386	98.19
341.614	93.19
341.842	91.19
342.07	88.19
342.298	82.19
342.526	79.19
342.754	91.19
342.981	89.19
343.209	91.19
343.437	95.19
343.665	89.19
343.893	96.19
344.12	92.19
344.348	97.19
344.576	91.19
344.804	94.19
345.031	79.19
345.259	93.19
345.487	103.19
345.714	82.19
345.942	96.19
346.17	93.19
346.397	89.19
346.625	89.19
346.853	91.19
347.08	112.19
347.308	97.19
347.535	103.19
347.763	106.19
347.99	93.19
348.218	100.19
348.445	93.19
348.673	112.19
348.9	96.19
349.128	98.19
349.355	89.19
349.583	95.19
349.81	96.19
350.037	92.19
350.265	92.19
350.492	99.19
350.72	93.19
350.947	84.19
351.174	104.19
351.402	114.19
351.629	94.19
351.856	100.19
352.083	107.19
352.311	94.19
352.538	99.19
352.765	113.19
352.992	115.19
353.22	114.19
353.447	111.19
353.674	100.19
353.901	109.19
354.128	107.19
354.355	100.19
354.583	95.19
354.81	101.19
355.037	83.19
355.264	116.19
355.491	101.19
355.718	94.19
355.945	89.19
356.172	123.19
356.399	99.19
356.626	112.19
356.853	110.19
357.08	97.19
357.307	87.19
357.534	96.19
357.761	98.19
357.988	88.19
358.215	98.19
358.441	103.19
358.668	81.19
358.895	95.19
359.122	89.19
359.349	103.19
359.576	92.19
359.802	100.19
360.029	94.19
360.256	95.19
360.483	97.19
360.709	83.19
360.936	91.19
361.163	89.19
361.39	96.19
361.616	87.19
361.843	91.19
362.07	86.19
362.296	92.19
362.523	101.19
362.749	94.19
362.976	113.19
363.203	99.19
363.429	97.19
363.656	93.19
363.882	91.19
364.109	94.19
364.335	94.19
364.562	88.19
364.788	89.19
365.015	99.19
365.241	96.19
365.468	105.19
365.694	95.19
365.92	96.19
366.147	101.19
366.373	102.19
366.599	85.19
366.826	85.19
367.052	96.19
367.278	91.19
367.505	88.19
367.731	103.19
367.957	95.19
368.184	100.19
368.41	106.19
368.636	105.19
368.862	100.19
369.089	115.19
369.315	100.19
369.541	103.19
369.767	92.19
369.993	86.19
370.219	95.19
370.445	93.19
370.672	87.19
370.898	91.19
371.124	85.19
371.35	91.19
371.576	97.19
371.802	87.19
372.028	103.19
372.254	83.19
372.48	84.19
372.706	78.19
372.932	85.19
373.158	83.19
373.384	94.19
373.61	88.19
373.835	87.19
374.061	92.19
374.287	95.19
374.513	92.19
374.739	84.19
374.965	97.19
375.191	103.19
375.416	89.19
375.642	97.19
375.868	91.19
376.094	93.19
376.319	101.19
376.545	96.19
376.771	90.19
376.997	93.19
377.222	90.19
377.448	87.19
377.674	83.19
377.899	96.19
378.125	89.19
378.35	84.19
378.576	86.19
378.802	92.19
379.027	95.19
379.253	99.19
379.478	83.19
379.704	81.19
379.929	89.19
380.155	108.19
380.38	95.19
380.606	96.19
380.831	104.19
381.057	104.19
381.282	107.19
381.507	103.19
381.733	81.19
381.958	89.19
382.184	83.19
382.409	94.19
382.634	92.19
382.86	106.19
383.085	100.19
383.31	117.19
383.535	120.19
383.761	100.19
383.986	95.19
384.211	99.19
384.436	107.19
384.662	86.19
384.887	98.19
385.112	101.19
385.337	108.19
385.562	102.19
385.787	104.19
386.013	100.19
386.238	103.19
386.463	92.19
386.688	94.19
386.913	86.19
387.138	105.19
387.363	112.19
387.588	104.19
387.813	93.19
388.038	91.19
388.263	111.19
388.488	112.19
388.713	102.19
388.938	111.19
389.163	105.19
389.387	108.19
389.612	99.19
389.837	83.19
390.062	91.19
390.287	90.19
390.512	96.19
390.736	108.19
390.961	95.19
391.186	89.19
391.411	111.19
391.636	101.19
391.86	77.19
392.085	84.19
392.31	85.19
392.534	88.19
392.759	84.19
392.984	86.19
393.208	93.19
393.433	83.19
393.658	109.19
393.882	83.19
394.107	81.19
394.331	93.19
394.556	93.19
394.78	97.19
395.005	76.19
395.229	98.19
395.454	85.19
395.678	106.19
395.903	86.19
396.127	83.19
396.352	106.19
396.576	75.19
396.801	88.19
397.025	93.19
397.249	95.19
397.474	77.19
397.698	91.19
397.922	92.19
398.147	85.19
398.371	87.19
398.595	92.19
398.82	94.19
399.044	79.19
399.268	78.19
399.492	96.19
399.717	85.19
399.941	85.19
400.165	105.19
400.389	78.19
400.613	99.19
400.837	86.19
401.062	78.19
401.286	78.19
401.51	79.19
401.734	87.19
401.958	101.19
402.182	96.19
402.406	126.19
402.63	111.19
402.854	109.19
403.078	102.19
403.302	89.19
403.526	72.19
403.75	89.19
403.974	93.19
404.198	86.19
404.422	91.19
404.645	84.19
404.869	71.19
405.093	92.19
405.317	95.19
405.541	86.19
405.765	107.19
405.988	107.19
406.212	134.19
406.436	163.19
406.66	123.19
406.883	89.19
407.107	78.19
407.331	100.19
407.555	94.19
407.778	99.19
408.002	95.19
408.226	93.19
408.449	93.19
408.673	90.19
408.896	104.19
409.12	103.19
409.344	104.19
409.567	101.19
409.791	85.19
410.014	99.19
410.238	94.19
410.461	93.19
410.685	88.19
410.908	96.19
411.132	109.19
411.355	113.19
411.578	101.19
411.802	86.19
412.025	87.19
412.249	91.19
412.472	106.19
412.695	105.19
412.919	93.19
413.142	85.19
413.365	99.19
413.589	94.19
413.812	78.19
414.035	88.19
414.258	85.19
414.482	96.19
414.705	77.19
414.928	79.19
415.151	108.19
415.374	86.19
415.597	110.19
415.821	85.19
416.044	80.19
416.267	99.19
416.49	95.19
416.713	95.19
416.936	81.19
417.159	88.19
417.382	90.19
417.605	105.19
417.828	94.19
418.051	94.19
418.274	95.19
418.497	93.19
418.72	104.19
418.943	98.19
419.166	88.19
419.389	102.19
419.611	86.19
419.834	89.19
420.057	91.19
420.28	91.19
420.503	80.19
420.726	77.19
420.948	96.19
421.171	88.19
421.394	81.19
421.617	68.19
421.839	95.19
422.062	101.19
422.285	100.19
422.507	96.19
422.73	102.19
422.953	95.19
423.175	97.19
423.398	89.19
423.621	88.19
423.843	80.19
424.066	65.19
424.288	92.19
424.511	89.19
424.733	99.19
424.956	92.19
425.178	89.19
425.401	112.19
425.623	83.19
425.846	92.19
426.068	85.19
426.291	101.19
426.513	94.19
426.735	87.19
426.958	110.19
427.18	116.19
427.402	127.19
427.625	125.19
427.847	130.19
428.069	114.19
428.292	88.19
428.514	85.19
428.736	84.19
428.958	92.19
429.181	83.19
429.403	87.19
429.625	87.19
429.847	85.19
430.069	81.19
430.292	104.19
430.514	74.19
430.736	71.19
430.958	84.19
431.18	90.19
431.402	87.19
431.624	95.19
431.846	95.19
432.068	93.19
432.29	79.19
432.512	95.19
432.734	92.19
432.956	96.19
433.178	97.19
433.4	103.19
433.622	100.19
433.844	92.19
434.066	92.19
434.287	87.19
434.509	91.19
434.731	86.19
434.953	89.19
435.175	92.19
435.397	103.19
435.618	105.19
435.84	105.19
436.062	113.19
436.284	114.19
436.505	87.19
436.727	89.19
436.949	89.19
437.17	77.19
437.392	97.19
437.614	84.19
437.835	107.19
438.057	100.19
438.278	109.19
438.5	111.19
438.721	107.19
438.943	98.19
439.165	91.19
439.386	86.19
439.608	106.19
439.829	97.19
440.05	118.19
440.272	121.19
440.493	106.19
440.715	80.19
440.936	84.19
441.158	89.19
441.379	85.19
441.6	87.19
441.822	84.19
442.043	78.19
442.264	117.19
442.486	104.19
442.707	85.19
442.928	98.19
443.149	110.19
443.371	105.19
443.592	103.19
443.813	107.19
444.034	94.19
444.255	104.19
444.476	100.19
444.698	92.19
444.919	84.19
445.14	129.19
445.361	113.19
445.582	105.19
445.803	121.19
446.024	107.19
446.245	111.19
446.466	108.19
446.687	90.19
446.908	81.19
447.129	74.19
447.35	89.19
447.571	89.19
447.792	101.19
448.013	97.19
448.234	91.19
448.455	94.19
448.675	102.19
448.896	112.19
449.117	83.19
449.338	87.19
449.559	126.19
449.779	116.19
450	88.19
450.221	95.19
450.442	95.19
450.662	92.19
450.883	110.19
451.104	112.19
451.324	88.19
451.545	78.19
451.766	91.19
451.986	91.19
452.207	89.19
452.428	91.19
452.648	91.19
452.869	104.19
453.089	102.19
453.31	105.19
453.53	80.19
453.751	97.19
453.971	103.19
454.192	101.19
454.412	96.19
454.633	93.19
454.853	93.19
455.073	89.19
455.294	90.19
455.514	84.19
455.734	86.19
455.955	89.19
456.175	101.19
456.395	91.19
456.616	92.19
456.836	90.19
457.056	99.19
457.276	96.19
457.497	93.19
457.717	86.19
457.937	88.19
458.157	92.19
458.377	95.19
458.598	94.19
458.818	134.19
459.038	131.19
459.258	102.19
459.478	94.19
459.698	84.19
459.918	79.19
460.138	80.19
460.358	98.19
460.578	91.19
460.798	91.19
461.018	79.19
461.238	84.19
461.458	99.19
461.678	100.19
461.898	93.19
462.118	94.19
462.338	88.19
462.558	93.19
462.777	79.19
462.997	81.19
463.217	93.19
463.437	85.19
463.657	97.19
463.876	94.19
464.096	79.19
464.316	92.19
464.536	102.19
464.755	91.19
464.975	110.19
465.195	136.19
465.414	124.19
465.634	83.19
465.854	97.19
466.073	72.19
466.293	79.19
466.512	87.19
466.732	81.19
466.951	89.19
467.171	91.19
467.391	94.19
467.61	104.19
467.829	94.19
468.049	87.19
468.268	94.19
468.488	86.19
468.707	79.19
468.927	85.19
469.146	96.19
469.365	72.19
469.585	97.19
469.804	87.19
470.023	87.19
470.243	84.19
470.462	91.19
470.681	113.19
470.901	93.19
471.12	88.19
471.339	92.19
471.558	97.19
471.777	103.19
471.997	81.19
472.216	107.19
472.435	121.19
472.654	97.19
472.873	98.19
473.092	79.19
473.311	92.19
473.53	90.19
473.749	81.19
473.968	97.19
474.187	103.19
474.406	93.19
474.625	85.19
474.844	108.19
475.063	83.19
475.282	83.19
475.501	92.19
475.72	97.19
475.939	90.19
476.158	89.19
476.377	81.19
476.596	101.19
476.814	99.19
477.033	103.19
477.252	90.19
477.471	89.19
477.69	108.19
477.908	80.19
478.127	89.19
478.346	86.19
478.564	85.19
478.783	98.19
479.002	95.19
479.22	94.19
479.439	91.19
479.658	96.19
479.876	78.19
480.095	97.19
480.313	92.19
480.532	95.19
480.751	83.19
480.969	108.19
481.188	161.19
481.406	125.19
481.624	85.19
481.843	90.19
482.061	87.19
482.28	84.19
482.498	101.19
482.717	105.19
482.935	96.19
483.153	70.19
483.372	91.19
483.59	101.19
483.808	92.19
484.027	83.19
484.245	109.19
484.463	98.19
484.681	91.19
484.9	93.19
485.118	107.19
485.336	100.19
485.554	101.19
485.772	112.19
485.99	104.19
486.209	102.19
486.427	98.19
486.645	105.19
486.863	119.19
487.081	93.19
487.299	89.19
487.517	104.19
487.735	91.19
487.953	91.19
488.171	101.19
488.389	97.19
488.607	88.19
488.825	94.19
489.043	76.19
489.261	88.19
489.479	87.19
489.696	88.19
489.914	82.19
490.132	100.19
490.35	88.19
490.568	90.19
490.786	93.19
491.003	86.19
491.221	88.19
491.439	87.19
491.657	105.19
491.874	92.19
492.092	95.19
492.31	87.19
492.527	89.19
492.745	88.19
492.963	99.19
493.18	81.19
493.398	96.19
493.615	90.19
493.833	91.19
494.05	80.19
494.268	79.19
494.485	95.19
494.703	97.19
494.92	96.19
495.138	97.19
495.355	88.19
495.573	87.19
495.79	91.19
496.008	95.19
496.225	104.19
496.442	76.19
496.66	99.19
496.877	105.19
497.094	93.19
497.312	84.19
497.529	100.19
497.746	79.19
497.963	87.19
498.181	90.19
498.398	101.19
498.615	105.19
498.832	99.19
499.049	101.19
499.267	93.19
499.484	83.19
499.701	90.19
499.918	95.19
500.135	76.19
500.352	91.19
500.569	93.19
500.786	95.19
501.003	83.19
501.22	87.19
501.437	84.19
501.654	92.19
501.871	95.19
502.088	84.19
502.305	90.19
502.522	111.19
502.739	88.19
502.956	88.19
503.172	93.19
503.389	89.19
503.606	92.19
503.823	106.19
504.04	103.19
504.256	106.19
504.473	102.19
504.69	88.19
504.907	90.19
505.123	85.19
505.34	94.19
505.557	99.19
505.773	92.19
505.99	93.19
506.207	99.19
506.423	87.19
506.64	89.19
506.856	80.19
507.073	70.19
507.289	94.19
507.506	99.19
507.722	91.19
507.939	82.19
508.155	90.19
508.372	94.19
508.588	94.19
508.805	80.19
509.021	81.19
509.238	91.19
509.454	73.19
509.67	97.19
509.887	111.19
510.103	113.19
510.319	164.19
510.536	517.19
510.752	1488.19
510.968	451.19
511.184	143.19
511.401	102.19
511.617	87.19
511.833	74.19
512.049	87.19
512.265	87.19
512.481	86.19
512.698	96.19
512.914	92.19
513.13	89.19
513.346	92.19
513.562	95.19
513.778	98.19
513.994	86.19
514.21	95.19
514.426	104.19
514.642	104.19
514.858	104.19
515.074	135.19
515.29	304.19
515.506	853.19
515.721	336.19
515.937	127.19
516.153	93.19
516.369	93.19
516.585	88.19
516.801	89.19
517.016	97.19
517.232	81.19
517.448	92.19
517.664	94.19
517.879	91.19
518.095	91.19
518.311	99.19
518.527	100.19
518.742	98.19
518.958	107.19
519.173	91.19
519.389	100.19
519.605	91.19
519.82	97.19
520.036	92.19
520.251	93.19
520.467	103.19
520.682	112.19
520.898	95.19
521.113	109.19
521.329	117.19
521.544	158.19
521.76	377.19
521.975	1425.19
522.19	839.19
522.406	210.19
522.621	116.19
522.836	99.19
523.052	97.19
523.267	107.19
523.482	87.19
523.698	100.19
523.913	125.19
524.128	103.19
524.343	93.19
524.559	100.19
524.774	83.19
524.989	98.19
525.204	88.19
525.419	96.19
525.634	94.19
525.849	95.19
526.064	84.19
526.28	95.19
526.495	86.19
526.71	95.19
526.925	92.19
527.14	99.19
527.355	78.19
527.57	89.19
527.785	93.19
527.999	91.19
528.214	98.19
528.429	105.19
528.644	93.19
528.859	88.19
529.074	104.19
529.289	103.19
529.503	131.19
529.718	107.19
529.933	86.19
530.148	108.19
530.363	97.19
530.577	80.19
530.792	94.19
531.007	101.19
531.221	94.19
531.436	85.19
531.651	86.19
531.865	80.19
532.08	82.19
532.295	103.19
532.509	88.19
532.724	88.19
532.938	99.19
533.153	88.19
533.367	107.19
533.582	95.19
533.796	103.19
534.011	89.19
534.225	89.19
534.44	109.19
534.654	102.19
534.868	101.19
535.083	101.19
535.297	78.19
535.511	103.19
535.726	93.19
535.94	89.19
536.154	92.19
536.369	102.19
536.583	94.19
536.797	104.19
537.011	91.19
537.225	82.19
537.44	84.19
537.654	95.19
537.868	72.19
538.082	105.19
538.296	104.19
538.51	89.19
538.724	96.19
538.938	76.19
539.153	93.19
539.367	101.19
539.581	98.19
539.795	104.19
540.009	96.19
540.222	91.19
540.436	105.19
540.65	85.19
540.864	108.19
541.078	84.19
541.292	92.19
541.506	97.19
541.72	97.19
541.934	91.19
542.147	96.19
542.361	89.19
542.575	86.19
542.789	89.19
543.002	95.19
543.216	100.19
543.43	94.19
543.644	95.19
543.857	95.19
544.071	94.19
544.285	84.19
544.498	91.19
544.712	92.19
544.925	92.19
545.139	84.19
545.352	87.19
545.566	85.19
545.779	111.19
545.993	100.19
546.206	109.19
546.42	99.19
546.633	83.19
546.847	81.19
547.06	87.19
547.274	89.19
547.487	87.19
547.7	87.19
547.914	100.19
548.127	72.19
548.34	95.19
548.554	83.19
548.767	93.19
548.98	96.19
549.193	78.19
549.407	92.19
549.62	87.19
549.833	95.19
550.046	104.19
550.259	92.19
550.473	98.19
550.686	76.19
550.899	104.19
551.112	92.19
551.325	85.19
551.538	80.19
551.751	95.19
551.964	88.19
552.177	99.19
552.39	89.19
552.603	89.19
552.816	103.19
553.029	91.19
553.242	86.19
553.455	94.19
553.667	95.19
553.88	99.19
554.093	91.19
554.306	78.19
554.519	89.19
554.732	99.19
554.944	88.19
555.157	89.19
555.37	100.19
555.583	111.19
555.795	87.19
556.008	94.19
556.221	95.19
556.433	86.19
556.646	82.19
556.859	95.19
557.071	97.19
557.284	103.19
557.496	97.19
557.709	112.19
557.921	83.19
558.134	96.19
558.346	95.19
558.559	96.19
558.771	93.19
558.984	80.19
559.196	86.19
559.409	92.19
559.621	106.19
559.833	97.19
560.046	85.19
560.258	83.19
560.47	98.19
560.683	99.19
560.895	88.19
561.107	94.19
561.32	91.19
561.532	88.19
561.744	103.19
561.956	101.19
562.168	85.19
562.381	87.19
562.593	87.19
562.805	104.19
563.017	94.19
563.229	97.19
563.441	78.19
563.653	91.19
563.865	108.19
564.077	89.19
564.289	95.19
564.501	103.19
564.713	86.19
564.925	100.19
565.137	93.19
565.349	90.19
565.561	89.19
565.773	101.19
565.985	97.19
566.197	91.19
566.408	85.19
566.62	86.19
566.832	101.19
567.044	86.19
567.255	92.19
567.467	93.19
567.679	83.19
567.891	100.19
568.102	102.19
568.314	93.19
568.526	85.19
568.737	79.19
568.949	91.19
569.161	95.19
569.372	91.19
569.584	81.19
569.795	85.19
570.007	91.19
570.218	187.19
570.43	123.19
570.641	101.19
570.853	100.19
571.064	82.19
571.276	86.19
571.487	101.19
571.698	104.19
571.91	87.19
572.121	88.19
572.333	83.19
572.544	85.19
572.755	84.19
572.966	94.19
573.178	77.19
573.389	82.19
573.6	96.19
573.811	92.19
574.023	98.19
574.234	87.19
574.445	104.19
574.656	97.19
574.867	97.19
575.078	105.19
575.289	95.19
575.501	95.19
575.712	97.19
575.923	94.19
576.134	91.19
576.345	100.19
576.556	95.19
576.767	79.19
576.978	94.19
577.188	96.19
577.399	93.19
577.61	104.19
577.821	109.19
578.032	111.19
578.243	207.19
578.454	497.19
578.665	147.19
578.875	105.19
579.086	103.19
579.297	93.19
579.508	96.19
579.718	103.19
579.929	86.19
580.14	86.19
580.35	85.19
580.561	89.19
580.772	80.19
580.982	96.19
581.193	93.19
581.403	85.19
581.614	76.19
581.825	91.19
582.035	89.19
582.246	81.19
582.456	82.19
582.667	103.19
582.877	95.19
583.087	86.19
583.298	77.19
583.508	86.19
583.719	92.19
583.929	83.19
584.139	68.19
584.35	72.19
584.56	92.19
584.77	80.19
584.981	86.19
585.191	95.19
585.401	96.19
585.611	85.19
585.821	89.19
586.032	92.19
586.242	71.19
586.452	87.19
586.662	103.19
586.872	102.19
587.082	74.19
587.292	95.19
587.502	88.19
587.713	95.19
587.923	97.19
588.133	96.19
588.343	83.19
588.553	92.19
588.762	96.19
588.972	94.19
589.182	118.19
589.392	92.19
589.602	93.19
589.812	94.19
590.022	93.19
590.232	83.19
590.441	84.19
590.651	93.19
590.861	95.19
591.071	93.19
591.281	90.19
591.49	98.19
591.7	77.19
591.91	107.19
592.119	91.19
592.329	95.19
592.539	96.19
592.748	79.19
592.958	82.19
593.167	84.19
593.377	89.19
593.587	91.19
593.796	83.19
594.006	80.19
594.215	69.19
594.424	78.19
594.634	80.19
594.843	97.19
595.053	66.19
595.262	88.19
595.472	83.19
595.681	102.19
595.89	78.19
596.1	94.19
596.309	91.19
596.518	94.19
596.727	88.19
596.937	85.19
597.146	90.19
597.355	85.19
597.564	106.19
597.774	94.19
597.983	77.19
598.192	81.19
598.401	93.19
598.61	91.19
598.819	79.19
599.028	93.19
599.237	95.19
599.446	94.19
599.655	83.19
599.864	97.19
600.073	108.19
600.282	102.19
600.491	77.19
600.7	76.19
600.909	81.19
601.118	84.19
601.327	92.19
601.536	93.19
601.745	97.19
601.953	92.19
602.162	88.19
602.371	87.19
602.58	91.19
602.789	93.19
602.997	96.19
603.206	96.19
603.415	81.19
603.623	94.19
603.832	79.19
604.041	112.19
604.249	107.19
604.458	96.19
604.666	83.19
604.875	86.19
605.084	92.19
605.292	102.19
605.501	97.19
605.709	95.19
605.918	105.19
606.126	101.19
606.334	86.19
606.543	93.19
606.751	94.19
606.96	94.19
607.168	93.19
607.376	97.19
607.585	89.19
607.793	92.19
608.001	99.19
608.21	85.19
608.418	83.19
608.626	77.19
608.834	99.19
609.043	80.19
609.251	87.19
609.459	104.19
609.667	96.19
609.875	94.19
610.083	89.19
610.291	94.19
610.499	86.19
610.707	78.19
610.916	89.19
611.124	77.19
611.332	91.19
611.54	83.19
611.748	92.19
611.955	71.19
612.163	87.19
612.371	85.19
612.579	68.19
612.787	100.19
612.995	76.19
613.203	91.19
613.411	87.19
613.618	99.19
613.826	83.19
614.034	85.19
614.242	92.19
614.449	88.19
614.657	84.19
614.865	93.19
615.072	90.19
615.28	96.19
615.488	93.19
615.695	93.19
615.903	96.19
616.111	93.19
616.318	107.19
616.526	95.19
616.733	95.19
616.941	107.19
617.148	98.19
617.356	90.19
617.563	87.19
617.771	90.19
617.978	98.19
618.185	79.19
618.393	95.19
618.6	80.19
618.807	97.19
619.015	76.19
619.222	83.19
619.429	95.19
619.637	87.19
619.844	82.19
620.051	94.19
620.258	101.19
620.466	96.19
620.673	91.19
620.88	94.19
621.087	79.19
621.294	85.19
621.501	81.19
621.708	83.19
621.915	80.19
622.122	87.19
622.329	88.19
622.536	93.19
622.743	77.19
622.95	81.19
623.157	88.19
623.364	92.19
623.571	85.19
623.778	99.19
623.985	90.19
624.192	88.19
624.399	94.19
624.606	87.19
624.812	91.19
625.019	98.19
625.226	91.19
625.433	92.19
625.639	84.19
625.846	90.19
626.053	76.19
626.259	90.19
626.466	98.19
626.673	80.19
626.879	97.19
627.086	78.19
627.293	83.19
627.499	91.19
627.706	90.19
627.912	105.19
628.119	89.19
628.325	95.19
628.532	80.19
628.738	79.19
628.945	78.19
629.151	86.19
629.357	84.19
629.564	99.19
629.77	91.19
629.976	80.19
630.183	87.19
630.389	86.19
630.595	93.19
630.802	73.19
631.008	87.19
631.214	73.19
631.42	89.19
631.627	92.19
631.833	80.19
632.039	72.19
632.245	83.19
632.451	77.19
632.657	86.19
632.863	83.19
633.069	100.19
633.275	92.19
633.481	78.19
633.688	78.19
633.893	85.19
634.099	80.19
634.305	89.19
634.511	73.19
634.717	91.19
634.923	87.19
635.129	77.19
635.335	72.19
635.541	81.19
635.747	81.19
635.952	87.19
636.158	94.19
636.364	91.19
636.57	91.19
636.775	81.19
636.981	81.19
637.187	92.19
637.392	91.19
637.598	74.19
637.804	78.19
638.009	99.19
638.215	97.19
638.421	88.19
638.626	90.19
638.832	80.19
639.037	75.19
639.243	84.19
639.448	91.19
639.654	105.19
639.859	104.19
640.065	87.19
640.27	99.19
640.475	96.19
640.681	79.19
640.886	86.19
641.091	95.19
641.297	90.19
641.502	78.19
641.707	78.19
641.913	94.19
642.118	80.19
642.323	83.19
642.528	100.19
642.733	79.19
642.939	99.19
643.144	85.19
643.349	91.19
643.554	95.19
643.759	83.19
643.964	112.19
644.169	89.19
644.374	78.19
644.579	85.19
644.784	87.19
644.989	69.19
645.194	86.19
645.399	81.19
645.604	110.19
645.809	89.19
646.014	95.19
646.219	89.19
646.423	79.19
646.628	94.19
646.833	94.19
647.038	88.19
647.243	87.19
647.447	91.19
647.652	92.19
647.857	89.19
648.062	100.19
648.266	88.19
648.471	92.19
648.676	96.19
648.88	91.19
649.085	98.19
649.289	90.19
649.494	111.19
649.698	125.19
649.903	94.19
650.107	100.19
650.312	95.19
650.516	92.19
650.721	88.19
650.925	103.19
651.13	91.19
651.334	90.19
651.539	85.19
651.743	87.19
651.947	64.19
652.152	75.19
652.356	80.19
652.56	90.19
652.764	85.19
652.969	85.19
653.173	95.19
653.377	89.19
653.581	87.19
653.785	83.19
653.99	88.19
654.194	83.19
654.398	91.19
654.602	95.19
654.806	87.19
655.01	106.19
655.214	84.19
655.418	92.19
655.622	79.19
655.826	89.19
656.03	81.19
656.234	96.19
656.438	92.19
656.642	102.19
656.846	78.19
657.049	91.19
657.253	101.19
657.457	86.19
657.661	88.19
657.865	81.19
658.068	90.19
658.272	80.19
658.476	86.19
658.68	96.19
658.883	82.19
659.087	80.19
659.291	70.19
659.494	88.19
659.698	80.19
659.901	84.19
660.105	78.19
660.309	91.19
660.512	80.19
660.716	83.19
660.919	87.19
661.123	78.19
661.326	95.19
661.53	93.19
661.733	89.19
661.936	83.19
662.14	94.19
662.343	85.19
662.546	78.19
662.75	91.19
662.953	86.19
663.156	86.19
663.36	72.19
663.563	89.19
663.766	83.19
663.969	91.19
664.173	84.19
664.376	71.19
664.579	85.19
664.782	93.19
664.985	94.19
665.188	104.19
665.391	75.19
665.594	93.19
665.797	91.19
666	89.19
666.203	85.19
666.406	80.19
666.609	86.19
666.812	91.19
667.015	87.19
667.218	89.19
667.421	85.19
667.624	81.19
667.827	71.19
668.03	84.19
668.232	76.19
668.435	88.19
668.638	86.19
668.841	83.19
669.043	89.19
669.246	73.19
669.449	89.19
669.651	80.19
669.854	93.19
670.057	72.19
670.259	97.19
670.462	89.19
670.665	80.19
670.867	99.19
671.07	67.19
671.272	84.19
671.475	89.19
671.677	76.19
671.88	84.19
672.082	74.19
672.284	90.19
672.487	100.19
672.689	83.19
672.892	79.19
