Data from TestCu_HRD10591_00097.txt Node
Date: Thu Oct 05 14:06:17 EDT 2023
User: Yrep
Spectrometer: HR+D1059
Trigger mode: 1
Integration Time (sec): 1.000000E-1
Scans to average: 1
Electric dark correction enabled: true
Nonlinearity correction enabled: false
Boxcar width: 0
XAxis mode: Wavelengths
Number of Pixels in Spectrum: 2048
>>>>>Begin Spectral Data<<<<<
223.165	-18.38
223.4	-18.38
223.635	-18.38
223.869	-24.38
224.104	-19.38
224.338	-6.38
224.573	-18.38
224.808	-25.38
225.042	-14.38
225.277	-8.38
225.511	3.62
225.746	2.62
225.98	9.62
226.215	16.62
226.449	20.62
226.683	17.62
226.918	33.62
227.152	30.62
227.387	36.62
227.621	44.62
227.856	56.62
228.09	56.62
228.324	47.62
228.559	53.62
228.793	70.62
229.027	102.62
229.262	132.62
229.496	142.62
229.73	170.62
229.964	181.62
230.199	125.62
230.433	125.62
230.667	115.62
230.901	107.62
231.136	93.62
231.37	105.62
231.604	110.62
231.838	119.62
232.072	123.62
232.306	96.62
232.541	115.62
232.775	106.62
233.009	116.62
233.243	123.62
233.477	130.62
233.711	120.62
233.945	123.62
234.179	129.62
234.413	108.62
234.647	113.62
234.881	115.62
235.115	125.62
235.349	111.62
235.583	148.62
235.817	127.62
236.051	128.62
236.285	118.62
236.519	119.62
236.753	137.62
236.987	180.62
237.221	235.62
237.455	237.62
237.689	179.62
237.922	127.62
238.156	137.62
238.39	119.62
238.624	120.62
238.858	120.62
239.091	118.62
239.325	128.62
239.559	140.62
239.793	141.62
240.027	147.62
240.26	165.62
240.494	152.62
240.728	147.62
240.961	139.62
241.195	130.62
241.429	147.62
241.662	132.62
241.896	145.62
242.13	142.62
242.363	135.62
242.597	149.62
242.83	150.62
243.064	141.62
243.298	137.62
243.531	145.62
243.765	141.62
243.998	133.62
244.232	132.62
244.465	149.62
244.699	153.62
244.932	154.62
245.166	142.62
245.399	126.62
245.633	144.62
245.866	141.62
246.099	145.62
246.333	147.62
246.566	153.62
246.8	153.62
247.033	159.62
247.266	129.62
247.5	165.62
247.733	169.62
247.966	165.62
248.2	187.62
248.433	182.62
248.666	170.62
248.899	196.62
249.133	198.62
249.366	200.62
249.599	207.62
249.832	165.62
250.066	178.62
250.299	187.62
250.532	197.62
250.765	197.62
250.998	204.62
251.231	201.62
251.465	201.62
251.698	182.62
251.931	189.62
252.164	204.62
252.397	190.62
252.63	188.62
252.863	210.62
253.096	210.62
253.329	226.62
253.562	198.62
253.795	191.62
254.028	206.62
254.261	223.62
254.494	243.62
254.727	270.62
254.96	261.62
255.193	225.62
255.426	205.62
255.659	193.62
255.892	185.62
256.124	181.62
256.357	193.62
256.59	182.62
256.823	196.62
257.056	197.62
257.289	193.62
257.521	206.62
257.754	208.62
257.987	184.62
258.22	194.62
258.452	205.62
258.685	198.62
258.918	204.62
259.151	200.62
259.383	224.62
259.616	231.62
259.849	236.62
260.081	255.62
260.314	243.62
260.547	246.62
260.779	231.62
261.012	230.62
261.244	197.62
261.477	217.62
261.71	254.62
261.942	237.62
262.175	271.62
262.407	230.62
262.64	214.62
262.872	199.62
263.105	223.62
263.337	222.62
263.57	215.62
263.802	211.62
264.035	205.62
264.267	212.62
264.499	206.62
264.732	207.62
264.964	219.62
265.197	212.62
265.429	218.62
265.661	236.62
265.894	234.62
266.126	236.62
266.358	230.62
266.591	230.62
266.823	242.62
267.055	244.62
267.287	248.62
267.52	222.62
267.752	222.62
267.984	229.62
268.216	250.62
268.448	256.62
268.681	254.62
268.913	283.62
269.145	278.62
269.377	278.62
269.609	255.62
269.841	273.62
270.073	278.62
270.306	312.62
270.538	331.62
270.77	299.62
271.002	291.62
271.234	290.62
271.466	305.62
271.698	321.62
271.93	327.62
272.162	313.62
272.394	306.62
272.626	281.62
272.858	255.62
273.09	279.62
273.322	263.62
273.553	269.62
273.785	275.62
274.017	270.62
274.249	270.62
274.481	268.62
274.713	269.62
274.945	279.62
275.176	277.62
275.408	279.62
275.64	258.62
275.872	269.62
276.104	272.62
276.335	303.62
276.567	326.62
276.799	366.62
277.031	360.62
277.262	338.62
277.494	325.62
277.726	309.62
277.957	277.62
278.189	301.62
278.421	286.62
278.652	271.62
278.884	289.62
279.115	285.62
279.347	272.62
279.579	285.62
279.81	290.62
280.042	273.62
280.273	275.62
280.505	280.62
280.736	295.62
280.968	277.62
281.199	301.62
281.431	289.62
281.662	299.62
281.894	305.62
282.125	325.62
282.356	351.62
282.588	377.62
282.819	341.62
283.051	303.62
283.282	313.62
283.513	318.62
283.745	319.62
283.976	318.62
284.207	307.62
284.439	288.62
284.67	312.62
284.901	302.62
285.132	315.62
285.364	325.62
285.595	301.62
285.826	327.62
286.057	305.62
286.288	301.62
286.52	333.62
286.751	300.62
286.982	315.62
287.213	301.62
287.444	323.62
287.675	341.62
287.906	342.62
288.138	351.62
288.369	355.62
288.6	332.62
288.831	352.62
289.062	335.62
289.293	321.62
289.524	314.62
289.755	316.62
289.986	321.62
290.217	323.62
290.448	337.62
290.679	336.62
290.91	331.62
291.141	323.62
291.371	328.62
291.602	330.62
291.833	326.62
292.064	330.62
292.295	346.62
292.526	339.62
292.757	333.62
292.987	336.62
293.218	338.62
293.449	342.62
293.68	359.62
293.91	340.62
294.141	343.62
294.372	328.62
294.603	360.62
294.833	324.62
295.064	355.62
295.295	351.62
295.525	356.62
295.756	381.62
295.987	417.62
296.217	430.62
296.448	392.62
296.679	362.62
296.909	349.62
297.14	380.62
297.37	346.62
297.601	368.62
297.831	379.62
298.062	362.62
298.292	375.62
298.523	371.62
298.753	383.62
298.984	370.62
299.214	344.62
299.445	393.62
299.675	383.62
299.905	374.62
300.136	383.62
300.366	382.62
300.597	396.62
300.827	396.62
301.057	416.62
301.288	419.62
301.518	404.62
301.748	393.62
301.979	420.62
302.209	415.62
302.439	399.62
302.669	385.62
302.9	393.62
303.13	404.62
303.36	393.62
303.59	388.62
303.82	421.62
304.051	419.62
304.281	407.62
304.511	400.62
304.741	377.62
304.971	378.62
305.201	376.62
305.431	410.62
305.661	399.62
305.891	397.62
306.121	408.62
306.352	427.62
306.582	417.62
306.812	391.62
307.042	395.62
307.272	398.62
307.502	401.62
307.731	416.62
307.961	414.62
308.191	433.62
308.421	417.62
308.651	419.62
308.881	422.62
309.111	429.62
309.341	429.62
309.571	449.62
309.8	448.62
310.03	479.62
310.26	487.62
310.49	492.62
310.72	548.62
310.949	524.62
311.179	488.62
311.409	478.62
311.639	479.62
311.868	477.62
312.098	505.62
312.328	506.62
312.557	544.62
312.787	550.62
313.017	511.62
313.246	492.62
313.476	464.62
313.706	492.62
313.935	538.62
314.165	541.62
314.394	558.62
314.624	530.62
314.853	487.62
315.083	475.62
315.312	460.62
315.542	454.62
315.771	462.62
316.001	448.62
316.23	450.62
316.46	454.62
316.689	503.62
316.919	503.62
317.148	500.62
317.377	489.62
317.607	509.62
317.836	485.62
318.065	463.62
318.295	479.62
318.524	477.62
318.753	476.62
318.983	477.62
319.212	502.62
319.441	500.62
319.67	485.62
319.9	479.62
320.129	472.62
320.358	481.62
320.587	511.62
320.816	509.62
321.046	512.62
321.275	507.62
321.504	510.62
321.733	527.62
321.962	550.62
322.191	573.62
322.42	583.62
322.649	596.62
322.878	632.62
323.108	689.62
323.337	739.62
323.566	760.62
323.795	858.62
324.024	1160.62
324.253	2016.62
324.482	3569.62
324.71	5197.62
324.939	4577.62
325.168	2021.62
325.397	963.62
325.626	760.62
325.855	666.62
326.084	699.62
326.313	732.62
326.542	809.62
326.77	1127.62
326.999	1896.62
327.228	3034.62
327.457	3879.62
327.686	2523.62
327.914	1183.62
328.143	901.62
328.372	845.62
328.6	800.62
328.829	840.62
329.058	891.62
329.287	813.62
329.515	689.62
329.744	643.62
329.972	657.62
330.201	713.62
330.43	804.62
330.658	957.62
330.887	945.62
331.115	770.62
331.344	674.62
331.572	677.62
331.801	701.62
332.03	667.62
332.258	633.62
332.486	642.62
332.715	629.62
332.943	661.62
333.172	669.62
333.4	683.62
333.629	675.62
333.857	689.62
334.085	665.62
334.314	634.62
334.542	626.62
334.771	645.62
334.999	651.62
335.227	631.62
335.455	610.62
335.684	630.62
335.912	638.62
336.14	635.62
336.369	645.62
336.597	667.62
336.825	638.62
337.053	616.62
337.281	639.62
337.51	633.62
337.738	641.62
337.966	644.62
338.194	631.62
338.422	617.62
338.65	583.62
338.878	583.62
339.106	601.62
339.334	573.62
339.562	553.62
339.79	569.62
340.018	583.62
340.246	590.62
340.474	603.62
340.702	588.62
340.93	608.62
341.158	591.62
341.386	603.62
341.614	617.62
341.842	582.62
342.07	575.62
342.298	588.62
342.526	581.62
342.754	563.62
342.981	549.62
343.209	566.62
343.437	625.62
343.665	647.62
343.893	651.62
344.12	658.62
344.348	629.62
344.576	622.62
344.804	641.62
345.031	642.62
345.259	654.62
345.487	614.62
345.714	592.62
345.942	565.62
346.17	589.62
346.397	556.62
346.625	578.62
346.853	579.62
347.08	576.62
347.308	600.62
347.535	612.62
347.763	607.62
347.99	579.62
348.218	629.62
348.445	605.62
348.673	597.62
348.9	577.62
349.128	549.62
349.355	546.62
349.583	574.62
349.81	584.62
350.037	539.62
350.265	542.62
350.492	553.62
350.72	559.62
350.947	592.62
351.174	622.62
351.402	615.62
351.629	601.62
351.856	606.62
352.083	613.62
352.311	647.62
352.538	662.62
352.765	626.62
352.992	618.62
353.22	606.62
353.447	567.62
353.674	539.62
353.901	535.62
354.128	541.62
354.355	545.62
354.583	550.62
354.81	529.62
355.037	530.62
355.264	521.62
355.491	541.62
355.718	535.62
355.945	526.62
356.172	547.62
356.399	541.62
356.626	531.62
356.853	555.62
357.08	542.62
357.307	522.62
357.534	541.62
357.761	519.62
357.988	534.62
358.215	541.62
358.441	551.62
358.668	555.62
358.895	562.62
359.122	556.62
359.349	590.62
359.576	641.62
359.802	749.62
360.029	783.62
360.256	702.62
360.483	640.62
360.709	569.62
360.936	587.62
361.163	616.62
361.39	627.62
361.616	609.62
361.843	609.62
362.07	614.62
362.296	615.62
362.523	606.62
362.749	593.62
362.976	597.62
363.203	601.62
363.429	558.62
363.656	553.62
363.882	563.62
364.109	575.62
364.335	585.62
364.562	585.62
364.788	586.62
365.015	564.62
365.241	591.62
365.468	593.62
365.694	600.62
365.92	605.62
366.147	565.62
366.373	571.62
366.599	553.62
366.826	533.62
367.052	583.62
367.278	577.62
367.505	577.62
367.731	571.62
367.957	563.62
368.184	560.62
368.41	619.62
368.636	615.62
368.862	597.62
369.089	601.62
369.315	577.62
369.541	581.62
369.767	605.62
369.993	566.62
370.219	555.62
370.445	595.62
370.672	582.62
370.898	570.62
371.124	575.62
371.35	571.62
371.576	584.62
371.802	573.62
372.028	577.62
372.254	583.62
372.48	583.62
372.706	575.62
372.932	584.62
373.158	587.62
373.384	583.62
373.61	605.62
373.835	584.62
374.061	602.62
374.287	622.62
374.513	611.62
374.739	615.62
374.965	610.62
375.191	596.62
375.416	619.62
375.642	592.62
375.868	607.62
376.094	576.62
376.319	611.62
376.545	585.62
376.771	591.62
376.997	597.62
377.222	583.62
377.448	585.62
377.674	580.62
377.899	561.62
378.125	585.62
378.35	585.62
378.576	548.62
378.802	557.62
379.027	581.62
379.253	581.62
379.478	577.62
379.704	578.62
379.929	585.62
380.155	570.62
380.38	568.62
380.606	600.62
380.831	592.62
381.057	594.62
381.282	593.62
381.507	582.62
381.733	586.62
381.958	596.62
382.184	609.62
382.409	615.62
382.634	621.62
382.86	639.62
383.085	641.62
383.31	621.62
383.535	637.62
383.761	616.62
383.986	623.62
384.211	662.62
384.436	660.62
384.662	649.62
384.887	668.62
385.112	673.62
385.337	670.62
385.562	677.62
385.787	693.62
386.013	700.62
386.238	697.62
386.463	709.62
386.688	700.62
386.913	658.62
387.138	665.62
387.363	655.62
387.588	679.62
387.813	703.62
388.038	680.62
388.263	662.62
388.488	658.62
388.713	654.62
388.938	678.62
389.163	661.62
389.387	666.62
389.612	673.62
389.837	681.62
390.062	676.62
390.287	674.62
390.512	670.62
390.736	670.62
390.961	691.62
391.186	677.62
391.411	701.62
391.636	712.62
391.86	737.62
392.085	758.62
392.31	726.62
392.534	706.62
392.759	702.62
392.984	662.62
393.208	689.62
393.433	685.62
393.658	701.62
393.882	714.62
394.107	699.62
394.331	704.62
394.556	706.62
394.78	712.62
395.005	717.62
395.229	735.62
395.454	749.62
395.678	749.62
395.903	760.62
396.127	733.62
396.352	706.62
396.576	698.62
396.801	720.62
397.025	736.62
397.249	741.62
397.474	748.62
397.698	767.62
397.922	772.62
398.147	775.62
398.371	786.62
398.595	850.62
398.82	849.62
399.044	914.62
399.268	1009.62
399.492	1065.62
399.717	1122.62
399.941	1083.62
400.165	1010.62
400.389	962.62
400.613	881.62
400.837	833.62
401.062	866.62
401.286	848.62
401.51	842.62
401.734	838.62
401.958	860.62
402.182	892.62
402.406	913.62
402.63	895.62
402.854	890.62
403.078	875.62
403.302	897.62
403.526	899.62
403.75	923.62
403.974	928.62
404.198	892.62
404.422	928.62
404.645	894.62
404.869	919.62
405.093	903.62
405.317	926.62
405.541	961.62
405.765	952.62
405.988	973.62
406.212	1025.62
406.436	1087.62
406.66	1046.62
406.883	1037.62
407.107	1105.62
407.331	1131.62
407.555	1135.62
407.778	1083.62
408.002	983.62
408.226	962.62
408.449	968.62
408.673	993.62
408.896	967.62
409.12	1005.62
409.344	917.62
409.567	891.62
409.791	891.62
410.014	877.62
410.238	862.62
410.461	879.62
410.685	883.62
410.908	908.62
411.132	925.62
411.355	904.62
411.578	871.62
411.802	834.62
412.025	845.62
412.249	861.62
412.472	829.62
412.695	808.62
412.919	808.62
413.142	807.62
413.365	822.62
413.589	830.62
413.812	797.62
414.035	775.62
414.258	809.62
414.482	812.62
414.705	831.62
414.928	798.62
415.151	795.62
415.374	799.62
415.597	811.62
415.821	769.62
416.044	817.62
416.267	809.62
416.49	779.62
416.713	801.62
416.936	772.62
417.159	803.62
417.382	810.62
417.605	815.62
417.828	847.62
418.051	820.62
418.274	822.62
418.497	795.62
418.72	812.62
418.943	785.62
419.166	821.62
419.389	849.62
419.611	852.62
419.834	864.62
420.057	841.62
420.28	822.62
420.503	804.62
420.726	801.62
420.948	856.62
421.171	871.62
421.394	855.62
421.617	825.62
421.839	837.62
422.062	858.62
422.285	890.62
422.507	969.62
422.73	971.62
422.953	889.62
423.175	863.62
423.398	849.62
423.621	870.62
423.843	893.62
424.066	889.62
424.288	871.62
424.511	944.62
424.733	1018.62
424.956	1058.62
425.178	1021.62
425.401	995.62
425.623	962.62
425.846	823.62
426.068	867.62
426.291	845.62
426.513	821.62
426.735	857.62
426.958	969.62
427.18	1093.62
427.402	1248.62
427.625	1298.62
427.847	1022.62
428.069	836.62
428.292	800.62
428.514	805.62
428.736	770.62
428.958	785.62
429.181	724.62
429.403	746.62
429.625	809.62
429.847	843.62
430.069	893.62
430.292	819.62
430.514	761.62
430.736	758.62
430.958	730.62
431.18	737.62
431.402	733.62
431.624	731.62
431.846	733.62
432.068	745.62
432.29	737.62
432.512	736.62
432.734	751.62
432.956	737.62
433.178	782.62
433.4	773.62
433.622	766.62
433.844	748.62
434.066	754.62
434.287	735.62
434.509	761.62
434.731	810.62
434.953	817.62
435.175	827.62
435.397	842.62
435.618	878.62
435.84	952.62
436.062	1034.62
436.284	986.62
436.505	866.62
436.727	793.62
436.949	749.62
437.17	773.62
437.392	751.62
437.614	827.62
437.835	949.62
438.057	1061.62
438.278	1051.62
438.5	1071.62
438.721	1114.62
438.943	920.62
439.165	825.62
439.386	811.62
439.608	851.62
439.829	910.62
440.05	974.62
440.272	1009.62
440.493	864.62
440.715	815.62
440.936	813.62
441.158	815.62
441.379	809.62
441.6	847.62
441.822	909.62
442.043	942.62
442.264	1075.62
442.486	985.62
442.707	913.62
442.928	921.62
443.149	949.62
443.371	1022.62
443.592	1042.62
443.813	1132.62
444.034	1079.62
444.255	966.62
444.476	949.62
444.698	915.62
444.919	968.62
445.14	969.62
445.361	998.62
445.582	1056.62
445.803	1169.62
446.024	1225.62
446.245	1137.62
446.466	993.62
446.687	842.62
446.908	790.62
447.129	755.62
447.35	753.62
447.571	766.62
447.792	736.62
448.013	759.62
448.234	857.62
448.455	943.62
448.675	1066.62
448.896	1025.62
449.117	905.62
449.338	996.62
449.559	1131.62
449.779	1038.62
450	835.62
450.221	778.62
450.442	741.62
450.662	758.62
450.883	848.62
451.104	838.62
451.324	757.62
451.545	693.62
451.766	710.62
451.986	666.62
452.207	683.62
452.428	663.62
452.648	686.62
452.869	714.62
453.089	715.62
453.31	699.62
453.53	705.62
453.751	709.62
453.971	737.62
454.192	800.62
454.412	691.62
454.633	657.62
454.853	685.62
455.073	685.62
455.294	749.62
455.514	787.62
455.734	696.62
455.955	645.62
456.175	624.62
456.395	595.62
456.616	621.62
456.836	625.62
457.056	616.62
457.276	629.62
457.497	609.62
457.717	634.62
457.937	629.62
458.157	644.62
458.377	666.62
458.598	816.62
458.818	998.62
459.038	1065.62
459.258	912.62
459.478	798.62
459.698	748.62
459.918	784.62
460.138	789.62
460.358	799.62
460.578	797.62
460.798	786.62
461.018	790.62
461.238	775.62
461.458	787.62
461.678	767.62
461.898	791.62
462.118	824.62
462.338	835.62
462.558	886.62
462.777	897.62
462.997	959.62
463.217	954.62
463.437	917.62
463.657	865.62
463.876	855.62
464.096	902.62
464.316	928.62
464.536	928.62
464.755	889.62
464.975	994.62
465.195	1193.62
465.414	1112.62
465.634	867.62
465.854	787.62
466.073	757.62
466.293	723.62
466.512	713.62
466.732	696.62
466.951	712.62
467.171	718.62
467.391	755.62
467.61	761.62
467.829	741.62
468.049	691.62
468.268	667.62
468.488	666.62
468.707	664.62
468.927	678.62
469.146	665.62
469.365	685.62
469.585	689.62
469.804	737.62
470.023	754.62
470.243	753.62
470.462	805.62
470.681	792.62
470.901	764.62
471.12	705.62
471.339	723.62
471.558	736.62
471.777	653.62
471.997	659.62
472.216	650.62
472.435	631.62
472.654	643.62
472.873	633.62
473.092	646.62
473.311	671.62
473.53	685.62
473.749	705.62
473.968	846.62
474.187	912.62
474.406	790.62
474.625	687.62
474.844	689.62
475.063	670.62
475.282	657.62
475.501	691.62
475.72	691.62
475.939	671.62
476.158	687.62
476.377	690.62
476.596	702.62
476.814	748.62
477.033	743.62
477.252	755.62
477.471	744.62
477.69	776.62
477.908	775.62
478.127	778.62
478.346	794.62
478.564	788.62
478.783	830.62
479.002	819.62
479.22	842.62
479.439	879.62
479.658	899.62
479.876	890.62
480.095	869.62
480.313	938.62
480.532	892.62
480.751	867.62
480.969	844.62
481.188	782.62
481.406	823.62
481.624	807.62
481.843	754.62
482.061	775.62
482.28	778.62
482.498	760.62
482.717	762.62
482.935	771.62
483.153	799.62
483.372	769.62
483.59	787.62
483.808	771.62
484.027	789.62
484.245	813.62
484.463	796.62
484.681	819.62
484.9	812.62
485.118	784.62
485.336	844.62
485.554	837.62
485.772	846.62
485.99	831.62
486.209	833.62
486.427	866.62
486.645	863.62
486.863	927.62
487.081	863.62
487.299	865.62
487.517	840.62
487.735	857.62
487.953	825.62
488.171	847.62
488.389	840.62
488.607	833.62
488.825	827.62
489.043	850.62
489.261	833.62
489.479	814.62
489.696	856.62
489.914	865.62
490.132	875.62
490.35	880.62
490.568	886.62
490.786	904.62
491.003	956.62
491.221	945.62
491.439	956.62
491.657	966.62
491.874	973.62
492.092	978.62
492.31	951.62
492.527	966.62
492.745	964.62
492.963	946.62
493.18	998.62
493.398	1002.62
493.615	1030.62
493.833	976.62
494.05	1003.62
494.268	980.62
494.485	952.62
494.703	994.62
494.92	981.62
495.138	985.62
495.355	981.62
495.573	982.62
495.79	1000.62
496.008	991.62
496.225	1001.62
496.442	984.62
496.66	994.62
496.877	992.62
497.094	998.62
497.312	1035.62
497.529	1029.62
497.746	1056.62
497.963	1075.62
498.181	1129.62
498.398	1170.62
498.615	1232.62
498.832	1237.62
499.049	1316.62
499.267	1354.62
499.484	1477.62
499.701	1565.62
499.918	1678.62
500.135	1786.62
500.352	1909.62
500.569	1930.62
500.786	1891.62
501.003	1782.62
501.22	1682.62
501.437	1578.62
501.654	1480.62
501.871	1482.62
502.088	1317.62
502.305	1206.62
502.522	1183.62
502.739	1119.62
502.956	1108.62
503.172	1083.62
503.389	1056.62
503.606	1084.62
503.823	1057.62
504.04	1036.62
504.256	1032.62
504.473	1023.62
504.69	1031.62
504.907	1017.62
505.123	965.62
505.34	948.62
505.557	940.62
505.773	948.62
505.99	933.62
506.207	901.62
506.423	898.62
506.64	894.62
506.856	886.62
507.073	873.62
507.289	901.62
507.506	909.62
507.722	953.62
507.939	943.62
508.155	889.62
508.372	835.62
508.588	817.62
508.805	811.62
509.021	856.62
509.238	864.62
509.454	858.62
509.67	831.62
509.887	848.62
510.103	869.62
510.319	984.62
510.536	1763.62
510.752	2899.62
510.968	1242.62
511.184	845.62
511.401	835.62
511.617	810.62
511.833	809.62
512.049	801.62
512.265	815.62
512.481	782.62
512.698	780.62
512.914	789.62
513.13	801.62
513.346	787.62
513.562	794.62
513.778	822.62
513.994	854.62
514.21	885.62
514.426	999.62
514.642	1076.62
514.858	1113.62
515.074	1345.62
515.29	2213.62
515.506	3360.62
515.721	1666.62
515.937	1080.62
516.153	991.62
516.369	917.62
516.585	899.62
516.801	903.62
517.016	918.62
517.232	957.62
517.448	939.62
517.664	986.62
517.879	953.62
518.095	932.62
518.311	952.62
518.527	922.62
518.742	890.62
518.958	886.62
519.173	847.62
519.389	845.62
519.605	848.62
519.82	858.62
520.036	907.62
520.251	997.62
520.467	989.62
520.682	921.62
520.898	982.62
521.113	1075.62
521.329	1253.62
521.544	1640.62
521.76	2925.62
521.975	5455.62
522.19	3037.62
522.406	1360.62
522.621	996.62
522.836	873.62
523.052	826.62
523.267	773.62
523.482	757.62
523.698	744.62
523.913	768.62
524.128	761.62
524.343	740.62
524.559	726.62
524.774	700.62
524.989	733.62
525.204	757.62
525.419	707.62
525.634	691.62
525.849	665.62
526.064	682.62
526.28	659.62
526.495	642.62
526.71	661.62
526.925	661.62
527.14	649.62
527.355	646.62
527.57	642.62
527.785	661.62
527.999	654.62
528.214	655.62
528.429	684.62
528.644	676.62
528.859	672.62
529.074	697.62
529.289	863.62
529.503	1025.62
529.718	809.62
529.933	737.62
530.148	675.62
530.363	673.62
530.577	650.62
530.792	646.62
531.007	638.62
531.221	642.62
531.436	637.62
531.651	638.62
531.865	644.62
532.08	632.62
532.295	641.62
532.509	633.62
532.724	635.62
532.938	639.62
533.153	643.62
533.367	640.62
533.582	630.62
533.796	627.62
534.011	609.62
534.225	638.62
534.44	629.62
534.654	609.62
534.868	636.62
535.083	645.62
535.297	654.62
535.511	647.62
535.726	689.62
535.94	649.62
536.154	619.62
536.369	608.62
536.583	615.62
536.797	605.62
537.011	578.62
537.225	582.62
537.44	610.62
537.654	602.62
537.868	615.62
538.082	625.62
538.296	614.62
538.51	600.62
538.724	615.62
538.938	616.62
539.153	625.62
539.367	682.62
539.581	631.62
539.795	607.62
540.009	603.62
540.222	589.62
540.436	612.62
540.65	619.62
540.864	634.62
541.078	663.62
541.292	622.62
541.506	613.62
541.72	631.62
541.934	618.62
542.147	609.62
542.361	608.62
542.575	613.62
542.789	592.62
543.002	586.62
543.216	593.62
543.43	617.62
543.644	610.62
543.857	597.62
544.071	609.62
544.285	617.62
544.498	611.62
544.712	612.62
544.925	609.62
545.139	618.62
545.352	613.62
545.566	609.62
545.779	620.62
545.993	618.62
546.206	623.62
546.42	609.62
546.633	614.62
546.847	585.62
547.06	581.62
547.274	605.62
547.487	592.62
547.7	611.62
547.914	604.62
548.127	635.62
548.34	609.62
548.554	619.62
548.767	613.62
548.98	600.62
549.193	601.62
549.407	617.62
549.62	639.62
549.833	586.62
550.046	605.62
550.259	602.62
550.473	589.62
550.686	591.62
550.899	589.62
551.112	592.62
551.325	591.62
551.538	593.62
551.751	591.62
551.964	578.62
552.177	629.62
552.39	590.62
552.603	602.62
552.816	616.62
553.029	627.62
553.242	639.62
553.455	669.62
553.667	683.62
553.88	671.62
554.093	648.62
554.306	622.62
554.519	609.62
554.732	593.62
554.944	593.62
555.157	594.62
555.37	578.62
555.583	592.62
555.795	570.62
556.008	547.62
556.221	541.62
556.433	552.62
556.646	546.62
556.859	526.62
557.071	531.62
557.284	510.62
557.496	520.62
557.709	526.62
557.921	511.62
558.134	506.62
558.346	517.62
558.559	526.62
558.771	502.62
558.984	479.62
559.196	496.62
559.409	497.62
559.621	498.62
559.833	481.62
560.046	466.62
560.258	502.62
560.47	483.62
560.683	512.62
560.895	497.62
561.107	490.62
561.32	489.62
561.532	517.62
561.744	485.62
561.956	499.62
562.168	505.62
562.381	480.62
562.593	506.62
562.805	503.62
563.017	516.62
563.229	522.62
563.441	511.62
563.653	494.62
563.865	494.62
564.077	520.62
564.289	531.62
564.501	517.62
564.713	515.62
564.925	562.62
565.137	551.62
565.349	553.62
565.561	561.62
565.773	566.62
565.985	582.62
566.197	602.62
566.408	655.62
566.62	677.62
566.832	698.62
567.044	693.62
567.255	719.62
567.467	743.62
567.679	777.62
567.891	802.62
568.102	771.62
568.314	755.62
568.526	675.62
568.737	628.62
568.949	609.62
569.161	583.62
569.372	541.62
569.584	495.62
569.795	508.62
570.007	530.62
570.218	641.62
570.43	557.62
570.641	508.62
570.853	493.62
571.064	482.62
571.276	477.62
571.487	485.62
571.698	476.62
571.91	453.62
572.121	461.62
572.333	439.62
572.544	422.62
572.755	405.62
572.966	424.62
573.178	406.62
573.389	416.62
573.6	395.62
573.811	417.62
574.023	404.62
574.234	401.62
574.445	398.62
574.656	412.62
574.867	414.62
575.078	407.62
575.289	404.62
575.501	377.62
575.712	377.62
575.923	402.62
576.134	387.62
576.345	376.62
576.556	398.62
576.767	390.62
576.978	383.62
577.188	379.62
577.399	395.62
577.61	385.62
577.821	398.62
578.032	426.62
578.243	611.62
578.454	998.62
578.665	508.62
578.875	372.62
579.086	372.62
579.297	371.62
579.508	380.62
579.718	358.62
579.929	372.62
580.14	350.62
580.35	354.62
580.561	351.62
580.772	362.62
580.982	353.62
581.193	344.62
581.403	357.62
581.614	343.62
581.825	367.62
582.035	351.62
582.246	353.62
582.456	349.62
582.667	341.62
582.877	351.62
583.087	353.62
583.298	339.62
583.508	346.62
583.719	333.62
583.929	329.62
584.139	329.62
584.35	337.62
584.56	341.62
584.77	354.62
584.981	323.62
585.191	341.62
585.401	345.62
585.611	330.62
585.821	351.62
586.032	319.62
586.242	323.62
586.452	333.62
586.662	352.62
586.872	329.62
587.082	346.62
587.292	338.62
587.502	357.62
587.713	328.62
587.923	322.62
588.133	328.62
588.343	322.62
588.553	317.62
588.762	320.62
588.972	326.62
589.182	334.62
589.392	329.62
589.602	330.62
589.812	323.62
590.022	332.62
590.232	329.62
590.441	333.62
590.651	322.62
590.861	321.62
591.071	357.62
591.281	352.62
591.49	329.62
591.7	345.62
591.91	356.62
592.119	361.62
592.329	369.62
592.539	367.62
592.748	364.62
592.958	369.62
593.167	384.62
593.377	384.62
593.587	417.62
593.796	382.62
594.006	411.62
594.215	382.62
594.424	386.62
594.634	390.62
594.843	383.62
595.053	364.62
595.262	349.62
595.472	330.62
595.681	344.62
595.89	328.62
596.1	344.62
596.309	327.62
596.518	335.62
596.727	342.62
596.937	327.62
597.146	345.62
597.355	316.62
597.564	296.62
597.774	319.62
597.983	301.62
598.192	310.62
598.401	303.62
598.61	287.62
598.819	307.62
599.028	285.62
599.237	298.62
599.446	296.62
599.655	298.62
599.864	286.62
600.073	294.62
600.282	299.62
600.491	294.62
600.7	298.62
600.909	275.62
601.118	295.62
601.327	292.62
601.536	280.62
601.745	290.62
601.953	307.62
602.162	297.62
602.371	303.62
602.58	292.62
602.789	282.62
602.997	288.62
603.206	286.62
603.415	281.62
603.623	292.62
603.832	287.62
604.041	288.62
604.249	282.62
604.458	295.62
604.666	287.62
604.875	278.62
605.084	291.62
605.292	289.62
605.501	278.62
605.709	296.62
605.918	293.62
606.126	288.62
606.334	266.62
606.543	293.62
606.751	269.62
606.96	283.62
607.168	294.62
607.376	279.62
607.585	277.62
607.793	254.62
608.001	281.62
608.21	273.62
608.418	276.62
608.626	271.62
608.834	289.62
609.043	282.62
609.251	261.62
609.459	281.62
609.667	295.62
609.875	281.62
610.083	297.62
610.291	293.62
610.499	283.62
610.707	282.62
610.916	283.62
611.124	270.62
611.332	271.62
611.54	283.62
611.748	285.62
611.955	276.62
612.163	287.62
612.371	282.62
612.579	273.62
612.787	274.62
612.995	280.62
613.203	289.62
613.411	292.62
613.618	279.62
613.826	262.62
614.034	270.62
614.242	271.62
614.449	261.62
614.657	265.62
614.865	269.62
615.072	270.62
615.28	283.62
615.488	265.62
615.695	287.62
615.903	276.62
616.111	276.62
616.318	279.62
616.526	298.62
616.733	282.62
616.941	271.62
617.148	275.62
617.356	281.62
617.563	277.62
617.771	283.62
617.978	271.62
618.185	259.62
618.393	278.62
618.6	285.62
618.807	266.62
619.015	270.62
619.222	260.62
619.429	266.62
619.637	273.62
619.844	263.62
620.051	257.62
620.258	256.62
620.466	264.62
620.673	251.62
620.88	265.62
621.087	274.62
621.294	261.62
621.501	257.62
621.708	257.62
621.915	266.62
622.122	257.62
622.329	259.62
622.536	256.62
622.743	262.62
622.95	261.62
623.157	262.62
623.364	250.62
623.571	264.62
623.778	243.62
623.985	246.62
624.192	248.62
624.399	264.62
624.606	261.62
624.812	240.62
625.019	239.62
625.226	250.62
625.433	247.62
625.639	244.62
625.846	230.62
626.053	226.62
626.259	244.62
626.466	262.62
626.673	227.62
626.879	254.62
627.086	256.62
627.293	257.62
627.499	238.62
627.706	253.62
627.912	247.62
628.119	262.62
628.325	235.62
628.532	247.62
628.738	221.62
628.945	233.62
629.151	229.62
629.357	234.62
629.564	243.62
629.77	238.62
629.976	239.62
630.183	218.62
630.389	238.62
630.595	238.62
630.802	225.62
631.008	225.62
631.214	228.62
631.42	217.62
631.627	221.62
631.833	238.62
632.039	216.62
632.245	213.62
632.451	223.62
632.657	223.62
632.863	229.62
633.069	229.62
633.275	227.62
633.481	226.62
633.688	210.62
633.893	216.62
634.099	217.62
634.305	237.62
634.511	213.62
634.717	212.62
634.923	202.62
635.129	210.62
635.335	206.62
635.541	215.62
635.747	211.62
635.952	219.62
636.158	213.62
636.364	223.62
636.57	218.62
636.775	212.62
636.981	226.62
637.187	212.62
637.392	199.62
637.598	198.62
637.804	208.62
638.009	202.62
638.215	219.62
638.421	217.62
638.626	207.62
638.832	215.62
639.037	217.62
639.243	213.62
639.448	216.62
639.654	214.62
639.859	204.62
640.065	195.62
640.27	218.62
640.475	193.62
640.681	218.62
640.886	208.62
641.091	209.62
641.297	222.62
641.502	189.62
641.707	200.62
641.913	202.62
642.118	205.62
642.323	203.62
642.528	191.62
642.733	194.62
642.939	214.62
643.144	205.62
643.349	208.62
643.554	196.62
643.759	207.62
643.964	179.62
644.169	195.62
644.374	210.62
644.579	207.62
644.784	193.62
644.989	203.62
645.194	208.62
645.399	200.62
645.604	193.62
645.809	204.62
646.014	203.62
646.219	207.62
646.423	198.62
646.628	216.62
646.833	183.62
647.038	223.62
647.243	196.62
647.447	223.62
647.652	194.62
647.857	214.62
648.062	212.62
648.266	223.62
648.471	225.62
648.676	213.62
648.88	221.62
649.085	209.62
649.289	245.62
649.494	241.62
649.698	276.62
649.903	236.62
650.107	199.62
650.312	193.62
650.516	202.62
650.721	191.62
650.925	191.62
651.13	198.62
651.334	187.62
651.539	193.62
651.743	187.62
651.947	197.62
652.152	200.62
652.356	200.62
652.56	181.62
652.764	165.62
652.969	184.62
653.173	186.62
653.377	182.62
653.581	186.62
653.785	188.62
653.99	182.62
654.194	179.62
654.398	176.62
654.602	193.62
654.806	186.62
655.01	223.62
655.214	201.62
655.418	189.62
655.622	183.62
655.826	190.62
656.03	185.62
656.234	215.62
656.438	200.62
656.642	199.62
656.846	194.62
657.049	190.62
657.253	195.62
657.457	189.62
657.661	169.62
657.865	160.62
658.068	141.62
658.272	146.62
658.476	145.62
658.68	126.62
658.883	122.62
659.087	132.62
659.291	136.62
659.494	113.62
659.698	127.62
659.901	123.62
660.105	124.62
660.309	123.62
660.512	107.62
660.716	114.62
660.919	105.62
661.123	118.62
661.326	114.62
661.53	108.62
661.733	106.62
661.936	107.62
662.14	109.62
662.343	112.62
662.546	98.62
662.75	97.62
662.953	93.62
663.156	91.62
663.36	86.62
663.563	98.62
663.766	79.62
663.969	81.62
664.173	94.62
664.376	99.62
664.579	95.62
664.782	87.62
664.985	73.62
665.188	91.62
665.391	83.62
665.594	74.62
665.797	94.62
666	77.62
666.203	85.62
666.406	89.62
666.609	82.62
666.812	94.62
667.015	81.62
667.218	84.62
667.421	66.62
667.624	93.62
667.827	76.62
668.03	96.62
668.232	87.62
668.435	85.62
668.638	91.62
668.841	95.62
669.043	91.62
669.246	70.62
669.449	87.62
669.651	81.62
669.854	88.62
670.057	101.62
670.259	78.62
670.462	95.62
670.665	75.62
670.867	90.62
671.07	91.62
671.272	89.62
671.475	84.62
671.677	81.62
671.88	89.62
672.082	85.62
672.284	84.62
672.487	90.62
672.689	99.62
672.892	94.62
