Data from TestCu_HRD10591_00086.txt Node
Date: Thu Oct 05 14:06:06 EDT 2023
User: Yrep
Spectrometer: HR+D1059
Trigger mode: 1
Integration Time (sec): 1.000000E-1
Scans to average: 1
Electric dark correction enabled: true
Nonlinearity correction enabled: false
Boxcar width: 0
XAxis mode: Wavelengths
Number of Pixels in Spectrum: 2048
>>>>>Begin Spectral Data<<<<<
223.165	-4.19
223.4	-4.19
223.635	-4.19
223.869	-15.19
224.104	-8.19
224.338	-17.19
224.573	-15.19
224.808	-23.19
225.042	-10.19
225.277	-13.19
225.511	-9.19
225.746	2.81
225.98	7.81
226.215	-7.19
226.449	15.81
226.683	33.81
226.918	30.81
227.152	31.81
227.387	36.81
227.621	45.81
227.856	55.81
228.09	57.81
228.324	53.81
228.559	56.81
228.793	63.81
229.027	108.81
229.262	121.81
229.496	133.81
229.73	171.81
229.964	155.81
230.199	134.81
230.433	118.81
230.667	99.81
230.901	112.81
231.136	119.81
231.37	95.81
231.604	110.81
231.838	115.81
232.072	101.81
232.306	109.81
232.541	113.81
232.775	114.81
233.009	105.81
233.243	115.81
233.477	115.81
233.711	116.81
233.945	124.81
234.179	110.81
234.413	103.81
234.647	119.81
234.881	117.81
235.115	127.81
235.349	120.81
235.583	118.81
235.817	127.81
236.051	128.81
236.285	132.81
236.519	133.81
236.753	145.81
236.987	169.81
237.221	215.81
237.455	216.81
237.689	152.81
237.922	133.81
238.156	128.81
238.39	128.81
238.624	124.81
238.858	101.81
239.091	129.81
239.325	137.81
239.559	131.81
239.793	129.81
240.027	141.81
240.26	168.81
240.494	152.81
240.728	152.81
240.961	137.81
241.195	137.81
241.429	127.81
241.662	128.81
241.896	110.81
242.13	131.81
242.363	117.81
242.597	128.81
242.83	121.81
243.064	139.81
243.298	139.81
243.531	145.81
243.765	142.81
243.998	128.81
244.232	143.81
244.465	147.81
244.699	133.81
244.932	132.81
245.166	130.81
245.399	135.81
245.633	135.81
245.866	159.81
246.099	151.81
246.333	157.81
246.566	143.81
246.8	149.81
247.033	146.81
247.266	148.81
247.5	150.81
247.733	152.81
247.966	173.81
248.2	155.81
248.433	163.81
248.666	180.81
248.899	179.81
249.133	200.81
249.366	214.81
249.599	193.81
249.832	176.81
250.066	174.81
250.299	159.81
250.532	189.81
250.765	205.81
250.998	223.81
251.231	189.81
251.465	197.81
251.698	157.81
251.931	180.81
252.164	177.81
252.397	185.81
252.63	198.81
252.863	212.81
253.096	204.81
253.329	216.81
253.562	208.81
253.795	196.81
254.028	192.81
254.261	236.81
254.494	232.81
254.727	255.81
254.96	258.81
255.193	219.81
255.426	197.81
255.659	213.81
255.892	191.81
256.124	176.81
256.357	177.81
256.59	183.81
256.823	195.81
257.056	195.81
257.289	207.81
257.521	210.81
257.754	172.81
257.987	192.81
258.22	200.81
258.452	193.81
258.685	211.81
258.918	200.81
259.151	193.81
259.383	211.81
259.616	222.81
259.849	225.81
260.081	251.81
260.314	233.81
260.547	230.81
260.779	211.81
261.012	208.81
261.244	210.81
261.477	217.81
261.71	216.81
261.942	256.81
262.175	249.81
262.407	244.81
262.64	210.81
262.872	219.81
263.105	207.81
263.337	202.81
263.57	209.81
263.802	199.81
264.035	207.81
264.267	191.81
264.499	211.81
264.732	215.81
264.964	223.81
265.197	229.81
265.429	220.81
265.661	206.81
265.894	213.81
266.126	205.81
266.358	220.81
266.591	202.81
266.823	240.81
267.055	231.81
267.287	240.81
267.52	211.81
267.752	243.81
267.984	241.81
268.216	241.81
268.448	229.81
268.681	245.81
268.913	259.81
269.145	288.81
269.377	283.81
269.609	256.81
269.841	271.81
270.073	307.81
270.306	329.81
270.538	312.81
270.77	289.81
271.002	276.81
271.234	295.81
271.466	321.81
271.698	327.81
271.93	297.81
272.162	330.81
272.394	281.81
272.626	287.81
272.858	275.81
273.09	269.81
273.322	268.81
273.553	257.81
273.785	255.81
274.017	261.81
274.249	257.81
274.481	276.81
274.713	269.81
274.945	262.81
275.176	269.81
275.408	269.81
275.64	276.81
275.872	280.81
276.104	273.81
276.335	270.81
276.567	310.81
276.799	345.81
277.031	365.81
277.262	335.81
277.494	319.81
277.726	302.81
277.957	293.81
278.189	270.81
278.421	272.81
278.652	262.81
278.884	287.81
279.115	284.81
279.347	265.81
279.579	286.81
279.81	294.81
280.042	276.81
280.273	279.81
280.505	272.81
280.736	278.81
280.968	291.81
281.199	291.81
281.431	297.81
281.662	273.81
281.894	283.81
282.125	315.81
282.356	355.81
282.588	376.81
282.819	339.81
283.051	298.81
283.282	289.81
283.513	296.81
283.745	307.81
283.976	300.81
284.207	313.81
284.439	304.81
284.67	299.81
284.901	295.81
285.132	309.81
285.364	293.81
285.595	306.81
285.826	304.81
286.057	301.81
286.288	305.81
286.52	318.81
286.751	305.81
286.982	311.81
287.213	326.81
287.444	305.81
287.675	322.81
287.906	329.81
288.138	355.81
288.369	339.81
288.6	334.81
288.831	310.81
289.062	324.81
289.293	332.81
289.524	320.81
289.755	317.81
289.986	313.81
290.217	319.81
290.448	308.81
290.679	319.81
290.91	306.81
291.141	309.81
291.371	330.81
291.602	323.81
291.833	320.81
292.064	317.81
292.295	340.81
292.526	336.81
292.757	315.81
292.987	342.81
293.218	332.81
293.449	338.81
293.68	328.81
293.91	331.81
294.141	324.81
294.372	325.81
294.603	330.81
294.833	342.81
295.064	344.81
295.295	346.81
295.525	350.81
295.756	371.81
295.987	401.81
296.217	412.81
296.448	405.81
296.679	352.81
296.909	347.81
297.14	340.81
297.37	352.81
297.601	365.81
297.831	360.81
298.062	377.81
298.292	347.81
298.523	356.81
298.753	377.81
298.984	372.81
299.214	348.81
299.445	362.81
299.675	373.81
299.905	370.81
300.136	378.81
300.366	369.81
300.597	354.81
300.827	388.81
301.057	406.81
301.288	401.81
301.518	389.81
301.748	405.81
301.979	423.81
302.209	392.81
302.439	400.81
302.669	398.81
302.9	388.81
303.13	386.81
303.36	410.81
303.59	405.81
303.82	423.81
304.051	389.81
304.281	387.81
304.511	377.81
304.741	391.81
304.971	404.81
305.201	386.81
305.431	378.81
305.661	375.81
305.891	391.81
306.121	406.81
306.352	413.81
306.582	409.81
306.812	414.81
307.042	402.81
307.272	397.81
307.502	406.81
307.731	389.81
307.961	407.81
308.191	397.81
308.421	408.81
308.651	427.81
308.881	422.81
309.111	425.81
309.341	400.81
309.571	449.81
309.8	467.81
310.03	467.81
310.26	483.81
310.49	483.81
310.72	515.81
310.949	537.81
311.179	500.81
311.409	472.81
311.639	488.81
311.868	483.81
312.098	472.81
312.328	520.81
312.557	525.81
312.787	541.81
313.017	523.81
313.246	477.81
313.476	473.81
313.706	472.81
313.935	491.81
314.165	518.81
314.394	521.81
314.624	493.81
314.853	469.81
315.083	489.81
315.312	480.81
315.542	461.81
315.771	475.81
316.001	443.81
316.23	462.81
316.46	472.81
316.689	479.81
316.919	471.81
317.148	511.81
317.377	487.81
317.607	485.81
317.836	457.81
318.065	441.81
318.295	460.81
318.524	503.81
318.753	465.81
318.983	460.81
319.212	491.81
319.441	484.81
319.67	487.81
319.9	456.81
320.129	487.81
320.358	465.81
320.587	507.81
320.816	515.81
321.046	496.81
321.275	500.81
321.504	507.81
321.733	497.81
321.962	518.81
322.191	563.81
322.42	591.81
322.649	617.81
322.878	617.81
323.108	657.81
323.337	694.81
323.566	747.81
323.795	826.81
324.024	1136.81
324.253	1973.81
324.482	3339.81
324.71	5115.81
324.939	4380.81
325.168	1942.81
325.397	942.81
325.626	734.81
325.855	667.81
326.084	659.81
326.313	695.81
326.542	837.81
326.77	1093.81
326.999	1860.81
327.228	2941.81
327.457	3634.81
327.686	2408.81
327.914	1175.81
328.143	896.81
328.372	839.81
328.6	765.81
328.829	813.81
329.058	860.81
329.287	769.81
329.515	677.81
329.744	624.81
329.972	648.81
330.201	686.81
330.43	791.81
330.658	931.81
330.887	949.81
331.115	764.81
331.344	691.81
331.572	679.81
331.801	689.81
332.03	664.81
332.258	613.81
332.486	613.81
332.715	641.81
332.943	651.81
333.172	640.81
333.4	693.81
333.629	683.81
333.857	660.81
334.085	677.81
334.314	655.81
334.542	635.81
334.771	658.81
334.999	669.81
335.227	651.81
335.455	645.81
335.684	605.81
335.912	615.81
336.14	607.81
336.369	654.81
336.597	643.81
336.825	604.81
337.053	616.81
337.281	583.81
337.51	608.81
337.738	638.81
337.966	628.81
338.194	644.81
338.422	593.81
338.65	577.81
338.878	565.81
339.106	580.81
339.334	573.81
339.562	557.81
339.79	559.81
340.018	575.81
340.246	583.81
340.474	595.81
340.702	567.81
340.93	564.81
341.158	587.81
341.386	594.81
341.614	579.81
341.842	577.81
342.07	577.81
342.298	579.81
342.526	557.81
342.754	571.81
342.981	593.81
343.209	582.81
343.437	569.81
343.665	595.81
343.893	621.81
344.12	627.81
344.348	606.81
344.576	614.81
344.804	626.81
345.031	652.81
345.259	627.81
345.487	605.81
345.714	558.81
345.942	576.81
346.17	554.81
346.397	577.81
346.625	557.81
346.853	573.81
347.08	575.81
347.308	605.81
347.535	621.81
347.763	613.81
347.99	592.81
348.218	619.81
348.445	609.81
348.673	595.81
348.9	557.81
349.128	536.81
349.355	525.81
349.583	545.81
349.81	536.81
350.037	534.81
350.265	547.81
350.492	543.81
350.72	535.81
350.947	577.81
351.174	585.81
351.402	585.81
351.629	590.81
351.856	623.81
352.083	641.81
352.311	628.81
352.538	629.81
352.765	581.81
352.992	576.81
353.22	597.81
353.447	553.81
353.674	544.81
353.901	537.81
354.128	533.81
354.355	538.81
354.583	533.81
354.81	551.81
355.037	519.81
355.264	516.81
355.491	528.81
355.718	525.81
355.945	517.81
356.172	524.81
356.399	517.81
356.626	530.81
356.853	527.81
357.08	512.81
357.307	527.81
357.534	514.81
357.761	515.81
357.988	545.81
358.215	521.81
358.441	495.81
358.668	543.81
358.895	536.81
359.122	545.81
359.349	578.81
359.576	636.81
359.802	706.81
360.029	735.81
360.256	724.81
360.483	626.81
360.709	579.81
360.936	605.81
361.163	593.81
361.39	633.81
361.616	603.81
361.843	599.81
362.07	609.81
362.296	591.81
362.523	607.81
362.749	592.81
362.976	573.81
363.203	578.81
363.429	563.81
363.656	550.81
363.882	531.81
364.109	573.81
364.335	542.81
364.562	539.81
364.788	555.81
365.015	573.81
365.241	590.81
365.468	568.81
365.694	587.81
365.92	579.81
366.147	561.81
366.373	559.81
366.599	552.81
366.826	567.81
367.052	537.81
367.278	571.81
367.505	553.81
367.731	573.81
367.957	555.81
368.184	574.81
368.41	584.81
368.636	607.81
368.862	601.81
369.089	559.81
369.315	579.81
369.541	582.81
369.767	566.81
369.993	567.81
370.219	579.81
370.445	569.81
370.672	571.81
370.898	553.81
371.124	596.81
371.35	551.81
371.576	553.81
371.802	553.81
372.028	547.81
372.254	567.81
372.48	586.81
372.706	582.81
372.932	573.81
373.158	578.81
373.384	585.81
373.61	589.81
373.835	573.81
374.061	595.81
374.287	617.81
374.513	587.81
374.739	605.81
374.965	631.81
375.191	603.81
375.416	611.81
375.642	602.81
375.868	608.81
376.094	598.81
376.319	569.81
376.545	577.81
376.771	555.81
376.997	580.81
377.222	579.81
377.448	555.81
377.674	553.81
377.899	570.81
378.125	579.81
378.35	543.81
378.576	549.81
378.802	564.81
379.027	559.81
379.253	553.81
379.478	555.81
379.704	562.81
379.929	587.81
380.155	576.81
380.38	583.81
380.606	587.81
380.831	596.81
381.057	583.81
381.282	575.81
381.507	596.81
381.733	593.81
381.958	592.81
382.184	595.81
382.409	619.81
382.634	600.81
382.86	599.81
383.085	601.81
383.31	605.81
383.535	607.81
383.761	637.81
383.986	622.81
384.211	654.81
384.436	651.81
384.662	626.81
384.887	674.81
385.112	638.81
385.337	672.81
385.562	671.81
385.787	688.81
386.013	737.81
386.238	721.81
386.463	703.81
386.688	672.81
386.913	654.81
387.138	642.81
387.363	647.81
387.588	667.81
387.813	688.81
388.038	653.81
388.263	652.81
388.488	657.81
388.713	647.81
388.938	657.81
389.163	651.81
389.387	654.81
389.612	653.81
389.837	652.81
390.062	651.81
390.287	670.81
390.512	654.81
390.736	667.81
390.961	716.81
391.186	687.81
391.411	712.81
391.636	725.81
391.86	720.81
392.085	737.81
392.31	701.81
392.534	712.81
392.759	697.81
392.984	697.81
393.208	695.81
393.433	693.81
393.658	700.81
393.882	678.81
394.107	675.81
394.331	676.81
394.556	677.81
394.78	711.81
395.005	703.81
395.229	711.81
395.454	722.81
395.678	741.81
395.903	733.81
396.127	750.81
396.352	701.81
396.576	685.81
396.801	697.81
397.025	722.81
397.249	713.81
397.474	750.81
397.698	743.81
397.922	762.81
398.147	770.81
398.371	780.81
398.595	799.81
398.82	838.81
399.044	897.81
399.268	988.81
399.492	1093.81
399.717	1112.81
399.941	1068.81
400.165	1007.81
400.389	945.81
400.613	892.81
400.837	844.81
401.062	839.81
401.286	823.81
401.51	847.81
401.734	827.81
401.958	857.81
402.182	892.81
402.406	921.81
402.63	893.81
402.854	886.81
403.078	892.81
403.302	901.81
403.526	913.81
403.75	887.81
403.974	905.81
404.198	908.81
404.422	930.81
404.645	866.81
404.869	895.81
405.093	925.81
405.317	925.81
405.541	933.81
405.765	926.81
405.988	957.81
406.212	1021.81
406.436	1090.81
406.66	1046.81
406.883	1001.81
407.107	1046.81
407.331	1095.81
407.555	1126.81
407.778	1053.81
408.002	995.81
408.226	942.81
408.449	921.81
408.673	958.81
408.896	952.81
409.12	953.81
409.344	912.81
409.567	863.81
409.791	885.81
410.014	855.81
410.238	847.81
410.461	847.81
410.685	864.81
410.908	889.81
411.132	925.81
411.355	893.81
411.578	865.81
411.802	839.81
412.025	827.81
412.249	841.81
412.472	838.81
412.695	838.81
412.919	788.81
413.142	770.81
413.365	811.81
413.589	803.81
413.812	775.81
414.035	791.81
414.258	804.81
414.482	790.81
414.705	778.81
414.928	780.81
415.151	799.81
415.374	787.81
415.597	786.81
415.821	766.81
416.044	784.81
416.267	774.81
416.49	804.81
416.713	782.81
416.936	774.81
417.159	813.81
417.382	804.81
417.605	825.81
417.828	776.81
418.051	801.81
418.274	823.81
418.497	772.81
418.72	791.81
418.943	793.81
419.166	826.81
419.389	865.81
419.611	819.81
419.834	836.81
420.057	824.81
420.28	807.81
420.503	773.81
420.726	815.81
420.948	820.81
421.171	885.81
421.394	849.81
421.617	832.81
421.839	824.81
422.062	836.81
422.285	879.81
422.507	959.81
422.73	1000.81
422.953	935.81
423.175	856.81
423.398	875.81
423.621	833.81
423.843	886.81
424.066	881.81
424.288	888.81
424.511	901.81
424.733	999.81
424.956	1032.81
425.178	983.81
425.401	977.81
425.623	936.81
425.846	859.81
426.068	835.81
426.291	836.81
426.513	816.81
426.735	845.81
426.958	944.81
427.18	1067.81
427.402	1256.81
427.625	1271.81
427.847	1004.81
428.069	859.81
428.292	783.81
428.514	748.81
428.736	747.81
428.958	755.81
429.181	739.81
429.403	740.81
429.625	787.81
429.847	824.81
430.069	856.81
430.292	794.81
430.514	753.81
430.736	738.81
430.958	741.81
431.18	732.81
431.402	720.81
431.624	711.81
431.846	724.81
432.068	727.81
432.29	728.81
432.512	725.81
432.734	759.81
432.956	758.81
433.178	755.81
433.4	755.81
433.622	737.81
433.844	726.81
434.066	736.81
434.287	735.81
434.509	751.81
434.731	791.81
434.953	805.81
435.175	827.81
435.397	840.81
435.618	856.81
435.84	957.81
436.062	1038.81
436.284	991.81
436.505	847.81
436.727	809.81
436.949	783.81
437.17	766.81
437.392	769.81
437.614	813.81
437.835	925.81
438.057	1038.81
438.278	1083.81
438.5	1049.81
438.721	1154.81
438.943	957.81
439.165	817.81
439.386	819.81
439.608	813.81
439.829	880.81
440.05	977.81
440.272	950.81
440.493	843.81
440.715	809.81
440.936	792.81
441.158	789.81
441.379	821.81
441.6	873.81
441.822	914.81
442.043	961.81
442.264	1040.81
442.486	970.81
442.707	898.81
442.928	886.81
443.149	972.81
443.371	969.81
443.592	1071.81
443.813	1109.81
444.034	1048.81
444.255	919.81
444.476	921.81
444.698	914.81
444.919	912.81
445.14	936.81
445.361	983.81
445.582	1060.81
445.803	1195.81
446.024	1221.81
446.245	1125.81
446.466	971.81
446.687	797.81
446.908	768.81
447.129	755.81
447.35	731.81
447.571	739.81
447.792	720.81
448.013	752.81
448.234	812.81
448.455	927.81
448.675	1054.81
448.896	1036.81
449.117	903.81
449.338	956.81
449.559	1104.81
449.779	1049.81
450	831.81
450.221	771.81
450.442	735.81
450.662	760.81
450.883	821.81
451.104	822.81
451.324	743.81
451.545	713.81
451.766	671.81
451.986	668.81
452.207	683.81
452.428	675.81
452.648	704.81
452.869	695.81
453.089	707.81
453.31	733.81
453.53	670.81
453.751	692.81
453.971	746.81
454.192	775.81
454.412	674.81
454.633	662.81
454.853	679.81
455.073	671.81
455.294	758.81
455.514	790.81
455.734	686.81
455.955	620.81
456.175	603.81
456.395	600.81
456.616	607.81
456.836	607.81
457.056	620.81
457.276	614.81
457.497	609.81
457.717	616.81
457.937	625.81
458.157	663.81
458.377	693.81
458.598	786.81
458.818	1026.81
459.038	1008.81
459.258	867.81
459.478	777.81
459.698	739.81
459.918	744.81
460.138	733.81
460.358	764.81
460.578	798.81
460.798	801.81
461.018	798.81
461.238	790.81
461.458	766.81
461.678	757.81
461.898	791.81
462.118	813.81
462.338	845.81
462.558	842.81
462.777	906.81
462.997	937.81
463.217	952.81
463.437	918.81
463.657	873.81
463.876	874.81
464.096	923.81
464.316	916.81
464.536	922.81
464.755	886.81
464.975	957.81
465.195	1211.81
465.414	1076.81
465.634	819.81
465.854	771.81
466.073	755.81
466.293	720.81
466.512	683.81
466.732	673.81
466.951	690.81
467.171	696.81
467.391	729.81
467.61	771.81
467.829	725.81
468.049	689.81
468.268	710.81
468.488	673.81
468.707	678.81
468.927	677.81
469.146	651.81
469.365	688.81
469.585	696.81
469.804	735.81
470.023	748.81
470.243	760.81
470.462	790.81
470.681	775.81
470.901	736.81
471.12	703.81
471.339	703.81
471.558	711.81
471.777	665.81
471.997	636.81
472.216	660.81
472.435	668.81
472.654	655.81
472.873	611.81
473.092	659.81
473.311	687.81
473.53	663.81
473.749	691.81
473.968	823.81
474.187	907.81
474.406	770.81
474.625	695.81
474.844	669.81
475.063	655.81
475.282	685.81
475.501	670.81
475.72	680.81
475.939	683.81
476.158	681.81
476.377	698.81
476.596	715.81
476.814	738.81
477.033	716.81
477.252	724.81
477.471	732.81
477.69	771.81
477.908	764.81
478.127	775.81
478.346	766.81
478.564	784.81
478.783	792.81
479.002	812.81
479.22	825.81
479.439	860.81
479.658	883.81
479.876	876.81
480.095	865.81
480.313	896.81
480.532	872.81
480.751	865.81
480.969	844.81
481.188	803.81
481.406	810.81
481.624	812.81
481.843	761.81
482.061	767.81
482.28	745.81
482.498	741.81
482.717	755.81
482.935	761.81
483.153	776.81
483.372	773.81
483.59	764.81
483.808	772.81
484.027	776.81
484.245	784.81
484.463	785.81
484.681	777.81
484.9	797.81
485.118	796.81
485.336	817.81
485.554	822.81
485.772	787.81
485.99	824.81
486.209	823.81
486.427	827.81
486.645	839.81
486.863	858.81
487.081	871.81
487.299	816.81
487.517	837.81
487.735	829.81
487.953	810.81
488.171	821.81
488.389	840.81
488.607	829.81
488.825	847.81
489.043	803.81
489.261	799.81
489.479	803.81
489.696	817.81
489.914	856.81
490.132	876.81
490.35	871.81
490.568	877.81
490.786	910.81
491.003	904.81
491.221	927.81
491.439	930.81
491.657	921.81
491.874	966.81
492.092	971.81
492.31	943.81
492.527	968.81
492.745	956.81
492.963	968.81
493.18	972.81
493.398	980.81
493.615	988.81
493.833	981.81
494.05	994.81
494.268	991.81
494.485	970.81
494.703	943.81
494.92	971.81
495.138	966.81
495.355	990.81
495.573	995.81
495.79	983.81
496.008	963.81
496.225	977.81
496.442	958.81
496.66	950.81
496.877	979.81
497.094	983.81
497.312	979.81
497.529	1020.81
497.746	1032.81
497.963	1069.81
498.181	1102.81
498.398	1093.81
498.615	1205.81
498.832	1233.81
499.049	1291.81
499.267	1343.81
499.484	1423.81
499.701	1549.81
499.918	1649.81
500.135	1805.81
500.352	1908.81
500.569	1935.81
500.786	1812.81
501.003	1762.81
501.22	1632.81
501.437	1519.81
501.654	1472.81
501.871	1424.81
502.088	1279.81
502.305	1223.81
502.522	1150.81
502.739	1091.81
502.956	1094.81
503.172	1063.81
503.389	1045.81
503.606	1069.81
503.823	1034.81
504.04	975.81
504.256	1009.81
504.473	987.81
504.69	1025.81
504.907	974.81
505.123	944.81
505.34	951.81
505.557	933.81
505.773	939.81
505.99	937.81
506.207	906.81
506.423	906.81
506.64	875.81
506.856	895.81
507.073	859.81
507.289	894.81
507.506	895.81
507.722	942.81
507.939	926.81
508.155	868.81
508.372	852.81
508.588	827.81
508.805	859.81
509.021	823.81
509.238	851.81
509.454	846.81
509.67	836.81
509.887	804.81
510.103	830.81
510.319	945.81
510.536	1703.81
510.752	2754.81
510.968	1217.81
511.184	859.81
511.401	829.81
511.617	789.81
511.833	777.81
512.049	786.81
512.265	780.81
512.481	760.81
512.698	780.81
512.914	766.81
513.13	776.81
513.346	771.81
513.562	773.81
513.778	804.81
513.994	829.81
514.21	885.81
514.426	953.81
514.642	1020.81
514.858	1071.81
515.074	1317.81
515.29	2182.81
515.506	3296.81
515.721	1664.81
515.937	1071.81
516.153	983.81
516.369	892.81
516.585	859.81
516.801	866.81
517.016	907.81
517.232	908.81
517.448	932.81
517.664	987.81
517.879	957.81
518.095	949.81
518.311	895.81
518.527	879.81
518.742	863.81
518.958	842.81
519.173	852.81
519.389	827.81
519.605	843.81
519.82	839.81
520.036	871.81
520.251	951.81
520.467	956.81
520.682	945.81
520.898	947.81
521.113	1051.81
521.329	1234.81
521.544	1576.81
521.76	2860.81
521.975	5360.81
522.19	2915.81
522.406	1319.81
522.621	946.81
522.836	832.81
523.052	800.81
523.267	764.81
523.482	741.81
523.698	764.81
523.913	761.81
524.128	707.81
524.343	709.81
524.559	691.81
524.774	673.81
524.989	728.81
525.204	733.81
525.419	706.81
525.634	684.81
525.849	664.81
526.064	657.81
526.28	647.81
526.495	649.81
526.71	637.81
526.925	650.81
527.14	642.81
527.355	651.81
527.57	623.81
527.785	639.81
527.999	632.81
528.214	655.81
528.429	681.81
528.644	669.81
528.859	667.81
529.074	732.81
529.289	864.81
529.503	997.81
529.718	775.81
529.933	703.81
530.148	647.81
530.363	644.81
530.577	646.81
530.792	634.81
531.007	626.81
531.221	622.81
531.436	623.81
531.651	619.81
531.865	638.81
532.08	636.81
532.295	616.81
532.509	619.81
532.724	619.81
532.938	628.81
533.153	608.81
533.367	613.81
533.582	626.81
533.796	619.81
534.011	613.81
534.225	614.81
534.44	601.81
534.654	605.81
534.868	614.81
535.083	621.81
535.297	623.81
535.511	650.81
535.726	658.81
535.94	637.81
536.154	637.81
536.369	614.81
536.583	593.81
536.797	599.81
537.011	588.81
537.225	580.81
537.44	585.81
537.654	613.81
537.868	609.81
538.082	623.81
538.296	603.81
538.51	601.81
538.724	585.81
538.938	597.81
539.153	607.81
539.367	654.81
539.581	615.81
539.795	586.81
540.009	587.81
540.222	595.81
540.436	581.81
540.65	596.81
540.864	608.81
541.078	633.81
541.292	596.81
541.506	608.81
541.72	605.81
541.934	584.81
542.147	600.81
542.361	583.81
542.575	597.81
542.789	583.81
543.002	595.81
543.216	590.81
543.43	597.81
543.644	579.81
543.857	580.81
544.071	592.81
544.285	601.81
544.498	608.81
544.712	593.81
544.925	609.81
545.139	594.81
545.352	591.81
545.566	607.81
545.779	610.81
545.993	596.81
546.206	595.81
546.42	608.81
546.633	607.81
546.847	601.81
547.06	589.81
547.274	582.81
547.487	598.81
547.7	610.81
547.914	580.81
548.127	611.81
548.34	603.81
548.554	581.81
548.767	589.81
548.98	597.81
549.193	605.81
549.407	567.81
549.62	611.81
549.833	595.81
550.046	608.81
550.259	587.81
550.473	591.81
550.686	589.81
550.899	587.81
551.112	553.81
551.325	575.81
551.538	583.81
551.751	592.81
551.964	596.81
552.177	583.81
552.39	589.81
552.603	621.81
552.816	615.81
553.029	635.81
553.242	633.81
553.455	662.81
553.667	672.81
553.88	691.81
554.093	639.81
554.306	629.81
554.519	621.81
554.732	595.81
554.944	587.81
555.157	564.81
555.37	584.81
555.583	577.81
555.795	554.81
556.008	533.81
556.221	528.81
556.433	509.81
556.646	550.81
556.859	525.81
557.071	529.81
557.284	535.81
557.496	508.81
557.709	504.81
557.921	515.81
558.134	500.81
558.346	493.81
558.559	516.81
558.771	512.81
558.984	498.81
559.196	515.81
559.409	477.81
559.621	495.81
559.833	485.81
560.046	477.81
560.258	511.81
560.47	505.81
560.683	493.81
560.895	497.81
561.107	499.81
561.32	493.81
561.532	484.81
561.744	470.81
561.956	491.81
562.168	480.81
562.381	515.81
562.593	493.81
562.805	479.81
563.017	500.81
563.229	500.81
563.441	492.81
563.653	494.81
563.865	493.81
564.077	480.81
564.289	511.81
564.501	518.81
564.713	521.81
564.925	527.81
565.137	563.81
565.349	546.81
565.561	568.81
565.773	583.81
565.985	561.81
566.197	594.81
566.408	631.81
566.62	665.81
566.832	706.81
567.044	695.81
567.255	696.81
567.467	741.81
567.679	743.81
567.891	750.81
568.102	760.81
568.314	727.81
568.526	667.81
568.737	624.81
568.949	612.81
569.161	550.81
569.372	552.81
569.584	534.81
569.795	508.81
570.007	515.81
570.218	636.81
570.43	535.81
570.641	479.81
570.853	483.81
571.064	479.81
571.276	477.81
571.487	468.81
571.698	422.81
571.91	441.81
572.121	434.81
572.333	415.81
572.544	424.81
572.755	431.81
572.966	412.81
573.178	413.81
573.389	422.81
573.6	420.81
573.811	401.81
574.023	377.81
574.234	390.81
574.445	404.81
574.656	396.81
574.867	390.81
575.078	381.81
575.289	369.81
575.501	386.81
575.712	381.81
575.923	394.81
576.134	392.81
576.345	397.81
576.556	385.81
576.767	397.81
576.978	389.81
577.188	357.81
577.399	367.81
577.61	366.81
577.821	397.81
578.032	384.81
578.243	581.81
578.454	1000.81
578.665	489.81
578.875	374.81
579.086	375.81
579.297	356.81
579.508	344.81
579.718	349.81
579.929	343.81
580.14	360.81
580.35	349.81
580.561	334.81
580.772	368.81
580.982	348.81
581.193	336.81
581.403	348.81
581.614	345.81
581.825	339.81
582.035	342.81
582.246	337.81
582.456	343.81
582.667	319.81
582.877	331.81
583.087	340.81
583.298	347.81
583.508	332.81
583.719	320.81
583.929	321.81
584.139	334.81
584.35	337.81
584.56	332.81
584.77	344.81
584.981	344.81
585.191	336.81
585.401	345.81
585.611	352.81
585.821	332.81
586.032	335.81
586.242	327.81
586.452	311.81
586.662	323.81
586.872	314.81
587.082	311.81
587.292	319.81
587.502	329.81
587.713	325.81
587.923	349.81
588.133	308.81
588.343	325.81
588.553	335.81
588.762	310.81
588.972	332.81
589.182	325.81
589.392	302.81
589.602	319.81
589.812	343.81
590.022	326.81
590.232	329.81
590.441	323.81
590.651	332.81
590.861	323.81
591.071	343.81
591.281	336.81
591.49	350.81
591.7	329.81
591.91	349.81
592.119	353.81
592.329	361.81
592.539	369.81
592.748	370.81
592.958	370.81
593.167	381.81
593.377	388.81
593.587	369.81
593.796	391.81
594.006	353.81
594.215	367.81
594.424	363.81
594.634	389.81
594.843	370.81
595.053	366.81
595.262	349.81
595.472	323.81
595.681	329.81
595.89	336.81
596.1	344.81
596.309	331.81
596.518	334.81
596.727	330.81
596.937	319.81
597.146	305.81
597.355	291.81
597.564	319.81
597.774	297.81
597.983	289.81
598.192	289.81
598.401	286.81
598.61	280.81
598.819	287.81
599.028	295.81
599.237	289.81
599.446	285.81
599.655	290.81
599.864	289.81
600.073	298.81
600.282	299.81
600.491	288.81
600.7	278.81
600.909	286.81
601.118	295.81
601.327	292.81
601.536	279.81
601.745	285.81
601.953	289.81
602.162	311.81
602.371	295.81
602.58	285.81
602.789	272.81
602.997	291.81
603.206	285.81
603.415	290.81
603.623	277.81
603.832	283.81
604.041	271.81
604.249	285.81
604.458	289.81
604.666	274.81
604.875	270.81
605.084	279.81
605.292	287.81
605.501	303.81
605.709	289.81
605.918	263.81
606.126	279.81
606.334	276.81
606.543	283.81
606.751	279.81
606.96	291.81
607.168	263.81
607.376	278.81
607.585	273.81
607.793	268.81
608.001	241.81
608.21	287.81
608.418	263.81
608.626	258.81
608.834	272.81
609.043	281.81
609.251	265.81
609.459	278.81
609.667	284.81
609.875	272.81
610.083	287.81
610.291	271.81
610.499	276.81
610.707	271.81
610.916	268.81
611.124	267.81
611.332	269.81
611.54	276.81
611.748	262.81
611.955	288.81
612.163	260.81
612.371	269.81
612.579	264.81
612.787	270.81
612.995	267.81
613.203	267.81
613.411	274.81
613.618	270.81
613.826	261.81
614.034	273.81
614.242	264.81
614.449	269.81
614.657	268.81
614.865	269.81
615.072	271.81
615.28	268.81
615.488	254.81
615.695	278.81
615.903	280.81
616.111	278.81
616.318	265.81
616.526	275.81
616.733	281.81
616.941	278.81
617.148	279.81
617.356	263.81
617.563	278.81
617.771	276.81
617.978	263.81
618.185	263.81
618.393	251.81
618.6	260.81
618.807	257.81
619.015	263.81
619.222	287.81
619.429	263.81
619.637	262.81
619.844	253.81
620.051	268.81
620.258	243.81
620.466	261.81
620.673	265.81
620.88	279.81
621.087	251.81
621.294	261.81
621.501	260.81
621.708	250.81
621.915	268.81
622.122	261.81
622.329	268.81
622.536	259.81
622.743	264.81
622.95	257.81
623.157	255.81
623.364	250.81
623.571	244.81
623.778	259.81
623.985	251.81
624.192	239.81
624.399	256.81
624.606	245.81
624.812	239.81
625.019	265.81
625.226	253.81
625.433	251.81
625.639	246.81
625.846	241.81
626.053	227.81
626.259	251.81
626.466	240.81
626.673	239.81
626.879	238.81
627.086	216.81
627.293	223.81
627.499	255.81
627.706	229.81
627.912	233.81
628.119	257.81
628.325	252.81
628.532	245.81
628.738	241.81
628.945	251.81
629.151	231.81
629.357	255.81
629.564	230.81
629.77	213.81
629.976	245.81
630.183	213.81
630.389	222.81
630.595	219.81
630.802	232.81
631.008	237.81
631.214	227.81
631.42	231.81
631.627	225.81
631.833	227.81
632.039	213.81
632.245	228.81
632.451	217.81
632.657	235.81
632.863	232.81
633.069	223.81
633.275	216.81
633.481	226.81
633.688	222.81
633.893	233.81
634.099	215.81
634.305	219.81
634.511	219.81
634.717	211.81
634.923	210.81
635.129	196.81
635.335	200.81
635.541	209.81
635.747	213.81
635.952	214.81
636.158	216.81
636.364	209.81
636.57	213.81
636.775	210.81
636.981	213.81
637.187	208.81
637.392	204.81
637.598	204.81
637.804	213.81
638.009	224.81
638.215	199.81
638.421	201.81
638.626	221.81
638.832	206.81
639.037	209.81
639.243	199.81
639.448	202.81
639.654	197.81
639.859	200.81
640.065	207.81
640.27	205.81
640.475	198.81
640.681	208.81
640.886	212.81
641.091	209.81
641.297	206.81
641.502	202.81
641.707	222.81
641.913	203.81
642.118	202.81
642.323	185.81
642.528	189.81
642.733	193.81
642.939	188.81
643.144	211.81
643.349	197.81
643.554	200.81
643.759	196.81
643.964	196.81
644.169	200.81
644.374	195.81
644.579	183.81
644.784	183.81
644.989	185.81
645.194	194.81
645.399	198.81
645.604	192.81
645.809	180.81
646.014	182.81
646.219	189.81
646.423	191.81
646.628	208.81
646.833	196.81
647.038	188.81
647.243	205.81
647.447	199.81
647.652	204.81
647.857	195.81
648.062	207.81
648.266	204.81
648.471	213.81
648.676	220.81
648.88	226.81
649.085	219.81
649.289	223.81
649.494	233.81
649.698	278.81
649.903	247.81
650.107	204.81
650.312	210.81
650.516	199.81
650.721	189.81
650.925	175.81
651.13	187.81
651.334	183.81
651.539	187.81
651.743	179.81
651.947	189.81
652.152	201.81
652.356	198.81
652.56	201.81
652.764	195.81
652.969	171.81
653.173	166.81
653.377	175.81
653.581	164.81
653.785	164.81
653.99	163.81
654.194	180.81
654.398	173.81
654.602	191.81
654.806	197.81
655.01	220.81
655.214	171.81
655.418	183.81
655.622	192.81
655.826	193.81
656.03	190.81
656.234	201.81
656.438	205.81
656.642	193.81
656.846	178.81
657.049	191.81
657.253	156.81
657.457	166.81
657.661	161.81
657.865	157.81
658.068	146.81
658.272	160.81
658.476	133.81
658.68	136.81
658.883	122.81
659.087	136.81
659.291	126.81
659.494	126.81
659.698	125.81
659.901	122.81
660.105	114.81
660.309	109.81
660.512	99.81
660.716	107.81
660.919	115.81
661.123	100.81
661.326	110.81
661.53	117.81
661.733	109.81
661.936	101.81
662.14	95.81
662.343	89.81
662.546	79.81
662.75	79.81
662.953	88.81
663.156	102.81
663.36	107.81
663.563	85.81
663.766	107.81
663.969	101.81
664.173	77.81
664.376	88.81
664.579	87.81
664.782	81.81
664.985	93.81
665.188	85.81
665.391	79.81
665.594	81.81
665.797	71.81
666	80.81
666.203	82.81
666.406	88.81
666.609	95.81
666.812	80.81
667.015	83.81
667.218	95.81
667.421	82.81
667.624	82.81
667.827	78.81
668.03	75.81
668.232	82.81
668.435	81.81
668.638	83.81
668.841	94.81
669.043	72.81
669.246	78.81
669.449	84.81
669.651	68.81
669.854	88.81
670.057	83.81
670.259	79.81
670.462	77.81
670.665	91.81
670.867	86.81
671.07	85.81
671.272	80.81
671.475	72.81
671.677	81.81
671.88	81.81
672.082	77.81
672.284	94.81
672.487	79.81
672.689	78.81
672.892	90.81
