Data from Circ_2006_H10_HRD10591_00020.txt Node
Date: Wed Jan 03 10:26:07 EST 2024
User: Yrep
Spectrometer: HR+D1059
Trigger mode: 1
Integration Time (sec): 1.000000E-1
Scans to average: 1
Electric dark correction enabled: true
Nonlinearity correction enabled: false
Boxcar width: 0
XAxis mode: Wavelengths
Number of Pixels in Spectrum: 2048
>>>>>Begin Spectral Data<<<<<
223.165	-15.5
223.4	-15.5
223.635	-15.5
223.869	-15.5
224.104	-12.5
224.338	-11.5
224.573	-17.5
224.808	-19.5
225.042	-14.5
225.277	-12.5
225.511	-5.5
225.746	5.5
225.98	2.5
226.215	21.5
226.449	10.5
226.683	7.5
226.918	25.5
227.152	51.5
227.387	36.5
227.621	28.5
227.856	33.5
228.09	49.5
228.324	46.5
228.559	55.5
228.793	57.5
229.027	65.5
229.262	72.5
229.496	73.5
229.73	92.5
229.964	89.5
230.199	80.5
230.433	73.5
230.667	73.5
230.901	77.5
231.136	83.5
231.37	94.5
231.604	71.5
231.838	69.5
232.072	70.5
232.306	87.5
232.541	77.5
232.775	71.5
233.009	97.5
233.243	84.5
233.477	74.5
233.711	82.5
233.945	95.5
234.179	75.5
234.413	81.5
234.647	83.5
234.881	92.5
235.115	72.5
235.349	86.5
235.583	76.5
235.817	81.5
236.051	72.5
236.285	76.5
236.519	59.5
236.753	71.5
236.987	88.5
237.221	97.5
237.455	86.5
237.689	73.5
237.922	79.5
238.156	56.5
238.39	83.5
238.624	100.5
238.858	82.5
239.091	85.5
239.325	70.5
239.559	88.5
239.793	80.5
240.027	90.5
240.26	71.5
240.494	87.5
240.728	88.5
240.961	73.5
241.195	81.5
241.429	82.5
241.662	85.5
241.896	73.5
242.13	70.5
242.363	67.5
242.597	79.5
242.83	74.5
243.064	71.5
243.298	75.5
243.531	84.5
243.765	78.5
243.998	62.5
244.232	79.5
244.465	76.5
244.699	75.5
244.932	80.5
245.166	70.5
245.399	71.5
245.633	80.5
245.866	84.5
246.099	64.5
246.333	74.5
246.566	84.5
246.8	75.5
247.033	78.5
247.266	86.5
247.5	85.5
247.733	91.5
247.966	89.5
248.2	75.5
248.433	74.5
248.666	86.5
248.899	84.5
249.133	79.5
249.366	108.5
249.599	101.5
249.832	85.5
250.066	92.5
250.299	83.5
250.532	82.5
250.765	75.5
250.998	72.5
251.231	76.5
251.465	83.5
251.698	82.5
251.931	96.5
252.164	83.5
252.397	88.5
252.63	82.5
252.863	86.5
253.096	76.5
253.329	76.5
253.562	86.5
253.795	87.5
254.028	76.5
254.261	81.5
254.494	84.5
254.727	91.5
254.96	97.5
255.193	73.5
255.426	73.5
255.659	80.5
255.892	86.5
256.124	76.5
256.357	85.5
256.59	86.5
256.823	77.5
257.056	82.5
257.289	87.5
257.521	90.5
257.754	79.5
257.987	86.5
258.22	92.5
258.452	88.5
258.685	84.5
258.918	80.5
259.151	88.5
259.383	82.5
259.616	74.5
259.849	83.5
260.081	73.5
260.314	68.5
260.547	82.5
260.779	87.5
261.012	83.5
261.244	81.5
261.477	88.5
261.71	104.5
261.942	128.5
262.175	142.5
262.407	89.5
262.64	78.5
262.872	86.5
263.105	80.5
263.337	81.5
263.57	75.5
263.802	75.5
264.035	79.5
264.267	89.5
264.499	82.5
264.732	87.5
264.964	83.5
265.197	83.5
265.429	90.5
265.661	89.5
265.894	89.5
266.126	85.5
266.358	95.5
266.591	79.5
266.823	85.5
267.055	88.5
267.287	73.5
267.52	84.5
267.752	96.5
267.984	97.5
268.216	89.5
268.448	82.5
268.681	80.5
268.913	86.5
269.145	91.5
269.377	86.5
269.609	75.5
269.841	81.5
270.073	89.5
270.306	79.5
270.538	85.5
270.77	87.5
271.002	86.5
271.234	87.5
271.466	88.5
271.698	84.5
271.93	88.5
272.162	89.5
272.394	88.5
272.626	83.5
272.858	95.5
273.09	87.5
273.322	87.5
273.553	84.5
273.785	83.5
274.017	79.5
274.249	87.5
274.481	94.5
274.713	70.5
274.945	86.5
275.176	88.5
275.408	98.5
275.64	98.5
275.872	81.5
276.104	84.5
276.335	100.5
276.567	101.5
276.799	105.5
277.031	119.5
277.262	76.5
277.494	90.5
277.726	98.5
277.957	98.5
278.189	100.5
278.421	87.5
278.652	92.5
278.884	92.5
279.115	102.5
279.347	81.5
279.579	92.5
279.81	82.5
280.042	82.5
280.273	108.5
280.505	89.5
280.736	86.5
280.968	78.5
281.199	80.5
281.431	81.5
281.662	86.5
281.894	88.5
282.125	97.5
282.356	140.5
282.588	182.5
282.819	136.5
283.051	95.5
283.282	86.5
283.513	109.5
283.745	95.5
283.976	71.5
284.207	97.5
284.439	80.5
284.67	89.5
284.901	80.5
285.132	96.5
285.364	106.5
285.595	86.5
285.826	89.5
286.057	89.5
286.288	91.5
286.52	83.5
286.751	99.5
286.982	70.5
287.213	99.5
287.444	93.5
287.675	94.5
287.906	91.5
288.138	89.5
288.369	100.5
288.6	92.5
288.831	87.5
289.062	93.5
289.293	85.5
289.524	91.5
289.755	81.5
289.986	80.5
290.217	101.5
290.448	97.5
290.679	91.5
290.91	92.5
291.141	85.5
291.371	95.5
291.602	81.5
291.833	86.5
292.064	111.5
292.295	82.5
292.526	91.5
292.757	87.5
292.987	88.5
293.218	108.5
293.449	97.5
293.68	96.5
293.91	89.5
294.141	102.5
294.372	85.5
294.603	87.5
294.833	107.5
295.064	99.5
295.295	79.5
295.525	92.5
295.756	111.5
295.987	141.5
296.217	172.5
296.448	159.5
296.679	102.5
296.909	111.5
297.14	98.5
297.37	100.5
297.601	95.5
297.831	95.5
298.062	96.5
298.292	90.5
298.523	91.5
298.753	100.5
298.984	103.5
299.214	100.5
299.445	99.5
299.675	94.5
299.905	101.5
300.136	94.5
300.366	92.5
300.597	107.5
300.827	96.5
301.057	102.5
301.288	113.5
301.518	108.5
301.748	107.5
301.979	94.5
302.209	77.5
302.439	107.5
302.669	100.5
302.9	85.5
303.13	91.5
303.36	83.5
303.59	103.5
303.82	126.5
304.051	99.5
304.281	67.5
304.511	81.5
304.741	89.5
304.971	87.5
305.201	90.5
305.431	99.5
305.661	84.5
305.891	105.5
306.121	104.5
306.352	109.5
306.582	133.5
306.812	108.5
307.042	103.5
307.272	86.5
307.502	98.5
307.731	112.5
307.961	90.5
308.191	95.5
308.421	107.5
308.651	105.5
308.881	104.5
309.111	85.5
309.341	109.5
309.571	112.5
309.8	109.5
310.03	108.5
310.26	108.5
310.49	115.5
310.72	101.5
310.949	114.5
311.179	104.5
311.409	104.5
311.639	96.5
311.868	111.5
312.098	95.5
312.328	103.5
312.557	120.5
312.787	124.5
313.017	119.5
313.246	106.5
313.476	96.5
313.706	100.5
313.935	106.5
314.165	107.5
314.394	118.5
314.624	101.5
314.853	108.5
315.083	97.5
315.312	87.5
315.542	89.5
315.771	83.5
316.001	104.5
316.23	95.5
316.46	98.5
316.689	105.5
316.919	112.5
317.148	102.5
317.377	97.5
317.607	112.5
317.836	100.5
318.065	89.5
318.295	84.5
318.524	84.5
318.753	90.5
318.983	97.5
319.212	99.5
319.441	118.5
319.67	127.5
319.9	88.5
320.129	104.5
320.358	88.5
320.587	97.5
320.816	116.5
321.046	124.5
321.275	116.5
321.504	121.5
321.733	108.5
321.962	101.5
322.191	110.5
322.42	130.5
322.649	118.5
322.878	117.5
323.108	151.5
323.337	157.5
323.566	165.5
323.795	210.5
324.024	291.5
324.253	609.5
324.482	1384.5
324.71	2962.5
324.939	3907.5
325.168	1329.5
325.397	346.5
325.626	194.5
325.855	174.5
326.084	164.5
326.313	163.5
326.542	199.5
326.77	332.5
326.999	720.5
327.228	1545.5
327.457	2939.5
327.686	2270.5
327.914	555.5
328.143	257.5
328.372	208.5
328.6	153.5
328.829	139.5
329.058	160.5
329.287	159.5
329.515	131.5
329.744	111.5
329.972	97.5
330.201	121.5
330.43	146.5
330.658	155.5
330.887	199.5
331.115	165.5
331.344	115.5
331.572	121.5
331.801	103.5
332.03	123.5
332.258	106.5
332.486	99.5
332.715	106.5
332.943	102.5
333.172	102.5
333.4	110.5
333.629	123.5
333.857	141.5
334.085	124.5
334.314	112.5
334.542	117.5
334.771	111.5
334.999	112.5
335.227	109.5
335.455	108.5
335.684	112.5
335.912	95.5
336.14	110.5
336.369	121.5
336.597	95.5
336.825	109.5
337.053	88.5
337.281	105.5
337.51	96.5
337.738	100.5
337.966	99.5
338.194	108.5
338.422	103.5
338.65	99.5
338.878	98.5
339.106	95.5
339.334	108.5
339.562	91.5
339.79	98.5
340.018	96.5
340.246	101.5
340.474	110.5
340.702	101.5
340.93	99.5
341.158	96.5
341.386	96.5
341.614	100.5
341.842	102.5
342.07	95.5
342.298	101.5
342.526	95.5
342.754	99.5
342.981	92.5
343.209	97.5
343.437	94.5
343.665	83.5
343.893	86.5
344.12	93.5
344.348	85.5
344.576	94.5
344.804	99.5
345.031	105.5
345.259	115.5
345.487	102.5
345.714	91.5
345.942	104.5
346.17	87.5
346.397	92.5
346.625	95.5
346.853	98.5
347.08	108.5
347.308	96.5
347.535	109.5
347.763	99.5
347.99	104.5
348.218	104.5
348.445	124.5
348.673	113.5
348.9	109.5
349.128	115.5
349.355	97.5
349.583	88.5
349.81	107.5
350.037	105.5
350.265	101.5
350.492	112.5
350.72	95.5
350.947	105.5
351.174	121.5
351.402	120.5
351.629	106.5
351.856	104.5
352.083	109.5
352.311	118.5
352.538	128.5
352.765	117.5
352.992	126.5
353.22	107.5
353.447	119.5
353.674	113.5
353.901	102.5
354.128	95.5
354.355	101.5
354.583	116.5
354.81	96.5
355.037	99.5
355.264	97.5
355.491	96.5
355.718	102.5
355.945	95.5
356.172	110.5
356.399	97.5
356.626	98.5
356.853	104.5
357.08	89.5
357.307	83.5
357.534	96.5
357.761	106.5
357.988	102.5
358.215	102.5
358.441	98.5
358.668	101.5
358.895	81.5
359.122	86.5
359.349	89.5
359.576	102.5
359.802	106.5
360.029	147.5
360.256	146.5
360.483	108.5
360.709	106.5
360.936	87.5
361.163	108.5
361.39	104.5
361.616	82.5
361.843	87.5
362.07	103.5
362.296	96.5
362.523	87.5
362.749	114.5
362.976	89.5
363.203	102.5
363.429	84.5
363.656	83.5
363.882	97.5
364.109	102.5
364.335	95.5
364.562	88.5
364.788	97.5
365.015	97.5
365.241	121.5
365.468	117.5
365.694	124.5
365.92	104.5
366.147	102.5
366.373	84.5
366.599	96.5
366.826	88.5
367.052	99.5
367.278	97.5
367.505	95.5
367.731	97.5
367.957	99.5
368.184	114.5
368.41	113.5
368.636	116.5
368.862	140.5
369.089	120.5
369.315	105.5
369.541	89.5
369.767	111.5
369.993	100.5
370.219	101.5
370.445	88.5
370.672	97.5
370.898	85.5
371.124	88.5
371.35	100.5
371.576	98.5
371.802	96.5
372.028	97.5
372.254	93.5
372.48	83.5
372.706	95.5
372.932	90.5
373.158	103.5
373.384	78.5
373.61	77.5
373.835	84.5
374.061	82.5
374.287	98.5
374.513	103.5
374.739	90.5
374.965	89.5
375.191	102.5
375.416	88.5
375.642	100.5
375.868	93.5
376.094	99.5
376.319	109.5
376.545	92.5
376.771	100.5
376.997	82.5
377.222	100.5
377.448	97.5
377.674	98.5
377.899	94.5
378.125	83.5
378.35	91.5
378.576	107.5
378.802	92.5
379.027	95.5
379.253	101.5
379.478	99.5
379.704	113.5
379.929	102.5
380.155	112.5
380.38	100.5
380.606	102.5
380.831	84.5
381.057	97.5
381.282	104.5
381.507	94.5
381.733	109.5
381.958	112.5
382.184	107.5
382.409	118.5
382.634	112.5
382.86	105.5
383.085	100.5
383.31	101.5
383.535	118.5
383.761	106.5
383.986	95.5
384.211	99.5
384.436	101.5
384.662	106.5
384.887	115.5
385.112	114.5
385.337	119.5
385.562	128.5
385.787	132.5
386.013	105.5
386.238	131.5
386.463	116.5
386.688	121.5
386.913	109.5
387.138	101.5
387.363	114.5
387.588	109.5
387.813	98.5
388.038	121.5
388.263	138.5
388.488	118.5
388.713	96.5
388.938	95.5
389.163	93.5
389.387	109.5
389.612	99.5
389.837	108.5
390.062	90.5
390.287	95.5
390.512	81.5
390.736	92.5
390.961	87.5
391.186	76.5
391.411	78.5
391.636	93.5
391.86	97.5
392.085	81.5
392.31	93.5
392.534	95.5
392.759	87.5
392.984	99.5
393.208	96.5
393.433	96.5
393.658	86.5
393.882	90.5
394.107	87.5
394.331	91.5
394.556	93.5
394.78	88.5
395.005	98.5
395.229	90.5
395.454	99.5
395.678	89.5
395.903	104.5
396.127	91.5
396.352	97.5
396.576	81.5
396.801	95.5
397.025	99.5
397.249	86.5
397.474	86.5
397.698	77.5
397.922	91.5
398.147	84.5
398.371	75.5
398.595	95.5
398.82	89.5
399.044	80.5
399.268	82.5
399.492	97.5
399.717	109.5
399.941	97.5
400.165	97.5
400.389	93.5
400.613	84.5
400.837	86.5
401.062	85.5
401.286	99.5
401.51	94.5
401.734	92.5
401.958	121.5
402.182	165.5
402.406	206.5
402.63	135.5
402.854	93.5
403.078	96.5
403.302	82.5
403.526	95.5
403.75	89.5
403.974	94.5
404.198	83.5
404.422	69.5
404.645	87.5
404.869	98.5
405.093	104.5
405.317	113.5
405.541	113.5
405.765	100.5
405.988	143.5
406.212	229.5
406.436	311.5
406.66	205.5
406.883	114.5
407.107	115.5
407.331	100.5
407.555	113.5
407.778	108.5
408.002	87.5
408.226	98.5
408.449	88.5
408.673	99.5
408.896	100.5
409.12	110.5
409.344	104.5
409.567	94.5
409.791	79.5
410.014	89.5
410.238	81.5
410.461	89.5
410.685	81.5
410.908	108.5
411.132	117.5
411.355	109.5
411.578	100.5
411.802	103.5
412.025	95.5
412.249	87.5
412.472	97.5
412.695	90.5
412.919	95.5
413.142	90.5
413.365	93.5
413.589	90.5
413.812	75.5
414.035	91.5
414.258	84.5
414.482	91.5
414.705	91.5
414.928	96.5
415.151	83.5
415.374	99.5
415.597	92.5
415.821	100.5
416.044	88.5
416.267	86.5
416.49	90.5
416.713	98.5
416.936	101.5
417.159	87.5
417.382	93.5
417.605	89.5
417.828	108.5
418.051	95.5
418.274	86.5
418.497	85.5
418.72	97.5
418.943	95.5
419.166	99.5
419.389	109.5
419.611	92.5
419.834	89.5
420.057	79.5
420.28	99.5
420.503	91.5
420.726	103.5
420.948	98.5
421.171	101.5
421.394	97.5
421.617	76.5
421.839	99.5
422.062	99.5
422.285	79.5
422.507	98.5
422.73	105.5
422.953	111.5
423.175	98.5
423.398	102.5
423.621	83.5
423.843	89.5
424.066	80.5
424.288	97.5
424.511	102.5
424.733	106.5
424.956	111.5
425.178	98.5
425.401	113.5
425.623	110.5
425.846	108.5
426.068	104.5
426.291	109.5
426.513	96.5
426.735	87.5
426.958	93.5
427.18	117.5
427.402	169.5
427.625	217.5
427.847	166.5
428.069	127.5
428.292	94.5
428.514	86.5
428.736	86.5
428.958	91.5
429.181	97.5
429.403	87.5
429.625	93.5
429.847	91.5
430.069	112.5
430.292	97.5
430.514	91.5
430.736	98.5
430.958	88.5
431.18	84.5
431.402	99.5
431.624	92.5
431.846	78.5
432.068	79.5
432.29	81.5
432.512	101.5
432.734	81.5
432.956	96.5
433.178	98.5
433.4	109.5
433.622	103.5
433.844	79.5
434.066	87.5
434.287	92.5
434.509	102.5
434.731	94.5
434.953	97.5
435.175	90.5
435.397	99.5
435.618	93.5
435.84	107.5
436.062	159.5
436.284	142.5
436.505	125.5
436.727	113.5
436.949	97.5
437.17	89.5
437.392	106.5
437.614	109.5
437.835	120.5
438.057	140.5
438.278	121.5
438.5	116.5
438.721	143.5
438.943	98.5
439.165	84.5
439.386	105.5
439.608	89.5
439.829	102.5
440.05	142.5
440.272	174.5
440.493	121.5
440.715	99.5
440.936	96.5
441.158	94.5
441.379	93.5
441.6	92.5
441.822	105.5
442.043	97.5
442.264	117.5
442.486	119.5
442.707	91.5
442.928	113.5
443.149	166.5
443.371	153.5
443.592	117.5
443.813	139.5
444.034	120.5
444.255	107.5
444.476	83.5
444.698	93.5
444.919	100.5
445.14	150.5
445.361	137.5
445.582	157.5
445.803	176.5
446.024	169.5
446.245	163.5
446.466	138.5
446.687	94.5
446.908	87.5
447.129	86.5
447.35	99.5
447.571	110.5
447.792	101.5
448.013	104.5
448.234	140.5
448.455	119.5
448.675	114.5
448.896	133.5
449.117	116.5
449.338	111.5
449.559	138.5
449.779	145.5
450	109.5
450.221	96.5
450.442	97.5
450.662	110.5
450.883	138.5
451.104	130.5
451.324	121.5
451.545	82.5
451.766	77.5
451.986	91.5
452.207	89.5
452.428	111.5
452.648	101.5
452.869	128.5
453.089	132.5
453.31	157.5
453.53	98.5
453.751	103.5
453.971	126.5
454.192	132.5
454.412	101.5
454.633	98.5
454.853	87.5
455.073	83.5
455.294	95.5
455.514	109.5
455.734	96.5
455.955	79.5
456.175	80.5
456.395	92.5
456.616	95.5
456.836	95.5
457.056	85.5
457.276	94.5
457.497	86.5
457.717	82.5
457.937	82.5
458.157	80.5
458.377	93.5
458.598	124.5
458.818	198.5
459.038	215.5
459.258	148.5
459.478	105.5
459.698	110.5
459.918	99.5
460.138	84.5
460.358	73.5
460.578	95.5
460.798	89.5
461.018	90.5
461.238	94.5
461.458	81.5
461.678	83.5
461.898	85.5
462.118	87.5
462.338	85.5
462.558	103.5
462.777	102.5
462.997	91.5
463.217	89.5
463.437	86.5
463.657	79.5
463.876	103.5
464.096	107.5
464.316	100.5
464.536	87.5
464.755	100.5
464.975	122.5
465.195	223.5
465.414	236.5
465.634	103.5
465.854	85.5
466.073	87.5
466.293	85.5
466.512	99.5
466.732	78.5
466.951	89.5
467.171	87.5
467.391	117.5
467.61	112.5
467.829	102.5
468.049	96.5
468.268	89.5
468.488	95.5
468.707	86.5
468.927	91.5
469.146	99.5
469.365	87.5
469.585	71.5
469.804	102.5
470.023	104.5
470.243	107.5
470.462	109.5
470.681	129.5
470.901	101.5
471.12	102.5
471.339	88.5
471.558	99.5
471.777	96.5
471.997	102.5
472.216	109.5
472.435	127.5
472.654	97.5
472.873	94.5
473.092	96.5
473.311	93.5
473.53	96.5
473.749	83.5
473.968	111.5
474.187	109.5
474.406	103.5
474.625	94.5
474.844	88.5
475.063	91.5
475.282	86.5
475.501	91.5
475.72	110.5
475.939	87.5
476.158	83.5
476.377	97.5
476.596	103.5
476.814	83.5
477.033	104.5
477.252	83.5
477.471	85.5
477.69	86.5
477.908	87.5
478.127	87.5
478.346	89.5
478.564	116.5
478.783	109.5
479.002	106.5
479.22	94.5
479.439	108.5
479.658	124.5
479.876	113.5
480.095	105.5
480.313	96.5
480.532	109.5
480.751	87.5
480.969	106.5
481.188	171.5
481.406	132.5
481.624	96.5
481.843	84.5
482.061	102.5
482.28	99.5
482.498	94.5
482.717	88.5
482.935	83.5
483.153	99.5
483.372	94.5
483.59	81.5
483.808	85.5
484.027	95.5
484.245	96.5
484.463	95.5
484.681	95.5
484.9	88.5
485.118	101.5
485.336	98.5
485.554	102.5
485.772	103.5
485.99	114.5
486.209	98.5
486.427	105.5
486.645	135.5
486.863	128.5
487.081	111.5
487.299	110.5
487.517	101.5
487.735	96.5
487.953	100.5
488.171	97.5
488.389	108.5
488.607	113.5
488.825	99.5
489.043	89.5
489.261	109.5
489.479	91.5
489.696	90.5
489.914	89.5
490.132	95.5
490.35	81.5
490.568	80.5
490.786	99.5
491.003	91.5
491.221	93.5
491.439	96.5
491.657	92.5
491.874	92.5
492.092	93.5
492.31	79.5
492.527	99.5
492.745	81.5
492.963	99.5
493.18	91.5
493.398	116.5
493.615	97.5
493.833	94.5
494.05	88.5
494.268	101.5
494.485	92.5
494.703	98.5
494.92	103.5
495.138	86.5
495.355	87.5
495.573	86.5
495.79	99.5
496.008	93.5
496.225	86.5
496.442	91.5
496.66	94.5
496.877	88.5
497.094	97.5
497.312	106.5
497.529	91.5
497.746	88.5
497.963	86.5
498.181	88.5
498.398	99.5
498.615	112.5
498.832	116.5
499.049	99.5
499.267	104.5
499.484	87.5
499.701	86.5
499.918	87.5
500.135	88.5
500.352	100.5
500.569	85.5
500.786	88.5
501.003	95.5
501.22	88.5
501.437	93.5
501.654	96.5
501.871	130.5
502.088	90.5
502.305	87.5
502.522	97.5
502.739	102.5
502.956	99.5
503.172	93.5
503.389	82.5
503.606	109.5
503.823	111.5
504.04	109.5
504.256	87.5
504.473	88.5
504.69	83.5
504.907	103.5
505.123	104.5
505.34	102.5
505.557	96.5
505.773	108.5
505.99	80.5
506.207	90.5
506.423	94.5
506.64	94.5
506.856	89.5
507.073	90.5
507.289	87.5
507.506	102.5
507.722	139.5
507.939	139.5
508.155	102.5
508.372	89.5
508.588	98.5
508.805	101.5
509.021	97.5
509.238	103.5
509.454	110.5
509.67	116.5
509.887	124.5
510.103	158.5
510.319	249.5
510.536	1037.5
510.752	3639.5
510.968	965.5
511.184	190.5
511.401	130.5
511.617	103.5
511.833	95.5
512.049	79.5
512.265	95.5
512.481	115.5
512.698	104.5
512.914	79.5
513.13	113.5
513.346	109.5
513.562	93.5
513.778	104.5
513.994	115.5
514.21	118.5
514.426	132.5
514.642	181.5
514.858	150.5
515.074	213.5
515.29	749.5
515.506	2600.5
515.721	924.5
515.937	219.5
516.153	129.5
516.369	125.5
516.585	100.5
516.801	92.5
517.016	101.5
517.232	98.5
517.448	102.5
517.664	100.5
517.879	99.5
518.095	85.5
518.311	104.5
518.527	90.5
518.742	87.5
518.958	106.5
519.173	105.5
519.389	86.5
519.605	87.5
519.82	99.5
520.036	115.5
520.251	147.5
520.467	132.5
520.682	126.5
520.898	117.5
521.113	135.5
521.329	187.5
521.544	305.5
521.76	983.5
521.975	4296.5
522.19	2534.5
522.406	489.5
522.621	157.5
522.836	113.5
523.052	115.5
523.267	108.5
523.482	114.5
523.698	120.5
523.913	157.5
524.128	116.5
524.343	110.5
524.559	102.5
524.774	90.5
524.989	95.5
525.204	115.5
525.419	100.5
525.634	97.5
525.849	95.5
526.064	96.5
526.28	94.5
526.495	96.5
526.71	93.5
526.925	95.5
527.14	77.5
527.355	87.5
527.57	85.5
527.785	106.5
527.999	103.5
528.214	88.5
528.429	89.5
528.644	89.5
528.859	101.5
529.074	103.5
529.289	156.5
529.503	275.5
529.718	122.5
529.933	102.5
530.148	96.5
530.363	88.5
530.577	97.5
530.792	83.5
531.007	97.5
531.221	102.5
531.436	96.5
531.651	91.5
531.865	89.5
532.08	98.5
532.295	106.5
532.509	99.5
532.724	76.5
532.938	104.5
533.153	93.5
533.367	76.5
533.582	112.5
533.796	83.5
534.011	100.5
534.225	92.5
534.44	79.5
534.654	81.5
534.868	97.5
535.083	89.5
535.297	108.5
535.511	115.5
535.726	112.5
535.94	114.5
536.154	112.5
536.369	101.5
536.583	96.5
536.797	99.5
537.011	84.5
537.225	80.5
537.44	80.5
537.654	86.5
537.868	82.5
538.082	97.5
538.296	101.5
538.51	99.5
538.724	89.5
538.938	96.5
539.153	112.5
539.367	131.5
539.581	100.5
539.795	101.5
540.009	89.5
540.222	97.5
540.436	94.5
540.65	79.5
540.864	104.5
541.078	87.5
541.292	105.5
541.506	100.5
541.72	91.5
541.934	84.5
542.147	82.5
542.361	94.5
542.575	98.5
542.789	95.5
543.002	92.5
543.216	80.5
543.43	104.5
543.644	96.5
543.857	86.5
544.071	105.5
544.285	97.5
544.498	83.5
544.712	89.5
544.925	93.5
545.139	98.5
545.352	84.5
545.566	88.5
545.779	78.5
545.993	100.5
546.206	89.5
546.42	85.5
546.633	89.5
546.847	89.5
547.06	95.5
547.274	103.5
547.487	100.5
547.7	96.5
547.914	69.5
548.127	93.5
548.34	75.5
548.554	84.5
548.767	94.5
548.98	103.5
549.193	92.5
549.407	84.5
549.62	87.5
549.833	83.5
550.046	85.5
550.259	87.5
550.473	112.5
550.686	84.5
550.899	90.5
551.112	96.5
551.325	97.5
551.538	95.5
551.751	77.5
551.964	95.5
552.177	79.5
552.39	88.5
552.603	86.5
552.816	94.5
553.029	82.5
553.242	100.5
553.455	110.5
553.667	109.5
553.88	110.5
554.093	100.5
554.306	90.5
554.519	102.5
554.732	92.5
554.944	116.5
555.157	93.5
555.37	98.5
555.583	79.5
555.795	85.5
556.008	88.5
556.221	100.5
556.433	86.5
556.646	103.5
556.859	95.5
557.071	88.5
557.284	96.5
557.496	79.5
557.709	85.5
557.921	98.5
558.134	105.5
558.346	94.5
558.559	88.5
558.771	83.5
558.984	87.5
559.196	79.5
559.409	91.5
559.621	86.5
559.833	93.5
560.046	93.5
560.258	99.5
560.47	104.5
560.683	88.5
560.895	96.5
561.107	94.5
561.32	87.5
561.532	88.5
561.744	81.5
561.956	85.5
562.168	100.5
562.381	112.5
562.593	95.5
562.805	104.5
563.017	95.5
563.229	87.5
563.441	91.5
563.653	89.5
563.865	94.5
564.077	94.5
564.289	100.5
564.501	81.5
564.713	71.5
564.925	92.5
565.137	115.5
565.349	111.5
565.561	87.5
565.773	86.5
565.985	92.5
566.197	88.5
566.408	91.5
566.62	75.5
566.832	85.5
567.044	85.5
567.255	93.5
567.467	93.5
567.679	101.5
567.891	106.5
568.102	102.5
568.314	92.5
568.526	83.5
568.737	81.5
568.949	85.5
569.161	93.5
569.372	99.5
569.584	101.5
569.795	102.5
570.007	137.5
570.218	334.5
570.43	173.5
570.641	96.5
570.853	100.5
571.064	86.5
571.276	88.5
571.487	100.5
571.698	78.5
571.91	96.5
572.121	79.5
572.333	89.5
572.544	91.5
572.755	97.5
572.966	93.5
573.178	98.5
573.389	102.5
573.6	95.5
573.811	88.5
574.023	95.5
574.234	98.5
574.445	87.5
574.656	103.5
574.867	87.5
575.078	73.5
575.289	91.5
575.501	86.5
575.712	88.5
575.923	106.5
576.134	86.5
576.345	84.5
576.556	82.5
576.767	94.5
576.978	86.5
577.188	89.5
577.399	95.5
577.61	109.5
577.821	91.5
578.032	115.5
578.243	354.5
578.454	1135.5
578.665	296.5
578.875	115.5
579.086	100.5
579.297	94.5
579.508	87.5
579.718	89.5
579.929	97.5
580.14	94.5
580.35	89.5
580.561	87.5
580.772	89.5
580.982	99.5
581.193	83.5
581.403	89.5
581.614	97.5
581.825	87.5
582.035	94.5
582.246	91.5
582.456	93.5
582.667	92.5
582.877	103.5
583.087	88.5
583.298	86.5
583.508	80.5
583.719	95.5
583.929	78.5
584.139	104.5
584.35	87.5
584.56	94.5
584.77	77.5
584.981	87.5
585.191	108.5
585.401	83.5
585.611	96.5
585.821	101.5
586.032	95.5
586.242	88.5
586.452	81.5
586.662	83.5
586.872	83.5
587.082	89.5
587.292	84.5
587.502	107.5
587.713	92.5
587.923	79.5
588.133	66.5
588.343	75.5
588.553	87.5
588.762	78.5
588.972	99.5
589.182	179.5
589.392	120.5
589.602	114.5
589.812	154.5
590.022	93.5
590.232	97.5
590.441	85.5
590.651	89.5
590.861	91.5
591.071	92.5
591.281	91.5
591.49	91.5
591.7	81.5
591.91	98.5
592.119	88.5
592.329	86.5
592.539	105.5
592.748	79.5
592.958	88.5
593.167	91.5
593.377	94.5
593.587	95.5
593.796	104.5
594.006	93.5
594.215	97.5
594.424	86.5
594.634	91.5
594.843	73.5
595.053	93.5
595.262	93.5
595.472	100.5
595.681	85.5
595.89	98.5
596.1	84.5
596.309	84.5
596.518	84.5
596.727	93.5
596.937	84.5
597.146	97.5
597.355	91.5
597.564	88.5
597.774	81.5
597.983	99.5
598.192	96.5
598.401	85.5
598.61	84.5
598.819	85.5
599.028	84.5
599.237	88.5
599.446	70.5
599.655	93.5
599.864	81.5
600.073	96.5
600.282	94.5
600.491	100.5
600.7	84.5
600.909	92.5
601.118	93.5
601.327	89.5
601.536	90.5
601.745	97.5
601.953	81.5
602.162	92.5
602.371	96.5
602.58	96.5
602.789	82.5
602.997	84.5
603.206	77.5
603.415	70.5
603.623	105.5
603.832	83.5
604.041	111.5
604.249	85.5
604.458	81.5
604.666	100.5
604.875	93.5
605.084	94.5
605.292	96.5
605.501	87.5
605.709	89.5
605.918	79.5
606.126	86.5
606.334	80.5
606.543	80.5
606.751	95.5
606.96	83.5
607.168	93.5
607.376	84.5
607.585	99.5
607.793	99.5
608.001	102.5
608.21	102.5
608.418	101.5
608.626	100.5
608.834	94.5
609.043	83.5
609.251	97.5
609.459	89.5
609.667	82.5
609.875	81.5
610.083	87.5
610.291	85.5
610.499	89.5
610.707	94.5
610.916	84.5
611.124	96.5
611.332	81.5
611.54	72.5
611.748	80.5
611.955	83.5
612.163	95.5
612.371	90.5
612.579	92.5
612.787	99.5
612.995	85.5
613.203	96.5
613.411	93.5
613.618	95.5
613.826	81.5
614.034	95.5
614.242	95.5
614.449	95.5
614.657	87.5
614.865	89.5
615.072	95.5
615.28	86.5
615.488	86.5
615.695	96.5
615.903	99.5
616.111	97.5
616.318	92.5
616.526	95.5
616.733	83.5
616.941	95.5
617.148	84.5
617.356	91.5
617.563	83.5
617.771	82.5
617.978	73.5
618.185	97.5
618.393	82.5
618.6	85.5
618.807	71.5
619.015	89.5
619.222	88.5
619.429	88.5
619.637	92.5
619.844	98.5
620.051	77.5
620.258	88.5
620.466	86.5
620.673	94.5
620.88	78.5
621.087	85.5
621.294	81.5
621.501	78.5
621.708	91.5
621.915	92.5
622.122	91.5
622.329	84.5
622.536	99.5
622.743	92.5
622.95	94.5
623.157	86.5
623.364	84.5
623.571	83.5
623.778	79.5
623.985	82.5
624.192	84.5
624.399	88.5
624.606	94.5
624.812	86.5
625.019	91.5
625.226	84.5
625.433	88.5
625.639	92.5
625.846	92.5
626.053	96.5
626.259	89.5
626.466	96.5
626.673	81.5
626.879	86.5
627.086	99.5
627.293	102.5
627.499	87.5
627.706	103.5
627.912	84.5
628.119	79.5
628.325	91.5
628.532	79.5
628.738	84.5
628.945	91.5
629.151	92.5
629.357	100.5
629.564	92.5
629.77	81.5
629.976	87.5
630.183	81.5
630.389	78.5
630.595	92.5
630.802	94.5
631.008	93.5
631.214	82.5
631.42	80.5
631.627	88.5
631.833	77.5
632.039	79.5
632.245	85.5
632.451	70.5
632.657	82.5
632.863	88.5
633.069	83.5
633.275	79.5
633.481	99.5
633.688	97.5
633.893	89.5
634.099	94.5
634.305	96.5
634.511	92.5
634.717	85.5
634.923	84.5
635.129	86.5
635.335	84.5
635.541	87.5
635.747	91.5
635.952	91.5
636.158	81.5
636.364	88.5
636.57	82.5
636.775	78.5
636.981	88.5
637.187	78.5
637.392	80.5
637.598	99.5
637.804	97.5
638.009	80.5
638.215	95.5
638.421	76.5
638.626	90.5
638.832	87.5
639.037	89.5
639.243	89.5
639.448	92.5
639.654	84.5
639.859	95.5
640.065	86.5
640.27	88.5
640.475	79.5
640.681	81.5
640.886	87.5
641.091	75.5
641.297	89.5
641.502	72.5
641.707	72.5
641.913	102.5
642.118	95.5
642.323	86.5
642.528	92.5
642.733	86.5
642.939	96.5
643.144	77.5
643.349	79.5
643.554	79.5
643.759	97.5
643.964	80.5
644.169	81.5
644.374	80.5
644.579	94.5
644.784	96.5
644.989	91.5
645.194	77.5
645.399	92.5
645.604	90.5
645.809	89.5
646.014	91.5
646.219	96.5
646.423	76.5
646.628	81.5
646.833	81.5
647.038	91.5
647.243	90.5
647.447	85.5
647.652	70.5
647.857	77.5
648.062	88.5
648.266	84.5
648.471	86.5
648.676	111.5
648.88	88.5
649.085	93.5
649.289	96.5
649.494	116.5
649.698	163.5
649.903	113.5
650.107	93.5
650.312	93.5
650.516	92.5
650.721	84.5
650.925	89.5
651.13	76.5
651.334	96.5
651.539	87.5
651.743	84.5
651.947	95.5
652.152	85.5
652.356	91.5
652.56	89.5
652.764	72.5
652.969	95.5
653.173	65.5
653.377	85.5
653.581	90.5
653.785	95.5
653.99	91.5
654.194	87.5
654.398	88.5
654.602	87.5
654.806	109.5
655.01	126.5
655.214	93.5
655.418	94.5
655.622	97.5
655.826	85.5
656.03	81.5
656.234	83.5
656.438	86.5
656.642	104.5
656.846	96.5
657.049	77.5
657.253	86.5
657.457	97.5
657.661	88.5
657.865	75.5
658.068	85.5
658.272	87.5
658.476	86.5
658.68	81.5
658.883	85.5
659.087	81.5
659.291	79.5
659.494	80.5
659.698	94.5
659.901	82.5
660.105	86.5
660.309	105.5
660.512	86.5
660.716	81.5
660.919	94.5
661.123	84.5
661.326	85.5
661.53	85.5
661.733	88.5
661.936	86.5
662.14	94.5
662.343	83.5
662.546	80.5
662.75	94.5
662.953	95.5
663.156	72.5
663.36	75.5
663.563	89.5
663.766	80.5
663.969	93.5
664.173	82.5
664.376	80.5
664.579	78.5
664.782	109.5
664.985	83.5
665.188	70.5
665.391	85.5
665.594	80.5
665.797	93.5
666	67.5
666.203	83.5
666.406	67.5
666.609	83.5
666.812	73.5
667.015	73.5
667.218	88.5
667.421	79.5
667.624	88.5
667.827	99.5
668.03	77.5
668.232	83.5
668.435	76.5
668.638	84.5
668.841	82.5
669.043	85.5
669.246	71.5
669.449	69.5
669.651	86.5
669.854	91.5
670.057	89.5
670.259	77.5
670.462	77.5
670.665	77.5
670.867	89.5
671.07	86.5
671.272	89.5
671.475	89.5
671.677	84.5
671.88	84.5
672.082	101.5
672.284	82.5
672.487	87.5
672.689	72.5
672.892	89.5
