Data from Circ_2006_H10_HRD10591_00026.txt Node
Date: Wed Jan 03 10:26:09 EST 2024
User: Yrep
Spectrometer: HR+D1059
Trigger mode: 1
Integration Time (sec): 1.000000E-1
Scans to average: 1
Electric dark correction enabled: true
Nonlinearity correction enabled: false
Boxcar width: 0
XAxis mode: Wavelengths
Number of Pixels in Spectrum: 2048
>>>>>Begin Spectral Data<<<<<
223.165	-5.38
223.4	-5.38
223.635	-5.38
223.869	-21.38
224.104	-15.38
224.338	-14.38
224.573	-9.38
224.808	-10.38
225.042	-16.38
225.277	-5.38
225.511	-11.38
225.746	2.62
225.98	-5.38
226.215	15.62
226.449	17.62
226.683	22.62
226.918	32.62
227.152	23.62
227.387	23.62
227.621	36.62
227.856	58.62
228.09	51.62
228.324	60.62
228.559	60.62
228.793	49.62
229.027	60.62
229.262	69.62
229.496	80.62
229.73	94.62
229.964	77.62
230.199	76.62
230.433	61.62
230.667	88.62
230.901	74.62
231.136	90.62
231.37	66.62
231.604	75.62
231.838	78.62
232.072	76.62
232.306	73.62
232.541	72.62
232.775	81.62
233.009	78.62
233.243	79.62
233.477	80.62
233.711	85.62
233.945	82.62
234.179	78.62
234.413	75.62
234.647	69.62
234.881	78.62
235.115	76.62
235.349	74.62
235.583	67.62
235.817	89.62
236.051	78.62
236.285	81.62
236.519	85.62
236.753	77.62
236.987	71.62
237.221	70.62
237.455	75.62
237.689	80.62
237.922	88.62
238.156	79.62
238.39	72.62
238.624	75.62
238.858	75.62
239.091	84.62
239.325	84.62
239.559	81.62
239.793	87.62
240.027	82.62
240.26	78.62
240.494	83.62
240.728	81.62
240.961	77.62
241.195	78.62
241.429	79.62
241.662	77.62
241.896	94.62
242.13	80.62
242.363	89.62
242.597	77.62
242.83	77.62
243.064	70.62
243.298	61.62
243.531	77.62
243.765	76.62
243.998	86.62
244.232	79.62
244.465	101.62
244.699	79.62
244.932	75.62
245.166	70.62
245.399	75.62
245.633	76.62
245.866	70.62
246.099	88.62
246.333	95.62
246.566	79.62
246.8	81.62
247.033	70.62
247.266	71.62
247.5	60.62
247.733	72.62
247.966	64.62
248.2	79.62
248.433	90.62
248.666	78.62
248.899	82.62
249.133	81.62
249.366	112.62
249.599	84.62
249.832	77.62
250.066	79.62
250.299	74.62
250.532	73.62
250.765	79.62
250.998	67.62
251.231	74.62
251.465	75.62
251.698	82.62
251.931	70.62
252.164	71.62
252.397	78.62
252.63	77.62
252.863	80.62
253.096	78.62
253.329	87.62
253.562	78.62
253.795	94.62
254.028	75.62
254.261	82.62
254.494	81.62
254.727	79.62
254.96	86.62
255.193	70.62
255.426	75.62
255.659	78.62
255.892	89.62
256.124	82.62
256.357	68.62
256.59	79.62
256.823	82.62
257.056	76.62
257.289	68.62
257.521	79.62
257.754	76.62
257.987	68.62
258.22	76.62
258.452	88.62
258.685	78.62
258.918	83.62
259.151	86.62
259.383	79.62
259.616	76.62
259.849	86.62
260.081	84.62
260.314	91.62
260.547	86.62
260.779	76.62
261.012	96.62
261.244	81.62
261.477	90.62
261.71	101.62
261.942	120.62
262.175	102.62
262.407	91.62
262.64	87.62
262.872	94.62
263.105	98.62
263.337	85.62
263.57	85.62
263.802	84.62
264.035	81.62
264.267	78.62
264.499	95.62
264.732	84.62
264.964	95.62
265.197	83.62
265.429	80.62
265.661	85.62
265.894	95.62
266.126	84.62
266.358	99.62
266.591	78.62
266.823	84.62
267.055	85.62
267.287	81.62
267.52	96.62
267.752	82.62
267.984	87.62
268.216	87.62
268.448	98.62
268.681	87.62
268.913	90.62
269.145	89.62
269.377	77.62
269.609	86.62
269.841	93.62
270.073	77.62
270.306	90.62
270.538	109.62
270.77	86.62
271.002	85.62
271.234	81.62
271.466	80.62
271.698	81.62
271.93	81.62
272.162	85.62
272.394	87.62
272.626	92.62
272.858	100.62
273.09	75.62
273.322	83.62
273.553	81.62
273.785	88.62
274.017	86.62
274.249	103.62
274.481	81.62
274.713	80.62
274.945	89.62
275.176	87.62
275.408	87.62
275.64	84.62
275.872	81.62
276.104	96.62
276.335	80.62
276.567	96.62
276.799	112.62
277.031	94.62
277.262	91.62
277.494	87.62
277.726	80.62
277.957	70.62
278.189	77.62
278.421	76.62
278.652	79.62
278.884	71.62
279.115	96.62
279.347	87.62
279.579	91.62
279.81	95.62
280.042	97.62
280.273	98.62
280.505	85.62
280.736	85.62
280.968	83.62
281.199	95.62
281.431	89.62
281.662	70.62
281.894	81.62
282.125	102.62
282.356	117.62
282.588	132.62
282.819	121.62
283.051	86.62
283.282	86.62
283.513	93.62
283.745	90.62
283.976	78.62
284.207	88.62
284.439	84.62
284.67	85.62
284.901	90.62
285.132	85.62
285.364	73.62
285.595	83.62
285.826	105.62
286.057	79.62
286.288	91.62
286.52	86.62
286.751	87.62
286.982	92.62
287.213	78.62
287.444	85.62
287.675	84.62
287.906	88.62
288.138	84.62
288.369	94.62
288.6	94.62
288.831	87.62
289.062	91.62
289.293	96.62
289.524	89.62
289.755	93.62
289.986	88.62
290.217	71.62
290.448	80.62
290.679	95.62
290.91	93.62
291.141	87.62
291.371	95.62
291.602	80.62
291.833	99.62
292.064	87.62
292.295	91.62
292.526	98.62
292.757	83.62
292.987	86.62
293.218	89.62
293.449	94.62
293.68	89.62
293.91	88.62
294.141	90.62
294.372	83.62
294.603	94.62
294.833	93.62
295.064	75.62
295.295	79.62
295.525	92.62
295.756	103.62
295.987	101.62
296.217	143.62
296.448	139.62
296.679	97.62
296.909	102.62
297.14	76.62
297.37	96.62
297.601	88.62
297.831	78.62
298.062	100.62
298.292	90.62
298.523	97.62
298.753	95.62
298.984	85.62
299.214	95.62
299.445	100.62
299.675	93.62
299.905	83.62
300.136	98.62
300.366	80.62
300.597	82.62
300.827	101.62
301.057	98.62
301.288	102.62
301.518	92.62
301.748	84.62
301.979	84.62
302.209	96.62
302.439	98.62
302.669	89.62
302.9	103.62
303.13	92.62
303.36	94.62
303.59	103.62
303.82	107.62
304.051	103.62
304.281	98.62
304.511	93.62
304.741	91.62
304.971	81.62
305.201	93.62
305.431	85.62
305.661	93.62
305.891	86.62
306.121	87.62
306.352	118.62
306.582	103.62
306.812	96.62
307.042	87.62
307.272	103.62
307.502	92.62
307.731	88.62
307.961	93.62
308.191	79.62
308.421	97.62
308.651	86.62
308.881	96.62
309.111	99.62
309.341	86.62
309.571	103.62
309.8	76.62
310.03	114.62
310.26	117.62
310.49	104.62
310.72	106.62
310.949	107.62
311.179	110.62
311.409	95.62
311.639	107.62
311.868	92.62
312.098	78.62
312.328	94.62
312.557	100.62
312.787	118.62
313.017	96.62
313.246	91.62
313.476	91.62
313.706	79.62
313.935	102.62
314.165	103.62
314.394	115.62
314.624	100.62
314.853	103.62
315.083	96.62
315.312	94.62
315.542	77.62
315.771	86.62
316.001	94.62
316.23	91.62
316.46	95.62
316.689	100.62
316.919	95.62
317.148	86.62
317.377	89.62
317.607	86.62
317.836	83.62
318.065	88.62
318.295	96.62
318.524	100.62
318.753	89.62
318.983	95.62
319.212	121.62
319.441	106.62
319.67	114.62
319.9	91.62
320.129	90.62
320.358	100.62
320.587	86.62
320.816	106.62
321.046	105.62
321.275	110.62
321.504	98.62
321.733	95.62
321.962	118.62
322.191	108.62
322.42	102.62
322.649	107.62
322.878	117.62
323.108	113.62
323.337	131.62
323.566	145.62
323.795	173.62
324.024	249.62
324.253	486.62
324.482	1014.62
324.71	2189.62
324.939	2843.62
325.168	1026.62
325.397	270.62
325.626	171.62
325.855	130.62
326.084	146.62
326.313	129.62
326.542	164.62
326.77	256.62
326.999	570.62
327.228	1189.62
327.457	2143.62
327.686	1761.62
327.914	437.62
328.143	224.62
328.372	146.62
328.6	129.62
328.829	129.62
329.058	124.62
329.287	132.62
329.515	109.62
329.744	104.62
329.972	106.62
330.201	111.62
330.43	115.62
330.658	139.62
330.887	136.62
331.115	131.62
331.344	88.62
331.572	109.62
331.801	114.62
332.03	113.62
332.258	88.62
332.486	79.62
332.715	107.62
332.943	94.62
333.172	87.62
333.4	93.62
333.629	93.62
333.857	116.62
334.085	104.62
334.314	99.62
334.542	119.62
334.771	115.62
334.999	97.62
335.227	100.62
335.455	98.62
335.684	95.62
335.912	97.62
336.14	107.62
336.369	107.62
336.597	91.62
336.825	109.62
337.053	111.62
337.281	97.62
337.51	82.62
337.738	93.62
337.966	85.62
338.194	93.62
338.422	92.62
338.65	86.62
338.878	94.62
339.106	80.62
339.334	78.62
339.562	88.62
339.79	93.62
340.018	94.62
340.246	102.62
340.474	93.62
340.702	88.62
340.93	94.62
341.158	91.62
341.386	91.62
341.614	98.62
341.842	104.62
342.07	94.62
342.298	101.62
342.526	90.62
342.754	96.62
342.981	88.62
343.209	87.62
343.437	101.62
343.665	87.62
343.893	90.62
344.12	81.62
344.348	85.62
344.576	92.62
344.804	95.62
345.031	93.62
345.259	99.62
345.487	90.62
345.714	108.62
345.942	92.62
346.17	107.62
346.397	103.62
346.625	93.62
346.853	93.62
347.08	88.62
347.308	97.62
347.535	95.62
347.763	96.62
347.99	103.62
348.218	99.62
348.445	112.62
348.673	109.62
348.9	80.62
349.128	85.62
349.355	95.62
349.583	88.62
349.81	85.62
350.037	109.62
350.265	80.62
350.492	94.62
350.72	93.62
350.947	100.62
351.174	108.62
351.402	111.62
351.629	115.62
351.856	113.62
352.083	103.62
352.311	94.62
352.538	123.62
352.765	111.62
352.992	107.62
353.22	112.62
353.447	98.62
353.674	125.62
353.901	111.62
354.128	96.62
354.355	100.62
354.583	87.62
354.81	98.62
355.037	105.62
355.264	86.62
355.491	99.62
355.718	88.62
355.945	88.62
356.172	94.62
356.399	93.62
356.626	97.62
356.853	103.62
357.08	89.62
357.307	96.62
357.534	94.62
357.761	98.62
357.988	103.62
358.215	92.62
358.441	81.62
358.668	84.62
358.895	81.62
359.122	89.62
359.349	87.62
359.576	87.62
359.802	99.62
360.029	118.62
360.256	118.62
360.483	93.62
360.709	104.62
360.936	94.62
361.163	124.62
361.39	95.62
361.616	96.62
361.843	88.62
362.07	103.62
362.296	96.62
362.523	84.62
362.749	97.62
362.976	97.62
363.203	90.62
363.429	111.62
363.656	88.62
363.882	103.62
364.109	96.62
364.335	96.62
364.562	90.62
364.788	95.62
365.015	102.62
365.241	85.62
365.468	103.62
365.694	107.62
365.92	89.62
366.147	103.62
366.373	98.62
366.599	97.62
366.826	86.62
367.052	93.62
367.278	84.62
367.505	92.62
367.731	96.62
367.957	100.62
368.184	98.62
368.41	109.62
368.636	107.62
368.862	118.62
369.089	107.62
369.315	115.62
369.541	108.62
369.767	103.62
369.993	95.62
370.219	108.62
370.445	91.62
370.672	91.62
370.898	84.62
371.124	85.62
371.35	87.62
371.576	79.62
371.802	87.62
372.028	77.62
372.254	93.62
372.48	86.62
372.706	92.62
372.932	90.62
373.158	84.62
373.384	92.62
373.61	93.62
373.835	91.62
374.061	87.62
374.287	85.62
374.513	109.62
374.739	88.62
374.965	87.62
375.191	86.62
375.416	87.62
375.642	91.62
375.868	95.62
376.094	89.62
376.319	84.62
376.545	95.62
376.771	104.62
376.997	88.62
377.222	96.62
377.448	86.62
377.674	99.62
377.899	83.62
378.125	86.62
378.35	94.62
378.576	93.62
378.802	84.62
379.027	101.62
379.253	107.62
379.478	86.62
379.704	72.62
379.929	85.62
380.155	90.62
380.38	89.62
380.606	100.62
380.831	95.62
381.057	97.62
381.282	94.62
381.507	107.62
381.733	104.62
381.958	101.62
382.184	107.62
382.409	98.62
382.634	100.62
382.86	104.62
383.085	113.62
383.31	102.62
383.535	93.62
383.761	99.62
383.986	98.62
384.211	99.62
384.436	90.62
384.662	103.62
384.887	94.62
385.112	104.62
385.337	111.62
385.562	109.62
385.787	107.62
386.013	104.62
386.238	116.62
386.463	121.62
386.688	104.62
386.913	99.62
387.138	108.62
387.363	117.62
387.588	107.62
387.813	104.62
388.038	106.62
388.263	108.62
388.488	113.62
388.713	108.62
388.938	100.62
389.163	92.62
389.387	105.62
389.612	100.62
389.837	95.62
390.062	84.62
390.287	97.62
390.512	102.62
390.736	79.62
390.961	90.62
391.186	91.62
391.411	108.62
391.636	100.62
391.86	76.62
392.085	69.62
392.31	84.62
392.534	89.62
392.759	101.62
392.984	101.62
393.208	88.62
393.433	93.62
393.658	90.62
393.882	91.62
394.107	82.62
394.331	98.62
394.556	84.62
394.78	93.62
395.005	101.62
395.229	80.62
395.454	75.62
395.678	93.62
395.903	92.62
396.127	84.62
396.352	88.62
396.576	81.62
396.801	79.62
397.025	94.62
397.249	87.62
397.474	84.62
397.698	93.62
397.922	90.62
398.147	76.62
398.371	100.62
398.595	89.62
398.82	83.62
399.044	79.62
399.268	98.62
399.492	99.62
399.717	76.62
399.941	97.62
400.165	83.62
400.389	86.62
400.613	95.62
400.837	110.62
401.062	98.62
401.286	102.62
401.51	90.62
401.734	85.62
401.958	97.62
402.182	126.62
402.406	165.62
402.63	124.62
402.854	91.62
403.078	93.62
403.302	81.62
403.526	88.62
403.75	80.62
403.974	88.62
404.198	95.62
404.422	85.62
404.645	82.62
404.869	90.62
405.093	98.62
405.317	114.62
405.541	106.62
405.765	102.62
405.988	111.62
406.212	182.62
406.436	226.62
406.66	141.62
406.883	111.62
407.107	99.62
407.331	94.62
407.555	94.62
407.778	93.62
408.002	106.62
408.226	90.62
408.449	90.62
408.673	92.62
408.896	88.62
409.12	96.62
409.344	104.62
409.567	95.62
409.791	95.62
410.014	83.62
410.238	100.62
410.461	85.62
410.685	91.62
410.908	106.62
411.132	101.62
411.355	95.62
411.578	98.62
411.802	93.62
412.025	78.62
412.249	88.62
412.472	86.62
412.695	94.62
412.919	101.62
413.142	82.62
413.365	88.62
413.589	98.62
413.812	92.62
414.035	94.62
414.258	100.62
414.482	94.62
414.705	88.62
414.928	81.62
415.151	96.62
415.374	76.62
415.597	85.62
415.821	94.62
416.044	91.62
416.267	91.62
416.49	86.62
416.713	83.62
416.936	92.62
417.159	98.62
417.382	79.62
417.605	90.62
417.828	91.62
418.051	98.62
418.274	88.62
418.497	90.62
418.72	94.62
418.943	76.62
419.166	92.62
419.389	101.62
419.611	93.62
419.834	90.62
420.057	82.62
420.28	96.62
420.503	94.62
420.726	81.62
420.948	81.62
421.171	102.62
421.394	95.62
421.617	101.62
421.839	105.62
422.062	86.62
422.285	84.62
422.507	112.62
422.73	92.62
422.953	103.62
423.175	100.62
423.398	93.62
423.621	108.62
423.843	85.62
424.066	69.62
424.288	97.62
424.511	91.62
424.733	106.62
424.956	94.62
425.178	100.62
425.401	106.62
425.623	119.62
425.846	99.62
426.068	104.62
426.291	100.62
426.513	98.62
426.735	93.62
426.958	100.62
427.18	127.62
427.402	160.62
427.625	168.62
427.847	136.62
428.069	119.62
428.292	94.62
428.514	82.62
428.736	96.62
428.958	96.62
429.181	79.62
429.403	97.62
429.625	70.62
429.847	77.62
430.069	110.62
430.292	84.62
430.514	62.62
430.736	87.62
430.958	84.62
431.18	84.62
431.402	82.62
431.624	94.62
431.846	76.62
432.068	95.62
432.29	93.62
432.512	85.62
432.734	92.62
432.956	86.62
433.178	98.62
433.4	113.62
433.622	93.62
433.844	95.62
434.066	94.62
434.287	90.62
434.509	89.62
434.731	92.62
434.953	86.62
435.175	84.62
435.397	96.62
435.618	105.62
435.84	107.62
436.062	144.62
436.284	129.62
436.505	93.62
436.727	118.62
436.949	81.62
437.17	83.62
437.392	97.62
437.614	94.62
437.835	98.62
438.057	100.62
438.278	115.62
438.5	122.62
438.721	133.62
438.943	94.62
439.165	90.62
439.386	86.62
439.608	95.62
439.829	95.62
440.05	124.62
440.272	162.62
440.493	96.62
440.715	101.62
440.936	100.62
441.158	93.62
441.379	94.62
441.6	94.62
441.822	91.62
442.043	75.62
442.264	112.62
442.486	100.62
442.707	103.62
442.928	127.62
443.149	127.62
443.371	147.62
443.592	121.62
443.813	114.62
444.034	115.62
444.255	99.62
444.476	79.62
444.698	85.62
444.919	95.62
445.14	126.62
445.361	140.62
445.582	111.62
445.803	152.62
446.024	152.62
446.245	141.62
446.466	115.62
446.687	79.62
446.908	101.62
447.129	87.62
447.35	102.62
447.571	97.62
447.792	89.62
448.013	80.62
448.234	112.62
448.455	96.62
448.675	117.62
448.896	116.62
449.117	122.62
449.338	100.62
449.559	115.62
449.779	151.62
450	97.62
450.221	97.62
450.442	88.62
450.662	103.62
450.883	112.62
451.104	112.62
451.324	92.62
451.545	88.62
451.766	75.62
451.986	94.62
452.207	91.62
452.428	102.62
452.648	107.62
452.869	112.62
453.089	128.62
453.31	123.62
453.53	86.62
453.751	93.62
453.971	92.62
454.192	114.62
454.412	90.62
454.633	96.62
454.853	88.62
455.073	92.62
455.294	85.62
455.514	89.62
455.734	85.62
455.955	88.62
456.175	66.62
456.395	88.62
456.616	82.62
456.836	89.62
457.056	79.62
457.276	59.62
457.497	92.62
457.717	96.62
457.937	85.62
458.157	94.62
458.377	90.62
458.598	117.62
458.818	152.62
459.038	173.62
459.258	105.62
459.478	93.62
459.698	92.62
459.918	79.62
460.138	86.62
460.358	88.62
460.578	91.62
460.798	93.62
461.018	84.62
461.238	81.62
461.458	78.62
461.678	83.62
461.898	77.62
462.118	83.62
462.338	80.62
462.558	86.62
462.777	93.62
462.997	99.62
463.217	97.62
463.437	84.62
463.657	82.62
463.876	95.62
464.096	86.62
464.316	92.62
464.536	85.62
464.755	90.62
464.975	97.62
465.195	193.62
465.414	172.62
465.634	99.62
465.854	87.62
466.073	83.62
466.293	86.62
466.512	86.62
466.732	82.62
466.951	87.62
467.171	89.62
467.391	99.62
467.61	103.62
467.829	98.62
468.049	92.62
468.268	93.62
468.488	88.62
468.707	91.62
468.927	84.62
469.146	86.62
469.365	87.62
469.585	75.62
469.804	95.62
470.023	91.62
470.243	106.62
470.462	102.62
470.681	118.62
470.901	82.62
471.12	82.62
471.339	82.62
471.558	90.62
471.777	86.62
471.997	94.62
472.216	88.62
472.435	116.62
472.654	104.62
472.873	81.62
473.092	86.62
473.311	95.62
473.53	88.62
473.749	81.62
473.968	92.62
474.187	105.62
474.406	94.62
474.625	95.62
474.844	100.62
475.063	80.62
475.282	93.62
475.501	75.62
475.72	99.62
475.939	97.62
476.158	84.62
476.377	79.62
476.596	87.62
476.814	78.62
477.033	91.62
477.252	108.62
477.471	98.62
477.69	86.62
477.908	102.62
478.127	86.62
478.346	79.62
478.564	98.62
478.783	89.62
479.002	102.62
479.22	79.62
479.439	111.62
479.658	100.62
479.876	94.62
480.095	83.62
480.313	88.62
480.532	92.62
480.751	86.62
480.969	95.62
481.188	129.62
481.406	110.62
481.624	92.62
481.843	96.62
482.061	95.62
482.28	81.62
482.498	91.62
482.717	91.62
482.935	108.62
483.153	82.62
483.372	86.62
483.59	107.62
483.808	92.62
484.027	91.62
484.245	114.62
484.463	101.62
484.681	109.62
484.9	104.62
485.118	113.62
485.336	91.62
485.554	102.62
485.772	113.62
485.99	117.62
486.209	97.62
486.427	122.62
486.645	120.62
486.863	124.62
487.081	99.62
487.299	94.62
487.517	103.62
487.735	84.62
487.953	100.62
488.171	107.62
488.389	92.62
488.607	98.62
488.825	94.62
489.043	92.62
489.261	99.62
489.479	102.62
489.696	76.62
489.914	96.62
490.132	85.62
490.35	90.62
490.568	103.62
490.786	108.62
491.003	84.62
491.221	84.62
491.439	89.62
491.657	97.62
491.874	107.62
492.092	83.62
492.31	96.62
492.527	86.62
492.745	95.62
492.963	98.62
493.18	110.62
493.398	94.62
493.615	101.62
493.833	96.62
494.05	84.62
494.268	84.62
494.485	101.62
494.703	82.62
494.92	94.62
495.138	87.62
495.355	104.62
495.573	96.62
495.79	85.62
496.008	103.62
496.225	92.62
496.442	93.62
496.66	98.62
496.877	93.62
497.094	84.62
497.312	98.62
497.529	88.62
497.746	90.62
497.963	96.62
498.181	100.62
498.398	97.62
498.615	101.62
498.832	106.62
499.049	80.62
499.267	100.62
499.484	81.62
499.701	103.62
499.918	94.62
500.135	96.62
500.352	86.62
500.569	79.62
500.786	99.62
501.003	98.62
501.22	98.62
501.437	95.62
501.654	103.62
501.871	98.62
502.088	89.62
502.305	87.62
502.522	75.62
502.739	79.62
502.956	93.62
503.172	79.62
503.389	95.62
503.606	99.62
503.823	100.62
504.04	95.62
504.256	96.62
504.473	72.62
504.69	88.62
504.907	93.62
505.123	85.62
505.34	74.62
505.557	86.62
505.773	108.62
505.99	99.62
506.207	95.62
506.423	96.62
506.64	92.62
506.856	92.62
507.073	79.62
507.289	90.62
507.506	103.62
507.722	94.62
507.939	113.62
508.155	82.62
508.372	91.62
508.588	84.62
508.805	92.62
509.021	88.62
509.238	116.62
509.454	94.62
509.67	106.62
509.887	92.62
510.103	129.62
510.319	225.62
510.536	804.62
510.752	2574.62
510.968	716.62
511.184	172.62
511.401	106.62
511.617	88.62
511.833	82.62
512.049	92.62
512.265	82.62
512.481	86.62
512.698	104.62
512.914	98.62
513.13	97.62
513.346	103.62
513.562	100.62
513.778	94.62
513.994	98.62
514.21	106.62
514.426	119.62
514.642	140.62
514.858	113.62
515.074	161.62
515.29	505.62
515.506	1696.62
515.721	619.62
515.937	165.62
516.153	109.62
516.369	121.62
516.585	88.62
516.801	94.62
517.016	94.62
517.232	87.62
517.448	79.62
517.664	113.62
517.879	103.62
518.095	84.62
518.311	95.62
518.527	90.62
518.742	95.62
518.958	103.62
519.173	95.62
519.389	101.62
519.605	78.62
519.82	98.62
520.036	111.62
520.251	122.62
520.467	103.62
520.682	119.62
520.898	126.62
521.113	129.62
521.329	134.62
521.544	206.62
521.76	654.62
521.975	2774.62
522.19	1647.62
522.406	339.62
522.621	132.62
522.836	107.62
523.052	108.62
523.267	99.62
523.482	82.62
523.698	95.62
523.913	128.62
524.128	116.62
524.343	94.62
524.559	109.62
524.774	106.62
524.989	111.62
525.204	111.62
525.419	102.62
525.634	84.62
525.849	101.62
526.064	103.62
526.28	94.62
526.495	79.62
526.71	90.62
526.925	78.62
527.14	88.62
527.355	104.62
527.57	82.62
527.785	96.62
527.999	98.62
528.214	86.62
528.429	71.62
528.644	88.62
528.859	100.62
529.074	99.62
529.289	145.62
529.503	191.62
529.718	117.62
529.933	97.62
530.148	101.62
530.363	106.62
530.577	99.62
530.792	82.62
531.007	90.62
531.221	89.62
531.436	86.62
531.651	91.62
531.865	94.62
532.08	105.62
532.295	119.62
532.509	88.62
532.724	95.62
532.938	94.62
533.153	92.62
533.367	98.62
533.582	94.62
533.796	112.62
534.011	89.62
534.225	84.62
534.44	92.62
534.654	91.62
534.868	85.62
535.083	86.62
535.297	101.62
535.511	99.62
535.726	115.62
535.94	93.62
536.154	90.62
536.369	97.62
536.583	90.62
536.797	90.62
537.011	86.62
537.225	79.62
537.44	96.62
537.654	91.62
537.868	98.62
538.082	86.62
538.296	85.62
538.51	94.62
538.724	85.62
538.938	106.62
539.153	107.62
539.367	110.62
539.581	87.62
539.795	92.62
540.009	78.62
540.222	90.62
540.436	98.62
540.65	90.62
540.864	94.62
541.078	92.62
541.292	94.62
541.506	96.62
541.72	92.62
541.934	93.62
542.147	100.62
542.361	77.62
542.575	86.62
542.789	73.62
543.002	94.62
543.216	84.62
543.43	92.62
543.644	90.62
543.857	110.62
544.071	89.62
544.285	98.62
544.498	97.62
544.712	91.62
544.925	86.62
545.139	87.62
545.352	88.62
545.566	93.62
545.779	90.62
545.993	80.62
546.206	82.62
546.42	95.62
546.633	93.62
546.847	90.62
547.06	92.62
547.274	77.62
547.487	78.62
547.7	77.62
547.914	99.62
548.127	100.62
548.34	83.62
548.554	99.62
548.767	103.62
548.98	80.62
549.193	79.62
549.407	85.62
549.62	77.62
549.833	85.62
550.046	104.62
550.259	84.62
550.473	92.62
550.686	95.62
550.899	88.62
551.112	87.62
551.325	89.62
551.538	85.62
551.751	91.62
551.964	87.62
552.177	83.62
552.39	84.62
552.603	96.62
552.816	93.62
553.029	94.62
553.242	91.62
553.455	91.62
553.667	99.62
553.88	112.62
554.093	100.62
554.306	94.62
554.519	104.62
554.732	98.62
554.944	93.62
555.157	79.62
555.37	89.62
555.583	98.62
555.795	85.62
556.008	93.62
556.221	94.62
556.433	96.62
556.646	100.62
556.859	71.62
557.071	89.62
557.284	87.62
557.496	95.62
557.709	108.62
557.921	80.62
558.134	97.62
558.346	89.62
558.559	98.62
558.771	102.62
558.984	88.62
559.196	94.62
559.409	88.62
559.621	80.62
559.833	71.62
560.046	97.62
560.258	82.62
560.47	103.62
560.683	90.62
560.895	98.62
561.107	92.62
561.32	96.62
561.532	98.62
561.744	80.62
561.956	102.62
562.168	83.62
562.381	98.62
562.593	88.62
562.805	97.62
563.017	86.62
563.229	92.62
563.441	95.62
563.653	96.62
563.865	90.62
564.077	78.62
564.289	97.62
564.501	78.62
564.713	86.62
564.925	92.62
565.137	103.62
565.349	109.62
565.561	88.62
565.773	96.62
565.985	72.62
566.197	102.62
566.408	85.62
566.62	92.62
566.832	91.62
567.044	85.62
567.255	99.62
567.467	103.62
567.679	79.62
567.891	100.62
568.102	95.62
568.314	94.62
568.526	84.62
568.737	80.62
568.949	87.62
569.161	95.62
569.372	89.62
569.584	101.62
569.795	109.62
570.007	109.62
570.218	254.62
570.43	149.62
570.641	88.62
570.853	86.62
571.064	86.62
571.276	93.62
571.487	90.62
571.698	75.62
571.91	90.62
572.121	98.62
572.333	99.62
572.544	86.62
572.755	88.62
572.966	82.62
573.178	85.62
573.389	106.62
573.6	78.62
573.811	95.62
574.023	87.62
574.234	104.62
574.445	83.62
574.656	86.62
574.867	80.62
575.078	93.62
575.289	82.62
575.501	100.62
575.712	104.62
575.923	84.62
576.134	97.62
576.345	78.62
576.556	80.62
576.767	81.62
576.978	84.62
577.188	97.62
577.399	91.62
577.61	98.62
577.821	103.62
578.032	115.62
578.243	282.62
578.454	808.62
578.665	227.62
578.875	111.62
579.086	91.62
579.297	79.62
579.508	96.62
579.718	91.62
579.929	96.62
580.14	83.62
580.35	82.62
580.561	91.62
580.772	90.62
580.982	98.62
581.193	83.62
581.403	101.62
581.614	88.62
581.825	88.62
582.035	102.62
582.246	87.62
582.456	87.62
582.667	84.62
582.877	100.62
583.087	87.62
583.298	94.62
583.508	80.62
583.719	82.62
583.929	106.62
584.139	78.62
584.35	88.62
584.56	99.62
584.77	103.62
584.981	102.62
585.191	104.62
585.401	80.62
585.611	75.62
585.821	101.62
586.032	88.62
586.242	59.62
586.452	102.62
586.662	84.62
586.872	81.62
587.082	79.62
587.292	94.62
587.502	89.62
587.713	94.62
587.923	88.62
588.133	103.62
588.343	70.62
588.553	80.62
588.762	99.62
588.972	118.62
589.182	162.62
589.392	103.62
589.602	99.62
589.812	136.62
590.022	108.62
590.232	87.62
590.441	83.62
590.651	96.62
590.861	84.62
591.071	83.62
591.281	77.62
591.49	86.62
591.7	78.62
591.91	83.62
592.119	91.62
592.329	87.62
592.539	92.62
592.748	105.62
592.958	93.62
593.167	77.62
593.377	92.62
593.587	87.62
593.796	100.62
594.006	91.62
594.215	90.62
594.424	88.62
594.634	86.62
594.843	92.62
595.053	96.62
595.262	89.62
595.472	87.62
595.681	86.62
595.89	84.62
596.1	86.62
596.309	75.62
596.518	87.62
596.727	100.62
596.937	80.62
597.146	78.62
597.355	88.62
597.564	81.62
597.774	86.62
597.983	95.62
598.192	81.62
598.401	94.62
598.61	78.62
598.819	63.62
599.028	94.62
599.237	89.62
599.446	82.62
599.655	66.62
599.864	72.62
600.073	94.62
600.282	93.62
600.491	103.62
600.7	102.62
600.909	86.62
601.118	81.62
601.327	95.62
601.536	86.62
601.745	99.62
601.953	98.62
602.162	89.62
602.371	89.62
602.58	78.62
602.789	68.62
602.997	83.62
603.206	90.62
603.415	86.62
603.623	76.62
603.832	87.62
604.041	84.62
604.249	78.62
604.458	89.62
604.666	87.62
604.875	87.62
605.084	77.62
605.292	87.62
605.501	78.62
605.709	87.62
605.918	82.62
606.126	94.62
606.334	104.62
606.543	86.62
606.751	93.62
606.96	93.62
607.168	91.62
607.376	87.62
607.585	90.62
607.793	83.62
608.001	90.62
608.21	94.62
608.418	95.62
608.626	79.62
608.834	84.62
609.043	91.62
609.251	87.62
609.459	91.62
609.667	78.62
609.875	79.62
610.083	83.62
610.291	84.62
610.499	90.62
610.707	90.62
610.916	84.62
611.124	83.62
611.332	90.62
611.54	86.62
611.748	79.62
611.955	91.62
612.163	81.62
612.371	90.62
612.579	80.62
612.787	96.62
612.995	84.62
613.203	82.62
613.411	95.62
613.618	78.62
613.826	81.62
614.034	88.62
614.242	86.62
614.449	87.62
614.657	91.62
614.865	85.62
615.072	92.62
615.28	82.62
615.488	87.62
615.695	90.62
615.903	114.62
616.111	105.62
616.318	99.62
616.526	88.62
616.733	94.62
616.941	89.62
617.148	96.62
617.356	93.62
617.563	91.62
617.771	73.62
617.978	80.62
618.185	72.62
618.393	93.62
618.6	88.62
618.807	76.62
619.015	81.62
619.222	97.62
619.429	80.62
619.637	76.62
619.844	95.62
620.051	79.62
620.258	92.62
620.466	92.62
620.673	92.62
620.88	80.62
621.087	90.62
621.294	82.62
621.501	88.62
621.708	67.62
621.915	96.62
622.122	85.62
622.329	86.62
622.536	94.62
622.743	82.62
622.95	77.62
623.157	89.62
623.364	96.62
623.571	82.62
623.778	81.62
623.985	91.62
624.192	75.62
624.399	100.62
624.606	99.62
624.812	80.62
625.019	85.62
625.226	100.62
625.433	86.62
625.639	76.62
625.846	91.62
626.053	80.62
626.259	96.62
626.466	87.62
626.673	85.62
626.879	84.62
627.086	77.62
627.293	82.62
627.499	84.62
627.706	91.62
627.912	79.62
628.119	85.62
628.325	92.62
628.532	86.62
628.738	99.62
628.945	92.62
629.151	68.62
629.357	76.62
629.564	87.62
629.77	81.62
629.976	77.62
630.183	79.62
630.389	85.62
630.595	75.62
630.802	81.62
631.008	94.62
631.214	72.62
631.42	86.62
631.627	98.62
631.833	83.62
632.039	95.62
632.245	83.62
632.451	72.62
632.657	74.62
632.863	82.62
633.069	91.62
633.275	87.62
633.481	87.62
633.688	82.62
633.893	75.62
634.099	78.62
634.305	78.62
634.511	83.62
634.717	81.62
634.923	78.62
635.129	72.62
635.335	90.62
635.541	83.62
635.747	94.62
635.952	81.62
636.158	78.62
636.364	88.62
636.57	71.62
636.775	68.62
636.981	79.62
637.187	85.62
637.392	80.62
637.598	78.62
637.804	73.62
638.009	84.62
638.215	89.62
638.421	85.62
638.626	90.62
638.832	92.62
639.037	93.62
639.243	92.62
639.448	92.62
639.654	95.62
639.859	70.62
640.065	80.62
640.27	91.62
640.475	77.62
640.681	78.62
640.886	75.62
641.091	76.62
641.297	74.62
641.502	67.62
641.707	88.62
641.913	94.62
642.118	80.62
642.323	82.62
642.528	95.62
642.733	91.62
642.939	86.62
643.144	77.62
643.349	86.62
643.554	75.62
643.759	94.62
643.964	95.62
644.169	87.62
644.374	98.62
644.579	85.62
644.784	84.62
644.989	81.62
645.194	75.62
645.399	91.62
645.604	87.62
645.809	94.62
646.014	78.62
646.219	87.62
646.423	88.62
646.628	89.62
646.833	88.62
647.038	80.62
647.243	99.62
647.447	88.62
647.652	80.62
647.857	70.62
648.062	87.62
648.266	83.62
648.471	99.62
648.676	93.62
648.88	99.62
649.085	90.62
649.289	104.62
649.494	91.62
649.698	130.62
649.903	86.62
650.107	86.62
650.312	77.62
650.516	88.62
650.721	87.62
650.925	93.62
651.13	90.62
651.334	99.62
651.539	101.62
651.743	94.62
651.947	94.62
652.152	91.62
652.356	82.62
652.56	80.62
652.764	66.62
652.969	89.62
653.173	77.62
653.377	77.62
653.581	81.62
653.785	81.62
653.99	86.62
654.194	86.62
654.398	75.62
654.602	84.62
654.806	92.62
655.01	117.62
655.214	103.62
655.418	81.62
655.622	96.62
655.826	83.62
656.03	83.62
656.234	81.62
656.438	100.62
656.642	103.62
656.846	86.62
657.049	83.62
657.253	78.62
657.457	94.62
657.661	80.62
657.865	85.62
658.068	88.62
658.272	87.62
658.476	79.62
658.68	80.62
658.883	76.62
659.087	76.62
659.291	90.62
659.494	78.62
659.698	82.62
659.901	88.62
660.105	73.62
660.309	86.62
660.512	82.62
660.716	78.62
660.919	71.62
661.123	97.62
661.326	80.62
661.53	90.62
661.733	75.62
661.936	89.62
662.14	77.62
662.343	92.62
662.546	85.62
662.75	90.62
662.953	73.62
663.156	84.62
663.36	83.62
663.563	77.62
663.766	85.62
663.969	78.62
664.173	76.62
664.376	76.62
664.579	80.62
664.782	93.62
664.985	78.62
665.188	82.62
665.391	84.62
665.594	78.62
665.797	82.62
666	80.62
666.203	89.62
666.406	74.62
666.609	87.62
666.812	77.62
667.015	86.62
667.218	80.62
667.421	92.62
667.624	84.62
667.827	74.62
668.03	80.62
668.232	86.62
668.435	82.62
668.638	80.62
668.841	84.62
669.043	84.62
669.246	81.62
669.449	89.62
669.651	82.62
669.854	74.62
670.057	83.62
670.259	77.62
670.462	83.62
670.665	82.62
670.867	73.62
671.07	67.62
671.272	84.62
671.475	61.62
671.677	67.62
671.88	79.62
672.082	75.62
672.284	90.62
672.487	86.62
672.689	70.62
672.892	71.62
