Data from Circ_2006_H10_HRD10591_00033.txt Node
Date: Wed Jan 03 10:26:10 EST 2024
User: Yrep
Spectrometer: HR+D1059
Trigger mode: 1
Integration Time (sec): 1.000000E-1
Scans to average: 1
Electric dark correction enabled: true
Nonlinearity correction enabled: false
Boxcar width: 0
XAxis mode: Wavelengths
Number of Pixels in Spectrum: 2048
>>>>>Begin Spectral Data<<<<<
223.165	-11.5
223.4	-11.5
223.635	-11.5
223.869	-22.5
224.104	-13.5
224.338	-27.5
224.573	-4.5
224.808	0.5
225.042	-3.5
225.277	-14.5
225.511	-4.5
225.746	-6.5
225.98	17.5
226.215	9.5
226.449	9.5
226.683	21.5
226.918	21.5
227.152	28.5
227.387	42.5
227.621	33.5
227.856	31.5
228.09	43.5
228.324	56.5
228.559	48.5
228.793	57.5
229.027	58.5
229.262	66.5
229.496	63.5
229.73	85.5
229.964	84.5
230.199	67.5
230.433	71.5
230.667	61.5
230.901	82.5
231.136	77.5
231.37	71.5
231.604	80.5
231.838	86.5
232.072	85.5
232.306	88.5
232.541	83.5
232.775	85.5
233.009	83.5
233.243	89.5
233.477	81.5
233.711	83.5
233.945	79.5
234.179	75.5
234.413	78.5
234.647	86.5
234.881	84.5
235.115	75.5
235.349	72.5
235.583	75.5
235.817	68.5
236.051	77.5
236.285	81.5
236.519	79.5
236.753	69.5
236.987	71.5
237.221	92.5
237.455	77.5
237.689	78.5
237.922	76.5
238.156	74.5
238.39	67.5
238.624	64.5
238.858	93.5
239.091	92.5
239.325	81.5
239.559	75.5
239.793	84.5
240.027	79.5
240.26	80.5
240.494	80.5
240.728	78.5
240.961	76.5
241.195	77.5
241.429	61.5
241.662	77.5
241.896	72.5
242.13	66.5
242.363	86.5
242.597	77.5
242.83	76.5
243.064	92.5
243.298	72.5
243.531	79.5
243.765	83.5
243.998	87.5
244.232	75.5
244.465	92.5
244.699	93.5
244.932	66.5
245.166	86.5
245.399	64.5
245.633	74.5
245.866	88.5
246.099	85.5
246.333	88.5
246.566	85.5
246.8	74.5
247.033	77.5
247.266	87.5
247.5	95.5
247.733	70.5
247.966	81.5
248.2	81.5
248.433	72.5
248.666	68.5
248.899	96.5
249.133	98.5
249.366	107.5
249.599	96.5
249.832	92.5
250.066	89.5
250.299	70.5
250.532	74.5
250.765	89.5
250.998	84.5
251.231	79.5
251.465	84.5
251.698	65.5
251.931	81.5
252.164	75.5
252.397	64.5
252.63	74.5
252.863	91.5
253.096	73.5
253.329	79.5
253.562	80.5
253.795	79.5
254.028	88.5
254.261	100.5
254.494	68.5
254.727	77.5
254.96	77.5
255.193	72.5
255.426	84.5
255.659	80.5
255.892	75.5
256.124	80.5
256.357	87.5
256.59	79.5
256.823	92.5
257.056	75.5
257.289	85.5
257.521	82.5
257.754	84.5
257.987	84.5
258.22	97.5
258.452	75.5
258.685	79.5
258.918	67.5
259.151	72.5
259.383	83.5
259.616	79.5
259.849	68.5
260.081	73.5
260.314	74.5
260.547	75.5
260.779	72.5
261.012	72.5
261.244	74.5
261.477	81.5
261.71	83.5
261.942	118.5
262.175	120.5
262.407	93.5
262.64	86.5
262.872	74.5
263.105	83.5
263.337	72.5
263.57	82.5
263.802	92.5
264.035	74.5
264.267	67.5
264.499	83.5
264.732	70.5
264.964	74.5
265.197	94.5
265.429	81.5
265.661	81.5
265.894	82.5
266.126	80.5
266.358	78.5
266.591	76.5
266.823	83.5
267.055	81.5
267.287	85.5
267.52	74.5
267.752	79.5
267.984	91.5
268.216	99.5
268.448	85.5
268.681	103.5
268.913	82.5
269.145	78.5
269.377	73.5
269.609	76.5
269.841	77.5
270.073	83.5
270.306	72.5
270.538	81.5
270.77	79.5
271.002	83.5
271.234	83.5
271.466	93.5
271.698	84.5
271.93	92.5
272.162	101.5
272.394	81.5
272.626	89.5
272.858	90.5
273.09	78.5
273.322	84.5
273.553	82.5
273.785	96.5
274.017	79.5
274.249	82.5
274.481	73.5
274.713	82.5
274.945	88.5
275.176	103.5
275.408	100.5
275.64	85.5
275.872	78.5
276.104	95.5
276.335	72.5
276.567	118.5
276.799	115.5
277.031	116.5
277.262	93.5
277.494	93.5
277.726	91.5
277.957	77.5
278.189	74.5
278.421	85.5
278.652	76.5
278.884	92.5
279.115	83.5
279.347	93.5
279.579	70.5
279.81	89.5
280.042	90.5
280.273	79.5
280.505	85.5
280.736	89.5
280.968	92.5
281.199	71.5
281.431	82.5
281.662	97.5
281.894	88.5
282.125	97.5
282.356	122.5
282.588	144.5
282.819	113.5
283.051	98.5
283.282	85.5
283.513	82.5
283.745	92.5
283.976	76.5
284.207	93.5
284.439	84.5
284.67	74.5
284.901	79.5
285.132	81.5
285.364	52.5
285.595	73.5
285.826	86.5
286.057	98.5
286.288	89.5
286.52	80.5
286.751	90.5
286.982	91.5
287.213	91.5
287.444	79.5
287.675	84.5
287.906	94.5
288.138	83.5
288.369	94.5
288.6	97.5
288.831	83.5
289.062	91.5
289.293	100.5
289.524	85.5
289.755	88.5
289.986	69.5
290.217	89.5
290.448	91.5
290.679	81.5
290.91	91.5
291.141	90.5
291.371	101.5
291.602	84.5
291.833	86.5
292.064	79.5
292.295	104.5
292.526	84.5
292.757	97.5
292.987	82.5
293.218	96.5
293.449	81.5
293.68	95.5
293.91	85.5
294.141	97.5
294.372	84.5
294.603	84.5
294.833	91.5
295.064	83.5
295.295	92.5
295.525	84.5
295.756	107.5
295.987	122.5
296.217	140.5
296.448	138.5
296.679	92.5
296.909	77.5
297.14	89.5
297.37	105.5
297.601	90.5
297.831	82.5
298.062	85.5
298.292	85.5
298.523	80.5
298.753	84.5
298.984	89.5
299.214	92.5
299.445	98.5
299.675	97.5
299.905	95.5
300.136	84.5
300.366	92.5
300.597	84.5
300.827	93.5
301.057	91.5
301.288	107.5
301.518	93.5
301.748	85.5
301.979	98.5
302.209	97.5
302.439	88.5
302.669	92.5
302.9	93.5
303.13	97.5
303.36	85.5
303.59	100.5
303.82	107.5
304.051	100.5
304.281	81.5
304.511	77.5
304.741	90.5
304.971	82.5
305.201	97.5
305.431	109.5
305.661	95.5
305.891	87.5
306.121	91.5
306.352	115.5
306.582	105.5
306.812	103.5
307.042	81.5
307.272	80.5
307.502	88.5
307.731	89.5
307.961	106.5
308.191	77.5
308.421	86.5
308.651	94.5
308.881	85.5
309.111	90.5
309.341	100.5
309.571	97.5
309.8	90.5
310.03	88.5
310.26	99.5
310.49	81.5
310.72	113.5
310.949	105.5
311.179	106.5
311.409	86.5
311.639	81.5
311.868	109.5
312.098	95.5
312.328	83.5
312.557	109.5
312.787	120.5
313.017	109.5
313.246	95.5
313.476	96.5
313.706	98.5
313.935	106.5
314.165	99.5
314.394	97.5
314.624	92.5
314.853	99.5
315.083	98.5
315.312	92.5
315.542	94.5
315.771	102.5
316.001	107.5
316.23	78.5
316.46	88.5
316.689	83.5
316.919	88.5
317.148	89.5
317.377	104.5
317.607	90.5
317.836	98.5
318.065	97.5
318.295	95.5
318.524	83.5
318.753	89.5
318.983	84.5
319.212	104.5
319.441	107.5
319.67	113.5
319.9	103.5
320.129	85.5
320.358	89.5
320.587	90.5
320.816	105.5
321.046	108.5
321.275	105.5
321.504	115.5
321.733	106.5
321.962	99.5
322.191	110.5
322.42	106.5
322.649	108.5
322.878	100.5
323.108	118.5
323.337	119.5
323.566	136.5
323.795	170.5
324.024	232.5
324.253	476.5
324.482	1023.5
324.71	2140.5
324.939	2813.5
325.168	1024.5
325.397	278.5
325.626	154.5
325.855	148.5
326.084	138.5
326.313	149.5
326.542	174.5
326.77	265.5
326.999	549.5
327.228	1168.5
327.457	2160.5
327.686	1645.5
327.914	446.5
328.143	236.5
328.372	166.5
328.6	134.5
328.829	121.5
329.058	138.5
329.287	137.5
329.515	113.5
329.744	106.5
329.972	111.5
330.201	121.5
330.43	142.5
330.658	148.5
330.887	145.5
331.115	144.5
331.344	97.5
331.572	98.5
331.801	115.5
332.03	111.5
332.258	97.5
332.486	87.5
332.715	92.5
332.943	95.5
333.172	102.5
333.4	92.5
333.629	109.5
333.857	131.5
334.085	103.5
334.314	108.5
334.542	116.5
334.771	135.5
334.999	117.5
335.227	85.5
335.455	85.5
335.684	100.5
335.912	102.5
336.14	107.5
336.369	104.5
336.597	105.5
336.825	100.5
337.053	99.5
337.281	91.5
337.51	79.5
337.738	108.5
337.966	86.5
338.194	93.5
338.422	102.5
338.65	89.5
338.878	81.5
339.106	83.5
339.334	102.5
339.562	91.5
339.79	104.5
340.018	90.5
340.246	98.5
340.474	101.5
340.702	86.5
340.93	85.5
341.158	86.5
341.386	98.5
341.614	97.5
341.842	95.5
342.07	93.5
342.298	79.5
342.526	78.5
342.754	99.5
342.981	90.5
343.209	78.5
343.437	89.5
343.665	92.5
343.893	92.5
344.12	109.5
344.348	98.5
344.576	90.5
344.804	88.5
345.031	100.5
345.259	106.5
345.487	83.5
345.714	96.5
345.942	83.5
346.17	94.5
346.397	98.5
346.625	89.5
346.853	91.5
347.08	93.5
347.308	98.5
347.535	90.5
347.763	106.5
347.99	113.5
348.218	121.5
348.445	105.5
348.673	112.5
348.9	100.5
349.128	104.5
349.355	97.5
349.583	96.5
349.81	92.5
350.037	92.5
350.265	90.5
350.492	94.5
350.72	111.5
350.947	101.5
351.174	107.5
351.402	115.5
351.629	107.5
351.856	101.5
352.083	87.5
352.311	107.5
352.538	120.5
352.765	98.5
352.992	122.5
353.22	111.5
353.447	100.5
353.674	90.5
353.901	99.5
354.128	92.5
354.355	105.5
354.583	104.5
354.81	104.5
355.037	96.5
355.264	98.5
355.491	93.5
355.718	95.5
355.945	97.5
356.172	102.5
356.399	97.5
356.626	92.5
356.853	89.5
357.08	101.5
357.307	71.5
357.534	93.5
357.761	109.5
357.988	97.5
358.215	100.5
358.441	79.5
358.668	94.5
358.895	100.5
359.122	100.5
359.349	84.5
359.576	99.5
359.802	98.5
360.029	107.5
360.256	110.5
360.483	96.5
360.709	95.5
360.936	99.5
361.163	91.5
361.39	107.5
361.616	89.5
361.843	86.5
362.07	97.5
362.296	84.5
362.523	91.5
362.749	92.5
362.976	97.5
363.203	88.5
363.429	86.5
363.656	106.5
363.882	93.5
364.109	91.5
364.335	83.5
364.562	100.5
364.788	91.5
365.015	86.5
365.241	92.5
365.468	103.5
365.694	105.5
365.92	99.5
366.147	94.5
366.373	98.5
366.599	96.5
366.826	90.5
367.052	105.5
367.278	86.5
367.505	83.5
367.731	89.5
367.957	71.5
368.184	107.5
368.41	111.5
368.636	111.5
368.862	112.5
369.089	125.5
369.315	106.5
369.541	81.5
369.767	92.5
369.993	111.5
370.219	93.5
370.445	87.5
370.672	83.5
370.898	89.5
371.124	82.5
371.35	87.5
371.576	87.5
371.802	88.5
372.028	93.5
372.254	84.5
372.48	83.5
372.706	85.5
372.932	79.5
373.158	76.5
373.384	83.5
373.61	81.5
373.835	81.5
374.061	93.5
374.287	89.5
374.513	83.5
374.739	93.5
374.965	99.5
375.191	106.5
375.416	75.5
375.642	90.5
375.868	100.5
376.094	96.5
376.319	83.5
376.545	102.5
376.771	94.5
376.997	86.5
377.222	87.5
377.448	106.5
377.674	85.5
377.899	90.5
378.125	93.5
378.35	89.5
378.576	86.5
378.802	92.5
379.027	80.5
379.253	99.5
379.478	100.5
379.704	97.5
379.929	97.5
380.155	86.5
380.38	108.5
380.606	100.5
380.831	102.5
381.057	103.5
381.282	109.5
381.507	94.5
381.733	105.5
381.958	82.5
382.184	100.5
382.409	93.5
382.634	99.5
382.86	97.5
383.085	103.5
383.31	101.5
383.535	116.5
383.761	100.5
383.986	93.5
384.211	106.5
384.436	95.5
384.662	105.5
384.887	96.5
385.112	111.5
385.337	102.5
385.562	113.5
385.787	113.5
386.013	113.5
386.238	126.5
386.463	113.5
386.688	122.5
386.913	100.5
387.138	118.5
387.363	106.5
387.588	103.5
387.813	94.5
388.038	119.5
388.263	115.5
388.488	100.5
388.713	93.5
388.938	107.5
389.163	95.5
389.387	87.5
389.612	82.5
389.837	83.5
390.062	85.5
390.287	83.5
390.512	91.5
390.736	91.5
390.961	94.5
391.186	93.5
391.411	90.5
391.636	90.5
391.86	82.5
392.085	86.5
392.31	89.5
392.534	85.5
392.759	87.5
392.984	83.5
393.208	85.5
393.433	89.5
393.658	96.5
393.882	80.5
394.107	80.5
394.331	91.5
394.556	88.5
394.78	86.5
395.005	98.5
395.229	86.5
395.454	89.5
395.678	97.5
395.903	67.5
396.127	95.5
396.352	84.5
396.576	83.5
396.801	90.5
397.025	86.5
397.249	80.5
397.474	88.5
397.698	82.5
397.922	67.5
398.147	94.5
398.371	88.5
398.595	82.5
398.82	84.5
399.044	91.5
399.268	98.5
399.492	92.5
399.717	89.5
399.941	84.5
400.165	84.5
400.389	90.5
400.613	72.5
400.837	92.5
401.062	91.5
401.286	92.5
401.51	88.5
401.734	100.5
401.958	114.5
402.182	134.5
402.406	184.5
402.63	126.5
402.854	103.5
403.078	102.5
403.302	95.5
403.526	102.5
403.75	90.5
403.974	65.5
404.198	85.5
404.422	77.5
404.645	78.5
404.869	90.5
405.093	98.5
405.317	95.5
405.541	100.5
405.765	106.5
405.988	122.5
406.212	198.5
406.436	250.5
406.66	169.5
406.883	110.5
407.107	114.5
407.331	97.5
407.555	104.5
407.778	103.5
408.002	94.5
408.226	78.5
408.449	86.5
408.673	84.5
408.896	96.5
409.12	109.5
409.344	84.5
409.567	90.5
409.791	119.5
410.014	95.5
410.238	88.5
410.461	97.5
410.685	97.5
410.908	97.5
411.132	108.5
411.355	96.5
411.578	94.5
411.802	93.5
412.025	98.5
412.249	97.5
412.472	94.5
412.695	101.5
412.919	97.5
413.142	90.5
413.365	81.5
413.589	78.5
413.812	88.5
414.035	86.5
414.258	86.5
414.482	100.5
414.705	80.5
414.928	80.5
415.151	97.5
415.374	96.5
415.597	83.5
415.821	96.5
416.044	74.5
416.267	90.5
416.49	94.5
416.713	91.5
416.936	84.5
417.159	77.5
417.382	93.5
417.605	94.5
417.828	89.5
418.051	92.5
418.274	108.5
418.497	92.5
418.72	90.5
418.943	81.5
419.166	86.5
419.389	74.5
419.611	82.5
419.834	83.5
420.057	90.5
420.28	78.5
420.503	90.5
420.726	81.5
420.948	84.5
421.171	97.5
421.394	91.5
421.617	74.5
421.839	93.5
422.062	94.5
422.285	99.5
422.507	103.5
422.73	107.5
422.953	89.5
423.175	79.5
423.398	89.5
423.621	89.5
423.843	90.5
424.066	78.5
424.288	91.5
424.511	78.5
424.733	99.5
424.956	101.5
425.178	89.5
425.401	94.5
425.623	97.5
425.846	95.5
426.068	80.5
426.291	81.5
426.513	93.5
426.735	89.5
426.958	101.5
427.18	103.5
427.402	141.5
427.625	184.5
427.847	153.5
428.069	108.5
428.292	90.5
428.514	86.5
428.736	84.5
428.958	81.5
429.181	83.5
429.403	84.5
429.625	88.5
429.847	96.5
430.069	104.5
430.292	88.5
430.514	78.5
430.736	90.5
430.958	89.5
431.18	80.5
431.402	99.5
431.624	84.5
431.846	81.5
432.068	78.5
432.29	90.5
432.512	94.5
432.734	72.5
432.956	86.5
433.178	89.5
433.4	96.5
433.622	87.5
433.844	83.5
434.066	79.5
434.287	94.5
434.509	93.5
434.731	87.5
434.953	89.5
435.175	99.5
435.397	77.5
435.618	104.5
435.84	102.5
436.062	140.5
436.284	116.5
436.505	105.5
436.727	106.5
436.949	95.5
437.17	88.5
437.392	107.5
437.614	99.5
437.835	118.5
438.057	131.5
438.278	126.5
438.5	112.5
438.721	115.5
438.943	108.5
439.165	81.5
439.386	95.5
439.608	94.5
439.829	99.5
440.05	125.5
440.272	153.5
440.493	106.5
440.715	92.5
440.936	80.5
441.158	90.5
441.379	90.5
441.6	96.5
441.822	115.5
442.043	85.5
442.264	106.5
442.486	109.5
442.707	97.5
442.928	113.5
443.149	131.5
443.371	122.5
443.592	100.5
443.813	124.5
444.034	127.5
444.255	81.5
444.476	93.5
444.698	79.5
444.919	87.5
445.14	125.5
445.361	126.5
445.582	118.5
445.803	150.5
446.024	159.5
446.245	138.5
446.466	120.5
446.687	97.5
446.908	90.5
447.129	76.5
447.35	83.5
447.571	82.5
447.792	77.5
448.013	106.5
448.234	120.5
448.455	112.5
448.675	124.5
448.896	142.5
449.117	109.5
449.338	96.5
449.559	137.5
449.779	136.5
450	101.5
450.221	97.5
450.442	88.5
450.662	95.5
450.883	114.5
451.104	123.5
451.324	98.5
451.545	83.5
451.766	92.5
451.986	81.5
452.207	85.5
452.428	101.5
452.648	113.5
452.869	115.5
453.089	125.5
453.31	135.5
453.53	96.5
453.751	94.5
453.971	116.5
454.192	129.5
454.412	95.5
454.633	89.5
454.853	90.5
455.073	85.5
455.294	80.5
455.514	90.5
455.734	91.5
455.955	89.5
456.175	80.5
456.395	91.5
456.616	82.5
456.836	77.5
457.056	86.5
457.276	81.5
457.497	87.5
457.717	83.5
457.937	89.5
458.157	98.5
458.377	91.5
458.598	116.5
458.818	162.5
459.038	191.5
459.258	130.5
459.478	94.5
459.698	84.5
459.918	100.5
460.138	82.5
460.358	84.5
460.578	92.5
460.798	85.5
461.018	90.5
461.238	84.5
461.458	86.5
461.678	89.5
461.898	102.5
462.118	91.5
462.338	88.5
462.558	89.5
462.777	83.5
462.997	90.5
463.217	90.5
463.437	88.5
463.657	86.5
463.876	76.5
464.096	96.5
464.316	108.5
464.536	104.5
464.755	114.5
464.975	120.5
465.195	172.5
465.414	183.5
465.634	105.5
465.854	91.5
466.073	84.5
466.293	101.5
466.512	89.5
466.732	81.5
466.951	94.5
467.171	77.5
467.391	101.5
467.61	107.5
467.829	102.5
468.049	104.5
468.268	116.5
468.488	88.5
468.707	90.5
468.927	81.5
469.146	81.5
469.365	76.5
469.585	91.5
469.804	96.5
470.023	109.5
470.243	98.5
470.462	114.5
470.681	122.5
470.901	87.5
471.12	84.5
471.339	89.5
471.558	83.5
471.777	96.5
471.997	90.5
472.216	108.5
472.435	134.5
472.654	112.5
472.873	92.5
473.092	89.5
473.311	87.5
473.53	86.5
473.749	103.5
473.968	98.5
474.187	106.5
474.406	88.5
474.625	104.5
474.844	96.5
475.063	70.5
475.282	92.5
475.501	73.5
475.72	96.5
475.939	85.5
476.158	80.5
476.377	94.5
476.596	102.5
476.814	85.5
477.033	89.5
477.252	90.5
477.471	99.5
477.69	91.5
477.908	82.5
478.127	80.5
478.346	83.5
478.564	83.5
478.783	101.5
479.002	98.5
479.22	104.5
479.439	95.5
479.658	86.5
479.876	97.5
480.095	93.5
480.313	97.5
480.532	105.5
480.751	90.5
480.969	122.5
481.188	177.5
481.406	138.5
481.624	105.5
481.843	85.5
482.061	92.5
482.28	82.5
482.498	91.5
482.717	89.5
482.935	101.5
483.153	92.5
483.372	79.5
483.59	87.5
483.808	86.5
484.027	77.5
484.245	90.5
484.463	84.5
484.681	92.5
484.9	92.5
485.118	77.5
485.336	85.5
485.554	104.5
485.772	106.5
485.99	111.5
486.209	110.5
486.427	110.5
486.645	114.5
486.863	119.5
487.081	100.5
487.299	109.5
487.517	94.5
487.735	90.5
487.953	100.5
488.171	92.5
488.389	95.5
488.607	103.5
488.825	74.5
489.043	100.5
489.261	77.5
489.479	94.5
489.696	83.5
489.914	88.5
490.132	89.5
490.35	91.5
490.568	80.5
490.786	95.5
491.003	101.5
491.221	85.5
491.439	84.5
491.657	94.5
491.874	97.5
492.092	89.5
492.31	77.5
492.527	81.5
492.745	93.5
492.963	92.5
493.18	94.5
493.398	87.5
493.615	99.5
493.833	86.5
494.05	87.5
494.268	92.5
494.485	99.5
494.703	76.5
494.92	106.5
495.138	81.5
495.355	88.5
495.573	92.5
495.79	83.5
496.008	93.5
496.225	93.5
496.442	83.5
496.66	83.5
496.877	96.5
497.094	98.5
497.312	74.5
497.529	77.5
497.746	81.5
497.963	95.5
498.181	91.5
498.398	97.5
498.615	109.5
498.832	110.5
499.049	85.5
499.267	81.5
499.484	97.5
499.701	89.5
499.918	85.5
500.135	103.5
500.352	101.5
500.569	101.5
500.786	95.5
501.003	88.5
501.22	82.5
501.437	108.5
501.654	84.5
501.871	124.5
502.088	86.5
502.305	91.5
502.522	88.5
502.739	82.5
502.956	98.5
503.172	90.5
503.389	100.5
503.606	119.5
503.823	108.5
504.04	88.5
504.256	97.5
504.473	93.5
504.69	82.5
504.907	97.5
505.123	98.5
505.34	85.5
505.557	98.5
505.773	81.5
505.99	84.5
506.207	83.5
506.423	102.5
506.64	79.5
506.856	95.5
507.073	80.5
507.289	88.5
507.506	104.5
507.722	108.5
507.939	118.5
508.155	103.5
508.372	98.5
508.588	103.5
508.805	80.5
509.021	99.5
509.238	102.5
509.454	98.5
509.67	104.5
509.887	111.5
510.103	120.5
510.319	234.5
510.536	867.5
510.752	2936.5
510.968	782.5
511.184	153.5
511.401	122.5
511.617	115.5
511.833	84.5
512.049	83.5
512.265	105.5
512.481	94.5
512.698	82.5
512.914	92.5
513.13	98.5
513.346	89.5
513.562	103.5
513.778	102.5
513.994	104.5
514.21	99.5
514.426	128.5
514.642	140.5
514.858	133.5
515.074	188.5
515.29	596.5
515.506	2022.5
515.721	724.5
515.937	181.5
516.153	130.5
516.369	96.5
516.585	112.5
516.801	90.5
517.016	95.5
517.232	90.5
517.448	98.5
517.664	111.5
517.879	93.5
518.095	102.5
518.311	100.5
518.527	102.5
518.742	97.5
518.958	101.5
519.173	104.5
519.389	115.5
519.605	92.5
519.82	84.5
520.036	104.5
520.251	114.5
520.467	118.5
520.682	108.5
520.898	123.5
521.113	138.5
521.329	164.5
521.544	232.5
521.76	746.5
521.975	3263.5
522.19	1938.5
522.406	395.5
522.621	137.5
522.836	108.5
523.052	101.5
523.267	98.5
523.482	100.5
523.698	100.5
523.913	123.5
524.128	106.5
524.343	96.5
524.559	116.5
524.774	100.5
524.989	103.5
525.204	95.5
525.419	120.5
525.634	99.5
525.849	80.5
526.064	81.5
526.28	82.5
526.495	92.5
526.71	96.5
526.925	90.5
527.14	84.5
527.355	84.5
527.57	86.5
527.785	78.5
527.999	96.5
528.214	94.5
528.429	84.5
528.644	85.5
528.859	90.5
529.074	90.5
529.289	129.5
529.503	221.5
529.718	114.5
529.933	84.5
530.148	93.5
530.363	98.5
530.577	104.5
530.792	87.5
531.007	104.5
531.221	96.5
531.436	94.5
531.651	103.5
531.865	99.5
532.08	89.5
532.295	83.5
532.509	98.5
532.724	109.5
532.938	84.5
533.153	96.5
533.367	93.5
533.582	86.5
533.796	95.5
534.011	96.5
534.225	104.5
534.44	103.5
534.654	97.5
534.868	97.5
535.083	89.5
535.297	94.5
535.511	101.5
535.726	110.5
535.94	116.5
536.154	96.5
536.369	105.5
536.583	86.5
536.797	96.5
537.011	92.5
537.225	87.5
537.44	93.5
537.654	98.5
537.868	98.5
538.082	89.5
538.296	97.5
538.51	83.5
538.724	86.5
538.938	91.5
539.153	91.5
539.367	115.5
539.581	86.5
539.795	90.5
540.009	88.5
540.222	94.5
540.436	88.5
540.65	98.5
540.864	94.5
541.078	94.5
541.292	92.5
541.506	89.5
541.72	91.5
541.934	91.5
542.147	83.5
542.361	93.5
542.575	81.5
542.789	95.5
543.002	96.5
543.216	85.5
543.43	84.5
543.644	89.5
543.857	97.5
544.071	92.5
544.285	78.5
544.498	86.5
544.712	92.5
544.925	102.5
545.139	93.5
545.352	92.5
545.566	92.5
545.779	91.5
545.993	93.5
546.206	86.5
546.42	104.5
546.633	92.5
546.847	92.5
547.06	88.5
547.274	90.5
547.487	100.5
547.7	84.5
547.914	75.5
548.127	107.5
548.34	87.5
548.554	84.5
548.767	99.5
548.98	89.5
549.193	102.5
549.407	87.5
549.62	83.5
549.833	94.5
550.046	96.5
550.259	90.5
550.473	93.5
550.686	95.5
550.899	98.5
551.112	81.5
551.325	85.5
551.538	99.5
551.751	82.5
551.964	81.5
552.177	93.5
552.39	87.5
552.603	85.5
552.816	88.5
553.029	92.5
553.242	98.5
553.455	109.5
553.667	97.5
553.88	101.5
554.093	98.5
554.306	91.5
554.519	84.5
554.732	77.5
554.944	90.5
555.157	91.5
555.37	86.5
555.583	101.5
555.795	94.5
556.008	97.5
556.221	88.5
556.433	98.5
556.646	89.5
556.859	86.5
557.071	108.5
557.284	89.5
557.496	97.5
557.709	89.5
557.921	90.5
558.134	97.5
558.346	104.5
558.559	82.5
558.771	90.5
558.984	91.5
559.196	93.5
559.409	106.5
559.621	97.5
559.833	89.5
560.046	90.5
560.258	91.5
560.47	79.5
560.683	85.5
560.895	89.5
561.107	77.5
561.32	84.5
561.532	78.5
561.744	87.5
561.956	88.5
562.168	96.5
562.381	86.5
562.593	103.5
562.805	97.5
563.017	85.5
563.229	93.5
563.441	93.5
563.653	91.5
563.865	94.5
564.077	90.5
564.289	83.5
564.501	98.5
564.713	86.5
564.925	99.5
565.137	99.5
565.349	98.5
565.561	88.5
565.773	69.5
565.985	85.5
566.197	89.5
566.408	84.5
566.62	90.5
566.832	88.5
567.044	90.5
567.255	77.5
567.467	84.5
567.679	98.5
567.891	91.5
568.102	82.5
568.314	90.5
568.526	84.5
568.737	93.5
568.949	86.5
569.161	98.5
569.372	92.5
569.584	85.5
569.795	90.5
570.007	116.5
570.218	284.5
570.43	160.5
570.641	106.5
570.853	85.5
571.064	98.5
571.276	90.5
571.487	82.5
571.698	94.5
571.91	97.5
572.121	89.5
572.333	104.5
572.544	81.5
572.755	72.5
572.966	92.5
573.178	75.5
573.389	89.5
573.6	77.5
573.811	83.5
574.023	83.5
574.234	96.5
574.445	85.5
574.656	84.5
574.867	76.5
575.078	81.5
575.289	85.5
575.501	93.5
575.712	98.5
575.923	97.5
576.134	94.5
576.345	90.5
576.556	89.5
576.767	99.5
576.978	107.5
577.188	93.5
577.399	102.5
577.61	96.5
577.821	101.5
578.032	123.5
578.243	316.5
578.454	897.5
578.665	245.5
578.875	113.5
579.086	112.5
579.297	94.5
579.508	83.5
579.718	85.5
579.929	99.5
580.14	86.5
580.35	85.5
580.561	77.5
580.772	82.5
580.982	85.5
581.193	81.5
581.403	81.5
581.614	83.5
581.825	82.5
582.035	84.5
582.246	102.5
582.456	74.5
582.667	86.5
582.877	79.5
583.087	92.5
583.298	98.5
583.508	105.5
583.719	97.5
583.929	85.5
584.139	92.5
584.35	77.5
584.56	94.5
584.77	95.5
584.981	80.5
585.191	88.5
585.401	94.5
585.611	87.5
585.821	79.5
586.032	84.5
586.242	84.5
586.452	89.5
586.662	72.5
586.872	80.5
587.082	64.5
587.292	83.5
587.502	100.5
587.713	93.5
587.923	87.5
588.133	92.5
588.343	77.5
588.553	89.5
588.762	86.5
588.972	95.5
589.182	138.5
589.392	103.5
589.602	89.5
589.812	112.5
590.022	101.5
590.232	97.5
590.441	86.5
590.651	90.5
590.861	95.5
591.071	94.5
591.281	92.5
591.49	82.5
591.7	91.5
591.91	104.5
592.119	81.5
592.329	97.5
592.539	101.5
592.748	85.5
592.958	99.5
593.167	100.5
593.377	84.5
593.587	84.5
593.796	86.5
594.006	93.5
594.215	96.5
594.424	85.5
594.634	76.5
594.843	79.5
595.053	86.5
595.262	88.5
595.472	84.5
595.681	78.5
595.89	96.5
596.1	84.5
596.309	89.5
596.518	84.5
596.727	78.5
596.937	97.5
597.146	76.5
597.355	83.5
597.564	89.5
597.774	84.5
597.983	79.5
598.192	93.5
598.401	80.5
598.61	82.5
598.819	77.5
599.028	93.5
599.237	84.5
599.446	100.5
599.655	93.5
599.864	79.5
600.073	86.5
600.282	88.5
600.491	67.5
600.7	94.5
600.909	92.5
601.118	83.5
601.327	90.5
601.536	95.5
601.745	86.5
601.953	73.5
602.162	79.5
602.371	97.5
602.58	89.5
602.789	80.5
602.997	82.5
603.206	95.5
603.415	80.5
603.623	86.5
603.832	85.5
604.041	84.5
604.249	72.5
604.458	82.5
604.666	77.5
604.875	101.5
605.084	98.5
605.292	83.5
605.501	76.5
605.709	74.5
605.918	92.5
606.126	91.5
606.334	80.5
606.543	84.5
606.751	83.5
606.96	69.5
607.168	85.5
607.376	89.5
607.585	72.5
607.793	88.5
608.001	83.5
608.21	92.5
608.418	88.5
608.626	86.5
608.834	79.5
609.043	86.5
609.251	78.5
609.459	82.5
609.667	84.5
609.875	85.5
610.083	83.5
610.291	88.5
610.499	85.5
610.707	91.5
610.916	74.5
611.124	89.5
611.332	88.5
611.54	85.5
611.748	81.5
611.955	83.5
612.163	96.5
612.371	85.5
612.579	91.5
612.787	88.5
612.995	89.5
613.203	81.5
613.411	75.5
613.618	94.5
613.826	85.5
614.034	99.5
614.242	84.5
614.449	91.5
614.657	81.5
614.865	82.5
615.072	78.5
615.28	82.5
615.488	76.5
615.695	95.5
615.903	105.5
616.111	96.5
616.318	97.5
616.526	77.5
616.733	93.5
616.941	87.5
617.148	98.5
617.356	89.5
617.563	96.5
617.771	95.5
617.978	76.5
618.185	89.5
618.393	91.5
618.6	97.5
618.807	79.5
619.015	106.5
619.222	90.5
619.429	92.5
619.637	91.5
619.844	88.5
620.051	84.5
620.258	88.5
620.466	86.5
620.673	79.5
620.88	80.5
621.087	80.5
621.294	89.5
621.501	80.5
621.708	88.5
621.915	78.5
622.122	82.5
622.329	97.5
622.536	80.5
622.743	79.5
622.95	66.5
623.157	88.5
623.364	79.5
623.571	93.5
623.778	88.5
623.985	82.5
624.192	87.5
624.399	80.5
624.606	81.5
624.812	82.5
625.019	81.5
625.226	81.5
625.433	84.5
625.639	71.5
625.846	81.5
626.053	76.5
626.259	85.5
626.466	80.5
626.673	80.5
626.879	79.5
627.086	76.5
627.293	94.5
627.499	80.5
627.706	84.5
627.912	85.5
628.119	83.5
628.325	102.5
628.532	77.5
628.738	86.5
628.945	86.5
629.151	73.5
629.357	76.5
629.564	100.5
629.77	82.5
629.976	88.5
630.183	83.5
630.389	90.5
630.595	92.5
630.802	84.5
631.008	65.5
631.214	80.5
631.42	101.5
631.627	101.5
631.833	98.5
632.039	86.5
632.245	80.5
632.451	90.5
632.657	90.5
632.863	85.5
633.069	86.5
633.275	80.5
633.481	67.5
633.688	84.5
633.893	92.5
634.099	70.5
634.305	86.5
634.511	80.5
634.717	80.5
634.923	80.5
635.129	82.5
635.335	76.5
635.541	62.5
635.747	75.5
635.952	72.5
636.158	79.5
636.364	88.5
636.57	91.5
636.775	78.5
636.981	78.5
637.187	91.5
637.392	63.5
637.598	77.5
637.804	93.5
638.009	76.5
638.215	82.5
638.421	92.5
638.626	80.5
638.832	88.5
639.037	82.5
639.243	77.5
639.448	74.5
639.654	83.5
639.859	88.5
640.065	74.5
640.27	94.5
640.475	88.5
640.681	80.5
640.886	77.5
641.091	81.5
641.297	83.5
641.502	86.5
641.707	84.5
641.913	97.5
642.118	69.5
642.323	81.5
642.528	79.5
642.733	90.5
642.939	90.5
643.144	75.5
643.349	83.5
643.554	70.5
643.759	78.5
643.964	82.5
644.169	81.5
644.374	85.5
644.579	88.5
644.784	72.5
644.989	87.5
645.194	83.5
645.399	100.5
645.604	92.5
645.809	88.5
646.014	79.5
646.219	78.5
646.423	86.5
646.628	85.5
646.833	93.5
647.038	90.5
647.243	74.5
647.447	78.5
647.652	92.5
647.857	92.5
648.062	85.5
648.266	88.5
648.471	101.5
648.676	72.5
648.88	81.5
649.085	82.5
649.289	93.5
649.494	111.5
649.698	136.5
649.903	83.5
650.107	94.5
650.312	93.5
650.516	83.5
650.721	92.5
650.925	78.5
651.13	90.5
651.334	90.5
651.539	90.5
651.743	84.5
651.947	79.5
652.152	78.5
652.356	78.5
652.56	91.5
652.764	78.5
652.969	90.5
653.173	82.5
653.377	86.5
653.581	82.5
653.785	90.5
653.99	80.5
654.194	77.5
654.398	82.5
654.602	97.5
654.806	90.5
655.01	104.5
655.214	92.5
655.418	80.5
655.622	81.5
655.826	86.5
656.03	85.5
656.234	88.5
656.438	109.5
656.642	106.5
656.846	86.5
657.049	98.5
657.253	90.5
657.457	84.5
657.661	72.5
657.865	87.5
658.068	72.5
658.272	96.5
658.476	68.5
658.68	79.5
658.883	91.5
659.087	76.5
659.291	85.5
659.494	75.5
659.698	89.5
659.901	86.5
660.105	78.5
660.309	77.5
660.512	80.5
660.716	71.5
660.919	85.5
661.123	75.5
661.326	81.5
661.53	79.5
661.733	89.5
661.936	83.5
662.14	74.5
662.343	80.5
662.546	79.5
662.75	77.5
662.953	81.5
663.156	87.5
663.36	82.5
663.563	84.5
663.766	86.5
663.969	93.5
664.173	64.5
664.376	68.5
664.579	77.5
664.782	74.5
664.985	83.5
665.188	73.5
665.391	79.5
665.594	86.5
665.797	74.5
666	74.5
666.203	81.5
666.406	76.5
666.609	74.5
666.812	72.5
667.015	74.5
667.218	81.5
667.421	82.5
667.624	77.5
667.827	77.5
668.03	74.5
668.232	75.5
668.435	74.5
668.638	84.5
668.841	77.5
669.043	73.5
669.246	73.5
669.449	84.5
669.651	84.5
669.854	71.5
670.057	74.5
670.259	74.5
670.462	79.5
670.665	74.5
670.867	66.5
671.07	67.5
671.272	84.5
671.475	78.5
671.677	80.5
671.88	75.5
672.082	84.5
672.284	62.5
672.487	82.5
672.689	87.5
672.892	92.5
