Data from Circ_2006_H10_HRD10591_00099.txt Node
Date: Wed Jan 03 10:26:23 EST 2024
User: Yrep
Spectrometer: HR+D1059
Trigger mode: 1
Integration Time (sec): 1.000000E-1
Scans to average: 1
Electric dark correction enabled: true
Nonlinearity correction enabled: false
Boxcar width: 0
XAxis mode: Wavelengths
Number of Pixels in Spectrum: 2048
>>>>>Begin Spectral Data<<<<<
223.165	-21.88
223.4	-21.88
223.635	-21.88
223.869	-9.88
224.104	-21.88
224.338	-18.88
224.573	-17.88
224.808	-16.88
225.042	0.12
225.277	-1.88
225.511	8.12
225.746	-7.88
225.98	13.12
226.215	17.12
226.449	16.12
226.683	13.12
226.918	20.12
227.152	29.12
227.387	32.12
227.621	22.12
227.856	38.12
228.09	49.12
228.324	50.12
228.559	44.12
228.793	57.12
229.027	56.12
229.262	64.12
229.496	80.12
229.73	92.12
229.964	104.12
230.199	76.12
230.433	66.12
230.667	73.12
230.901	70.12
231.136	76.12
231.37	74.12
231.604	74.12
231.838	81.12
232.072	78.12
232.306	87.12
232.541	83.12
232.775	82.12
233.009	74.12
233.243	80.12
233.477	66.12
233.711	83.12
233.945	73.12
234.179	82.12
234.413	78.12
234.647	76.12
234.881	78.12
235.115	72.12
235.349	92.12
235.583	84.12
235.817	81.12
236.051	77.12
236.285	73.12
236.519	65.12
236.753	72.12
236.987	75.12
237.221	89.12
237.455	86.12
237.689	91.12
237.922	73.12
238.156	80.12
238.39	84.12
238.624	80.12
238.858	81.12
239.091	63.12
239.325	66.12
239.559	72.12
239.793	84.12
240.027	75.12
240.26	70.12
240.494	77.12
240.728	75.12
240.961	71.12
241.195	77.12
241.429	89.12
241.662	67.12
241.896	56.12
242.13	65.12
242.363	86.12
242.597	73.12
242.83	62.12
243.064	80.12
243.298	69.12
243.531	75.12
243.765	80.12
243.998	83.12
244.232	77.12
244.465	78.12
244.699	80.12
244.932	87.12
245.166	80.12
245.399	82.12
245.633	73.12
245.866	84.12
246.099	85.12
246.333	85.12
246.566	79.12
246.8	92.12
247.033	66.12
247.266	61.12
247.5	68.12
247.733	77.12
247.966	86.12
248.2	69.12
248.433	77.12
248.666	74.12
248.899	69.12
249.133	86.12
249.366	104.12
249.599	114.12
249.832	65.12
250.066	71.12
250.299	84.12
250.532	73.12
250.765	88.12
250.998	63.12
251.231	66.12
251.465	63.12
251.698	74.12
251.931	84.12
252.164	86.12
252.397	73.12
252.63	94.12
252.863	89.12
253.096	76.12
253.329	82.12
253.562	77.12
253.795	92.12
254.028	74.12
254.261	92.12
254.494	71.12
254.727	87.12
254.96	64.12
255.193	67.12
255.426	85.12
255.659	81.12
255.892	80.12
256.124	91.12
256.357	82.12
256.59	84.12
256.823	73.12
257.056	86.12
257.289	81.12
257.521	76.12
257.754	80.12
257.987	76.12
258.22	88.12
258.452	84.12
258.685	64.12
258.918	78.12
259.151	79.12
259.383	78.12
259.616	75.12
259.849	78.12
260.081	95.12
260.314	88.12
260.547	75.12
260.779	77.12
261.012	72.12
261.244	85.12
261.477	80.12
261.71	97.12
261.942	118.12
262.175	120.12
262.407	98.12
262.64	75.12
262.872	88.12
263.105	92.12
263.337	79.12
263.57	88.12
263.802	86.12
264.035	86.12
264.267	89.12
264.499	84.12
264.732	84.12
264.964	85.12
265.197	80.12
265.429	72.12
265.661	83.12
265.894	76.12
266.126	69.12
266.358	97.12
266.591	85.12
266.823	97.12
267.055	85.12
267.287	77.12
267.52	75.12
267.752	88.12
267.984	83.12
268.216	86.12
268.448	90.12
268.681	89.12
268.913	74.12
269.145	79.12
269.377	90.12
269.609	83.12
269.841	90.12
270.073	84.12
270.306	91.12
270.538	87.12
270.77	88.12
271.002	77.12
271.234	87.12
271.466	81.12
271.698	62.12
271.93	84.12
272.162	90.12
272.394	86.12
272.626	77.12
272.858	91.12
273.09	91.12
273.322	92.12
273.553	92.12
273.785	87.12
274.017	84.12
274.249	81.12
274.481	86.12
274.713	93.12
274.945	90.12
275.176	72.12
275.408	79.12
275.64	73.12
275.872	103.12
276.104	88.12
276.335	86.12
276.567	105.12
276.799	115.12
277.031	129.12
277.262	112.12
277.494	91.12
277.726	82.12
277.957	79.12
278.189	85.12
278.421	102.12
278.652	93.12
278.884	94.12
279.115	99.12
279.347	84.12
279.579	99.12
279.81	96.12
280.042	101.12
280.273	115.12
280.505	92.12
280.736	92.12
280.968	82.12
281.199	96.12
281.431	83.12
281.662	62.12
281.894	85.12
282.125	104.12
282.356	136.12
282.588	147.12
282.819	120.12
283.051	82.12
283.282	92.12
283.513	89.12
283.745	92.12
283.976	90.12
284.207	88.12
284.439	92.12
284.67	81.12
284.901	85.12
285.132	79.12
285.364	78.12
285.595	73.12
285.826	91.12
286.057	79.12
286.288	88.12
286.52	84.12
286.751	76.12
286.982	75.12
287.213	83.12
287.444	81.12
287.675	86.12
287.906	91.12
288.138	89.12
288.369	89.12
288.6	90.12
288.831	91.12
289.062	96.12
289.293	91.12
289.524	86.12
289.755	93.12
289.986	80.12
290.217	79.12
290.448	66.12
290.679	90.12
290.91	86.12
291.141	89.12
291.371	88.12
291.602	73.12
291.833	86.12
292.064	83.12
292.295	96.12
292.526	79.12
292.757	90.12
292.987	90.12
293.218	77.12
293.449	83.12
293.68	97.12
293.91	90.12
294.141	94.12
294.372	85.12
294.603	87.12
294.833	96.12
295.064	84.12
295.295	92.12
295.525	96.12
295.756	92.12
295.987	130.12
296.217	146.12
296.448	133.12
296.679	97.12
296.909	86.12
297.14	79.12
297.37	97.12
297.601	90.12
297.831	98.12
298.062	85.12
298.292	78.12
298.523	98.12
298.753	92.12
298.984	92.12
299.214	87.12
299.445	77.12
299.675	97.12
299.905	93.12
300.136	106.12
300.366	96.12
300.597	83.12
300.827	106.12
301.057	105.12
301.288	107.12
301.518	91.12
301.748	84.12
301.979	90.12
302.209	93.12
302.439	92.12
302.669	84.12
302.9	98.12
303.13	96.12
303.36	100.12
303.59	93.12
303.82	97.12
304.051	104.12
304.281	94.12
304.511	91.12
304.741	84.12
304.971	86.12
305.201	90.12
305.431	100.12
305.661	77.12
305.891	104.12
306.121	97.12
306.352	96.12
306.582	109.12
306.812	94.12
307.042	104.12
307.272	98.12
307.502	100.12
307.731	106.12
307.961	111.12
308.191	108.12
308.421	85.12
308.651	93.12
308.881	92.12
309.111	108.12
309.341	88.12
309.571	95.12
309.8	97.12
310.03	93.12
310.26	85.12
310.49	97.12
310.72	101.12
310.949	106.12
311.179	99.12
311.409	84.12
311.639	96.12
311.868	108.12
312.098	98.12
312.328	102.12
312.557	105.12
312.787	104.12
313.017	115.12
313.246	111.12
313.476	97.12
313.706	89.12
313.935	112.12
314.165	114.12
314.394	102.12
314.624	92.12
314.853	106.12
315.083	100.12
315.312	99.12
315.542	93.12
315.771	89.12
316.001	93.12
316.23	95.12
316.46	82.12
316.689	93.12
316.919	96.12
317.148	96.12
317.377	115.12
317.607	93.12
317.836	101.12
318.065	92.12
318.295	86.12
318.524	94.12
318.753	68.12
318.983	93.12
319.212	124.12
319.441	108.12
319.67	111.12
319.9	101.12
320.129	101.12
320.358	83.12
320.587	87.12
320.816	104.12
321.046	100.12
321.275	94.12
321.504	87.12
321.733	98.12
321.962	98.12
322.191	110.12
322.42	109.12
322.649	121.12
322.878	127.12
323.108	120.12
323.337	148.12
323.566	151.12
323.795	171.12
324.024	248.12
324.253	508.12
324.482	1096.12
324.71	2280.12
324.939	3027.12
325.168	1117.12
325.397	291.12
325.626	170.12
325.855	138.12
326.084	147.12
326.313	153.12
326.542	181.12
326.77	276.12
326.999	587.12
327.228	1239.12
327.457	2280.12
327.686	1787.12
327.914	471.12
328.143	275.12
328.372	256.12
328.6	182.12
328.829	140.12
329.058	142.12
329.287	173.12
329.515	130.12
329.744	138.12
329.972	172.12
330.201	264.12
330.43	342.12
330.658	239.12
330.887	209.12
331.115	157.12
331.344	108.12
331.572	103.12
331.801	116.12
332.03	105.12
332.258	92.12
332.486	87.12
332.715	97.12
332.943	108.12
333.172	103.12
333.4	110.12
333.629	121.12
333.857	141.12
334.085	175.12
334.314	254.12
334.542	448.12
334.771	428.12
334.999	176.12
335.227	114.12
335.455	104.12
335.684	105.12
335.912	98.12
336.14	91.12
336.369	114.12
336.597	111.12
336.825	94.12
337.053	98.12
337.281	100.12
337.51	83.12
337.738	101.12
337.966	103.12
338.194	98.12
338.422	100.12
338.65	97.12
338.878	94.12
339.106	98.12
339.334	74.12
339.562	90.12
339.79	90.12
340.018	96.12
340.246	98.12
340.474	87.12
340.702	98.12
340.93	89.12
341.158	82.12
341.386	100.12
341.614	102.12
341.842	97.12
342.07	99.12
342.298	84.12
342.526	86.12
342.754	89.12
342.981	83.12
343.209	98.12
343.437	97.12
343.665	102.12
343.893	89.12
344.12	97.12
344.348	102.12
344.576	105.12
344.804	77.12
345.031	103.12
345.259	108.12
345.487	99.12
345.714	97.12
345.942	95.12
346.17	98.12
346.397	84.12
346.625	95.12
346.853	116.12
347.08	91.12
347.308	93.12
347.535	107.12
347.763	114.12
347.99	102.12
348.218	89.12
348.445	97.12
348.673	99.12
348.9	92.12
349.128	93.12
349.355	94.12
349.583	95.12
349.81	92.12
350.037	100.12
350.265	102.12
350.492	106.12
350.72	101.12
350.947	112.12
351.174	110.12
351.402	124.12
351.629	106.12
351.856	102.12
352.083	113.12
352.311	116.12
352.538	120.12
352.765	125.12
352.992	117.12
353.22	124.12
353.447	109.12
353.674	105.12
353.901	90.12
354.128	112.12
354.355	101.12
354.583	94.12
354.81	95.12
355.037	99.12
355.264	101.12
355.491	99.12
355.718	94.12
355.945	95.12
356.172	101.12
356.399	88.12
356.626	85.12
356.853	82.12
357.08	94.12
357.307	94.12
357.534	91.12
357.761	107.12
357.988	85.12
358.215	99.12
358.441	86.12
358.668	94.12
358.895	79.12
359.122	87.12
359.349	87.12
359.576	94.12
359.802	122.12
360.029	123.12
360.256	125.12
360.483	117.12
360.709	105.12
360.936	102.12
361.163	98.12
361.39	107.12
361.616	104.12
361.843	88.12
362.07	100.12
362.296	102.12
362.523	100.12
362.749	104.12
362.976	94.12
363.203	109.12
363.429	99.12
363.656	86.12
363.882	108.12
364.109	84.12
364.335	89.12
364.562	88.12
364.788	86.12
365.015	100.12
365.241	118.12
365.468	117.12
365.694	113.12
365.92	98.12
366.147	96.12
366.373	92.12
366.599	93.12
366.826	100.12
367.052	98.12
367.278	93.12
367.505	101.12
367.731	87.12
367.957	110.12
368.184	99.12
368.41	98.12
368.636	113.12
368.862	110.12
369.089	101.12
369.315	102.12
369.541	105.12
369.767	96.12
369.993	93.12
370.219	90.12
370.445	77.12
370.672	80.12
370.898	88.12
371.124	96.12
371.35	90.12
371.576	88.12
371.802	103.12
372.028	94.12
372.254	97.12
372.48	97.12
372.706	83.12
372.932	93.12
373.158	92.12
373.384	108.12
373.61	96.12
373.835	84.12
374.061	81.12
374.287	82.12
374.513	99.12
374.739	89.12
374.965	94.12
375.191	94.12
375.416	80.12
375.642	81.12
375.868	87.12
376.094	93.12
376.319	99.12
376.545	90.12
376.771	81.12
376.997	99.12
377.222	106.12
377.448	89.12
377.674	85.12
377.899	99.12
378.125	102.12
378.35	84.12
378.576	93.12
378.802	86.12
379.027	85.12
379.253	90.12
379.478	91.12
379.704	84.12
379.929	99.12
380.155	86.12
380.38	94.12
380.606	97.12
380.831	98.12
381.057	97.12
381.282	92.12
381.507	83.12
381.733	96.12
381.958	101.12
382.184	98.12
382.409	100.12
382.634	99.12
382.86	88.12
383.085	102.12
383.31	96.12
383.535	107.12
383.761	91.12
383.986	97.12
384.211	102.12
384.436	92.12
384.662	102.12
384.887	95.12
385.112	107.12
385.337	107.12
385.562	110.12
385.787	109.12
386.013	114.12
386.238	110.12
386.463	119.12
386.688	102.12
386.913	82.12
387.138	92.12
387.363	109.12
387.588	114.12
387.813	104.12
388.038	86.12
388.263	109.12
388.488	107.12
388.713	98.12
388.938	92.12
389.163	92.12
389.387	88.12
389.612	93.12
389.837	100.12
390.062	99.12
390.287	94.12
390.512	85.12
390.736	97.12
390.961	91.12
391.186	109.12
391.411	93.12
391.636	95.12
391.86	91.12
392.085	83.12
392.31	83.12
392.534	86.12
392.759	97.12
392.984	84.12
393.208	92.12
393.433	96.12
393.658	77.12
393.882	84.12
394.107	96.12
394.331	85.12
394.556	89.12
394.78	82.12
395.005	98.12
395.229	89.12
395.454	87.12
395.678	93.12
395.903	83.12
396.127	81.12
396.352	83.12
396.576	90.12
396.801	86.12
397.025	90.12
397.249	90.12
397.474	98.12
397.698	92.12
397.922	82.12
398.147	88.12
398.371	103.12
398.595	96.12
398.82	88.12
399.044	84.12
399.268	94.12
399.492	98.12
399.717	93.12
399.941	96.12
400.165	104.12
400.389	93.12
400.613	72.12
400.837	93.12
401.062	104.12
401.286	100.12
401.51	105.12
401.734	90.12
401.958	110.12
402.182	146.12
402.406	172.12
402.63	146.12
402.854	101.12
403.078	87.12
403.302	78.12
403.526	88.12
403.75	93.12
403.974	91.12
404.198	96.12
404.422	80.12
404.645	104.12
404.869	100.12
405.093	103.12
405.317	115.12
405.541	115.12
405.765	85.12
405.988	116.12
406.212	192.12
406.436	261.12
406.66	175.12
406.883	134.12
407.107	88.12
407.331	96.12
407.555	111.12
407.778	100.12
408.002	106.12
408.226	92.12
408.449	90.12
408.673	80.12
408.896	95.12
409.12	107.12
409.344	93.12
409.567	89.12
409.791	94.12
410.014	114.12
410.238	91.12
410.461	120.12
410.685	94.12
410.908	105.12
411.132	96.12
411.355	98.12
411.578	90.12
411.802	85.12
412.025	95.12
412.249	94.12
412.472	102.12
412.695	110.12
412.919	101.12
413.142	83.12
413.365	88.12
413.589	80.12
413.812	96.12
414.035	85.12
414.258	90.12
414.482	95.12
414.705	83.12
414.928	83.12
415.151	83.12
415.374	93.12
415.597	86.12
415.821	82.12
416.044	80.12
416.267	101.12
416.49	89.12
416.713	88.12
416.936	91.12
417.159	94.12
417.382	100.12
417.605	91.12
417.828	89.12
418.051	100.12
418.274	80.12
418.497	85.12
418.72	85.12
418.943	89.12
419.166	84.12
419.389	90.12
419.611	90.12
419.834	102.12
420.057	97.12
420.28	92.12
420.503	85.12
420.726	83.12
420.948	86.12
421.171	80.12
421.394	90.12
421.617	104.12
421.839	93.12
422.062	81.12
422.285	85.12
422.507	101.12
422.73	117.12
422.953	97.12
423.175	99.12
423.398	97.12
423.621	80.12
423.843	89.12
424.066	76.12
424.288	89.12
424.511	100.12
424.733	104.12
424.956	114.12
425.178	95.12
425.401	111.12
425.623	107.12
425.846	88.12
426.068	97.12
426.291	98.12
426.513	93.12
426.735	87.12
426.958	101.12
427.18	129.12
427.402	162.12
427.625	213.12
427.847	179.12
428.069	156.12
428.292	105.12
428.514	103.12
428.736	89.12
428.958	76.12
429.181	82.12
429.403	90.12
429.625	92.12
429.847	95.12
430.069	111.12
430.292	97.12
430.514	85.12
430.736	58.12
430.958	91.12
431.18	76.12
431.402	85.12
431.624	62.12
431.846	85.12
432.068	82.12
432.29	99.12
432.512	76.12
432.734	85.12
432.956	83.12
433.178	107.12
433.4	114.12
433.622	81.12
433.844	90.12
434.066	101.12
434.287	87.12
434.509	69.12
434.731	98.12
434.953	85.12
435.175	80.12
435.397	84.12
435.618	92.12
435.84	125.12
436.062	146.12
436.284	125.12
436.505	100.12
436.727	102.12
436.949	85.12
437.17	80.12
437.392	86.12
437.614	93.12
437.835	121.12
438.057	126.12
438.278	129.12
438.5	113.12
438.721	150.12
438.943	113.12
439.165	88.12
439.386	84.12
439.608	89.12
439.829	96.12
440.05	144.12
440.272	173.12
440.493	111.12
440.715	74.12
440.936	91.12
441.158	100.12
441.379	83.12
441.6	107.12
441.822	96.12
442.043	107.12
442.264	119.12
442.486	96.12
442.707	100.12
442.928	109.12
443.149	159.12
443.371	149.12
443.592	136.12
443.813	137.12
444.034	122.12
444.255	105.12
444.476	86.12
444.698	87.12
444.919	76.12
445.14	129.12
445.361	140.12
445.582	150.12
445.803	155.12
446.024	173.12
446.245	180.12
446.466	128.12
446.687	82.12
446.908	95.12
447.129	91.12
447.35	88.12
447.571	97.12
447.792	100.12
448.013	109.12
448.234	107.12
448.455	100.12
448.675	137.12
448.896	132.12
449.117	106.12
449.338	102.12
449.559	143.12
449.779	169.12
450	98.12
450.221	82.12
450.442	91.12
450.662	116.12
450.883	134.12
451.104	130.12
451.324	105.12
451.545	83.12
451.766	85.12
451.986	86.12
452.207	87.12
452.428	90.12
452.648	111.12
452.869	130.12
453.089	124.12
453.31	128.12
453.53	101.12
453.751	108.12
453.971	108.12
454.192	111.12
454.412	88.12
454.633	81.12
454.853	74.12
455.073	69.12
455.294	93.12
455.514	114.12
455.734	91.12
455.955	83.12
456.175	61.12
456.395	93.12
456.616	89.12
456.836	80.12
457.056	91.12
457.276	86.12
457.497	77.12
457.717	96.12
457.937	86.12
458.157	88.12
458.377	84.12
458.598	108.12
458.818	178.12
459.038	202.12
459.258	145.12
459.478	96.12
459.698	101.12
459.918	84.12
460.138	72.12
460.358	85.12
460.578	81.12
460.798	104.12
461.018	85.12
461.238	84.12
461.458	69.12
461.678	70.12
461.898	84.12
462.118	84.12
462.338	84.12
462.558	84.12
462.777	78.12
462.997	82.12
463.217	90.12
463.437	87.12
463.657	88.12
463.876	79.12
464.096	82.12
464.316	96.12
464.536	100.12
464.755	97.12
464.975	106.12
465.195	214.12
465.414	206.12
465.634	97.12
465.854	97.12
466.073	95.12
466.293	91.12
466.512	93.12
466.732	62.12
466.951	80.12
467.171	94.12
467.391	112.12
467.61	107.12
467.829	121.12
468.049	167.12
468.268	217.12
468.488	111.12
468.707	91.12
468.927	88.12
469.146	83.12
469.365	81.12
469.585	89.12
469.804	91.12
470.023	113.12
470.243	99.12
470.462	109.12
470.681	114.12
470.901	97.12
471.12	94.12
471.339	93.12
471.558	88.12
471.777	100.12
471.997	130.12
472.216	281.12
472.435	498.12
472.654	173.12
472.873	84.12
473.092	85.12
473.311	80.12
473.53	77.12
473.749	81.12
473.968	92.12
474.187	120.12
474.406	110.12
474.625	88.12
474.844	92.12
475.063	78.12
475.282	77.12
475.501	85.12
475.72	78.12
475.939	73.12
476.158	69.12
476.377	83.12
476.596	78.12
476.814	102.12
477.033	92.12
477.252	79.12
477.471	83.12
477.69	89.12
477.908	94.12
478.127	101.12
478.346	78.12
478.564	86.12
478.783	95.12
479.002	97.12
479.22	92.12
479.439	105.12
479.658	118.12
479.876	113.12
480.095	98.12
480.313	101.12
480.532	112.12
480.751	126.12
480.969	272.12
481.188	844.12
481.406	537.12
481.624	136.12
481.843	99.12
482.061	104.12
482.28	92.12
482.498	93.12
482.717	82.12
482.935	62.12
483.153	86.12
483.372	79.12
483.59	97.12
483.808	93.12
484.027	93.12
484.245	89.12
484.463	86.12
484.681	97.12
484.9	96.12
485.118	91.12
485.336	77.12
485.554	92.12
485.772	99.12
485.99	96.12
486.209	98.12
486.427	107.12
486.645	116.12
486.863	123.12
487.081	103.12
487.299	104.12
487.517	82.12
487.735	80.12
487.953	81.12
488.171	77.12
488.389	97.12
488.607	98.12
488.825	86.12
489.043	79.12
489.261	100.12
489.479	82.12
489.696	90.12
489.914	91.12
490.132	93.12
490.35	78.12
490.568	89.12
490.786	84.12
491.003	99.12
491.221	97.12
491.439	80.12
491.657	96.12
491.874	99.12
492.092	90.12
492.31	82.12
492.527	110.12
492.745	100.12
492.963	100.12
493.18	83.12
493.398	86.12
493.615	79.12
493.833	87.12
494.05	87.12
494.268	83.12
494.485	78.12
494.703	84.12
494.92	85.12
495.138	88.12
495.355	88.12
495.573	94.12
495.79	92.12
496.008	84.12
496.225	90.12
496.442	91.12
496.66	72.12
496.877	86.12
497.094	88.12
497.312	86.12
497.529	80.12
497.746	83.12
497.963	82.12
498.181	100.12
498.398	98.12
498.615	108.12
498.832	115.12
499.049	75.12
499.267	86.12
499.484	91.12
499.701	96.12
499.918	83.12
500.135	81.12
500.352	102.12
500.569	87.12
500.786	101.12
501.003	90.12
501.22	93.12
501.437	93.12
501.654	77.12
501.871	117.12
502.088	113.12
502.305	87.12
502.522	89.12
502.739	91.12
502.956	96.12
503.172	101.12
503.389	92.12
503.606	118.12
503.823	99.12
504.04	89.12
504.256	77.12
504.473	95.12
504.69	83.12
504.907	86.12
505.123	93.12
505.34	85.12
505.557	89.12
505.773	90.12
505.99	90.12
506.207	80.12
506.423	80.12
506.64	86.12
506.856	83.12
507.073	92.12
507.289	103.12
507.506	94.12
507.722	126.12
507.939	126.12
508.155	100.12
508.372	86.12
508.588	83.12
508.805	95.12
509.021	99.12
509.238	100.12
509.454	101.12
509.67	98.12
509.887	117.12
510.103	128.12
510.319	228.12
510.536	865.12
510.752	2940.12
510.968	810.12
511.184	176.12
511.401	125.12
511.617	97.12
511.833	99.12
512.049	90.12
512.265	90.12
512.481	94.12
512.698	103.12
512.914	101.12
513.13	101.12
513.346	86.12
513.562	89.12
513.778	100.12
513.994	94.12
514.21	124.12
514.426	120.12
514.642	169.12
514.858	153.12
515.074	207.12
515.29	597.12
515.506	2131.12
515.721	764.12
515.937	185.12
516.153	120.12
516.369	109.12
516.585	111.12
516.801	92.12
517.016	83.12
517.232	110.12
517.448	96.12
517.664	96.12
517.879	96.12
518.095	95.12
518.311	90.12
518.527	87.12
518.742	99.12
518.958	91.12
519.173	97.12
519.389	95.12
519.605	97.12
519.82	93.12
520.036	110.12
520.251	133.12
520.467	137.12
520.682	113.12
520.898	118.12
521.113	141.12
521.329	158.12
521.544	254.12
521.76	757.12
521.975	3471.12
522.19	2117.12
522.406	432.12
522.621	140.12
522.836	112.12
523.052	107.12
523.267	86.12
523.482	92.12
523.698	110.12
523.913	138.12
524.128	120.12
524.343	101.12
524.559	79.12
524.774	78.12
524.989	110.12
525.204	115.12
525.419	100.12
525.634	85.12
525.849	93.12
526.064	92.12
526.28	102.12
526.495	85.12
526.71	98.12
526.925	91.12
527.14	95.12
527.355	85.12
527.57	84.12
527.785	94.12
527.999	84.12
528.214	98.12
528.429	96.12
528.644	107.12
528.859	106.12
529.074	101.12
529.289	123.12
529.503	246.12
529.718	107.12
529.933	88.12
530.148	82.12
530.363	84.12
530.577	83.12
530.792	104.12
531.007	97.12
531.221	93.12
531.436	85.12
531.651	96.12
531.865	84.12
532.08	86.12
532.295	88.12
532.509	96.12
532.724	92.12
532.938	80.12
533.153	91.12
533.367	94.12
533.582	93.12
533.796	80.12
534.011	93.12
534.225	86.12
534.44	82.12
534.654	80.12
534.868	77.12
535.083	99.12
535.297	99.12
535.511	112.12
535.726	114.12
535.94	106.12
536.154	98.12
536.369	90.12
536.583	73.12
536.797	94.12
537.011	90.12
537.225	80.12
537.44	89.12
537.654	82.12
537.868	94.12
538.082	99.12
538.296	86.12
538.51	80.12
538.724	80.12
538.938	82.12
539.153	107.12
539.367	117.12
539.581	102.12
539.795	86.12
540.009	82.12
540.222	93.12
540.436	90.12
540.65	96.12
540.864	88.12
541.078	105.12
541.292	98.12
541.506	98.12
541.72	105.12
541.934	86.12
542.147	79.12
542.361	105.12
542.575	82.12
542.789	92.12
543.002	88.12
543.216	107.12
543.43	107.12
543.644	91.12
543.857	85.12
544.071	88.12
544.285	87.12
544.498	102.12
544.712	87.12
544.925	86.12
545.139	86.12
545.352	87.12
545.566	74.12
545.779	81.12
545.993	87.12
546.206	87.12
546.42	80.12
546.633	81.12
546.847	100.12
547.06	87.12
547.274	100.12
547.487	83.12
547.7	72.12
547.914	93.12
548.127	94.12
548.34	96.12
548.554	83.12
548.767	81.12
548.98	73.12
549.193	89.12
549.407	84.12
549.62	78.12
549.833	94.12
550.046	90.12
550.259	94.12
550.473	86.12
550.686	97.12
550.899	86.12
551.112	89.12
551.325	84.12
551.538	98.12
551.751	97.12
551.964	77.12
552.177	93.12
552.39	83.12
552.603	77.12
552.816	83.12
553.029	111.12
553.242	98.12
553.455	95.12
553.667	105.12
553.88	108.12
554.093	92.12
554.306	99.12
554.519	99.12
554.732	94.12
554.944	88.12
555.157	89.12
555.37	86.12
555.583	83.12
555.795	109.12
556.008	84.12
556.221	83.12
556.433	82.12
556.646	90.12
556.859	95.12
557.071	107.12
557.284	90.12
557.496	95.12
557.709	85.12
557.921	85.12
558.134	92.12
558.346	96.12
558.559	100.12
558.771	92.12
558.984	77.12
559.196	88.12
559.409	84.12
559.621	81.12
559.833	94.12
560.046	76.12
560.258	88.12
560.47	113.12
560.683	71.12
560.895	108.12
561.107	75.12
561.32	88.12
561.532	86.12
561.744	85.12
561.956	94.12
562.168	93.12
562.381	78.12
562.593	90.12
562.805	102.12
563.017	91.12
563.229	93.12
563.441	78.12
563.653	77.12
563.865	81.12
564.077	88.12
564.289	89.12
564.501	83.12
564.713	88.12
564.925	107.12
565.137	94.12
565.349	84.12
565.561	89.12
565.773	93.12
565.985	108.12
566.197	102.12
566.408	88.12
566.62	110.12
566.832	96.12
567.044	97.12
567.255	108.12
567.467	89.12
567.679	92.12
567.891	96.12
568.102	89.12
568.314	90.12
568.526	88.12
568.737	86.12
568.949	89.12
569.161	93.12
569.372	85.12
569.584	77.12
569.795	82.12
570.007	126.12
570.218	279.12
570.43	140.12
570.641	82.12
570.853	89.12
571.064	86.12
571.276	90.12
571.487	92.12
571.698	77.12
571.91	76.12
572.121	84.12
572.333	77.12
572.544	100.12
572.755	88.12
572.966	84.12
573.178	76.12
573.389	104.12
573.6	96.12
573.811	91.12
574.023	82.12
574.234	82.12
574.445	95.12
574.656	83.12
574.867	81.12
575.078	95.12
575.289	76.12
575.501	83.12
575.712	92.12
575.923	77.12
576.134	92.12
576.345	82.12
576.556	89.12
576.767	90.12
576.978	86.12
577.188	100.12
577.399	92.12
577.61	89.12
577.821	98.12
578.032	115.12
578.243	318.12
578.454	922.12
578.665	244.12
578.875	96.12
579.086	100.12
579.297	90.12
579.508	103.12
579.718	86.12
579.929	93.12
580.14	88.12
580.35	84.12
580.561	85.12
580.772	80.12
580.982	85.12
581.193	90.12
581.403	98.12
581.614	93.12
581.825	100.12
582.035	81.12
582.246	84.12
582.456	88.12
582.667	76.12
582.877	84.12
583.087	79.12
583.298	83.12
583.508	79.12
583.719	86.12
583.929	101.12
584.139	88.12
584.35	86.12
584.56	81.12
584.77	96.12
584.981	87.12
585.191	84.12
585.401	86.12
585.611	88.12
585.821	95.12
586.032	89.12
586.242	98.12
586.452	95.12
586.662	108.12
586.872	90.12
587.082	69.12
587.292	82.12
587.502	78.12
587.713	91.12
587.923	100.12
588.133	85.12
588.343	90.12
588.553	88.12
588.762	85.12
588.972	98.12
589.182	125.12
589.392	81.12
589.602	98.12
589.812	94.12
590.022	112.12
590.232	102.12
590.441	87.12
590.651	89.12
590.861	87.12
591.071	81.12
591.281	75.12
591.49	83.12
591.7	93.12
591.91	91.12
592.119	84.12
592.329	89.12
592.539	97.12
592.748	104.12
592.958	82.12
593.167	73.12
593.377	88.12
593.587	88.12
593.796	81.12
594.006	90.12
594.215	93.12
594.424	87.12
594.634	95.12
594.843	81.12
595.053	85.12
595.262	77.12
595.472	92.12
595.681	88.12
595.89	86.12
596.1	73.12
596.309	92.12
596.518	93.12
596.727	91.12
596.937	87.12
597.146	76.12
597.355	96.12
597.564	88.12
597.774	86.12
597.983	91.12
598.192	77.12
598.401	82.12
598.61	75.12
598.819	75.12
599.028	75.12
599.237	82.12
599.446	87.12
599.655	86.12
599.864	96.12
600.073	91.12
600.282	82.12
600.491	85.12
600.7	77.12
600.909	75.12
601.118	90.12
601.327	104.12
601.536	91.12
601.745	81.12
601.953	99.12
602.162	94.12
602.371	96.12
602.58	75.12
602.789	87.12
602.997	86.12
603.206	81.12
603.415	86.12
603.623	98.12
603.832	85.12
604.041	87.12
604.249	96.12
604.458	91.12
604.666	85.12
604.875	85.12
605.084	81.12
605.292	94.12
605.501	80.12
605.709	87.12
605.918	71.12
606.126	78.12
606.334	79.12
606.543	80.12
606.751	92.12
606.96	78.12
607.168	90.12
607.376	92.12
607.585	90.12
607.793	74.12
608.001	80.12
608.21	91.12
608.418	85.12
608.626	78.12
608.834	100.12
609.043	85.12
609.251	94.12
609.459	85.12
609.667	72.12
609.875	89.12
610.083	78.12
610.291	87.12
610.499	89.12
610.707	83.12
610.916	100.12
611.124	111.12
611.332	86.12
611.54	79.12
611.748	78.12
611.955	86.12
612.163	92.12
612.371	102.12
612.579	89.12
612.787	86.12
612.995	104.12
613.203	82.12
613.411	81.12
613.618	76.12
613.826	77.12
614.034	97.12
614.242	85.12
614.449	82.12
614.657	79.12
614.865	76.12
615.072	82.12
615.28	80.12
615.488	82.12
615.695	77.12
615.903	86.12
616.111	108.12
616.318	99.12
616.526	96.12
616.733	89.12
616.941	92.12
617.148	79.12
617.356	80.12
617.563	91.12
617.771	93.12
617.978	83.12
618.185	80.12
618.393	79.12
618.6	80.12
618.807	70.12
619.015	84.12
619.222	92.12
619.429	96.12
619.637	81.12
619.844	71.12
620.051	97.12
620.258	86.12
620.466	92.12
620.673	84.12
620.88	90.12
621.087	82.12
621.294	85.12
621.501	87.12
621.708	82.12
621.915	85.12
622.122	83.12
622.329	75.12
622.536	89.12
622.743	67.12
622.95	70.12
623.157	85.12
623.364	77.12
623.571	92.12
623.778	77.12
623.985	81.12
624.192	85.12
624.399	82.12
624.606	90.12
624.812	91.12
625.019	85.12
625.226	72.12
625.433	78.12
625.639	79.12
625.846	89.12
626.053	92.12
626.259	85.12
626.466	91.12
626.673	91.12
626.879	90.12
627.086	75.12
627.293	95.12
627.499	72.12
627.706	79.12
627.912	75.12
628.119	84.12
628.325	90.12
628.532	91.12
628.738	86.12
628.945	86.12
629.151	85.12
629.357	92.12
629.564	83.12
629.77	83.12
629.976	91.12
630.183	90.12
630.389	95.12
630.595	81.12
630.802	82.12
631.008	84.12
631.214	80.12
631.42	92.12
631.627	100.12
631.833	79.12
632.039	83.12
632.245	91.12
632.451	93.12
632.657	84.12
632.863	81.12
633.069	88.12
633.275	88.12
633.481	93.12
633.688	90.12
633.893	86.12
634.099	76.12
634.305	69.12
634.511	87.12
634.717	85.12
634.923	79.12
635.129	82.12
635.335	94.12
635.541	81.12
635.747	77.12
635.952	85.12
636.158	90.12
636.364	139.12
636.57	123.12
636.775	86.12
636.981	79.12
637.187	99.12
637.392	83.12
637.598	86.12
637.804	93.12
638.009	89.12
638.215	84.12
638.421	88.12
638.626	89.12
638.832	88.12
639.037	89.12
639.243	81.12
639.448	84.12
639.654	81.12
639.859	84.12
640.065	74.12
640.27	82.12
640.475	83.12
640.681	68.12
640.886	77.12
641.091	73.12
641.297	92.12
641.502	84.12
641.707	98.12
641.913	80.12
642.118	86.12
642.323	78.12
642.528	83.12
642.733	79.12
642.939	82.12
643.144	74.12
643.349	88.12
643.554	84.12
643.759	88.12
643.964	80.12
644.169	81.12
644.374	77.12
644.579	87.12
644.784	83.12
644.989	94.12
645.194	84.12
645.399	90.12
645.604	86.12
645.809	82.12
646.014	79.12
646.219	87.12
646.423	73.12
646.628	76.12
646.833	89.12
647.038	77.12
647.243	72.12
647.447	81.12
647.652	90.12
647.857	91.12
648.062	92.12
648.266	90.12
648.471	82.12
648.676	100.12
648.88	82.12
649.085	86.12
649.289	86.12
649.494	96.12
649.698	154.12
649.903	100.12
650.107	84.12
650.312	88.12
650.516	91.12
650.721	85.12
650.925	85.12
651.13	78.12
651.334	88.12
651.539	79.12
651.743	70.12
651.947	84.12
652.152	83.12
652.356	89.12
652.56	81.12
652.764	69.12
652.969	82.12
653.173	81.12
653.377	82.12
653.581	73.12
653.785	70.12
653.99	92.12
654.194	93.12
654.398	89.12
654.602	76.12
654.806	101.12
655.01	116.12
655.214	92.12
655.418	87.12
655.622	84.12
655.826	84.12
656.03	78.12
656.234	91.12
656.438	94.12
656.642	99.12
656.846	78.12
657.049	88.12
657.253	90.12
657.457	86.12
657.661	76.12
657.865	95.12
658.068	72.12
658.272	72.12
658.476	80.12
658.68	65.12
658.883	69.12
659.087	77.12
659.291	76.12
659.494	82.12
659.698	89.12
659.901	96.12
660.105	86.12
660.309	88.12
660.512	81.12
660.716	81.12
660.919	85.12
661.123	84.12
661.326	64.12
661.53	87.12
661.733	75.12
661.936	80.12
662.14	86.12
662.343	77.12
662.546	78.12
662.75	72.12
662.953	82.12
663.156	91.12
663.36	85.12
663.563	99.12
663.766	78.12
663.969	82.12
664.173	72.12
664.376	76.12
664.579	91.12
664.782	77.12
664.985	92.12
665.188	76.12
665.391	72.12
665.594	77.12
665.797	70.12
666	70.12
666.203	81.12
666.406	72.12
666.609	77.12
666.812	85.12
667.015	82.12
667.218	71.12
667.421	86.12
667.624	78.12
667.827	75.12
668.03	84.12
668.232	68.12
668.435	89.12
668.638	76.12
668.841	76.12
669.043	86.12
669.246	82.12
669.449	81.12
669.651	79.12
669.854	82.12
670.057	90.12
670.259	69.12
670.462	64.12
670.665	85.12
670.867	88.12
671.07	69.12
671.272	69.12
671.475	69.12
671.677	85.12
671.88	74.12
672.082	72.12
672.284	82.12
672.487	83.12
672.689	81.12
672.892	85.12
