Data from KBr_6_HRD10591_00023.txt Node
Date: Mon Jan 19 13:28:37 EST 2026
User: Yrep
Spectrometer: HR+D1059
Trigger mode: 1
Integration Time (sec): 1.000000E-1
Scans to average: 1
Electric dark correction enabled: true
Nonlinearity correction enabled: false
Boxcar width: 0
XAxis mode: Wavelengths
Number of Pixels in Spectrum: 2048
>>>>>Begin Spectral Data<<<<<
223.165	-19.19
223.4	-19.19
223.635	-19.19
223.869	-5.19
224.104	-12.19
224.338	-14.19
224.573	-21.19
224.808	-11.19
225.042	-14.19
225.277	5.81
225.511	-6.19
225.746	8.81
225.98	5.81
226.215	0.81
226.449	8.81
226.683	22.81
226.918	21.81
227.152	28.81
227.387	34.81
227.621	54.81
227.856	56.81
228.09	65.81
228.324	40.81
228.559	54.81
228.793	71.81
229.027	58.81
229.262	67.81
229.496	67.81
229.73	65.81
229.964	72.81
230.199	65.81
230.433	70.81
230.667	83.81
230.901	75.81
231.136	90.81
231.37	67.81
231.604	78.81
231.838	85.81
232.072	79.81
232.306	81.81
232.541	97.81
232.775	79.81
233.009	74.81
233.243	77.81
233.477	81.81
233.711	90.81
233.945	74.81
234.179	75.81
234.413	74.81
234.647	68.81
234.881	78.81
235.115	94.81
235.349	80.81
235.583	76.81
235.817	88.81
236.051	84.81
236.285	75.81
236.519	74.81
236.753	79.81
236.987	72.81
237.221	66.81
237.455	92.81
237.689	80.81
237.922	74.81
238.156	78.81
238.39	88.81
238.624	75.81
238.858	90.81
239.091	68.81
239.325	71.81
239.559	71.81
239.793	66.81
240.027	74.81
240.26	70.81
240.494	83.81
240.728	76.81
240.961	73.81
241.195	84.81
241.429	76.81
241.662	74.81
241.896	77.81
242.13	69.81
242.363	82.81
242.597	82.81
242.83	92.81
243.064	81.81
243.298	84.81
243.531	77.81
243.765	76.81
243.998	70.81
244.232	78.81
244.465	76.81
244.699	78.81
244.932	75.81
245.166	88.81
245.399	77.81
245.633	80.81
245.866	64.81
246.099	73.81
246.333	71.81
246.566	78.81
246.8	86.81
247.033	64.81
247.266	89.81
247.5	70.81
247.733	70.81
247.966	76.81
248.2	83.81
248.433	72.81
248.666	77.81
248.899	81.81
249.133	88.81
249.366	82.81
249.599	83.81
249.832	80.81
250.066	74.81
250.299	79.81
250.532	77.81
250.765	74.81
250.998	87.81
251.231	74.81
251.465	74.81
251.698	82.81
251.931	86.81
252.164	73.81
252.397	70.81
252.63	80.81
252.863	70.81
253.096	78.81
253.329	86.81
253.562	84.81
253.795	68.81
254.028	85.81
254.261	83.81
254.494	65.81
254.727	93.81
254.96	64.81
255.193	90.81
255.426	82.81
255.659	96.81
255.892	79.81
256.124	92.81
256.357	89.81
256.59	77.81
256.823	77.81
257.056	70.81
257.289	84.81
257.521	80.81
257.754	87.81
257.987	78.81
258.22	86.81
258.452	94.81
258.685	94.81
258.918	74.81
259.151	73.81
259.383	83.81
259.616	71.81
259.849	71.81
260.081	71.81
260.314	81.81
260.547	69.81
260.779	61.81
261.012	79.81
261.244	80.81
261.477	95.81
261.71	85.81
261.942	76.81
262.175	79.81
262.407	77.81
262.64	74.81
262.872	74.81
263.105	84.81
263.337	81.81
263.57	80.81
263.802	84.81
264.035	93.81
264.267	94.81
264.499	86.81
264.732	87.81
264.964	86.81
265.197	77.81
265.429	75.81
265.661	76.81
265.894	90.81
266.126	78.81
266.358	80.81
266.591	82.81
266.823	73.81
267.055	85.81
267.287	84.81
267.52	69.81
267.752	90.81
267.984	80.81
268.216	77.81
268.448	89.81
268.681	84.81
268.913	83.81
269.145	75.81
269.377	74.81
269.609	78.81
269.841	79.81
270.073	78.81
270.306	85.81
270.538	96.81
270.77	97.81
271.002	73.81
271.234	70.81
271.466	68.81
271.698	90.81
271.93	74.81
272.162	77.81
272.394	81.81
272.626	84.81
272.858	97.81
273.09	74.81
273.322	75.81
273.553	80.81
273.785	77.81
274.017	86.81
274.249	85.81
274.481	77.81
274.713	78.81
274.945	84.81
275.176	93.81
275.408	75.81
275.64	72.81
275.872	81.81
276.104	85.81
276.335	73.81
276.567	93.81
276.799	78.81
277.031	80.81
277.262	76.81
277.494	76.81
277.726	87.81
277.957	83.81
278.189	79.81
278.421	82.81
278.652	89.81
278.884	84.81
279.115	75.81
279.347	77.81
279.579	77.81
279.81	89.81
280.042	80.81
280.273	81.81
280.505	85.81
280.736	83.81
280.968	89.81
281.199	86.81
281.431	86.81
281.662	86.81
281.894	93.81
282.125	87.81
282.356	71.81
282.588	91.81
282.819	80.81
283.051	98.81
283.282	94.81
283.513	86.81
283.745	86.81
283.976	84.81
284.207	95.81
284.439	75.81
284.67	83.81
284.901	84.81
285.132	86.81
285.364	96.81
285.595	85.81
285.826	80.81
286.057	93.81
286.288	79.81
286.52	99.81
286.751	94.81
286.982	85.81
287.213	76.81
287.444	80.81
287.675	87.81
287.906	75.81
288.138	80.81
288.369	91.81
288.6	81.81
288.831	83.81
289.062	82.81
289.293	92.81
289.524	96.81
289.755	65.81
289.986	82.81
290.217	75.81
290.448	84.81
290.679	80.81
290.91	87.81
291.141	86.81
291.371	91.81
291.602	84.81
291.833	84.81
292.064	91.81
292.295	85.81
292.526	88.81
292.757	93.81
292.987	74.81
293.218	82.81
293.449	92.81
293.68	93.81
293.91	84.81
294.141	76.81
294.372	73.81
294.603	84.81
294.833	80.81
295.064	94.81
295.295	80.81
295.525	78.81
295.756	86.81
295.987	97.81
296.217	84.81
296.448	95.81
296.679	87.81
296.909	90.81
297.14	89.81
297.37	75.81
297.601	89.81
297.831	82.81
298.062	90.81
298.292	88.81
298.523	77.81
298.753	83.81
298.984	98.81
299.214	81.81
299.445	82.81
299.675	89.81
299.905	90.81
300.136	87.81
300.366	84.81
300.597	88.81
300.827	85.81
301.057	91.81
301.288	72.81
301.518	83.81
301.748	81.81
301.979	84.81
302.209	71.81
302.439	92.81
302.669	84.81
302.9	92.81
303.13	86.81
303.36	92.81
303.59	88.81
303.82	78.81
304.051	93.81
304.281	91.81
304.511	102.81
304.741	79.81
304.971	74.81
305.201	76.81
305.431	79.81
305.661	90.81
305.891	94.81
306.121	90.81
306.352	92.81
306.582	93.81
306.812	88.81
307.042	79.81
307.272	80.81
307.502	88.81
307.731	94.81
307.961	97.81
308.191	82.81
308.421	89.81
308.651	93.81
308.881	82.81
309.111	86.81
309.341	88.81
309.571	89.81
309.8	98.81
310.03	93.81
310.26	78.81
310.49	81.81
310.72	84.81
310.949	99.81
311.179	96.81
311.409	100.81
311.639	80.81
311.868	90.81
312.098	80.81
312.328	79.81
312.557	76.81
312.787	100.81
313.017	100.81
313.246	78.81
313.476	90.81
313.706	95.81
313.935	80.81
314.165	97.81
314.394	94.81
314.624	87.81
314.853	88.81
315.083	104.81
315.312	93.81
315.542	83.81
315.771	107.81
316.001	92.81
316.23	100.81
316.46	93.81
316.689	73.81
316.919	85.81
317.148	78.81
317.377	98.81
317.607	83.81
317.836	79.81
318.065	85.81
318.295	86.81
318.524	81.81
318.753	90.81
318.983	93.81
319.212	90.81
319.441	83.81
319.67	80.81
319.9	112.81
320.129	77.81
320.358	88.81
320.587	90.81
320.816	108.81
321.046	96.81
321.275	73.81
321.504	93.81
321.733	93.81
321.962	81.81
322.191	92.81
322.42	85.81
322.649	94.81
322.878	80.81
323.108	98.81
323.337	80.81
323.566	86.81
323.795	90.81
324.024	75.81
324.253	97.81
324.482	104.81
324.71	90.81
324.939	91.81
325.168	85.81
325.397	82.81
325.626	88.81
325.855	93.81
326.084	91.81
326.313	92.81
326.542	89.81
326.77	94.81
326.999	87.81
327.228	91.81
327.457	99.81
327.686	88.81
327.914	90.81
328.143	93.81
328.372	88.81
328.6	98.81
328.829	97.81
329.058	89.81
329.287	92.81
329.515	86.81
329.744	90.81
329.972	114.81
330.201	94.81
330.43	116.81
330.658	102.81
330.887	86.81
331.115	88.81
331.344	90.81
331.572	90.81
331.801	91.81
332.03	87.81
332.258	90.81
332.486	88.81
332.715	90.81
332.943	73.81
333.172	78.81
333.4	99.81
333.629	96.81
333.857	95.81
334.085	83.81
334.314	82.81
334.542	95.81
334.771	93.81
334.999	84.81
335.227	84.81
335.455	90.81
335.684	97.81
335.912	83.81
336.14	104.81
336.369	90.81
336.597	95.81
336.825	93.81
337.053	103.81
337.281	95.81
337.51	93.81
337.738	105.81
337.966	82.81
338.194	94.81
338.422	93.81
338.65	98.81
338.878	105.81
339.106	86.81
339.334	106.81
339.562	82.81
339.79	86.81
340.018	87.81
340.246	82.81
340.474	94.81
340.702	92.81
340.93	86.81
341.158	90.81
341.386	99.81
341.614	98.81
341.842	92.81
342.07	86.81
342.298	92.81
342.526	81.81
342.754	77.81
342.981	93.81
343.209	75.81
343.437	100.81
343.665	98.81
343.893	88.81
344.12	99.81
344.348	106.81
344.576	129.81
344.804	139.81
345.031	115.81
345.259	94.81
345.487	94.81
345.714	109.81
345.942	92.81
346.17	87.81
346.397	96.81
346.625	81.81
346.853	93.81
347.08	91.81
347.308	86.81
347.535	88.81
347.763	104.81
347.99	84.81
348.218	103.81
348.445	104.81
348.673	92.81
348.9	92.81
349.128	91.81
349.355	86.81
349.583	82.81
349.81	80.81
350.037	96.81
350.265	94.81
350.492	79.81
350.72	78.81
350.947	84.81
351.174	86.81
351.402	88.81
351.629	95.81
351.856	89.81
352.083	86.81
352.311	93.81
352.538	92.81
352.765	90.81
352.992	104.81
353.22	88.81
353.447	92.81
353.674	90.81
353.901	102.81
354.128	83.81
354.355	87.81
354.583	84.81
354.81	79.81
355.037	85.81
355.264	93.81
355.491	93.81
355.718	79.81
355.945	93.81
356.172	98.81
356.399	99.81
356.626	113.81
356.853	99.81
357.08	86.81
357.307	85.81
357.534	88.81
357.761	94.81
357.988	86.81
358.215	91.81
358.441	96.81
358.668	87.81
358.895	91.81
359.122	93.81
359.349	94.81
359.576	90.81
359.802	86.81
360.029	105.81
360.256	98.81
360.483	94.81
360.709	105.81
360.936	82.81
361.163	92.81
361.39	98.81
361.616	89.81
361.843	81.81
362.07	115.81
362.296	88.81
362.523	100.81
362.749	91.81
362.976	85.81
363.203	88.81
363.429	93.81
363.656	97.81
363.882	78.81
364.109	92.81
364.335	90.81
364.562	83.81
364.788	93.81
365.015	92.81
365.241	84.81
365.468	86.81
365.694	89.81
365.92	99.81
366.147	94.81
366.373	80.81
366.599	80.81
366.826	97.81
367.052	81.81
367.278	97.81
367.505	91.81
367.731	94.81
367.957	70.81
368.184	84.81
368.41	90.81
368.636	96.81
368.862	92.81
369.089	95.81
369.315	84.81
369.541	89.81
369.767	92.81
369.993	80.81
370.219	96.81
370.445	85.81
370.672	94.81
370.898	91.81
371.124	80.81
371.35	94.81
371.576	93.81
371.802	87.81
372.028	86.81
372.254	93.81
372.48	89.81
372.706	90.81
372.932	94.81
373.158	82.81
373.384	80.81
373.61	93.81
373.835	84.81
374.061	87.81
374.287	100.81
374.513	87.81
374.739	94.81
374.965	89.81
375.191	84.81
375.416	90.81
375.642	85.81
375.868	64.81
376.094	93.81
376.319	92.81
376.545	93.81
376.771	91.81
376.997	74.81
377.222	79.81
377.448	81.81
377.674	78.81
377.899	94.81
378.125	88.81
378.35	86.81
378.576	85.81
378.802	82.81
379.027	98.81
379.253	85.81
379.478	87.81
379.704	105.81
379.929	85.81
380.155	87.81
380.38	101.81
380.606	105.81
380.831	106.81
381.057	96.81
381.282	75.81
381.507	102.81
381.733	86.81
381.958	84.81
382.184	92.81
382.409	94.81
382.634	95.81
382.86	94.81
383.085	90.81
383.31	91.81
383.535	101.81
383.761	86.81
383.986	93.81
384.211	96.81
384.436	82.81
384.662	90.81
384.887	84.81
385.112	106.81
385.337	68.81
385.562	97.81
385.787	89.81
386.013	85.81
386.238	104.81
386.463	70.81
386.688	101.81
386.913	100.81
387.138	80.81
387.363	81.81
387.588	84.81
387.813	88.81
388.038	91.81
388.263	96.81
388.488	101.81
388.713	92.81
388.938	89.81
389.163	90.81
389.387	84.81
389.612	94.81
389.837	92.81
390.062	88.81
390.287	101.81
390.512	85.81
390.736	97.81
390.961	92.81
391.186	83.81
391.411	87.81
391.636	102.81
391.86	88.81
392.085	89.81
392.31	92.81
392.534	101.81
392.759	98.81
392.984	88.81
393.208	105.81
393.433	91.81
393.658	97.81
393.882	94.81
394.107	77.81
394.331	94.81
394.556	91.81
394.78	97.81
395.005	88.81
395.229	84.81
395.454	98.81
395.678	104.81
395.903	84.81
396.127	91.81
396.352	109.81
396.576	79.81
396.801	101.81
397.025	87.81
397.249	81.81
397.474	74.81
397.698	106.81
397.922	92.81
398.147	93.81
398.371	103.81
398.595	100.81
398.82	92.81
399.044	84.81
399.268	105.81
399.492	85.81
399.717	90.81
399.941	82.81
400.165	81.81
400.389	97.81
400.613	92.81
400.837	105.81
401.062	88.81
401.286	102.81
401.51	102.81
401.734	84.81
401.958	98.81
402.182	87.81
402.406	85.81
402.63	104.81
402.854	94.81
403.078	112.81
403.302	92.81
403.526	131.81
403.75	110.81
403.974	144.81
404.198	248.81
404.422	414.81
404.645	547.81
404.869	458.81
405.093	281.81
405.317	152.81
405.541	120.81
405.765	108.81
405.988	102.81
406.212	93.81
406.436	106.81
406.66	108.81
406.883	92.81
407.107	107.81
407.331	90.81
407.555	92.81
407.778	92.81
408.002	95.81
408.226	101.81
408.449	97.81
408.673	101.81
408.896	87.81
409.12	93.81
409.344	101.81
409.567	95.81
409.791	101.81
410.014	81.81
410.238	96.81
410.461	95.81
410.685	85.81
410.908	92.81
411.132	84.81
411.355	85.81
411.578	88.81
411.802	94.81
412.025	84.81
412.249	74.81
412.472	90.81
412.695	92.81
412.919	95.81
413.142	98.81
413.365	84.81
413.589	95.81
413.812	100.81
414.035	97.81
414.258	83.81
414.482	99.81
414.705	107.81
414.928	93.81
415.151	91.81
415.374	93.81
415.597	99.81
415.821	92.81
416.044	96.81
416.267	99.81
416.49	104.81
416.713	91.81
416.936	84.81
417.159	97.81
417.382	97.81
417.605	97.81
417.828	101.81
418.051	75.81
418.274	80.81
418.497	96.81
418.72	86.81
418.943	98.81
419.166	84.81
419.389	88.81
419.611	97.81
419.834	93.81
420.057	81.81
420.28	98.81
420.503	90.81
420.726	81.81
420.948	105.81
421.171	81.81
421.394	84.81
421.617	87.81
421.839	85.81
422.062	86.81
422.285	89.81
422.507	101.81
422.73	131.81
422.953	110.81
423.175	103.81
423.398	100.81
423.621	108.81
423.843	106.81
424.066	98.81
424.288	106.81
424.511	84.81
424.733	88.81
424.956	89.81
425.178	101.81
425.401	96.81
425.623	92.81
425.846	96.81
426.068	102.81
426.291	96.81
426.513	92.81
426.735	94.81
426.958	82.81
427.18	84.81
427.402	94.81
427.625	110.81
427.847	89.81
428.069	87.81
428.292	107.81
428.514	84.81
428.736	94.81
428.958	97.81
429.181	106.81
429.403	80.81
429.625	84.81
429.847	99.81
430.069	84.81
430.292	96.81
430.514	94.81
430.736	104.81
430.958	84.81
431.18	81.81
431.402	102.81
431.624	96.81
431.846	89.81
432.068	83.81
432.29	91.81
432.512	90.81
432.734	84.81
432.956	83.81
433.178	103.81
433.4	99.81
433.622	90.81
433.844	81.81
434.066	93.81
434.287	97.81
434.509	89.81
434.731	78.81
434.953	98.81
435.175	97.81
435.397	106.81
435.618	91.81
435.84	95.81
436.062	80.81
436.284	83.81
436.505	76.81
436.727	92.81
436.949	97.81
437.17	91.81
437.392	84.81
437.614	83.81
437.835	92.81
438.057	83.81
438.278	78.81
438.5	89.81
438.721	91.81
438.943	94.81
439.165	101.81
439.386	95.81
439.608	90.81
439.829	90.81
440.05	92.81
440.272	97.81
440.493	85.81
440.715	91.81
440.936	88.81
441.158	95.81
441.379	104.81
441.6	98.81
441.822	91.81
442.043	96.81
442.264	106.81
442.486	107.81
442.707	105.81
442.928	102.81
443.149	99.81
443.371	100.81
443.592	89.81
443.813	69.81
444.034	93.81
444.255	88.81
444.476	96.81
444.698	89.81
444.919	104.81
445.14	157.81
445.361	128.81
445.582	85.81
445.803	87.81
446.024	96.81
446.245	88.81
446.466	91.81
446.687	95.81
446.908	105.81
447.129	86.81
447.35	83.81
447.571	98.81
447.792	98.81
448.013	75.81
448.234	90.81
448.455	86.81
448.675	94.81
448.896	88.81
449.117	96.81
449.338	102.81
449.559	90.81
449.779	85.81
450	92.81
450.221	94.81
450.442	100.81
450.662	104.81
450.883	96.81
451.104	89.81
451.324	104.81
451.545	91.81
451.766	83.81
451.986	81.81
452.207	92.81
452.428	82.81
452.648	92.81
452.869	85.81
453.089	99.81
453.31	96.81
453.53	87.81
453.751	106.81
453.971	91.81
454.192	86.81
454.412	102.81
454.633	94.81
454.853	101.81
455.073	98.81
455.294	98.81
455.514	96.81
455.734	86.81
455.955	78.81
456.175	110.81
456.395	91.81
456.616	97.81
456.836	88.81
457.056	88.81
457.276	82.81
457.497	101.81
457.717	98.81
457.937	98.81
458.157	97.81
458.377	93.81
458.598	89.81
458.818	87.81
459.038	97.81
459.258	91.81
459.478	77.81
459.698	71.81
459.918	88.81
460.138	97.81
460.358	84.81
460.578	74.81
460.798	95.81
461.018	82.81
461.238	93.81
461.458	110.81
461.678	93.81
461.898	90.81
462.118	107.81
462.338	101.81
462.558	92.81
462.777	88.81
462.997	89.81
463.217	85.81
463.437	109.81
463.657	93.81
463.876	96.81
464.096	88.81
464.316	93.81
464.536	106.81
464.755	97.81
464.975	94.81
465.195	93.81
465.414	90.81
465.634	99.81
465.854	95.81
466.073	91.81
466.293	91.81
466.512	92.81
466.732	100.81
466.951	101.81
467.171	116.81
467.391	91.81
467.61	99.81
467.829	97.81
468.049	84.81
468.268	89.81
468.488	99.81
468.707	92.81
468.927	99.81
469.146	83.81
469.365	112.81
469.585	105.81
469.804	93.81
470.023	107.81
470.243	111.81
470.462	94.81
470.681	98.81
470.901	85.81
471.12	105.81
471.339	97.81
471.558	92.81
471.777	90.81
471.997	85.81
472.216	112.81
472.435	96.81
472.654	86.81
472.873	86.81
473.092	105.81
473.311	90.81
473.53	99.81
473.749	94.81
473.968	100.81
474.187	98.81
474.406	86.81
474.625	93.81
474.844	106.81
475.063	97.81
475.282	110.81
475.501	104.81
475.72	95.81
475.939	91.81
476.158	102.81
476.377	119.81
476.596	104.81
476.814	122.81
477.033	101.81
477.252	101.81
477.471	104.81
477.69	99.81
477.908	98.81
478.127	82.81
478.346	93.81
478.564	106.81
478.783	106.81
479.002	110.81
479.22	100.81
479.439	108.81
479.658	89.81
479.876	105.81
480.095	98.81
480.313	110.81
480.532	103.81
480.751	85.81
480.969	99.81
481.188	110.81
481.406	118.81
481.624	105.81
481.843	87.81
482.061	106.81
482.28	104.81
482.498	93.81
482.717	87.81
482.935	102.81
483.153	116.81
483.372	108.81
483.59	99.81
483.808	75.81
484.027	113.81
484.245	97.81
484.463	96.81
484.681	101.81
484.9	103.81
485.118	114.81
485.336	101.81
485.554	108.81
485.772	102.81
485.99	104.81
486.209	99.81
486.427	102.81
486.645	96.81
486.863	101.81
487.081	105.81
487.299	87.81
487.517	98.81
487.735	106.81
487.953	105.81
488.171	104.81
488.389	99.81
488.607	104.81
488.825	105.81
489.043	97.81
489.261	110.81
489.479	104.81
489.696	101.81
489.914	94.81
490.132	101.81
490.35	117.81
490.568	111.81
490.786	108.81
491.003	116.81
491.221	112.81
491.439	107.81
491.657	99.81
491.874	108.81
492.092	108.81
492.31	127.81
492.527	100.81
492.745	107.81
492.963	112.81
493.18	97.81
493.398	92.81
493.615	110.81
493.833	106.81
494.05	110.81
494.268	122.81
494.485	101.81
494.703	104.81
494.92	110.81
495.138	103.81
495.355	113.81
495.573	107.81
495.79	100.81
496.008	111.81
496.225	101.81
496.442	101.81
496.66	119.81
496.877	123.81
497.094	122.81
497.312	94.81
497.529	120.81
497.746	107.81
497.963	101.81
498.181	108.81
498.398	136.81
498.615	120.81
498.832	90.81
499.049	98.81
499.267	98.81
499.484	94.81
499.701	118.81
499.918	114.81
500.135	106.81
500.352	89.81
500.569	119.81
500.786	100.81
501.003	109.81
501.22	98.81
501.437	106.81
501.654	92.81
501.871	91.81
502.088	103.81
502.305	100.81
502.522	99.81
502.739	109.81
502.956	101.81
503.172	100.81
503.389	101.81
503.606	102.81
503.823	97.81
504.04	102.81
504.256	96.81
504.473	99.81
504.69	102.81
504.907	108.81
505.123	94.81
505.34	103.81
505.557	94.81
505.773	93.81
505.99	91.81
506.207	83.81
506.423	108.81
506.64	113.81
506.856	98.81
507.073	97.81
507.289	109.81
507.506	97.81
507.722	100.81
507.939	104.81
508.155	105.81
508.372	112.81
508.588	97.81
508.805	99.81
509.021	111.81
509.238	102.81
509.454	110.81
509.67	114.81
509.887	105.81
510.103	117.81
510.319	117.81
510.536	121.81
510.752	114.81
510.968	118.81
511.184	111.81
511.401	105.81
511.617	113.81
511.833	110.81
512.049	117.81
512.265	108.81
512.481	96.81
512.698	122.81
512.914	109.81
513.13	109.81
513.346	92.81
513.562	114.81
513.778	104.81
513.994	99.81
514.21	96.81
514.426	107.81
514.642	93.81
514.858	101.81
515.074	107.81
515.29	97.81
515.506	100.81
515.721	101.81
515.937	111.81
516.153	84.81
516.369	97.81
516.585	98.81
516.801	93.81
517.016	93.81
517.232	77.81
517.448	113.81
517.664	86.81
517.879	97.81
518.095	90.81
518.311	104.81
518.527	91.81
518.742	104.81
518.958	87.81
519.173	102.81
519.389	114.81
519.605	104.81
519.82	97.81
520.036	112.81
520.251	91.81
520.467	93.81
520.682	96.81
520.898	94.81
521.113	83.81
521.329	96.81
521.544	108.81
521.76	97.81
521.975	108.81
522.19	119.81
522.406	84.81
522.621	97.81
522.836	105.81
523.052	93.81
523.267	86.81
523.482	93.81
523.698	101.81
523.913	103.81
524.128	94.81
524.343	114.81
524.559	120.81
524.774	104.81
524.989	86.81
525.204	95.81
525.419	99.81
525.634	103.81
525.849	96.81
526.064	104.81
526.28	108.81
526.495	84.81
526.71	84.81
526.925	92.81
527.14	91.81
527.355	106.81
527.57	104.81
527.785	109.81
527.999	97.81
528.214	94.81
528.429	108.81
528.644	87.81
528.859	89.81
529.074	91.81
529.289	85.81
529.503	101.81
529.718	109.81
529.933	101.81
530.148	101.81
530.363	97.81
530.577	105.81
530.792	83.81
531.007	101.81
531.221	91.81
531.436	93.81
531.651	119.81
531.865	101.81
532.08	105.81
532.295	122.81
532.509	117.81
532.724	106.81
532.938	120.81
533.153	121.81
533.367	115.81
533.582	111.81
533.796	144.81
534.011	125.81
534.225	134.81
534.44	142.81
534.654	150.81
534.868	134.81
535.083	134.81
535.297	128.81
535.511	142.81
535.726	122.81
535.94	120.81
536.154	135.81
536.369	142.81
536.583	124.81
536.797	133.81
537.011	112.81
537.225	122.81
537.44	123.81
537.654	90.81
537.868	112.81
538.082	110.81
538.296	102.81
538.51	106.81
538.724	109.81
538.938	96.81
539.153	96.81
539.367	114.81
539.581	105.81
539.795	85.81
540.009	106.81
540.222	98.81
540.436	89.81
540.65	88.81
540.864	99.81
541.078	88.81
541.292	76.81
541.506	86.81
541.72	102.81
541.934	108.81
542.147	100.81
542.361	90.81
542.575	98.81
542.789	107.81
543.002	98.81
543.216	97.81
543.43	83.81
543.644	90.81
543.857	91.81
544.071	96.81
544.285	94.81
544.498	94.81
544.712	90.81
544.925	100.81
545.139	95.81
545.352	90.81
545.566	101.81
545.779	106.81
545.993	108.81
546.206	90.81
546.42	92.81
546.633	88.81
546.847	112.81
547.06	98.81
547.274	98.81
547.487	106.81
547.7	96.81
547.914	100.81
548.127	112.81
548.34	92.81
548.554	77.81
548.767	105.81
548.98	94.81
549.193	100.81
549.407	89.81
549.62	95.81
549.833	102.81
550.046	113.81
550.259	96.81
550.473	93.81
550.686	113.81
550.899	96.81
551.112	86.81
551.325	88.81
551.538	102.81
551.751	94.81
551.964	108.81
552.177	90.81
552.39	80.81
552.603	92.81
552.816	94.81
553.029	111.81
553.242	104.81
553.455	106.81
553.667	108.81
553.88	105.81
554.093	98.81
554.306	99.81
554.519	78.81
554.732	105.81
554.944	90.81
555.157	91.81
555.37	88.81
555.583	92.81
555.795	109.81
556.008	96.81
556.221	108.81
556.433	93.81
556.646	92.81
556.859	92.81
557.071	94.81
557.284	91.81
557.496	91.81
557.709	94.81
557.921	92.81
558.134	97.81
558.346	100.81
558.559	95.81
558.771	78.81
558.984	94.81
559.196	97.81
559.409	108.81
559.621	88.81
559.833	98.81
560.046	80.81
560.258	89.81
560.47	106.81
560.683	85.81
560.895	96.81
561.107	91.81
561.32	91.81
561.532	105.81
561.744	88.81
561.956	85.81
562.168	91.81
562.381	113.81
562.593	92.81
562.805	80.81
563.017	92.81
563.229	82.81
563.441	90.81
563.653	90.81
563.865	81.81
564.077	94.81
564.289	112.81
564.501	98.81
564.713	94.81
564.925	96.81
565.137	97.81
565.349	103.81
565.561	104.81
565.773	80.81
565.985	104.81
566.197	105.81
566.408	109.81
566.62	102.81
566.832	98.81
567.044	93.81
567.255	106.81
567.467	106.81
567.679	98.81
567.891	94.81
568.102	99.81
568.314	104.81
568.526	115.81
568.737	130.81
568.949	138.81
569.161	139.81
569.372	120.81
569.584	122.81
569.795	121.81
570.007	108.81
570.218	108.81
570.43	113.81
570.641	104.81
570.853	74.81
571.064	89.81
571.276	90.81
571.487	98.81
571.698	91.81
571.91	89.81
572.121	98.81
572.333	112.81
572.544	108.81
572.755	101.81
572.966	89.81
573.178	93.81
573.389	101.81
573.6	96.81
573.811	94.81
574.023	89.81
574.234	89.81
574.445	105.81
574.656	91.81
574.867	85.81
575.078	99.81
575.289	92.81
575.501	92.81
575.712	81.81
575.923	85.81
576.134	92.81
576.345	99.81
576.556	93.81
576.767	114.81
576.978	98.81
577.188	93.81
577.399	93.81
577.61	97.81
577.821	103.81
578.032	94.81
578.243	126.81
578.454	145.81
578.665	153.81
578.875	138.81
579.086	132.81
579.297	114.81
579.508	114.81
579.718	101.81
579.929	126.81
580.14	123.81
580.35	161.81
580.561	225.81
580.772	189.81
580.982	158.81
581.193	137.81
581.403	149.81
581.614	146.81
581.825	123.81
582.035	130.81
582.246	131.81
582.456	121.81
582.667	106.81
582.877	108.81
583.087	110.81
583.298	122.81
583.508	149.81
583.719	134.81
583.929	133.81
584.139	132.81
584.35	123.81
584.56	103.81
584.77	97.81
584.981	108.81
585.191	110.81
585.401	98.81
585.611	106.81
585.821	106.81
586.032	111.81
586.242	105.81
586.452	100.81
586.662	120.81
586.872	106.81
587.082	115.81
587.292	125.81
587.502	118.81
587.713	140.81
587.923	149.81
588.133	164.81
588.343	197.81
588.553	266.81
588.762	433.81
588.972	908.81
589.182	1706.81
589.392	1449.81
589.602	1054.81
589.812	1522.81
590.022	960.81
590.232	413.81
590.441	248.81
590.651	184.81
590.861	145.81
591.071	128.81
591.281	114.81
591.49	115.81
591.7	114.81
591.91	109.81
592.119	104.81
592.329	100.81
592.539	109.81
592.748	100.81
592.958	110.81
593.167	89.81
593.377	100.81
593.587	92.81
593.796	96.81
594.006	88.81
594.215	94.81
594.424	96.81
594.634	92.81
594.843	85.81
595.053	94.81
595.262	91.81
595.472	105.81
595.681	91.81
595.89	82.81
596.1	93.81
596.309	84.81
596.518	95.81
596.727	93.81
596.937	82.81
597.146	92.81
597.355	98.81
597.564	87.81
597.774	78.81
597.983	89.81
598.192	83.81
598.401	77.81
598.61	81.81
598.819	94.81
599.028	88.81
599.237	98.81
599.446	93.81
599.655	93.81
599.864	80.81
600.073	98.81
600.282	89.81
600.491	87.81
600.7	96.81
600.909	99.81
601.118	85.81
601.327	79.81
601.536	86.81
601.745	89.81
601.953	83.81
602.162	104.81
602.371	92.81
602.58	92.81
602.789	93.81
602.997	98.81
603.206	92.81
603.415	83.81
603.623	76.81
603.832	88.81
604.041	89.81
604.249	91.81
604.458	89.81
604.666	79.81
604.875	86.81
605.084	80.81
605.292	93.81
605.501	88.81
605.709	88.81
605.918	84.81
606.126	93.81
606.334	94.81
606.543	96.81
606.751	99.81
606.96	108.81
607.168	89.81
607.376	75.81
607.585	91.81
607.793	96.81
608.001	70.81
608.21	96.81
608.418	91.81
608.626	76.81
608.834	89.81
609.043	80.81
609.251	82.81
609.459	94.81
609.667	83.81
609.875	94.81
610.083	78.81
610.291	101.81
610.499	100.81
610.707	96.81
610.916	92.81
611.124	78.81
611.332	96.81
611.54	83.81
611.748	86.81
611.955	90.81
612.163	91.81
612.371	93.81
612.579	83.81
612.787	85.81
612.995	101.81
613.203	85.81
613.411	81.81
613.618	90.81
613.826	91.81
614.034	81.81
614.242	90.81
614.449	87.81
614.657	88.81
614.865	95.81
615.072	91.81
615.28	85.81
615.488	89.81
615.695	93.81
615.903	93.81
616.111	80.81
616.318	116.81
616.526	101.81
616.733	96.81
616.941	100.81
617.148	89.81
617.356	100.81
617.563	94.81
617.771	80.81
617.978	90.81
618.185	93.81
618.393	91.81
618.6	88.81
618.807	99.81
619.015	83.81
619.222	85.81
619.429	84.81
619.637	97.81
619.844	96.81
620.051	97.81
620.258	87.81
620.466	84.81
620.673	90.81
620.88	87.81
621.087	81.81
621.294	82.81
621.501	80.81
621.708	90.81
621.915	94.81
622.122	91.81
622.329	91.81
622.536	85.81
622.743	84.81
622.95	89.81
623.157	79.81
623.364	88.81
623.571	93.81
623.778	85.81
623.985	90.81
624.192	99.81
624.399	78.81
624.606	91.81
624.812	107.81
625.019	84.81
625.226	98.81
625.433	101.81
625.639	92.81
625.846	86.81
626.053	92.81
626.259	80.81
626.466	90.81
626.673	88.81
626.879	92.81
627.086	97.81
627.293	78.81
627.499	83.81
627.706	96.81
627.912	100.81
628.119	85.81
628.325	80.81
628.532	88.81
628.738	86.81
628.945	95.81
629.151	92.81
629.357	91.81
629.564	97.81
629.77	83.81
629.976	96.81
630.183	85.81
630.389	96.81
630.595	89.81
630.802	76.81
631.008	82.81
631.214	93.81
631.42	95.81
631.627	91.81
631.833	80.81
632.039	78.81
632.245	80.81
632.451	98.81
632.657	79.81
632.863	86.81
633.069	78.81
633.275	82.81
633.481	69.81
633.688	76.81
633.893	94.81
634.099	80.81
634.305	86.81
634.511	85.81
634.717	81.81
634.923	74.81
635.129	92.81
635.335	88.81
635.541	81.81
635.747	92.81
635.952	92.81
636.158	83.81
636.364	93.81
636.57	95.81
636.775	89.81
636.981	93.81
637.187	86.81
637.392	83.81
637.598	76.81
637.804	81.81
638.009	88.81
638.215	66.81
638.421	76.81
638.626	82.81
638.832	77.81
639.037	99.81
639.243	82.81
639.448	87.81
639.654	89.81
639.859	92.81
640.065	81.81
640.27	93.81
640.475	86.81
640.681	80.81
640.886	87.81
641.091	80.81
641.297	85.81
641.502	101.81
641.707	75.81
641.913	95.81
642.118	90.81
642.323	79.81
642.528	82.81
642.733	92.81
642.939	84.81
643.144	62.81
643.349	91.81
643.554	90.81
643.759	78.81
643.964	92.81
644.169	92.81
644.374	88.81
644.579	89.81
644.784	76.81
644.989	82.81
645.194	81.81
645.399	91.81
645.604	84.81
645.809	81.81
646.014	80.81
646.219	97.81
646.423	94.81
646.628	88.81
646.833	78.81
647.038	83.81
647.243	88.81
647.447	84.81
647.652	94.81
647.857	84.81
648.062	81.81
648.266	98.81
648.471	87.81
648.676	82.81
648.88	92.81
649.085	78.81
649.289	74.81
649.494	83.81
649.698	89.81
649.903	83.81
650.107	90.81
650.312	86.81
650.516	90.81
650.721	72.81
650.925	68.81
651.13	76.81
651.334	93.81
651.539	97.81
651.743	91.81
651.947	80.81
652.152	89.81
652.356	78.81
652.56	87.81
652.764	81.81
652.969	90.81
653.173	80.81
653.377	90.81
653.581	87.81
653.785	83.81
653.99	97.81
654.194	101.81
654.398	92.81
654.602	93.81
654.806	80.81
655.01	92.81
655.214	92.81
655.418	89.81
655.622	65.81
655.826	79.81
656.03	79.81
656.234	72.81
656.438	82.81
656.642	78.81
656.846	83.81
657.049	92.81
657.253	86.81
657.457	87.81
657.661	87.81
657.865	68.81
658.068	74.81
658.272	92.81
658.476	86.81
658.68	82.81
658.883	99.81
659.087	61.81
659.291	84.81
659.494	100.81
659.698	92.81
659.901	95.81
660.105	72.81
660.309	93.81
660.512	85.81
660.716	81.81
660.919	77.81
661.123	92.81
661.326	91.81
661.53	77.81
661.733	89.81
661.936	85.81
662.14	82.81
662.343	89.81
662.546	90.81
662.75	74.81
662.953	85.81
663.156	70.81
663.36	74.81
663.563	88.81
663.766	91.81
663.969	80.81
664.173	100.81
664.376	83.81
664.579	81.81
664.782	85.81
664.985	82.81
665.188	70.81
665.391	88.81
665.594	78.81
665.797	81.81
666	76.81
666.203	74.81
666.406	93.81
666.609	80.81
666.812	80.81
667.015	80.81
667.218	93.81
667.421	78.81
667.624	89.81
667.827	79.81
668.03	74.81
668.232	81.81
668.435	89.81
668.638	75.81
668.841	96.81
669.043	68.81
669.246	83.81
669.449	72.81
669.651	88.81
669.854	81.81
670.057	83.81
670.259	83.81
670.462	74.81
670.665	84.81
670.867	80.81
671.07	80.81
671.272	85.81
671.475	84.81
671.677	88.81
671.88	84.81
672.082	81.81
672.284	80.81
672.487	81.81
672.689	79.81
672.892	74.81
