Data from KBr_6_HRD10591_00012.txt Node
Date: Mon Jan 19 13:28:32 EST 2026
User: Yrep
Spectrometer: HR+D1059
Trigger mode: 1
Integration Time (sec): 1.000000E-1
Scans to average: 1
Electric dark correction enabled: true
Nonlinearity correction enabled: false
Boxcar width: 0
XAxis mode: Wavelengths
Number of Pixels in Spectrum: 2048
>>>>>Begin Spectral Data<<<<<
223.165	-24.94
223.4	-24.94
223.635	-24.94
223.869	-4.94
224.104	-8.94
224.338	-27.94
224.573	-19.94
224.808	-15.94
225.042	-4.94
225.277	-5.94
225.511	-1.94
225.746	-6.94
225.98	-1.94
226.215	5.06
226.449	22.06
226.683	25.06
226.918	42.06
227.152	30.06
227.387	46.06
227.621	39.06
227.856	53.06
228.09	48.06
228.324	60.06
228.559	62.06
228.793	58.06
229.027	64.06
229.262	58.06
229.496	74.06
229.73	70.06
229.964	60.06
230.199	80.06
230.433	55.06
230.667	72.06
230.901	78.06
231.136	81.06
231.37	93.06
231.604	80.06
231.838	70.06
232.072	70.06
232.306	89.06
232.541	90.06
232.775	90.06
233.009	83.06
233.243	92.06
233.477	71.06
233.711	79.06
233.945	85.06
234.179	82.06
234.413	89.06
234.647	70.06
234.881	87.06
235.115	73.06
235.349	84.06
235.583	81.06
235.817	74.06
236.051	78.06
236.285	91.06
236.519	89.06
236.753	75.06
236.987	76.06
237.221	81.06
237.455	83.06
237.689	85.06
237.922	76.06
238.156	75.06
238.39	90.06
238.624	67.06
238.858	66.06
239.091	73.06
239.325	74.06
239.559	69.06
239.793	82.06
240.027	90.06
240.26	61.06
240.494	84.06
240.728	80.06
240.961	79.06
241.195	79.06
241.429	79.06
241.662	85.06
241.896	69.06
242.13	64.06
242.363	60.06
242.597	68.06
242.83	75.06
243.064	95.06
243.298	79.06
243.531	68.06
243.765	80.06
243.998	74.06
244.232	73.06
244.465	63.06
244.699	76.06
244.932	87.06
245.166	77.06
245.399	84.06
245.633	76.06
245.866	79.06
246.099	78.06
246.333	87.06
246.566	79.06
246.8	86.06
247.033	71.06
247.266	83.06
247.5	77.06
247.733	84.06
247.966	70.06
248.2	87.06
248.433	76.06
248.666	78.06
248.899	74.06
249.133	83.06
249.366	88.06
249.599	76.06
249.832	69.06
250.066	76.06
250.299	89.06
250.532	76.06
250.765	77.06
250.998	90.06
251.231	66.06
251.465	74.06
251.698	85.06
251.931	92.06
252.164	81.06
252.397	79.06
252.63	92.06
252.863	69.06
253.096	91.06
253.329	83.06
253.562	62.06
253.795	79.06
254.028	83.06
254.261	69.06
254.494	82.06
254.727	78.06
254.96	81.06
255.193	80.06
255.426	89.06
255.659	81.06
255.892	80.06
256.124	94.06
256.357	87.06
256.59	84.06
256.823	82.06
257.056	88.06
257.289	81.06
257.521	92.06
257.754	90.06
257.987	87.06
258.22	82.06
258.452	79.06
258.685	69.06
258.918	80.06
259.151	74.06
259.383	78.06
259.616	87.06
259.849	78.06
260.081	84.06
260.314	85.06
260.547	90.06
260.779	85.06
261.012	87.06
261.244	92.06
261.477	81.06
261.71	74.06
261.942	96.06
262.175	78.06
262.407	88.06
262.64	75.06
262.872	76.06
263.105	69.06
263.337	84.06
263.57	90.06
263.802	89.06
264.035	84.06
264.267	72.06
264.499	88.06
264.732	96.06
264.964	95.06
265.197	86.06
265.429	86.06
265.661	88.06
265.894	73.06
266.126	88.06
266.358	83.06
266.591	83.06
266.823	79.06
267.055	78.06
267.287	81.06
267.52	85.06
267.752	86.06
267.984	69.06
268.216	71.06
268.448	83.06
268.681	89.06
268.913	80.06
269.145	88.06
269.377	90.06
269.609	86.06
269.841	83.06
270.073	84.06
270.306	86.06
270.538	94.06
270.77	84.06
271.002	73.06
271.234	73.06
271.466	80.06
271.698	75.06
271.93	83.06
272.162	83.06
272.394	97.06
272.626	78.06
272.858	94.06
273.09	95.06
273.322	76.06
273.553	78.06
273.785	94.06
274.017	81.06
274.249	90.06
274.481	80.06
274.713	87.06
274.945	83.06
275.176	74.06
275.408	85.06
275.64	83.06
275.872	85.06
276.104	100.06
276.335	87.06
276.567	94.06
276.799	71.06
277.031	81.06
277.262	88.06
277.494	88.06
277.726	77.06
277.957	72.06
278.189	72.06
278.421	81.06
278.652	88.06
278.884	78.06
279.115	99.06
279.347	77.06
279.579	106.06
279.81	79.06
280.042	90.06
280.273	92.06
280.505	88.06
280.736	87.06
280.968	87.06
281.199	72.06
281.431	95.06
281.662	91.06
281.894	94.06
282.125	91.06
282.356	80.06
282.588	73.06
282.819	88.06
283.051	94.06
283.282	89.06
283.513	77.06
283.745	80.06
283.976	86.06
284.207	100.06
284.439	94.06
284.67	99.06
284.901	80.06
285.132	70.06
285.364	88.06
285.595	82.06
285.826	102.06
286.057	83.06
286.288	94.06
286.52	95.06
286.751	70.06
286.982	80.06
287.213	95.06
287.444	77.06
287.675	96.06
287.906	90.06
288.138	95.06
288.369	90.06
288.6	78.06
288.831	103.06
289.062	86.06
289.293	82.06
289.524	92.06
289.755	95.06
289.986	86.06
290.217	85.06
290.448	84.06
290.679	85.06
290.91	94.06
291.141	88.06
291.371	85.06
291.602	84.06
291.833	88.06
292.064	82.06
292.295	86.06
292.526	85.06
292.757	70.06
292.987	91.06
293.218	82.06
293.449	95.06
293.68	89.06
293.91	72.06
294.141	88.06
294.372	94.06
294.603	80.06
294.833	86.06
295.064	83.06
295.295	84.06
295.525	89.06
295.756	95.06
295.987	102.06
296.217	92.06
296.448	77.06
296.679	90.06
296.909	85.06
297.14	83.06
297.37	80.06
297.601	88.06
297.831	83.06
298.062	85.06
298.292	94.06
298.523	88.06
298.753	75.06
298.984	97.06
299.214	86.06
299.445	90.06
299.675	74.06
299.905	77.06
300.136	102.06
300.366	90.06
300.597	74.06
300.827	110.06
301.057	101.06
301.288	84.06
301.518	72.06
301.748	80.06
301.979	108.06
302.209	79.06
302.439	100.06
302.669	89.06
302.9	84.06
303.13	74.06
303.36	86.06
303.59	92.06
303.82	90.06
304.051	68.06
304.281	85.06
304.511	86.06
304.741	87.06
304.971	79.06
305.201	90.06
305.431	68.06
305.661	71.06
305.891	90.06
306.121	82.06
306.352	94.06
306.582	88.06
306.812	90.06
307.042	73.06
307.272	94.06
307.502	76.06
307.731	84.06
307.961	106.06
308.191	92.06
308.421	64.06
308.651	82.06
308.881	97.06
309.111	85.06
309.341	94.06
309.571	83.06
309.8	102.06
310.03	87.06
310.26	73.06
310.49	86.06
310.72	109.06
310.949	85.06
311.179	84.06
311.409	86.06
311.639	88.06
311.868	91.06
312.098	82.06
312.328	94.06
312.557	88.06
312.787	98.06
313.017	96.06
313.246	91.06
313.476	93.06
313.706	87.06
313.935	98.06
314.165	97.06
314.394	88.06
314.624	96.06
314.853	83.06
315.083	82.06
315.312	90.06
315.542	90.06
315.771	79.06
316.001	84.06
316.23	103.06
316.46	96.06
316.689	94.06
316.919	101.06
317.148	85.06
317.377	78.06
317.607	93.06
317.836	68.06
318.065	91.06
318.295	93.06
318.524	85.06
318.753	99.06
318.983	97.06
319.212	91.06
319.441	86.06
319.67	88.06
319.9	88.06
320.129	94.06
320.358	98.06
320.587	86.06
320.816	83.06
321.046	87.06
321.275	94.06
321.504	87.06
321.733	87.06
321.962	82.06
322.191	92.06
322.42	96.06
322.649	98.06
322.878	94.06
323.108	94.06
323.337	82.06
323.566	93.06
323.795	82.06
324.024	96.06
324.253	97.06
324.482	96.06
324.71	93.06
324.939	84.06
325.168	80.06
325.397	106.06
325.626	87.06
325.855	90.06
326.084	94.06
326.313	99.06
326.542	78.06
326.77	86.06
326.999	95.06
327.228	108.06
327.457	88.06
327.686	90.06
327.914	84.06
328.143	77.06
328.372	82.06
328.6	95.06
328.829	87.06
329.058	92.06
329.287	88.06
329.515	115.06
329.744	102.06
329.972	94.06
330.201	98.06
330.43	119.06
330.658	108.06
330.887	76.06
331.115	98.06
331.344	81.06
331.572	86.06
331.801	93.06
332.03	94.06
332.258	103.06
332.486	81.06
332.715	95.06
332.943	83.06
333.172	94.06
333.4	94.06
333.629	86.06
333.857	91.06
334.085	88.06
334.314	88.06
334.542	87.06
334.771	107.06
334.999	90.06
335.227	115.06
335.455	98.06
335.684	97.06
335.912	103.06
336.14	94.06
336.369	84.06
336.597	90.06
336.825	88.06
337.053	90.06
337.281	103.06
337.51	115.06
337.738	98.06
337.966	102.06
338.194	90.06
338.422	82.06
338.65	90.06
338.878	86.06
339.106	84.06
339.334	94.06
339.562	88.06
339.79	99.06
340.018	80.06
340.246	106.06
340.474	107.06
340.702	96.06
340.93	87.06
341.158	93.06
341.386	90.06
341.614	86.06
341.842	103.06
342.07	90.06
342.298	79.06
342.526	72.06
342.754	93.06
342.981	98.06
343.209	88.06
343.437	105.06
343.665	94.06
343.893	89.06
344.12	85.06
344.348	112.06
344.576	110.06
344.804	131.06
345.031	116.06
345.259	103.06
345.487	94.06
345.714	95.06
345.942	86.06
346.17	92.06
346.397	89.06
346.625	93.06
346.853	90.06
347.08	81.06
347.308	90.06
347.535	71.06
347.763	86.06
347.99	82.06
348.218	93.06
348.445	83.06
348.673	88.06
348.9	83.06
349.128	73.06
349.355	101.06
349.583	103.06
349.81	90.06
350.037	100.06
350.265	86.06
350.492	78.06
350.72	92.06
350.947	91.06
351.174	86.06
351.402	91.06
351.629	86.06
351.856	89.06
352.083	95.06
352.311	96.06
352.538	95.06
352.765	98.06
352.992	97.06
353.22	86.06
353.447	98.06
353.674	89.06
353.901	88.06
354.128	84.06
354.355	91.06
354.583	93.06
354.81	85.06
355.037	93.06
355.264	85.06
355.491	76.06
355.718	94.06
355.945	89.06
356.172	103.06
356.399	94.06
356.626	98.06
356.853	97.06
357.08	88.06
357.307	82.06
357.534	83.06
357.761	95.06
357.988	92.06
358.215	99.06
358.441	99.06
358.668	93.06
358.895	101.06
359.122	94.06
359.349	88.06
359.576	88.06
359.802	93.06
360.029	85.06
360.256	97.06
360.483	84.06
360.709	88.06
360.936	90.06
361.163	80.06
361.39	93.06
361.616	102.06
361.843	107.06
362.07	91.06
362.296	98.06
362.523	94.06
362.749	93.06
362.976	92.06
363.203	100.06
363.429	89.06
363.656	79.06
363.882	74.06
364.109	89.06
364.335	93.06
364.562	106.06
364.788	86.06
365.015	91.06
365.241	89.06
365.468	97.06
365.694	86.06
365.92	90.06
366.147	84.06
366.373	90.06
366.599	79.06
366.826	84.06
367.052	81.06
367.278	93.06
367.505	89.06
367.731	95.06
367.957	85.06
368.184	80.06
368.41	84.06
368.636	80.06
368.862	97.06
369.089	95.06
369.315	93.06
369.541	94.06
369.767	87.06
369.993	94.06
370.219	99.06
370.445	93.06
370.672	94.06
370.898	95.06
371.124	98.06
371.35	83.06
371.576	90.06
371.802	93.06
372.028	97.06
372.254	93.06
372.48	77.06
372.706	100.06
372.932	87.06
373.158	79.06
373.384	84.06
373.61	89.06
373.835	96.06
374.061	77.06
374.287	98.06
374.513	92.06
374.739	91.06
374.965	90.06
375.191	85.06
375.416	92.06
375.642	86.06
375.868	100.06
376.094	101.06
376.319	102.06
376.545	87.06
376.771	92.06
376.997	94.06
377.222	98.06
377.448	88.06
377.674	66.06
377.899	79.06
378.125	84.06
378.35	96.06
378.576	107.06
378.802	62.06
379.027	83.06
379.253	92.06
379.478	95.06
379.704	98.06
379.929	89.06
380.155	90.06
380.38	87.06
380.606	82.06
380.831	97.06
381.057	116.06
381.282	108.06
381.507	87.06
381.733	98.06
381.958	82.06
382.184	87.06
382.409	96.06
382.634	89.06
382.86	91.06
383.085	96.06
383.31	88.06
383.535	86.06
383.761	86.06
383.986	92.06
384.211	99.06
384.436	69.06
384.662	95.06
384.887	99.06
385.112	85.06
385.337	98.06
385.562	97.06
385.787	83.06
386.013	86.06
386.238	93.06
386.463	98.06
386.688	97.06
386.913	94.06
387.138	91.06
387.363	87.06
387.588	84.06
387.813	90.06
388.038	91.06
388.263	86.06
388.488	83.06
388.713	92.06
388.938	97.06
389.163	85.06
389.387	75.06
389.612	80.06
389.837	76.06
390.062	88.06
390.287	97.06
390.512	90.06
390.736	84.06
390.961	101.06
391.186	81.06
391.411	80.06
391.636	84.06
391.86	98.06
392.085	83.06
392.31	92.06
392.534	98.06
392.759	78.06
392.984	90.06
393.208	90.06
393.433	93.06
393.658	80.06
393.882	76.06
394.107	93.06
394.331	81.06
394.556	91.06
394.78	83.06
395.005	91.06
395.229	91.06
395.454	90.06
395.678	91.06
395.903	86.06
396.127	87.06
396.352	112.06
396.576	95.06
396.801	90.06
397.025	85.06
397.249	93.06
397.474	96.06
397.698	94.06
397.922	79.06
398.147	96.06
398.371	101.06
398.595	93.06
398.82	102.06
399.044	84.06
399.268	86.06
399.492	97.06
399.717	77.06
399.941	82.06
400.165	79.06
400.389	90.06
400.613	96.06
400.837	91.06
401.062	91.06
401.286	83.06
401.51	101.06
401.734	76.06
401.958	91.06
402.182	92.06
402.406	92.06
402.63	83.06
402.854	101.06
403.078	104.06
403.302	102.06
403.526	91.06
403.75	122.06
403.974	144.06
404.198	215.06
404.422	371.06
404.645	451.06
404.869	377.06
405.093	242.06
405.317	147.06
405.541	107.06
405.765	88.06
405.988	88.06
406.212	92.06
406.436	93.06
406.66	80.06
406.883	92.06
407.107	94.06
407.331	84.06
407.555	96.06
407.778	93.06
408.002	83.06
408.226	86.06
408.449	90.06
408.673	97.06
408.896	101.06
409.12	100.06
409.344	89.06
409.567	79.06
409.791	94.06
410.014	102.06
410.238	92.06
410.461	94.06
410.685	102.06
410.908	88.06
411.132	77.06
411.355	90.06
411.578	90.06
411.802	94.06
412.025	103.06
412.249	75.06
412.472	91.06
412.695	91.06
412.919	73.06
413.142	94.06
413.365	100.06
413.589	102.06
413.812	91.06
414.035	96.06
414.258	88.06
414.482	97.06
414.705	78.06
414.928	107.06
415.151	88.06
415.374	95.06
415.597	90.06
415.821	97.06
416.044	82.06
416.267	94.06
416.49	87.06
416.713	87.06
416.936	103.06
417.159	72.06
417.382	85.06
417.605	95.06
417.828	86.06
418.051	102.06
418.274	104.06
418.497	86.06
418.72	92.06
418.943	112.06
419.166	99.06
419.389	90.06
419.611	93.06
419.834	91.06
420.057	96.06
420.28	97.06
420.503	93.06
420.726	77.06
420.948	82.06
421.171	88.06
421.394	91.06
421.617	93.06
421.839	100.06
422.062	99.06
422.285	92.06
422.507	97.06
422.73	106.06
422.953	119.06
423.175	88.06
423.398	88.06
423.621	105.06
423.843	91.06
424.066	84.06
424.288	87.06
424.511	86.06
424.733	102.06
424.956	95.06
425.178	99.06
425.401	87.06
425.623	95.06
425.846	115.06
426.068	82.06
426.291	85.06
426.513	91.06
426.735	78.06
426.958	93.06
427.18	97.06
427.402	98.06
427.625	88.06
427.847	98.06
428.069	92.06
428.292	109.06
428.514	105.06
428.736	76.06
428.958	82.06
429.181	97.06
429.403	100.06
429.625	91.06
429.847	86.06
430.069	84.06
430.292	78.06
430.514	97.06
430.736	98.06
430.958	112.06
431.18	87.06
431.402	84.06
431.624	90.06
431.846	78.06
432.068	90.06
432.29	94.06
432.512	98.06
432.734	93.06
432.956	80.06
433.178	83.06
433.4	90.06
433.622	96.06
433.844	95.06
434.066	85.06
434.287	79.06
434.509	87.06
434.731	104.06
434.953	88.06
435.175	66.06
435.397	83.06
435.618	86.06
435.84	98.06
436.062	96.06
436.284	86.06
436.505	83.06
436.727	103.06
436.949	90.06
437.17	92.06
437.392	97.06
437.614	93.06
437.835	94.06
438.057	86.06
438.278	100.06
438.5	99.06
438.721	80.06
438.943	97.06
439.165	95.06
439.386	100.06
439.608	99.06
439.829	91.06
440.05	102.06
440.272	83.06
440.493	83.06
440.715	90.06
440.936	97.06
441.158	118.06
441.379	101.06
441.6	104.06
441.822	99.06
442.043	88.06
442.264	107.06
442.486	100.06
442.707	87.06
442.928	85.06
443.149	89.06
443.371	85.06
443.592	85.06
443.813	93.06
444.034	88.06
444.255	92.06
444.476	95.06
444.698	95.06
444.919	80.06
445.14	172.06
445.361	136.06
445.582	103.06
445.803	94.06
446.024	94.06
446.245	95.06
446.466	89.06
446.687	91.06
446.908	91.06
447.129	88.06
447.35	96.06
447.571	98.06
447.792	111.06
448.013	90.06
448.234	86.06
448.455	77.06
448.675	105.06
448.896	86.06
449.117	87.06
449.338	88.06
449.559	97.06
449.779	103.06
450	110.06
450.221	91.06
450.442	100.06
450.662	78.06
450.883	96.06
451.104	88.06
451.324	113.06
451.545	100.06
451.766	93.06
451.986	87.06
452.207	92.06
452.428	87.06
452.648	82.06
452.869	102.06
453.089	92.06
453.31	91.06
453.53	91.06
453.751	98.06
453.971	102.06
454.192	85.06
454.412	80.06
454.633	94.06
454.853	102.06
455.073	95.06
455.294	92.06
455.514	110.06
455.734	94.06
455.955	104.06
456.175	75.06
456.395	87.06
456.616	97.06
456.836	106.06
457.056	96.06
457.276	85.06
457.497	91.06
457.717	99.06
457.937	82.06
458.157	90.06
458.377	84.06
458.598	93.06
458.818	82.06
459.038	89.06
459.258	97.06
459.478	94.06
459.698	98.06
459.918	78.06
460.138	92.06
460.358	87.06
460.578	84.06
460.798	96.06
461.018	93.06
461.238	96.06
461.458	99.06
461.678	92.06
461.898	84.06
462.118	103.06
462.338	106.06
462.558	98.06
462.777	100.06
462.997	113.06
463.217	106.06
463.437	95.06
463.657	84.06
463.876	80.06
464.096	91.06
464.316	88.06
464.536	97.06
464.755	100.06
464.975	93.06
465.195	80.06
465.414	84.06
465.634	77.06
465.854	95.06
466.073	99.06
466.293	106.06
466.512	93.06
466.732	101.06
466.951	78.06
467.171	98.06
467.391	101.06
467.61	99.06
467.829	107.06
468.049	103.06
468.268	103.06
468.488	93.06
468.707	87.06
468.927	90.06
469.146	95.06
469.365	95.06
469.585	99.06
469.804	96.06
470.023	102.06
470.243	91.06
470.462	83.06
470.681	99.06
470.901	84.06
471.12	94.06
471.339	90.06
471.558	102.06
471.777	103.06
471.997	101.06
472.216	86.06
472.435	86.06
472.654	85.06
472.873	107.06
473.092	90.06
473.311	80.06
473.53	91.06
473.749	108.06
473.968	92.06
474.187	88.06
474.406	104.06
474.625	114.06
474.844	102.06
475.063	90.06
475.282	95.06
475.501	103.06
475.72	98.06
475.939	94.06
476.158	79.06
476.377	98.06
476.596	101.06
476.814	114.06
477.033	90.06
477.252	99.06
477.471	103.06
477.69	102.06
477.908	106.06
478.127	107.06
478.346	100.06
478.564	90.06
478.783	103.06
479.002	86.06
479.22	98.06
479.439	94.06
479.658	107.06
479.876	110.06
480.095	110.06
480.313	91.06
480.532	110.06
480.751	110.06
480.969	95.06
481.188	109.06
481.406	97.06
481.624	108.06
481.843	95.06
482.061	99.06
482.28	101.06
482.498	81.06
482.717	95.06
482.935	98.06
483.153	90.06
483.372	96.06
483.59	100.06
483.808	93.06
484.027	92.06
484.245	92.06
484.463	101.06
484.681	98.06
484.9	89.06
485.118	90.06
485.336	87.06
485.554	94.06
485.772	103.06
485.99	100.06
486.209	100.06
486.427	83.06
486.645	92.06
486.863	97.06
487.081	106.06
487.299	111.06
487.517	93.06
487.735	98.06
487.953	103.06
488.171	104.06
488.389	102.06
488.607	99.06
488.825	102.06
489.043	99.06
489.261	103.06
489.479	116.06
489.696	105.06
489.914	94.06
490.132	114.06
490.35	104.06
490.568	103.06
490.786	100.06
491.003	112.06
491.221	102.06
491.439	106.06
491.657	106.06
491.874	105.06
492.092	103.06
492.31	95.06
492.527	104.06
492.745	110.06
492.963	103.06
493.18	107.06
493.398	118.06
493.615	116.06
493.833	103.06
494.05	107.06
494.268	109.06
494.485	106.06
494.703	104.06
494.92	104.06
495.138	102.06
495.355	107.06
495.573	99.06
495.79	107.06
496.008	110.06
496.225	108.06
496.442	104.06
496.66	108.06
496.877	121.06
497.094	102.06
497.312	103.06
497.529	98.06
497.746	102.06
497.963	103.06
498.181	108.06
498.398	106.06
498.615	106.06
498.832	122.06
499.049	98.06
499.267	94.06
499.484	98.06
499.701	95.06
499.918	96.06
500.135	112.06
500.352	91.06
500.569	91.06
500.786	100.06
501.003	82.06
501.22	104.06
501.437	107.06
501.654	102.06
501.871	96.06
502.088	94.06
502.305	107.06
502.522	112.06
502.739	100.06
502.956	74.06
503.172	109.06
503.389	97.06
503.606	78.06
503.823	102.06
504.04	95.06
504.256	100.06
504.473	112.06
504.69	96.06
504.907	95.06
505.123	100.06
505.34	99.06
505.557	100.06
505.773	97.06
505.99	87.06
506.207	92.06
506.423	102.06
506.64	101.06
506.856	111.06
507.073	109.06
507.289	93.06
507.506	111.06
507.722	103.06
507.939	115.06
508.155	102.06
508.372	102.06
508.588	96.06
508.805	86.06
509.021	97.06
509.238	114.06
509.454	116.06
509.67	100.06
509.887	96.06
510.103	110.06
510.319	111.06
510.536	98.06
510.752	94.06
510.968	99.06
511.184	102.06
511.401	92.06
511.617	123.06
511.833	107.06
512.049	108.06
512.265	99.06
512.481	106.06
512.698	99.06
512.914	109.06
513.13	102.06
513.346	96.06
513.562	90.06
513.778	90.06
513.994	106.06
514.21	93.06
514.426	82.06
514.642	86.06
514.858	104.06
515.074	98.06
515.29	91.06
515.506	102.06
515.721	89.06
515.937	100.06
516.153	81.06
516.369	95.06
516.585	102.06
516.801	92.06
517.016	94.06
517.232	88.06
517.448	88.06
517.664	89.06
517.879	99.06
518.095	73.06
518.311	103.06
518.527	98.06
518.742	90.06
518.958	77.06
519.173	101.06
519.389	107.06
519.605	102.06
519.82	89.06
520.036	92.06
520.251	95.06
520.467	115.06
520.682	93.06
520.898	95.06
521.113	87.06
521.329	99.06
521.544	78.06
521.76	88.06
521.975	96.06
522.19	91.06
522.406	93.06
522.621	116.06
522.836	101.06
523.052	96.06
523.267	111.06
523.482	97.06
523.698	98.06
523.913	103.06
524.128	95.06
524.343	101.06
524.559	99.06
524.774	90.06
524.989	96.06
525.204	83.06
525.419	90.06
525.634	86.06
525.849	102.06
526.064	91.06
526.28	94.06
526.495	96.06
526.71	91.06
526.925	97.06
527.14	96.06
527.355	98.06
527.57	100.06
527.785	96.06
527.999	99.06
528.214	106.06
528.429	111.06
528.644	101.06
528.859	90.06
529.074	107.06
529.289	102.06
529.503	97.06
529.718	95.06
529.933	101.06
530.148	77.06
530.363	110.06
530.577	82.06
530.792	97.06
531.007	100.06
531.221	84.06
531.436	100.06
531.651	110.06
531.865	110.06
532.08	99.06
532.295	118.06
532.509	103.06
532.724	103.06
532.938	116.06
533.153	109.06
533.367	118.06
533.582	129.06
533.796	122.06
534.011	124.06
534.225	130.06
534.44	135.06
534.654	147.06
534.868	130.06
535.083	127.06
535.297	116.06
535.511	121.06
535.726	112.06
535.94	129.06
536.154	135.06
536.369	133.06
536.583	129.06
536.797	127.06
537.011	117.06
537.225	133.06
537.44	102.06
537.654	119.06
537.868	99.06
538.082	110.06
538.296	92.06
538.51	113.06
538.724	100.06
538.938	94.06
539.153	95.06
539.367	99.06
539.581	94.06
539.795	100.06
540.009	102.06
540.222	83.06
540.436	88.06
540.65	89.06
540.864	89.06
541.078	96.06
541.292	85.06
541.506	102.06
541.72	97.06
541.934	104.06
542.147	99.06
542.361	98.06
542.575	93.06
542.789	81.06
543.002	93.06
543.216	89.06
543.43	85.06
543.644	93.06
543.857	95.06
544.071	89.06
544.285	104.06
544.498	95.06
544.712	98.06
544.925	104.06
545.139	108.06
545.352	100.06
545.566	112.06
545.779	92.06
545.993	80.06
546.206	89.06
546.42	98.06
546.633	82.06
546.847	103.06
547.06	99.06
547.274	108.06
547.487	106.06
547.7	104.06
547.914	88.06
548.127	113.06
548.34	96.06
548.554	74.06
548.767	106.06
548.98	88.06
549.193	92.06
549.407	99.06
549.62	98.06
549.833	98.06
550.046	97.06
550.259	94.06
550.473	94.06
550.686	108.06
550.899	93.06
551.112	103.06
551.325	95.06
551.538	84.06
551.751	87.06
551.964	94.06
552.177	108.06
552.39	94.06
552.603	86.06
552.816	91.06
553.029	102.06
553.242	109.06
553.455	90.06
553.667	98.06
553.88	91.06
554.093	103.06
554.306	91.06
554.519	94.06
554.732	111.06
554.944	94.06
555.157	108.06
555.37	109.06
555.583	114.06
555.795	103.06
556.008	121.06
556.221	106.06
556.433	99.06
556.646	106.06
556.859	98.06
557.071	80.06
557.284	106.06
557.496	99.06
557.709	106.06
557.921	96.06
558.134	92.06
558.346	96.06
558.559	108.06
558.771	104.06
558.984	110.06
559.196	100.06
559.409	100.06
559.621	106.06
559.833	91.06
560.046	88.06
560.258	100.06
560.47	87.06
560.683	95.06
560.895	106.06
561.107	96.06
561.32	96.06
561.532	96.06
561.744	90.06
561.956	101.06
562.168	116.06
562.381	97.06
562.593	103.06
562.805	110.06
563.017	99.06
563.229	95.06
563.441	110.06
563.653	87.06
563.865	99.06
564.077	80.06
564.289	90.06
564.501	94.06
564.713	92.06
564.925	100.06
565.137	99.06
565.349	104.06
565.561	95.06
565.773	99.06
565.985	101.06
566.197	66.06
566.408	89.06
566.62	104.06
566.832	107.06
567.044	98.06
567.255	108.06
567.467	102.06
567.679	108.06
567.891	97.06
568.102	90.06
568.314	91.06
568.526	108.06
568.737	116.06
568.949	134.06
569.161	126.06
569.372	124.06
569.584	117.06
569.795	112.06
570.007	97.06
570.218	110.06
570.43	118.06
570.641	100.06
570.853	99.06
571.064	106.06
571.276	103.06
571.487	100.06
571.698	98.06
571.91	95.06
572.121	110.06
572.333	106.06
572.544	102.06
572.755	99.06
572.966	98.06
573.178	94.06
573.389	106.06
573.6	92.06
573.811	98.06
574.023	70.06
574.234	79.06
574.445	97.06
574.656	90.06
574.867	95.06
575.078	100.06
575.289	98.06
575.501	107.06
575.712	98.06
575.923	98.06
576.134	99.06
576.345	87.06
576.556	102.06
576.767	119.06
576.978	94.06
577.188	94.06
577.399	101.06
577.61	92.06
577.821	106.06
578.032	111.06
578.243	103.06
578.454	139.06
578.665	146.06
578.875	132.06
579.086	122.06
579.297	106.06
579.508	103.06
579.718	115.06
579.929	112.06
580.14	138.06
580.35	166.06
580.561	183.06
580.772	184.06
580.982	147.06
581.193	141.06
581.403	121.06
581.614	127.06
581.825	121.06
582.035	114.06
582.246	110.06
582.456	114.06
582.667	120.06
582.877	113.06
583.087	111.06
583.298	122.06
583.508	134.06
583.719	119.06
583.929	127.06
584.139	125.06
584.35	117.06
584.56	118.06
584.77	116.06
584.981	107.06
585.191	104.06
585.401	108.06
585.611	97.06
585.821	110.06
586.032	106.06
586.242	104.06
586.452	92.06
586.662	100.06
586.872	98.06
587.082	113.06
587.292	138.06
587.502	138.06
587.713	126.06
587.923	145.06
588.133	164.06
588.343	181.06
588.553	244.06
588.762	395.06
588.972	763.06
589.182	1236.06
589.392	1108.06
589.602	867.06
589.812	1158.06
590.022	779.06
590.232	355.06
590.441	221.06
590.651	178.06
590.861	155.06
591.071	134.06
591.281	126.06
591.49	107.06
591.7	113.06
591.91	114.06
592.119	116.06
592.329	104.06
592.539	97.06
592.748	98.06
592.958	112.06
593.167	94.06
593.377	93.06
593.587	105.06
593.796	100.06
594.006	82.06
594.215	93.06
594.424	99.06
594.634	84.06
594.843	101.06
595.053	93.06
595.262	72.06
595.472	100.06
595.681	87.06
595.89	108.06
596.1	95.06
596.309	99.06
596.518	87.06
596.727	95.06
596.937	93.06
597.146	97.06
597.355	95.06
597.564	89.06
597.774	90.06
597.983	84.06
598.192	88.06
598.401	91.06
598.61	87.06
598.819	85.06
599.028	96.06
599.237	91.06
599.446	92.06
599.655	94.06
599.864	101.06
600.073	86.06
600.282	74.06
600.491	94.06
600.7	86.06
600.909	78.06
601.118	92.06
601.327	94.06
601.536	92.06
601.745	98.06
601.953	104.06
602.162	90.06
602.371	95.06
602.58	94.06
602.789	80.06
602.997	86.06
603.206	86.06
603.415	95.06
603.623	84.06
603.832	85.06
604.041	99.06
604.249	92.06
604.458	99.06
604.666	92.06
604.875	82.06
605.084	81.06
605.292	79.06
605.501	82.06
605.709	85.06
605.918	79.06
606.126	90.06
606.334	92.06
606.543	99.06
606.751	102.06
606.96	91.06
607.168	106.06
607.376	116.06
607.585	85.06
607.793	88.06
608.001	82.06
608.21	94.06
608.418	99.06
608.626	100.06
608.834	92.06
609.043	79.06
609.251	91.06
609.459	85.06
609.667	93.06
609.875	98.06
610.083	94.06
610.291	82.06
610.499	96.06
610.707	98.06
610.916	96.06
611.124	91.06
611.332	70.06
611.54	71.06
611.748	85.06
611.955	84.06
612.163	95.06
612.371	81.06
612.579	100.06
612.787	88.06
612.995	88.06
613.203	99.06
613.411	91.06
613.618	85.06
613.826	91.06
614.034	88.06
614.242	101.06
614.449	94.06
614.657	100.06
614.865	88.06
615.072	83.06
615.28	98.06
615.488	96.06
615.695	96.06
615.903	97.06
616.111	88.06
616.318	101.06
616.526	103.06
616.733	103.06
616.941	88.06
617.148	92.06
617.356	85.06
617.563	81.06
617.771	85.06
617.978	80.06
618.185	91.06
618.393	98.06
618.6	103.06
618.807	106.06
619.015	81.06
619.222	102.06
619.429	102.06
619.637	96.06
619.844	96.06
620.051	84.06
620.258	82.06
620.466	106.06
620.673	93.06
620.88	94.06
621.087	97.06
621.294	84.06
621.501	81.06
621.708	84.06
621.915	84.06
622.122	83.06
622.329	100.06
622.536	86.06
622.743	85.06
622.95	83.06
623.157	100.06
623.364	88.06
623.571	87.06
623.778	101.06
623.985	91.06
624.192	96.06
624.399	98.06
624.606	84.06
624.812	100.06
625.019	85.06
625.226	99.06
625.433	102.06
625.639	88.06
625.846	79.06
626.053	94.06
626.259	85.06
626.466	99.06
626.673	89.06
626.879	87.06
627.086	91.06
627.293	88.06
627.499	100.06
627.706	80.06
627.912	106.06
628.119	104.06
628.325	97.06
628.532	86.06
628.738	92.06
628.945	82.06
629.151	92.06
629.357	102.06
629.564	71.06
629.77	88.06
629.976	78.06
630.183	79.06
630.389	90.06
630.595	82.06
630.802	70.06
631.008	78.06
631.214	63.06
631.42	89.06
631.627	96.06
631.833	90.06
632.039	102.06
632.245	88.06
632.451	90.06
632.657	100.06
632.863	99.06
633.069	85.06
633.275	83.06
633.481	96.06
633.688	94.06
633.893	89.06
634.099	100.06
634.305	80.06
634.511	90.06
634.717	80.06
634.923	77.06
635.129	90.06
635.335	98.06
635.541	100.06
635.747	87.06
635.952	78.06
636.158	84.06
636.364	91.06
636.57	79.06
636.775	93.06
636.981	90.06
637.187	78.06
637.392	85.06
637.598	87.06
637.804	82.06
638.009	73.06
638.215	81.06
638.421	91.06
638.626	87.06
638.832	86.06
639.037	88.06
639.243	96.06
639.448	94.06
639.654	106.06
639.859	69.06
640.065	94.06
640.27	81.06
640.475	88.06
640.681	90.06
640.886	87.06
641.091	80.06
641.297	98.06
641.502	90.06
641.707	81.06
641.913	88.06
642.118	95.06
642.323	99.06
642.528	78.06
642.733	100.06
642.939	92.06
643.144	80.06
643.349	84.06
643.554	76.06
643.759	89.06
643.964	88.06
644.169	82.06
644.374	106.06
644.579	97.06
644.784	92.06
644.989	79.06
645.194	92.06
645.399	85.06
645.604	90.06
645.809	87.06
646.014	93.06
646.219	90.06
646.423	106.06
646.628	79.06
646.833	82.06
647.038	81.06
647.243	69.06
647.447	103.06
647.652	80.06
647.857	95.06
648.062	96.06
648.266	78.06
648.471	83.06
648.676	88.06
648.88	110.06
649.085	70.06
649.289	107.06
649.494	93.06
649.698	83.06
649.903	96.06
650.107	70.06
650.312	94.06
650.516	95.06
650.721	76.06
650.925	70.06
651.13	78.06
651.334	86.06
651.539	70.06
651.743	93.06
651.947	92.06
652.152	92.06
652.356	87.06
652.56	88.06
652.764	73.06
652.969	90.06
653.173	80.06
653.377	82.06
653.581	99.06
653.785	80.06
653.99	91.06
654.194	79.06
654.398	92.06
654.602	78.06
654.806	93.06
655.01	84.06
655.214	86.06
655.418	81.06
655.622	88.06
655.826	75.06
656.03	71.06
656.234	94.06
656.438	92.06
656.642	90.06
656.846	94.06
657.049	75.06
657.253	94.06
657.457	90.06
657.661	74.06
657.865	82.06
658.068	80.06
658.272	86.06
658.476	89.06
658.68	109.06
658.883	83.06
659.087	88.06
659.291	95.06
659.494	82.06
659.698	81.06
659.901	98.06
660.105	76.06
660.309	74.06
660.512	76.06
660.716	90.06
660.919	79.06
661.123	74.06
661.326	86.06
661.53	78.06
661.733	91.06
661.936	90.06
662.14	74.06
662.343	89.06
662.546	80.06
662.75	82.06
662.953	87.06
663.156	104.06
663.36	82.06
663.563	88.06
663.766	81.06
663.969	87.06
664.173	87.06
664.376	92.06
664.579	80.06
664.782	69.06
664.985	91.06
665.188	79.06
665.391	80.06
665.594	80.06
665.797	72.06
666	87.06
666.203	84.06
666.406	88.06
666.609	76.06
666.812	79.06
667.015	79.06
667.218	77.06
667.421	79.06
667.624	79.06
667.827	81.06
668.03	90.06
668.232	84.06
668.435	95.06
668.638	87.06
668.841	82.06
669.043	80.06
669.246	78.06
669.449	78.06
669.651	85.06
669.854	89.06
670.057	81.06
670.259	102.06
670.462	77.06
670.665	81.06
670.867	95.06
671.07	87.06
671.272	86.06
671.475	82.06
671.677	80.06
671.88	83.06
672.082	84.06
672.284	76.06
672.487	80.06
672.689	76.06
672.892	95.06
