Data from 1600_4_HRD10591_00041.txt Node
Date: Mon Jan 19 13:56:31 EST 2026
User: Yrep
Spectrometer: HR+D1059
Trigger mode: 1
Integration Time (sec): 1.000000E-1
Scans to average: 1
Electric dark correction enabled: true
Nonlinearity correction enabled: false
Boxcar width: 0
XAxis mode: Wavelengths
Number of Pixels in Spectrum: 2048
>>>>>Begin Spectral Data<<<<<
223.165	-8.56
223.4	-8.56
223.635	-8.56
223.869	-19.56
224.104	-39.56
224.338	-18.56
224.573	-6.56
224.808	-14.56
225.042	-9.56
225.277	-21.56
225.511	0.44
225.746	11.44
225.98	9.44
226.215	9.44
226.449	18.44
226.683	23.44
226.918	34.44
227.152	31.44
227.387	38.44
227.621	36.44
227.856	42.44
228.09	47.44
228.324	50.44
228.559	59.44
228.793	70.44
229.027	64.44
229.262	59.44
229.496	54.44
229.73	63.44
229.964	70.44
230.199	81.44
230.433	81.44
230.667	80.44
230.901	76.44
231.136	72.44
231.37	82.44
231.604	90.44
231.838	76.44
232.072	70.44
232.306	79.44
232.541	85.44
232.775	81.44
233.009	95.44
233.243	65.44
233.477	94.44
233.711	67.44
233.945	78.44
234.179	79.44
234.413	84.44
234.647	78.44
234.881	90.44
235.115	75.44
235.349	73.44
235.583	71.44
235.817	73.44
236.051	78.44
236.285	69.44
236.519	79.44
236.753	76.44
236.987	82.44
237.221	74.44
237.455	84.44
237.689	88.44
237.922	86.44
238.156	81.44
238.39	74.44
238.624	63.44
238.858	85.44
239.091	89.44
239.325	81.44
239.559	78.44
239.793	65.44
240.027	76.44
240.26	82.44
240.494	68.44
240.728	77.44
240.961	98.44
241.195	77.44
241.429	84.44
241.662	78.44
241.896	76.44
242.13	68.44
242.363	71.44
242.597	65.44
242.83	66.44
243.064	68.44
243.298	89.44
243.531	75.44
243.765	90.44
243.998	63.44
244.232	70.44
244.465	69.44
244.699	72.44
244.932	79.44
245.166	83.44
245.399	89.44
245.633	78.44
245.866	85.44
246.099	81.44
246.333	76.44
246.566	72.44
246.8	68.44
247.033	87.44
247.266	81.44
247.5	81.44
247.733	84.44
247.966	83.44
248.2	73.44
248.433	94.44
248.666	80.44
248.899	78.44
249.133	95.44
249.366	85.44
249.599	74.44
249.832	79.44
250.066	78.44
250.299	89.44
250.532	91.44
250.765	80.44
250.998	71.44
251.231	78.44
251.465	82.44
251.698	79.44
251.931	86.44
252.164	72.44
252.397	91.44
252.63	76.44
252.863	78.44
253.096	77.44
253.329	72.44
253.562	83.44
253.795	82.44
254.028	79.44
254.261	87.44
254.494	80.44
254.727	77.44
254.96	83.44
255.193	74.44
255.426	86.44
255.659	63.44
255.892	82.44
256.124	88.44
256.357	77.44
256.59	86.44
256.823	76.44
257.056	65.44
257.289	83.44
257.521	81.44
257.754	91.44
257.987	69.44
258.22	75.44
258.452	78.44
258.685	93.44
258.918	91.44
259.151	76.44
259.383	89.44
259.616	66.44
259.849	85.44
260.081	67.44
260.314	86.44
260.547	85.44
260.779	87.44
261.012	75.44
261.244	78.44
261.477	75.44
261.71	78.44
261.942	80.44
262.175	73.44
262.407	83.44
262.64	79.44
262.872	89.44
263.105	88.44
263.337	87.44
263.57	76.44
263.802	79.44
264.035	74.44
264.267	96.44
264.499	70.44
264.732	84.44
264.964	86.44
265.197	74.44
265.429	75.44
265.661	70.44
265.894	76.44
266.126	75.44
266.358	75.44
266.591	92.44
266.823	85.44
267.055	71.44
267.287	76.44
267.52	90.44
267.752	84.44
267.984	82.44
268.216	80.44
268.448	78.44
268.681	80.44
268.913	86.44
269.145	90.44
269.377	74.44
269.609	71.44
269.841	81.44
270.073	84.44
270.306	77.44
270.538	93.44
270.77	89.44
271.002	90.44
271.234	78.44
271.466	83.44
271.698	81.44
271.93	80.44
272.162	78.44
272.394	82.44
272.626	84.44
272.858	80.44
273.09	89.44
273.322	89.44
273.553	81.44
273.785	85.44
274.017	78.44
274.249	88.44
274.481	88.44
274.713	82.44
274.945	74.44
275.176	82.44
275.408	82.44
275.64	89.44
275.872	79.44
276.104	89.44
276.335	82.44
276.567	75.44
276.799	83.44
277.031	80.44
277.262	90.44
277.494	75.44
277.726	77.44
277.957	87.44
278.189	75.44
278.421	87.44
278.652	85.44
278.884	81.44
279.115	96.44
279.347	77.44
279.579	88.44
279.81	71.44
280.042	89.44
280.273	83.44
280.505	90.44
280.736	81.44
280.968	69.44
281.199	74.44
281.431	108.44
281.662	81.44
281.894	85.44
282.125	97.44
282.356	82.44
282.588	74.44
282.819	85.44
283.051	66.44
283.282	102.44
283.513	102.44
283.745	68.44
283.976	87.44
284.207	88.44
284.439	83.44
284.67	74.44
284.901	102.44
285.132	79.44
285.364	79.44
285.595	88.44
285.826	71.44
286.057	86.44
286.288	85.44
286.52	88.44
286.751	73.44
286.982	90.44
287.213	89.44
287.444	87.44
287.675	89.44
287.906	79.44
288.138	94.44
288.369	87.44
288.6	84.44
288.831	81.44
289.062	87.44
289.293	72.44
289.524	85.44
289.755	75.44
289.986	78.44
290.217	79.44
290.448	73.44
290.679	80.44
290.91	91.44
291.141	93.44
291.371	84.44
291.602	80.44
291.833	74.44
292.064	83.44
292.295	89.44
292.526	79.44
292.757	75.44
292.987	82.44
293.218	69.44
293.449	89.44
293.68	87.44
293.91	95.44
294.141	80.44
294.372	70.44
294.603	87.44
294.833	86.44
295.064	84.44
295.295	99.44
295.525	78.44
295.756	89.44
295.987	83.44
296.217	73.44
296.448	87.44
296.679	88.44
296.909	83.44
297.14	100.44
297.37	89.44
297.601	78.44
297.831	86.44
298.062	84.44
298.292	82.44
298.523	101.44
298.753	74.44
298.984	81.44
299.214	73.44
299.445	75.44
299.675	74.44
299.905	73.44
300.136	90.44
300.366	89.44
300.597	96.44
300.827	89.44
301.057	81.44
301.288	78.44
301.518	78.44
301.748	89.44
301.979	95.44
302.209	92.44
302.439	83.44
302.669	95.44
302.9	79.44
303.13	77.44
303.36	75.44
303.59	73.44
303.82	81.44
304.051	73.44
304.281	89.44
304.511	89.44
304.741	76.44
304.971	82.44
305.201	85.44
305.431	74.44
305.661	87.44
305.891	77.44
306.121	86.44
306.352	80.44
306.582	89.44
306.812	72.44
307.042	77.44
307.272	94.44
307.502	81.44
307.731	82.44
307.961	78.44
308.191	80.44
308.421	88.44
308.651	69.44
308.881	83.44
309.111	71.44
309.341	74.44
309.571	84.44
309.8	76.44
310.03	82.44
310.26	89.44
310.49	93.44
310.72	87.44
310.949	91.44
311.179	82.44
311.409	80.44
311.639	89.44
311.868	82.44
312.098	64.44
312.328	93.44
312.557	68.44
312.787	69.44
313.017	85.44
313.246	88.44
313.476	83.44
313.706	82.44
313.935	101.44
314.165	90.44
314.394	85.44
314.624	81.44
314.853	83.44
315.083	66.44
315.312	91.44
315.542	79.44
315.771	82.44
316.001	69.44
316.23	74.44
316.46	88.44
316.689	82.44
316.919	93.44
317.148	93.44
317.377	90.44
317.607	81.44
317.836	93.44
318.065	73.44
318.295	75.44
318.524	100.44
318.753	79.44
318.983	79.44
319.212	93.44
319.441	84.44
319.67	93.44
319.9	96.44
320.129	91.44
320.358	84.44
320.587	94.44
320.816	99.44
321.046	96.44
321.275	87.44
321.504	76.44
321.733	77.44
321.962	101.44
322.191	83.44
322.42	81.44
322.649	81.44
322.878	91.44
323.108	90.44
323.337	95.44
323.566	87.44
323.795	77.44
324.024	90.44
324.253	87.44
324.482	81.44
324.71	83.44
324.939	88.44
325.168	85.44
325.397	87.44
325.626	66.44
325.855	65.44
326.084	84.44
326.313	74.44
326.542	85.44
326.77	95.44
326.999	89.44
327.228	72.44
327.457	95.44
327.686	85.44
327.914	89.44
328.143	90.44
328.372	86.44
328.6	87.44
328.829	89.44
329.058	71.44
329.287	85.44
329.515	76.44
329.744	83.44
329.972	89.44
330.201	95.44
330.43	95.44
330.658	96.44
330.887	87.44
331.115	89.44
331.344	86.44
331.572	99.44
331.801	98.44
332.03	86.44
332.258	91.44
332.486	73.44
332.715	79.44
332.943	103.44
333.172	73.44
333.4	71.44
333.629	91.44
333.857	81.44
334.085	73.44
334.314	87.44
334.542	80.44
334.771	107.44
334.999	74.44
335.227	80.44
335.455	81.44
335.684	91.44
335.912	90.44
336.14	86.44
336.369	83.44
336.597	101.44
336.825	101.44
337.053	109.44
337.281	95.44
337.51	81.44
337.738	84.44
337.966	97.44
338.194	83.44
338.422	101.44
338.65	83.44
338.878	87.44
339.106	70.44
339.334	80.44
339.562	84.44
339.79	96.44
340.018	91.44
340.246	83.44
340.474	93.44
340.702	91.44
340.93	73.44
341.158	79.44
341.386	75.44
341.614	94.44
341.842	96.44
342.07	86.44
342.298	88.44
342.526	79.44
342.754	93.44
342.981	92.44
343.209	84.44
343.437	82.44
343.665	77.44
343.893	87.44
344.12	86.44
344.348	80.44
344.576	64.44
344.804	90.44
345.031	73.44
345.259	69.44
345.487	72.44
345.714	82.44
345.942	84.44
346.17	93.44
346.397	90.44
346.625	85.44
346.853	83.44
347.08	86.44
347.308	109.44
347.535	75.44
347.763	82.44
347.99	80.44
348.218	79.44
348.445	76.44
348.673	93.44
348.9	85.44
349.128	91.44
349.355	89.44
349.583	86.44
349.81	86.44
350.037	88.44
350.265	95.44
350.492	75.44
350.72	70.44
350.947	97.44
351.174	87.44
351.402	80.44
351.629	93.44
351.856	91.44
352.083	83.44
352.311	90.44
352.538	91.44
352.765	72.44
352.992	83.44
353.22	94.44
353.447	71.44
353.674	83.44
353.901	91.44
354.128	90.44
354.355	84.44
354.583	94.44
354.81	79.44
355.037	87.44
355.264	89.44
355.491	72.44
355.718	81.44
355.945	83.44
356.172	62.44
356.399	91.44
356.626	83.44
356.853	81.44
357.08	94.44
357.307	85.44
357.534	74.44
357.761	88.44
357.988	77.44
358.215	80.44
358.441	93.44
358.668	83.44
358.895	71.44
359.122	84.44
359.349	80.44
359.576	83.44
359.802	79.44
360.029	83.44
360.256	83.44
360.483	88.44
360.709	76.44
360.936	90.44
361.163	81.44
361.39	78.44
361.616	89.44
361.843	83.44
362.07	89.44
362.296	82.44
362.523	80.44
362.749	79.44
362.976	88.44
363.203	86.44
363.429	91.44
363.656	98.44
363.882	100.44
364.109	101.44
364.335	73.44
364.562	95.44
364.788	82.44
365.015	96.44
365.241	94.44
365.468	93.44
365.694	71.44
365.92	85.44
366.147	91.44
366.373	88.44
366.599	81.44
366.826	84.44
367.052	77.44
367.278	97.44
367.505	75.44
367.731	86.44
367.957	81.44
368.184	85.44
368.41	82.44
368.636	90.44
368.862	82.44
369.089	83.44
369.315	84.44
369.541	67.44
369.767	79.44
369.993	82.44
370.219	86.44
370.445	81.44
370.672	83.44
370.898	83.44
371.124	89.44
371.35	79.44
371.576	89.44
371.802	85.44
372.028	79.44
372.254	98.44
372.48	87.44
372.706	61.44
372.932	84.44
373.158	81.44
373.384	75.44
373.61	89.44
373.835	86.44
374.061	84.44
374.287	85.44
374.513	94.44
374.739	75.44
374.965	89.44
375.191	97.44
375.416	81.44
375.642	78.44
375.868	100.44
376.094	90.44
376.319	85.44
376.545	93.44
376.771	87.44
376.997	84.44
377.222	83.44
377.448	93.44
377.674	91.44
377.899	88.44
378.125	96.44
378.35	84.44
378.576	78.44
378.802	77.44
379.027	76.44
379.253	80.44
379.478	97.44
379.704	88.44
379.929	91.44
380.155	104.44
380.38	74.44
380.606	75.44
380.831	70.44
381.057	102.44
381.282	97.44
381.507	92.44
381.733	81.44
381.958	91.44
382.184	91.44
382.409	98.44
382.634	83.44
382.86	88.44
383.085	84.44
383.31	76.44
383.535	82.44
383.761	85.44
383.986	91.44
384.211	75.44
384.436	68.44
384.662	93.44
384.887	87.44
385.112	80.44
385.337	81.44
385.562	80.44
385.787	82.44
386.013	78.44
386.238	84.44
386.463	75.44
386.688	90.44
386.913	72.44
387.138	84.44
387.363	73.44
387.588	81.44
387.813	95.44
388.038	76.44
388.263	76.44
388.488	83.44
388.713	76.44
388.938	78.44
389.163	74.44
389.387	83.44
389.612	100.44
389.837	92.44
390.062	87.44
390.287	83.44
390.512	76.44
390.736	82.44
390.961	78.44
391.186	73.44
391.411	80.44
391.636	69.44
391.86	90.44
392.085	71.44
392.31	93.44
392.534	99.44
392.759	85.44
392.984	95.44
393.208	111.44
393.433	144.44
393.658	138.44
393.882	79.44
394.107	83.44
394.331	71.44
394.556	88.44
394.78	87.44
395.005	90.44
395.229	80.44
395.454	90.44
395.678	83.44
395.903	95.44
396.127	77.44
396.352	103.44
396.576	96.44
396.801	97.44
397.025	124.44
397.249	96.44
397.474	98.44
397.698	81.44
397.922	85.44
398.147	89.44
398.371	76.44
398.595	64.44
398.82	71.44
399.044	82.44
399.268	76.44
399.492	75.44
399.717	69.44
399.941	82.44
400.165	74.44
400.389	94.44
400.613	79.44
400.837	78.44
401.062	73.44
401.286	87.44
401.51	85.44
401.734	90.44
401.958	82.44
402.182	81.44
402.406	70.44
402.63	81.44
402.854	89.44
403.078	84.44
403.302	86.44
403.526	88.44
403.75	86.44
403.974	85.44
404.198	90.44
404.422	77.44
404.645	90.44
404.869	80.44
405.093	84.44
405.317	76.44
405.541	86.44
405.765	78.44
405.988	83.44
406.212	91.44
406.436	76.44
406.66	94.44
406.883	74.44
407.107	84.44
407.331	73.44
407.555	95.44
407.778	85.44
408.002	88.44
408.226	82.44
408.449	88.44
408.673	81.44
408.896	79.44
409.12	74.44
409.344	78.44
409.567	80.44
409.791	78.44
410.014	74.44
410.238	89.44
410.461	93.44
410.685	77.44
410.908	80.44
411.132	83.44
411.355	75.44
411.578	80.44
411.802	76.44
412.025	72.44
412.249	78.44
412.472	84.44
412.695	96.44
412.919	79.44
413.142	87.44
413.365	80.44
413.589	75.44
413.812	75.44
414.035	84.44
414.258	93.44
414.482	66.44
414.705	91.44
414.928	89.44
415.151	70.44
415.374	87.44
415.597	87.44
415.821	86.44
416.044	94.44
416.267	82.44
416.49	80.44
416.713	73.44
416.936	71.44
417.159	82.44
417.382	72.44
417.605	69.44
417.828	72.44
418.051	88.44
418.274	81.44
418.497	86.44
418.72	76.44
418.943	80.44
419.166	87.44
419.389	76.44
419.611	73.44
419.834	75.44
420.057	78.44
420.28	85.44
420.503	89.44
420.726	94.44
420.948	86.44
421.171	82.44
421.394	76.44
421.617	87.44
421.839	97.44
422.062	76.44
422.285	90.44
422.507	90.44
422.73	112.44
422.953	108.44
423.175	87.44
423.398	71.44
423.621	75.44
423.843	88.44
424.066	79.44
424.288	80.44
424.511	85.44
424.733	104.44
424.956	86.44
425.178	79.44
425.401	86.44
425.623	86.44
425.846	73.44
426.068	75.44
426.291	80.44
426.513	68.44
426.735	67.44
426.958	79.44
427.18	84.44
427.402	85.44
427.625	91.44
427.847	92.44
428.069	83.44
428.292	100.44
428.514	81.44
428.736	87.44
428.958	83.44
429.181	81.44
429.403	73.44
429.625	93.44
429.847	89.44
430.069	87.44
430.292	95.44
430.514	83.44
430.736	91.44
430.958	85.44
431.18	73.44
431.402	79.44
431.624	75.44
431.846	88.44
432.068	95.44
432.29	99.44
432.512	78.44
432.734	78.44
432.956	76.44
433.178	90.44
433.4	78.44
433.622	86.44
433.844	75.44
434.066	86.44
434.287	81.44
434.509	95.44
434.731	80.44
434.953	80.44
435.175	80.44
435.397	80.44
435.618	73.44
435.84	69.44
436.062	90.44
436.284	71.44
436.505	75.44
436.727	82.44
436.949	77.44
437.17	82.44
437.392	107.44
437.614	88.44
437.835	71.44
438.057	83.44
438.278	85.44
438.5	83.44
438.721	93.44
438.943	81.44
439.165	83.44
439.386	81.44
439.608	89.44
439.829	89.44
440.05	76.44
440.272	89.44
440.493	86.44
440.715	80.44
440.936	87.44
441.158	64.44
441.379	65.44
441.6	81.44
441.822	82.44
442.043	84.44
442.264	95.44
442.486	79.44
442.707	71.44
442.928	84.44
443.149	66.44
443.371	90.44
443.592	84.44
443.813	92.44
444.034	82.44
444.255	87.44
444.476	85.44
444.698	97.44
444.919	79.44
445.14	141.44
445.361	126.44
445.582	95.44
445.803	113.44
446.024	90.44
446.245	82.44
446.466	74.44
446.687	75.44
446.908	82.44
447.129	79.44
447.35	73.44
447.571	66.44
447.792	83.44
448.013	89.44
448.234	79.44
448.455	74.44
448.675	83.44
448.896	83.44
449.117	84.44
449.338	80.44
449.559	84.44
449.779	85.44
450	86.44
450.221	85.44
450.442	74.44
450.662	75.44
450.883	93.44
451.104	91.44
451.324	93.44
451.545	79.44
451.766	89.44
451.986	89.44
452.207	80.44
452.428	82.44
452.648	78.44
452.869	91.44
453.089	74.44
453.31	87.44
453.53	82.44
453.751	75.44
453.971	99.44
454.192	82.44
454.412	78.44
454.633	76.44
454.853	82.44
455.073	87.44
455.294	83.44
455.514	90.44
455.734	83.44
455.955	86.44
456.175	87.44
456.395	84.44
456.616	71.44
456.836	81.44
457.056	83.44
457.276	84.44
457.497	59.44
457.717	69.44
457.937	93.44
458.157	96.44
458.377	91.44
458.598	82.44
458.818	89.44
459.038	81.44
459.258	83.44
459.478	81.44
459.698	66.44
459.918	93.44
460.138	74.44
460.358	89.44
460.578	83.44
460.798	83.44
461.018	76.44
461.238	85.44
461.458	94.44
461.678	81.44
461.898	89.44
462.118	99.44
462.338	62.44
462.558	81.44
462.777	69.44
462.997	80.44
463.217	73.44
463.437	75.44
463.657	73.44
463.876	86.44
464.096	89.44
464.316	86.44
464.536	86.44
464.755	85.44
464.975	71.44
465.195	81.44
465.414	88.44
465.634	80.44
465.854	94.44
466.073	74.44
466.293	88.44
466.512	89.44
466.732	76.44
466.951	82.44
467.171	74.44
467.391	69.44
467.61	76.44
467.829	77.44
468.049	82.44
468.268	80.44
468.488	85.44
468.707	80.44
468.927	88.44
469.146	83.44
469.365	72.44
469.585	82.44
469.804	67.44
470.023	81.44
470.243	86.44
470.462	90.44
470.681	80.44
470.901	89.44
471.12	78.44
471.339	87.44
471.558	67.44
471.777	74.44
471.997	87.44
472.216	78.44
472.435	80.44
472.654	83.44
472.873	74.44
473.092	87.44
473.311	77.44
473.53	79.44
473.749	73.44
473.968	70.44
474.187	82.44
474.406	81.44
474.625	93.44
474.844	80.44
475.063	80.44
475.282	72.44
475.501	87.44
475.72	90.44
475.939	84.44
476.158	82.44
476.377	72.44
476.596	78.44
476.814	87.44
477.033	71.44
477.252	87.44
477.471	87.44
477.69	89.44
477.908	84.44
478.127	89.44
478.346	95.44
478.564	81.44
478.783	82.44
479.002	84.44
479.22	81.44
479.439	84.44
479.658	74.44
479.876	73.44
480.095	75.44
480.313	76.44
480.532	87.44
480.751	75.44
480.969	83.44
481.188	83.44
481.406	80.44
481.624	82.44
481.843	78.44
482.061	73.44
482.28	75.44
482.498	94.44
482.717	87.44
482.935	89.44
483.153	79.44
483.372	63.44
483.59	78.44
483.808	90.44
484.027	81.44
484.245	82.44
484.463	75.44
484.681	91.44
484.9	76.44
485.118	86.44
485.336	67.44
485.554	81.44
485.772	67.44
485.99	67.44
486.209	80.44
486.427	75.44
486.645	95.44
486.863	86.44
487.081	79.44
487.299	89.44
487.517	84.44
487.735	84.44
487.953	94.44
488.171	92.44
488.389	90.44
488.607	73.44
488.825	89.44
489.043	85.44
489.261	91.44
489.479	81.44
489.696	75.44
489.914	81.44
490.132	94.44
490.35	85.44
490.568	85.44
490.786	86.44
491.003	68.44
491.221	82.44
491.439	78.44
491.657	68.44
491.874	79.44
492.092	77.44
492.31	93.44
492.527	80.44
492.745	83.44
492.963	80.44
493.18	72.44
493.398	77.44
493.615	74.44
493.833	81.44
494.05	82.44
494.268	102.44
494.485	67.44
494.703	85.44
494.92	87.44
495.138	97.44
495.355	101.44
495.573	81.44
495.79	82.44
496.008	89.44
496.225	95.44
496.442	82.44
496.66	85.44
496.877	80.44
497.094	87.44
497.312	85.44
497.529	69.44
497.746	93.44
497.963	89.44
498.181	85.44
498.398	90.44
498.615	87.44
498.832	75.44
499.049	84.44
499.267	75.44
499.484	67.44
499.701	83.44
499.918	99.44
500.135	78.44
500.352	94.44
500.569	81.44
500.786	74.44
501.003	87.44
501.22	79.44
501.437	80.44
501.654	97.44
501.871	76.44
502.088	97.44
502.305	90.44
502.522	97.44
502.739	76.44
502.956	85.44
503.172	72.44
503.389	89.44
503.606	73.44
503.823	83.44
504.04	85.44
504.256	93.44
504.473	68.44
504.69	98.44
504.907	98.44
505.123	83.44
505.34	73.44
505.557	61.44
505.773	78.44
505.99	81.44
506.207	81.44
506.423	87.44
506.64	87.44
506.856	82.44
507.073	80.44
507.289	73.44
507.506	81.44
507.722	86.44
507.939	86.44
508.155	82.44
508.372	78.44
508.588	85.44
508.805	69.44
509.021	90.44
509.238	96.44
509.454	85.44
509.67	70.44
509.887	77.44
510.103	91.44
510.319	97.44
510.536	75.44
510.752	75.44
510.968	88.44
511.184	96.44
511.401	81.44
511.617	92.44
511.833	84.44
512.049	67.44
512.265	75.44
512.481	96.44
512.698	97.44
512.914	76.44
513.13	94.44
513.346	66.44
513.562	76.44
513.778	71.44
513.994	95.44
514.21	83.44
514.426	82.44
514.642	111.44
514.858	85.44
515.074	79.44
515.29	85.44
515.506	81.44
515.721	88.44
515.937	74.44
516.153	67.44
516.369	86.44
516.585	106.44
516.801	82.44
517.016	81.44
517.232	84.44
517.448	73.44
517.664	77.44
517.879	76.44
518.095	75.44
518.311	83.44
518.527	91.44
518.742	80.44
518.958	80.44
519.173	83.44
519.389	87.44
519.605	88.44
519.82	82.44
520.036	70.44
520.251	79.44
520.467	98.44
520.682	81.44
520.898	82.44
521.113	83.44
521.329	85.44
521.544	89.44
521.76	81.44
521.975	69.44
522.19	71.44
522.406	86.44
522.621	72.44
522.836	90.44
523.052	93.44
523.267	73.44
523.482	79.44
523.698	79.44
523.913	82.44
524.128	77.44
524.343	97.44
524.559	85.44
524.774	86.44
524.989	88.44
525.204	91.44
525.419	80.44
525.634	83.44
525.849	86.44
526.064	86.44
526.28	89.44
526.495	97.44
526.71	94.44
526.925	75.44
527.14	87.44
527.355	97.44
527.57	94.44
527.785	91.44
527.999	87.44
528.214	95.44
528.429	83.44
528.644	87.44
528.859	81.44
529.074	80.44
529.289	86.44
529.503	83.44
529.718	86.44
529.933	93.44
530.148	83.44
530.363	74.44
530.577	85.44
530.792	93.44
531.007	76.44
531.221	86.44
531.436	91.44
531.651	77.44
531.865	85.44
532.08	74.44
532.295	91.44
532.509	81.44
532.724	74.44
532.938	93.44
533.153	95.44
533.367	70.44
533.582	83.44
533.796	93.44
534.011	89.44
534.225	87.44
534.44	91.44
534.654	78.44
534.868	75.44
535.083	83.44
535.297	89.44
535.511	83.44
535.726	82.44
535.94	87.44
536.154	84.44
536.369	91.44
536.583	81.44
536.797	82.44
537.011	90.44
537.225	91.44
537.44	82.44
537.654	85.44
537.868	85.44
538.082	82.44
538.296	92.44
538.51	75.44
538.724	89.44
538.938	86.44
539.153	85.44
539.367	75.44
539.581	79.44
539.795	103.44
540.009	83.44
540.222	89.44
540.436	85.44
540.65	78.44
540.864	86.44
541.078	91.44
541.292	78.44
541.506	78.44
541.72	103.44
541.934	94.44
542.147	88.44
542.361	81.44
542.575	69.44
542.789	89.44
543.002	77.44
543.216	82.44
543.43	80.44
543.644	83.44
543.857	70.44
544.071	93.44
544.285	90.44
544.498	81.44
544.712	84.44
544.925	82.44
545.139	93.44
545.352	82.44
545.566	81.44
545.779	88.44
545.993	89.44
546.206	87.44
546.42	101.44
546.633	95.44
546.847	106.44
547.06	95.44
547.274	88.44
547.487	88.44
547.7	94.44
547.914	98.44
548.127	82.44
548.34	80.44
548.554	84.44
548.767	83.44
548.98	77.44
549.193	95.44
549.407	79.44
549.62	93.44
549.833	89.44
550.046	77.44
550.259	78.44
550.473	78.44
550.686	91.44
550.899	88.44
551.112	90.44
551.325	104.44
551.538	93.44
551.751	98.44
551.964	93.44
552.177	100.44
552.39	91.44
552.603	79.44
552.816	113.44
553.029	96.44
553.242	107.44
553.455	100.44
553.667	101.44
553.88	100.44
554.093	94.44
554.306	93.44
554.519	81.44
554.732	95.44
554.944	102.44
555.157	93.44
555.37	83.44
555.583	96.44
555.795	105.44
556.008	100.44
556.221	86.44
556.433	94.44
556.646	86.44
556.859	87.44
557.071	97.44
557.284	101.44
557.496	78.44
557.709	88.44
557.921	74.44
558.134	93.44
558.346	90.44
558.559	93.44
558.771	105.44
558.984	102.44
559.196	109.44
559.409	91.44
559.621	103.44
559.833	77.44
560.046	88.44
560.258	92.44
560.47	90.44
560.683	96.44
560.895	88.44
561.107	99.44
561.32	87.44
561.532	93.44
561.744	91.44
561.956	97.44
562.168	67.44
562.381	95.44
562.593	91.44
562.805	84.44
563.017	102.44
563.229	95.44
563.441	99.44
563.653	91.44
563.865	93.44
564.077	77.44
564.289	81.44
564.501	86.44
564.713	90.44
564.925	93.44
565.137	87.44
565.349	95.44
565.561	99.44
565.773	97.44
565.985	84.44
566.197	89.44
566.408	99.44
566.62	94.44
566.832	73.44
567.044	95.44
567.255	90.44
567.467	87.44
567.679	93.44
567.891	73.44
568.102	81.44
568.314	95.44
568.526	78.44
568.737	98.44
568.949	84.44
569.161	88.44
569.372	91.44
569.584	85.44
569.795	68.44
570.007	86.44
570.218	88.44
570.43	87.44
570.641	93.44
570.853	95.44
571.064	86.44
571.276	86.44
571.487	75.44
571.698	96.44
571.91	77.44
572.121	80.44
572.333	91.44
572.544	94.44
572.755	88.44
572.966	76.44
573.178	90.44
573.389	96.44
573.6	86.44
573.811	84.44
574.023	86.44
574.234	95.44
574.445	109.44
574.656	99.44
574.867	95.44
575.078	89.44
575.289	88.44
575.501	86.44
575.712	90.44
575.923	87.44
576.134	93.44
576.345	72.44
576.556	79.44
576.767	99.44
576.978	88.44
577.188	85.44
577.399	103.44
577.61	78.44
577.821	91.44
578.032	89.44
578.243	88.44
578.454	91.44
578.665	87.44
578.875	85.44
579.086	85.44
579.297	85.44
579.508	88.44
579.718	90.44
579.929	82.44
580.14	73.44
580.35	90.44
580.561	94.44
580.772	95.44
580.982	93.44
581.193	76.44
581.403	86.44
581.614	95.44
581.825	93.44
582.035	74.44
582.246	82.44
582.456	89.44
582.667	81.44
582.877	95.44
583.087	72.44
583.298	97.44
583.508	91.44
583.719	81.44
583.929	69.44
584.139	92.44
584.35	89.44
584.56	87.44
584.77	102.44
584.981	95.44
585.191	76.44
585.401	82.44
585.611	93.44
585.821	97.44
586.032	92.44
586.242	93.44
586.452	86.44
586.662	86.44
586.872	90.44
587.082	74.44
587.292	86.44
587.502	69.44
587.713	84.44
587.923	91.44
588.133	84.44
588.343	95.44
588.553	94.44
588.762	107.44
588.972	118.44
589.182	175.44
589.392	135.44
589.602	113.44
589.812	145.44
590.022	122.44
590.232	102.44
590.441	93.44
590.651	96.44
590.861	85.44
591.071	93.44
591.281	93.44
591.49	89.44
591.7	86.44
591.91	88.44
592.119	92.44
592.329	93.44
592.539	78.44
592.748	72.44
592.958	90.44
593.167	76.44
593.377	104.44
593.587	71.44
593.796	102.44
594.006	85.44
594.215	92.44
594.424	64.44
594.634	90.44
594.843	83.44
595.053	97.44
595.262	82.44
595.472	92.44
595.681	89.44
595.89	85.44
596.1	92.44
596.309	93.44
596.518	80.44
596.727	76.44
596.937	91.44
597.146	82.44
597.355	74.44
597.564	87.44
597.774	74.44
597.983	80.44
598.192	86.44
598.401	86.44
598.61	101.44
598.819	78.44
599.028	85.44
599.237	83.44
599.446	96.44
599.655	93.44
599.864	97.44
600.073	81.44
600.282	86.44
600.491	80.44
600.7	90.44
600.909	78.44
601.118	93.44
601.327	76.44
601.536	104.44
601.745	104.44
601.953	95.44
602.162	99.44
602.371	88.44
602.58	83.44
602.789	94.44
602.997	95.44
603.206	90.44
603.415	93.44
603.623	77.44
603.832	101.44
604.041	87.44
604.249	93.44
604.458	89.44
604.666	82.44
604.875	90.44
605.084	94.44
605.292	75.44
605.501	94.44
605.709	82.44
605.918	89.44
606.126	89.44
606.334	86.44
606.543	99.44
606.751	109.44
606.96	87.44
607.168	94.44
607.376	96.44
607.585	90.44
607.793	111.44
608.001	78.44
608.21	73.44
608.418	84.44
608.626	101.44
608.834	99.44
609.043	106.44
609.251	94.44
609.459	95.44
609.667	94.44
609.875	89.44
610.083	98.44
610.291	97.44
610.499	87.44
610.707	96.44
610.916	77.44
611.124	90.44
611.332	95.44
611.54	87.44
611.748	72.44
611.955	99.44
612.163	101.44
612.371	119.44
612.579	94.44
612.787	101.44
612.995	84.44
613.203	93.44
613.411	82.44
613.618	78.44
613.826	93.44
614.034	79.44
614.242	102.44
614.449	89.44
614.657	90.44
614.865	96.44
615.072	91.44
615.28	80.44
615.488	100.44
615.695	106.44
615.903	85.44
616.111	71.44
616.318	112.44
616.526	114.44
616.733	103.44
616.941	102.44
617.148	89.44
617.356	97.44
617.563	94.44
617.771	97.44
617.978	85.44
618.185	93.44
618.393	81.44
618.6	98.44
618.807	84.44
619.015	95.44
619.222	77.44
619.429	89.44
619.637	95.44
619.844	91.44
620.051	88.44
620.258	88.44
620.466	89.44
620.673	92.44
620.88	79.44
621.087	89.44
621.294	98.44
621.501	64.44
621.708	81.44
621.915	83.44
622.122	73.44
622.329	91.44
622.536	90.44
622.743	106.44
622.95	83.44
623.157	88.44
623.364	88.44
623.571	90.44
623.778	96.44
623.985	100.44
624.192	82.44
624.399	114.44
624.606	93.44
624.812	95.44
625.019	85.44
625.226	88.44
625.433	72.44
625.639	94.44
625.846	91.44
626.053	100.44
626.259	95.44
626.466	88.44
626.673	79.44
626.879	97.44
627.086	85.44
627.293	94.44
627.499	90.44
627.706	75.44
627.912	94.44
628.119	94.44
628.325	81.44
628.532	72.44
628.738	75.44
628.945	76.44
629.151	79.44
629.357	82.44
629.564	89.44
629.77	91.44
629.976	87.44
630.183	79.44
630.389	75.44
630.595	74.44
630.802	86.44
631.008	81.44
631.214	79.44
631.42	82.44
631.627	81.44
631.833	73.44
632.039	89.44
632.245	87.44
632.451	97.44
632.657	71.44
632.863	82.44
633.069	93.44
633.275	85.44
633.481	81.44
633.688	94.44
633.893	81.44
634.099	85.44
634.305	99.44
634.511	88.44
634.717	82.44
634.923	89.44
635.129	82.44
635.335	69.44
635.541	89.44
635.747	95.44
635.952	89.44
636.158	104.44
636.364	83.44
636.57	90.44
636.775	67.44
636.981	82.44
637.187	83.44
637.392	85.44
637.598	75.44
637.804	95.44
638.009	79.44
638.215	69.44
638.421	74.44
638.626	86.44
638.832	82.44
639.037	80.44
639.243	94.44
639.448	92.44
639.654	79.44
639.859	85.44
640.065	89.44
640.27	73.44
640.475	87.44
640.681	90.44
640.886	87.44
641.091	73.44
641.297	69.44
641.502	93.44
641.707	88.44
641.913	79.44
642.118	97.44
642.323	81.44
642.528	85.44
642.733	87.44
642.939	84.44
643.144	89.44
643.349	91.44
643.554	81.44
643.759	75.44
643.964	75.44
644.169	94.44
644.374	65.44
644.579	90.44
644.784	73.44
644.989	84.44
645.194	86.44
645.399	101.44
645.604	74.44
645.809	100.44
646.014	85.44
646.219	86.44
646.423	101.44
646.628	90.44
646.833	85.44
647.038	79.44
647.243	88.44
647.447	89.44
647.652	86.44
647.857	98.44
648.062	86.44
648.266	85.44
648.471	91.44
648.676	75.44
648.88	88.44
649.085	89.44
649.289	85.44
649.494	82.44
649.698	99.44
649.903	76.44
650.107	77.44
650.312	80.44
650.516	70.44
650.721	75.44
650.925	77.44
651.13	92.44
651.334	86.44
651.539	84.44
651.743	82.44
651.947	83.44
652.152	87.44
652.356	82.44
652.56	75.44
652.764	81.44
652.969	73.44
653.173	78.44
653.377	77.44
653.581	74.44
653.785	89.44
653.99	78.44
654.194	67.44
654.398	81.44
654.602	69.44
654.806	79.44
655.01	89.44
655.214	72.44
655.418	79.44
655.622	93.44
655.826	75.44
656.03	79.44
656.234	75.44
656.438	90.44
656.642	75.44
656.846	66.44
657.049	97.44
657.253	88.44
657.457	76.44
657.661	100.44
657.865	84.44
658.068	78.44
658.272	83.44
658.476	88.44
658.68	81.44
658.883	85.44
659.087	64.44
659.291	73.44
659.494	76.44
659.698	87.44
659.901	80.44
660.105	87.44
660.309	66.44
660.512	83.44
660.716	79.44
660.919	81.44
661.123	75.44
661.326	78.44
661.53	77.44
661.733	72.44
661.936	85.44
662.14	87.44
662.343	86.44
662.546	83.44
662.75	83.44
662.953	87.44
663.156	85.44
663.36	73.44
663.563	73.44
663.766	80.44
663.969	74.44
664.173	68.44
664.376	69.44
664.579	76.44
664.782	89.44
664.985	85.44
665.188	85.44
665.391	76.44
665.594	76.44
665.797	89.44
666	83.44
666.203	93.44
666.406	81.44
666.609	88.44
666.812	78.44
667.015	79.44
667.218	89.44
667.421	98.44
667.624	70.44
667.827	86.44
668.03	55.44
668.232	96.44
668.435	79.44
668.638	77.44
668.841	90.44
669.043	85.44
669.246	76.44
669.449	78.44
669.651	79.44
669.854	89.44
670.057	89.44
670.259	70.44
670.462	73.44
670.665	81.44
670.867	97.44
671.07	82.44
671.272	109.44
671.475	81.44
671.677	82.44
671.88	76.44
672.082	84.44
672.284	71.44
672.487	87.44
672.689	89.44
672.892	69.44
