Data from 2145_2_HRD10591_00047.txt Node
Date: Mon Jan 19 14:22:25 EST 2026
User: Yrep
Spectrometer: HR+D1059
Trigger mode: 1
Integration Time (sec): 1.000000E-1
Scans to average: 1
Electric dark correction enabled: true
Nonlinearity correction enabled: false
Boxcar width: 0
XAxis mode: Wavelengths
Number of Pixels in Spectrum: 2048
>>>>>Begin Spectral Data<<<<<
223.165	-20.81
223.4	-20.81
223.635	-20.81
223.869	-19.81
224.104	-28.81
224.338	-21.81
224.573	-8.81
224.808	-10.81
225.042	-4.81
225.277	1.19
225.511	2.19
225.746	-4.81
225.98	0.19
226.215	1.19
226.449	14.19
226.683	35.19
226.918	20.19
227.152	46.19
227.387	41.19
227.621	46.19
227.856	32.19
228.09	54.19
228.324	53.19
228.559	70.19
228.793	71.19
229.027	64.19
229.262	41.19
229.496	76.19
229.73	78.19
229.964	83.19
230.199	94.19
230.433	89.19
230.667	94.19
230.901	80.19
231.136	75.19
231.37	74.19
231.604	87.19
231.838	84.19
232.072	91.19
232.306	75.19
232.541	81.19
232.775	80.19
233.009	84.19
233.243	69.19
233.477	72.19
233.711	79.19
233.945	84.19
234.179	83.19
234.413	90.19
234.647	79.19
234.881	90.19
235.115	88.19
235.349	66.19
235.583	84.19
235.817	82.19
236.051	86.19
236.285	79.19
236.519	86.19
236.753	76.19
236.987	85.19
237.221	72.19
237.455	81.19
237.689	82.19
237.922	76.19
238.156	86.19
238.39	86.19
238.624	73.19
238.858	80.19
239.091	84.19
239.325	74.19
239.559	68.19
239.793	81.19
240.027	75.19
240.26	86.19
240.494	84.19
240.728	68.19
240.961	81.19
241.195	74.19
241.429	76.19
241.662	83.19
241.896	72.19
242.13	87.19
242.363	65.19
242.597	75.19
242.83	67.19
243.064	84.19
243.298	81.19
243.531	61.19
243.765	51.19
243.998	66.19
244.232	84.19
244.465	81.19
244.699	79.19
244.932	86.19
245.166	74.19
245.399	76.19
245.633	82.19
245.866	85.19
246.099	73.19
246.333	68.19
246.566	74.19
246.8	72.19
247.033	87.19
247.266	73.19
247.5	74.19
247.733	76.19
247.966	87.19
248.2	69.19
248.433	75.19
248.666	77.19
248.899	91.19
249.133	87.19
249.366	82.19
249.599	86.19
249.832	69.19
250.066	76.19
250.299	71.19
250.532	89.19
250.765	87.19
250.998	82.19
251.231	69.19
251.465	93.19
251.698	85.19
251.931	84.19
252.164	75.19
252.397	81.19
252.63	88.19
252.863	85.19
253.096	78.19
253.329	94.19
253.562	77.19
253.795	75.19
254.028	77.19
254.261	71.19
254.494	89.19
254.727	83.19
254.96	82.19
255.193	78.19
255.426	75.19
255.659	92.19
255.892	74.19
256.124	93.19
256.357	89.19
256.59	72.19
256.823	73.19
257.056	72.19
257.289	69.19
257.521	72.19
257.754	93.19
257.987	90.19
258.22	91.19
258.452	104.19
258.685	83.19
258.918	82.19
259.151	86.19
259.383	96.19
259.616	86.19
259.849	75.19
260.081	73.19
260.314	76.19
260.547	84.19
260.779	75.19
261.012	80.19
261.244	68.19
261.477	86.19
261.71	83.19
261.942	64.19
262.175	72.19
262.407	79.19
262.64	83.19
262.872	79.19
263.105	82.19
263.337	84.19
263.57	81.19
263.802	75.19
264.035	88.19
264.267	74.19
264.499	77.19
264.732	86.19
264.964	76.19
265.197	67.19
265.429	72.19
265.661	85.19
265.894	86.19
266.126	84.19
266.358	88.19
266.591	89.19
266.823	74.19
267.055	78.19
267.287	81.19
267.52	74.19
267.752	82.19
267.984	84.19
268.216	78.19
268.448	82.19
268.681	106.19
268.913	84.19
269.145	82.19
269.377	83.19
269.609	91.19
269.841	89.19
270.073	76.19
270.306	78.19
270.538	78.19
270.77	64.19
271.002	92.19
271.234	95.19
271.466	92.19
271.698	86.19
271.93	80.19
272.162	83.19
272.394	94.19
272.626	85.19
272.858	91.19
273.09	88.19
273.322	88.19
273.553	93.19
273.785	82.19
274.017	88.19
274.249	66.19
274.481	78.19
274.713	89.19
274.945	74.19
275.176	86.19
275.408	77.19
275.64	69.19
275.872	80.19
276.104	86.19
276.335	95.19
276.567	69.19
276.799	77.19
277.031	86.19
277.262	84.19
277.494	103.19
277.726	91.19
277.957	69.19
278.189	71.19
278.421	76.19
278.652	84.19
278.884	74.19
279.115	76.19
279.347	83.19
279.579	93.19
279.81	75.19
280.042	82.19
280.273	100.19
280.505	72.19
280.736	81.19
280.968	84.19
281.199	86.19
281.431	90.19
281.662	89.19
281.894	84.19
282.125	87.19
282.356	80.19
282.588	77.19
282.819	77.19
283.051	75.19
283.282	88.19
283.513	90.19
283.745	91.19
283.976	100.19
284.207	71.19
284.439	90.19
284.67	90.19
284.901	93.19
285.132	81.19
285.364	94.19
285.595	109.19
285.826	96.19
286.057	96.19
286.288	98.19
286.52	91.19
286.751	73.19
286.982	94.19
287.213	86.19
287.444	86.19
287.675	82.19
287.906	82.19
288.138	101.19
288.369	96.19
288.6	92.19
288.831	85.19
289.062	87.19
289.293	74.19
289.524	71.19
289.755	96.19
289.986	89.19
290.217	74.19
290.448	79.19
290.679	82.19
290.91	79.19
291.141	88.19
291.371	88.19
291.602	82.19
291.833	97.19
292.064	80.19
292.295	74.19
292.526	80.19
292.757	89.19
292.987	92.19
293.218	95.19
293.449	83.19
293.68	86.19
293.91	77.19
294.141	84.19
294.372	92.19
294.603	90.19
294.833	85.19
295.064	81.19
295.295	92.19
295.525	76.19
295.756	89.19
295.987	84.19
296.217	87.19
296.448	87.19
296.679	84.19
296.909	92.19
297.14	91.19
297.37	87.19
297.601	83.19
297.831	91.19
298.062	94.19
298.292	74.19
298.523	102.19
298.753	86.19
298.984	76.19
299.214	74.19
299.445	92.19
299.675	110.19
299.905	96.19
300.136	83.19
300.366	88.19
300.597	80.19
300.827	95.19
301.057	89.19
301.288	90.19
301.518	92.19
301.748	91.19
301.979	91.19
302.209	87.19
302.439	95.19
302.669	86.19
302.9	78.19
303.13	68.19
303.36	86.19
303.59	101.19
303.82	88.19
304.051	76.19
304.281	91.19
304.511	81.19
304.741	90.19
304.971	81.19
305.201	87.19
305.431	86.19
305.661	93.19
305.891	90.19
306.121	78.19
306.352	91.19
306.582	86.19
306.812	102.19
307.042	80.19
307.272	81.19
307.502	77.19
307.731	102.19
307.961	107.19
308.191	82.19
308.421	88.19
308.651	87.19
308.881	98.19
309.111	102.19
309.341	95.19
309.571	88.19
309.8	92.19
310.03	93.19
310.26	96.19
310.49	95.19
310.72	87.19
310.949	88.19
311.179	89.19
311.409	86.19
311.639	78.19
311.868	80.19
312.098	85.19
312.328	87.19
312.557	99.19
312.787	90.19
313.017	100.19
313.246	92.19
313.476	89.19
313.706	90.19
313.935	100.19
314.165	88.19
314.394	88.19
314.624	94.19
314.853	86.19
315.083	98.19
315.312	77.19
315.542	78.19
315.771	70.19
316.001	91.19
316.23	98.19
316.46	96.19
316.689	80.19
316.919	91.19
317.148	93.19
317.377	94.19
317.607	90.19
317.836	84.19
318.065	90.19
318.295	80.19
318.524	83.19
318.753	92.19
318.983	84.19
319.212	92.19
319.441	75.19
319.67	77.19
319.9	81.19
320.129	76.19
320.358	83.19
320.587	88.19
320.816	76.19
321.046	95.19
321.275	82.19
321.504	74.19
321.733	87.19
321.962	92.19
322.191	81.19
322.42	82.19
322.649	84.19
322.878	85.19
323.108	92.19
323.337	91.19
323.566	95.19
323.795	96.19
324.024	92.19
324.253	83.19
324.482	68.19
324.71	96.19
324.939	86.19
325.168	79.19
325.397	84.19
325.626	84.19
325.855	85.19
326.084	105.19
326.313	85.19
326.542	78.19
326.77	87.19
326.999	91.19
327.228	90.19
327.457	91.19
327.686	87.19
327.914	94.19
328.143	78.19
328.372	86.19
328.6	88.19
328.829	91.19
329.058	92.19
329.287	102.19
329.515	78.19
329.744	96.19
329.972	86.19
330.201	86.19
330.43	91.19
330.658	78.19
330.887	88.19
331.115	78.19
331.344	93.19
331.572	86.19
331.801	81.19
332.03	106.19
332.258	84.19
332.486	93.19
332.715	81.19
332.943	86.19
333.172	84.19
333.4	88.19
333.629	70.19
333.857	89.19
334.085	94.19
334.314	87.19
334.542	85.19
334.771	85.19
334.999	76.19
335.227	91.19
335.455	86.19
335.684	81.19
335.912	92.19
336.14	101.19
336.369	92.19
336.597	84.19
336.825	85.19
337.053	86.19
337.281	81.19
337.51	83.19
337.738	83.19
337.966	72.19
338.194	79.19
338.422	97.19
338.65	94.19
338.878	93.19
339.106	72.19
339.334	84.19
339.562	90.19
339.79	83.19
340.018	98.19
340.246	100.19
340.474	95.19
340.702	89.19
340.93	89.19
341.158	91.19
341.386	86.19
341.614	86.19
341.842	79.19
342.07	92.19
342.298	78.19
342.526	95.19
342.754	87.19
342.981	83.19
343.209	89.19
343.437	94.19
343.665	84.19
343.893	91.19
344.12	98.19
344.348	109.19
344.576	92.19
344.804	94.19
345.031	101.19
345.259	99.19
345.487	87.19
345.714	90.19
345.942	80.19
346.17	91.19
346.397	82.19
346.625	86.19
346.853	104.19
347.08	80.19
347.308	94.19
347.535	89.19
347.763	84.19
347.99	88.19
348.218	87.19
348.445	85.19
348.673	101.19
348.9	96.19
349.128	98.19
349.355	74.19
349.583	93.19
349.81	105.19
350.037	91.19
350.265	100.19
350.492	84.19
350.72	91.19
350.947	81.19
351.174	99.19
351.402	97.19
351.629	83.19
351.856	81.19
352.083	98.19
352.311	83.19
352.538	90.19
352.765	91.19
352.992	96.19
353.22	101.19
353.447	91.19
353.674	94.19
353.901	78.19
354.128	89.19
354.355	87.19
354.583	93.19
354.81	100.19
355.037	94.19
355.264	86.19
355.491	84.19
355.718	89.19
355.945	86.19
356.172	101.19
356.399	96.19
356.626	94.19
356.853	94.19
357.08	99.19
357.307	90.19
357.534	78.19
357.761	80.19
357.988	92.19
358.215	88.19
358.441	90.19
358.668	84.19
358.895	95.19
359.122	95.19
359.349	97.19
359.576	84.19
359.802	81.19
360.029	81.19
360.256	92.19
360.483	75.19
360.709	102.19
360.936	101.19
361.163	80.19
361.39	98.19
361.616	93.19
361.843	82.19
362.07	95.19
362.296	86.19
362.523	87.19
362.749	94.19
362.976	94.19
363.203	106.19
363.429	101.19
363.656	97.19
363.882	81.19
364.109	106.19
364.335	110.19
364.562	122.19
364.788	91.19
365.015	102.19
365.241	78.19
365.468	89.19
365.694	88.19
365.92	86.19
366.147	100.19
366.373	85.19
366.599	79.19
366.826	85.19
367.052	82.19
367.278	92.19
367.505	85.19
367.731	90.19
367.957	94.19
368.184	95.19
368.41	96.19
368.636	94.19
368.862	91.19
369.089	82.19
369.315	100.19
369.541	85.19
369.767	78.19
369.993	84.19
370.219	90.19
370.445	84.19
370.672	77.19
370.898	85.19
371.124	85.19
371.35	114.19
371.576	67.19
371.802	88.19
372.028	101.19
372.254	73.19
372.48	91.19
372.706	95.19
372.932	95.19
373.158	83.19
373.384	86.19
373.61	102.19
373.835	89.19
374.061	93.19
374.287	87.19
374.513	97.19
374.739	91.19
374.965	89.19
375.191	77.19
375.416	99.19
375.642	88.19
375.868	88.19
376.094	83.19
376.319	93.19
376.545	76.19
376.771	87.19
376.997	84.19
377.222	84.19
377.448	101.19
377.674	87.19
377.899	80.19
378.125	103.19
378.35	88.19
378.576	89.19
378.802	84.19
379.027	85.19
379.253	88.19
379.478	97.19
379.704	88.19
379.929	76.19
380.155	101.19
380.38	84.19
380.606	74.19
380.831	91.19
381.057	80.19
381.282	85.19
381.507	100.19
381.733	95.19
381.958	91.19
382.184	90.19
382.409	103.19
382.634	104.19
382.86	94.19
383.085	95.19
383.31	92.19
383.535	78.19
383.761	89.19
383.986	90.19
384.211	101.19
384.436	84.19
384.662	93.19
384.887	87.19
385.112	82.19
385.337	79.19
385.562	102.19
385.787	97.19
386.013	81.19
386.238	86.19
386.463	88.19
386.688	110.19
386.913	86.19
387.138	80.19
387.363	91.19
387.588	92.19
387.813	85.19
388.038	89.19
388.263	86.19
388.488	77.19
388.713	95.19
388.938	81.19
389.163	88.19
389.387	81.19
389.612	86.19
389.837	94.19
390.062	90.19
390.287	75.19
390.512	99.19
390.736	90.19
390.961	100.19
391.186	76.19
391.411	90.19
391.636	101.19
391.86	83.19
392.085	95.19
392.31	102.19
392.534	95.19
392.759	92.19
392.984	108.19
393.208	165.19
393.433	221.19
393.658	181.19
393.882	103.19
394.107	99.19
394.331	105.19
394.556	110.19
394.78	120.19
395.005	98.19
395.229	87.19
395.454	81.19
395.678	94.19
395.903	107.19
396.127	128.19
396.352	125.19
396.576	125.19
396.801	147.19
397.025	169.19
397.249	124.19
397.474	98.19
397.698	90.19
397.922	99.19
398.147	89.19
398.371	82.19
398.595	98.19
398.82	96.19
399.044	89.19
399.268	79.19
399.492	83.19
399.717	88.19
399.941	72.19
400.165	93.19
400.389	95.19
400.613	100.19
400.837	99.19
401.062	82.19
401.286	90.19
401.51	87.19
401.734	77.19
401.958	90.19
402.182	88.19
402.406	92.19
402.63	77.19
402.854	88.19
403.078	86.19
403.302	83.19
403.526	86.19
403.75	91.19
403.974	110.19
404.198	103.19
404.422	155.19
404.645	179.19
404.869	154.19
405.093	106.19
405.317	99.19
405.541	98.19
405.765	90.19
405.988	99.19
406.212	83.19
406.436	91.19
406.66	92.19
406.883	99.19
407.107	86.19
407.331	86.19
407.555	88.19
407.778	91.19
408.002	102.19
408.226	93.19
408.449	100.19
408.673	78.19
408.896	89.19
409.12	82.19
409.344	89.19
409.567	103.19
409.791	82.19
410.014	91.19
410.238	90.19
410.461	95.19
410.685	93.19
410.908	88.19
411.132	89.19
411.355	89.19
411.578	92.19
411.802	87.19
412.025	80.19
412.249	89.19
412.472	76.19
412.695	80.19
412.919	76.19
413.142	84.19
413.365	78.19
413.589	80.19
413.812	64.19
414.035	91.19
414.258	83.19
414.482	76.19
414.705	82.19
414.928	95.19
415.151	92.19
415.374	88.19
415.597	75.19
415.821	79.19
416.044	90.19
416.267	86.19
416.49	95.19
416.713	78.19
416.936	76.19
417.159	84.19
417.382	81.19
417.605	89.19
417.828	97.19
418.051	95.19
418.274	84.19
418.497	91.19
418.72	86.19
418.943	95.19
419.166	98.19
419.389	82.19
419.611	77.19
419.834	79.19
420.057	96.19
420.28	80.19
420.503	98.19
420.726	84.19
420.948	84.19
421.171	83.19
421.394	101.19
421.617	114.19
421.839	107.19
422.062	133.19
422.285	155.19
422.507	244.19
422.73	373.19
422.953	330.19
423.175	206.19
423.398	120.19
423.621	107.19
423.843	106.19
424.066	96.19
424.288	102.19
424.511	98.19
424.733	81.19
424.956	108.19
425.178	96.19
425.401	95.19
425.623	86.19
425.846	76.19
426.068	78.19
426.291	104.19
426.513	88.19
426.735	85.19
426.958	77.19
427.18	90.19
427.402	84.19
427.625	90.19
427.847	86.19
428.069	96.19
428.292	114.19
428.514	126.19
428.736	116.19
428.958	124.19
429.181	124.19
429.403	108.19
429.625	101.19
429.847	117.19
430.069	150.19
430.292	159.19
430.514	164.19
430.736	119.19
430.958	138.19
431.18	103.19
431.402	90.19
431.624	90.19
431.846	114.19
432.068	151.19
432.29	105.19
432.512	102.19
432.734	102.19
432.956	108.19
433.178	92.19
433.4	97.19
433.622	84.19
433.844	82.19
434.066	78.19
434.287	86.19
434.509	79.19
434.731	78.19
434.953	75.19
435.175	73.19
435.397	93.19
435.618	92.19
435.84	88.19
436.062	91.19
436.284	88.19
436.505	84.19
436.727	90.19
436.949	93.19
437.17	93.19
437.392	87.19
437.614	92.19
437.835	84.19
438.057	91.19
438.278	80.19
438.5	84.19
438.721	93.19
438.943	100.19
439.165	76.19
439.386	88.19
439.608	93.19
439.829	84.19
440.05	91.19
440.272	84.19
440.493	91.19
440.715	84.19
440.936	84.19
441.158	88.19
441.379	95.19
441.6	99.19
441.822	86.19
442.043	86.19
442.264	95.19
442.486	128.19
442.707	145.19
442.928	116.19
443.149	108.19
443.371	147.19
443.592	214.19
443.813	207.19
444.034	110.19
444.255	103.19
444.476	103.19
444.698	76.19
444.919	87.19
445.14	176.19
445.361	200.19
445.582	265.19
445.803	222.19
446.024	120.19
446.245	91.19
446.466	91.19
446.687	96.19
446.908	91.19
447.129	74.19
447.35	94.19
447.571	102.19
447.792	79.19
448.013	86.19
448.234	101.19
448.455	93.19
448.675	84.19
448.896	85.19
449.117	94.19
449.338	92.19
449.559	87.19
449.779	79.19
450	76.19
450.221	88.19
450.442	80.19
450.662	81.19
450.883	91.19
451.104	81.19
451.324	89.19
451.545	95.19
451.766	87.19
451.986	89.19
452.207	78.19
452.428	97.19
452.648	95.19
452.869	94.19
453.089	93.19
453.31	89.19
453.53	90.19
453.751	90.19
453.971	89.19
454.192	94.19
454.412	94.19
454.633	92.19
454.853	77.19
455.073	91.19
455.294	103.19
455.514	88.19
455.734	92.19
455.955	98.19
456.175	88.19
456.395	90.19
456.616	83.19
456.836	89.19
457.056	79.19
457.276	94.19
457.497	89.19
457.717	87.19
457.937	94.19
458.157	95.19
458.377	106.19
458.598	111.19
458.818	107.19
459.038	112.19
459.258	90.19
459.478	85.19
459.698	90.19
459.918	72.19
460.138	70.19
460.358	84.19
460.578	91.19
460.798	126.19
461.018	120.19
461.238	103.19
461.458	79.19
461.678	96.19
461.898	90.19
462.118	97.19
462.338	79.19
462.558	76.19
462.777	85.19
462.997	98.19
463.217	95.19
463.437	90.19
463.657	99.19
463.876	87.19
464.096	84.19
464.316	77.19
464.536	84.19
464.755	68.19
464.975	87.19
465.195	85.19
465.414	84.19
465.634	84.19
465.854	98.19
466.073	92.19
466.293	89.19
466.512	99.19
466.732	76.19
466.951	77.19
467.171	85.19
467.391	89.19
467.61	90.19
467.829	81.19
468.049	76.19
468.268	88.19
468.488	75.19
468.707	94.19
468.927	90.19
469.146	82.19
469.365	84.19
469.585	91.19
469.804	81.19
470.023	86.19
470.243	80.19
470.462	106.19
470.681	90.19
470.901	81.19
471.12	92.19
471.339	100.19
471.558	91.19
471.777	83.19
471.997	74.19
472.216	78.19
472.435	96.19
472.654	83.19
472.873	92.19
473.092	81.19
473.311	92.19
473.53	88.19
473.749	90.19
473.968	89.19
474.187	84.19
474.406	83.19
474.625	77.19
474.844	92.19
475.063	86.19
475.282	71.19
475.501	89.19
475.72	82.19
475.939	75.19
476.158	82.19
476.377	86.19
476.596	74.19
476.814	80.19
477.033	93.19
477.252	72.19
477.471	78.19
477.69	92.19
477.908	84.19
478.127	91.19
478.346	86.19
478.564	91.19
478.783	94.19
479.002	94.19
479.22	76.19
479.439	81.19
479.658	92.19
479.876	87.19
480.095	72.19
480.313	94.19
480.532	88.19
480.751	91.19
480.969	94.19
481.188	96.19
481.406	107.19
481.624	107.19
481.843	80.19
482.061	97.19
482.28	84.19
482.498	99.19
482.717	84.19
482.935	86.19
483.153	102.19
483.372	95.19
483.59	89.19
483.808	95.19
484.027	92.19
484.245	90.19
484.463	91.19
484.681	92.19
484.9	94.19
485.118	84.19
485.336	93.19
485.554	104.19
485.772	99.19
485.99	85.19
486.209	98.19
486.427	98.19
486.645	93.19
486.863	87.19
487.081	85.19
487.299	98.19
487.517	86.19
487.735	98.19
487.953	129.19
488.171	114.19
488.389	115.19
488.607	91.19
488.825	77.19
489.043	71.19
489.261	90.19
489.479	86.19
489.696	84.19
489.914	98.19
490.132	96.19
490.35	98.19
490.568	91.19
490.786	100.19
491.003	104.19
491.221	94.19
491.439	100.19
491.657	93.19
491.874	77.19
492.092	88.19
492.31	90.19
492.527	85.19
492.745	95.19
492.963	111.19
493.18	99.19
493.398	86.19
493.615	92.19
493.833	95.19
494.05	98.19
494.268	91.19
494.485	77.19
494.703	83.19
494.92	90.19
495.138	81.19
495.355	90.19
495.573	88.19
495.79	98.19
496.008	95.19
496.225	86.19
496.442	106.19
496.66	103.19
496.877	74.19
497.094	102.19
497.312	100.19
497.529	94.19
497.746	101.19
497.963	87.19
498.181	86.19
498.398	94.19
498.615	104.19
498.832	105.19
499.049	101.19
499.267	103.19
499.484	94.19
499.701	94.19
499.918	91.19
500.135	90.19
500.352	98.19
500.569	86.19
500.786	93.19
501.003	101.19
501.22	84.19
501.437	85.19
501.654	96.19
501.871	109.19
502.088	90.19
502.305	91.19
502.522	95.19
502.739	83.19
502.956	91.19
503.172	95.19
503.389	93.19
503.606	94.19
503.823	106.19
504.04	107.19
504.256	114.19
504.473	116.19
504.69	105.19
504.907	98.19
505.123	88.19
505.34	104.19
505.557	93.19
505.773	83.19
505.99	95.19
506.207	95.19
506.423	79.19
506.64	91.19
506.856	87.19
507.073	106.19
507.289	85.19
507.506	92.19
507.722	94.19
507.939	91.19
508.155	88.19
508.372	89.19
508.588	83.19
508.805	106.19
509.021	96.19
509.238	102.19
509.454	92.19
509.67	88.19
509.887	99.19
510.103	106.19
510.319	102.19
510.536	79.19
510.752	95.19
510.968	78.19
511.184	93.19
511.401	89.19
511.617	90.19
511.833	87.19
512.049	84.19
512.265	96.19
512.481	99.19
512.698	93.19
512.914	106.19
513.13	83.19
513.346	87.19
513.562	87.19
513.778	94.19
513.994	91.19
514.21	83.19
514.426	103.19
514.642	87.19
514.858	88.19
515.074	88.19
515.29	95.19
515.506	93.19
515.721	81.19
515.937	79.19
516.153	88.19
516.369	93.19
516.585	80.19
516.801	101.19
517.016	99.19
517.232	83.19
517.448	102.19
517.664	92.19
517.879	86.19
518.095	89.19
518.311	88.19
518.527	90.19
518.742	105.19
518.958	125.19
519.173	132.19
519.389	92.19
519.605	96.19
519.82	95.19
520.036	81.19
520.251	85.19
520.467	98.19
520.682	91.19
520.898	85.19
521.113	88.19
521.329	99.19
521.544	86.19
521.76	81.19
521.975	74.19
522.19	82.19
522.406	100.19
522.621	87.19
522.836	90.19
523.052	89.19
523.267	80.19
523.482	101.19
523.698	81.19
523.913	92.19
524.128	92.19
524.343	93.19
524.559	81.19
524.774	83.19
524.989	90.19
525.204	104.19
525.419	98.19
525.634	104.19
525.849	93.19
526.064	107.19
526.28	178.19
526.495	267.19
526.71	267.19
526.925	196.19
527.14	245.19
527.355	250.19
527.57	108.19
527.785	100.19
527.999	90.19
528.214	88.19
528.429	97.19
528.644	87.19
528.859	100.19
529.074	92.19
529.289	93.19
529.503	98.19
529.718	89.19
529.933	81.19
530.148	98.19
530.363	87.19
530.577	90.19
530.792	92.19
531.007	87.19
531.221	70.19
531.436	76.19
531.651	84.19
531.865	90.19
532.08	92.19
532.295	102.19
532.509	88.19
532.724	108.19
532.938	94.19
533.153	97.19
533.367	104.19
533.582	101.19
533.796	86.19
534.011	97.19
534.225	99.19
534.44	109.19
534.654	112.19
534.868	110.19
535.083	147.19
535.297	138.19
535.511	106.19
535.726	101.19
535.94	100.19
536.154	103.19
536.369	99.19
536.583	100.19
536.797	102.19
537.011	92.19
537.225	104.19
537.44	101.19
537.654	80.19
537.868	88.19
538.082	86.19
538.296	102.19
538.51	97.19
538.724	91.19
538.938	101.19
539.153	82.19
539.367	90.19
539.581	88.19
539.795	103.19
540.009	79.19
540.222	97.19
540.436	85.19
540.65	98.19
540.864	86.19
541.078	99.19
541.292	89.19
541.506	81.19
541.72	91.19
541.934	101.19
542.147	95.19
542.361	99.19
542.575	92.19
542.789	88.19
543.002	92.19
543.216	101.19
543.43	91.19
543.644	104.19
543.857	101.19
544.071	87.19
544.285	90.19
544.498	103.19
544.712	80.19
544.925	88.19
545.139	105.19
545.352	76.19
545.566	81.19
545.779	95.19
545.993	90.19
546.206	91.19
546.42	94.19
546.633	98.19
546.847	114.19
547.06	90.19
547.274	102.19
547.487	119.19
547.7	126.19
547.914	123.19
548.127	141.19
548.34	137.19
548.554	140.19
548.767	123.19
548.98	139.19
549.193	128.19
549.407	124.19
549.62	146.19
549.833	135.19
550.046	150.19
550.259	138.19
550.473	152.19
550.686	157.19
550.899	158.19
551.112	165.19
551.325	180.19
551.538	171.19
551.751	194.19
551.964	163.19
552.177	173.19
552.39	150.19
552.603	150.19
552.816	136.19
553.029	150.19
553.242	151.19
553.455	139.19
553.667	170.19
553.88	152.19
554.093	150.19
554.306	162.19
554.519	162.19
554.732	149.19
554.944	150.19
555.157	135.19
555.37	150.19
555.583	132.19
555.795	135.19
556.008	135.19
556.221	125.19
556.433	105.19
556.646	128.19
556.859	128.19
557.071	116.19
557.284	100.19
557.496	116.19
557.709	105.19
557.921	108.19
558.134	112.19
558.346	162.19
558.559	132.19
558.771	125.19
558.984	271.19
559.196	307.19
559.409	184.19
559.621	267.19
559.833	213.19
560.046	226.19
560.258	195.19
560.47	189.19
560.683	140.19
560.895	106.19
561.107	102.19
561.32	114.19
561.532	84.19
561.744	96.19
561.956	91.19
562.168	88.19
562.381	86.19
562.593	88.19
562.805	96.19
563.017	92.19
563.229	108.19
563.441	114.19
563.653	103.19
563.865	99.19
564.077	99.19
564.289	102.19
564.501	114.19
564.713	95.19
564.925	87.19
565.137	89.19
565.349	86.19
565.561	88.19
565.773	98.19
565.985	100.19
566.197	87.19
566.408	83.19
566.62	87.19
566.832	82.19
567.044	88.19
567.255	93.19
567.467	98.19
567.679	93.19
567.891	86.19
568.102	99.19
568.314	83.19
568.526	85.19
568.737	82.19
568.949	91.19
569.161	100.19
569.372	100.19
569.584	92.19
569.795	86.19
570.007	92.19
570.218	94.19
570.43	94.19
570.641	74.19
570.853	84.19
571.064	90.19
571.276	100.19
571.487	92.19
571.698	95.19
571.91	98.19
572.121	86.19
572.333	107.19
572.544	92.19
572.755	94.19
572.966	101.19
573.178	85.19
573.389	94.19
573.6	77.19
573.811	91.19
574.023	93.19
574.234	80.19
574.445	88.19
574.656	98.19
574.867	85.19
575.078	81.19
575.289	95.19
575.501	90.19
575.712	84.19
575.923	98.19
576.134	77.19
576.345	97.19
576.556	94.19
576.767	99.19
576.978	88.19
577.188	90.19
577.399	85.19
577.61	89.19
577.821	95.19
578.032	98.19
578.243	86.19
578.454	118.19
578.665	106.19
578.875	96.19
579.086	90.19
579.297	90.19
579.508	82.19
579.718	97.19
579.929	97.19
580.14	95.19
580.35	117.19
580.561	132.19
580.772	98.19
580.982	104.19
581.193	92.19
581.403	83.19
581.614	78.19
581.825	90.19
582.035	95.19
582.246	95.19
582.456	70.19
582.667	88.19
582.877	95.19
583.087	96.19
583.298	96.19
583.508	121.19
583.719	111.19
583.929	100.19
584.139	100.19
584.35	96.19
584.56	94.19
584.77	93.19
584.981	93.19
585.191	91.19
585.401	109.19
585.611	105.19
585.821	129.19
586.032	189.19
586.242	116.19
586.452	103.19
586.662	97.19
586.872	96.19
587.082	94.19
587.292	99.19
587.502	109.19
587.713	109.19
587.923	99.19
588.133	93.19
588.343	94.19
588.553	132.19
588.762	136.19
588.972	281.19
589.182	623.19
589.392	462.19
589.602	312.19
589.812	517.19
590.022	299.19
590.232	163.19
590.441	121.19
590.651	97.19
590.861	95.19
591.071	85.19
591.281	104.19
591.49	104.19
591.7	111.19
591.91	102.19
592.119	99.19
592.329	100.19
592.539	95.19
592.748	110.19
592.958	98.19
593.167	101.19
593.377	91.19
593.587	111.19
593.796	101.19
594.006	93.19
594.215	111.19
594.424	109.19
594.634	104.19
594.843	115.19
595.053	98.19
595.262	96.19
595.472	120.19
595.681	103.19
595.89	121.19
596.1	122.19
596.309	119.19
596.518	104.19
596.727	123.19
596.937	113.19
597.146	124.19
597.355	132.19
597.564	128.19
597.774	140.19
597.983	126.19
598.192	128.19
598.401	121.19
598.61	143.19
598.819	140.19
599.028	126.19
599.237	138.19
599.446	123.19
599.655	148.19
599.864	128.19
600.073	139.19
600.282	144.19
600.491	146.19
600.7	139.19
600.909	135.19
601.118	130.19
601.327	123.19
601.536	114.19
601.745	122.19
601.953	130.19
602.162	120.19
602.371	118.19
602.58	134.19
602.789	132.19
602.997	123.19
603.206	108.19
603.415	118.19
603.623	130.19
603.832	120.19
604.041	144.19
604.249	134.19
604.458	138.19
604.666	136.19
604.875	149.19
605.084	152.19
605.292	152.19
605.501	145.19
605.709	156.19
605.918	161.19
606.126	150.19
606.334	156.19
606.543	168.19
606.751	153.19
606.96	162.19
607.168	139.19
607.376	142.19
607.585	148.19
607.793	156.19
608.001	145.19
608.21	150.19
608.418	155.19
608.626	154.19
608.834	148.19
609.043	162.19
609.251	163.19
609.459	151.19
609.667	162.19
609.875	189.19
610.083	178.19
610.291	194.19
610.499	248.19
610.707	185.19
610.916	169.19
611.124	160.19
611.332	143.19
611.54	170.19
611.748	144.19
611.955	167.19
612.163	170.19
612.371	269.19
612.579	271.19
612.787	183.19
612.995	186.19
613.203	179.19
613.411	160.19
613.618	157.19
613.826	163.19
614.034	171.19
614.242	158.19
614.449	164.19
614.657	166.19
614.865	169.19
615.072	168.19
615.28	165.19
615.488	162.19
615.695	163.19
615.903	170.19
616.111	186.19
616.318	293.19
616.526	354.19
616.733	223.19
616.941	208.19
617.148	219.19
617.356	189.19
617.563	175.19
617.771	147.19
617.978	147.19
618.185	134.19
618.393	139.19
618.6	130.19
618.807	144.19
619.015	127.19
619.222	122.19
619.429	138.19
619.637	136.19
619.844	135.19
620.051	122.19
620.258	143.19
620.466	136.19
620.673	128.19
620.88	134.19
621.087	144.19
621.294	158.19
621.501	144.19
621.708	128.19
621.915	152.19
622.122	145.19
622.329	144.19
622.536	135.19
622.743	155.19
622.95	149.19
623.157	141.19
623.364	152.19
623.571	162.19
623.778	150.19
623.985	154.19
624.192	163.19
624.399	194.19
624.606	197.19
624.812	200.19
625.019	191.19
625.226	179.19
625.433	162.19
625.639	174.19
625.846	165.19
626.053	172.19
626.259	155.19
626.466	154.19
626.673	165.19
626.879	159.19
627.086	161.19
627.293	171.19
627.499	159.19
627.706	161.19
627.912	124.19
628.119	124.19
628.325	119.19
628.532	104.19
628.738	105.19
628.945	111.19
629.151	108.19
629.357	103.19
629.564	100.19
629.77	88.19
629.976	97.19
630.183	99.19
630.389	86.19
630.595	99.19
630.802	97.19
631.008	106.19
631.214	106.19
631.42	97.19
631.627	105.19
631.833	106.19
632.039	103.19
632.245	97.19
632.451	98.19
632.657	88.19
632.863	94.19
633.069	106.19
633.275	97.19
633.481	94.19
633.688	89.19
633.893	102.19
634.099	103.19
634.305	109.19
634.511	105.19
634.717	94.19
634.923	98.19
635.129	98.19
635.335	111.19
635.541	90.19
635.747	98.19
635.952	87.19
636.158	114.19
636.364	111.19
636.57	93.19
636.775	111.19
636.981	92.19
637.187	95.19
637.392	91.19
637.598	84.19
637.804	85.19
638.009	90.19
638.215	95.19
638.421	98.19
638.626	93.19
638.832	100.19
639.037	85.19
639.243	76.19
639.448	98.19
639.654	95.19
639.859	105.19
640.065	97.19
640.27	99.19
640.475	90.19
640.681	87.19
640.886	86.19
641.091	102.19
641.297	92.19
641.502	103.19
641.707	99.19
641.913	93.19
642.118	94.19
642.323	90.19
642.528	88.19
642.733	94.19
642.939	94.19
643.144	91.19
643.349	87.19
643.554	95.19
643.759	99.19
643.964	108.19
644.169	158.19
644.374	101.19
644.579	108.19
644.784	103.19
644.989	86.19
645.194	110.19
645.399	103.19
645.604	93.19
645.809	97.19
646.014	94.19
646.219	96.19
646.423	138.19
646.628	124.19
646.833	104.19
647.038	95.19
647.243	102.19
647.447	103.19
647.652	94.19
647.857	87.19
648.062	86.19
648.266	90.19
648.471	75.19
648.676	92.19
648.88	79.19
649.085	78.19
649.289	77.19
649.494	94.19
649.698	121.19
649.903	98.19
650.107	103.19
650.312	110.19
650.516	93.19
650.721	85.19
650.925	83.19
651.13	90.19
651.334	94.19
651.539	85.19
651.743	92.19
651.947	82.19
652.152	87.19
652.356	95.19
652.56	94.19
652.764	82.19
652.969	81.19
653.173	94.19
653.377	86.19
653.581	85.19
653.785	87.19
653.99	100.19
654.194	87.19
654.398	93.19
654.602	86.19
654.806	84.19
655.01	76.19
655.214	92.19
655.418	86.19
655.622	91.19
655.826	94.19
656.03	80.19
656.234	80.19
656.438	84.19
656.642	86.19
656.846	77.19
657.049	89.19
657.253	78.19
657.457	79.19
657.661	78.19
657.865	95.19
658.068	95.19
658.272	88.19
658.476	89.19
658.68	84.19
658.883	73.19
659.087	76.19
659.291	86.19
659.494	82.19
659.698	89.19
659.901	86.19
660.105	87.19
660.309	87.19
660.512	94.19
660.716	99.19
660.919	73.19
661.123	102.19
661.326	84.19
661.53	92.19
661.733	70.19
661.936	79.19
662.14	82.19
662.343	83.19
662.546	83.19
662.75	81.19
662.953	92.19
663.156	86.19
663.36	72.19
663.563	77.19
663.766	94.19
663.969	99.19
664.173	68.19
664.376	88.19
664.579	82.19
664.782	89.19
664.985	75.19
665.188	85.19
665.391	94.19
665.594	86.19
665.797	79.19
666	69.19
666.203	87.19
666.406	84.19
666.609	90.19
666.812	91.19
667.015	78.19
667.218	90.19
667.421	86.19
667.624	84.19
667.827	79.19
668.03	94.19
668.232	87.19
668.435	95.19
668.638	89.19
668.841	93.19
669.043	83.19
669.246	75.19
669.449	92.19
669.651	85.19
669.854	76.19
670.057	82.19
670.259	94.19
670.462	93.19
670.665	87.19
670.867	90.19
671.07	84.19
671.272	90.19
671.475	97.19
671.677	77.19
671.88	90.19
672.082	84.19
672.284	75.19
672.487	88.19
672.689	82.19
672.892	71.19
