Data from 2145_2_HRD10591_00011.txt Node
Date: Mon Jan 19 14:22:07 EST 2026
User: Yrep
Spectrometer: HR+D1059
Trigger mode: 1
Integration Time (sec): 1.000000E-1
Scans to average: 1
Electric dark correction enabled: true
Nonlinearity correction enabled: false
Boxcar width: 0
XAxis mode: Wavelengths
Number of Pixels in Spectrum: 2048
>>>>>Begin Spectral Data<<<<<
223.165	-0.62
223.4	-0.62
223.635	-0.62
223.869	-12.62
224.104	-20.62
224.338	-32.62
224.573	-21.62
224.808	-12.62
225.042	-6.62
225.277	-3.62
225.511	-4.62
225.746	2.38
225.98	13.38
226.215	-2.62
226.449	12.38
226.683	20.38
226.918	32.38
227.152	37.38
227.387	27.38
227.621	35.38
227.856	37.38
228.09	51.38
228.324	68.38
228.559	49.38
228.793	70.38
229.027	54.38
229.262	76.38
229.496	78.38
229.73	68.38
229.964	69.38
230.199	61.38
230.433	75.38
230.667	58.38
230.901	78.38
231.136	88.38
231.37	80.38
231.604	87.38
231.838	84.38
232.072	72.38
232.306	81.38
232.541	68.38
232.775	82.38
233.009	70.38
233.243	73.38
233.477	74.38
233.711	84.38
233.945	84.38
234.179	84.38
234.413	76.38
234.647	81.38
234.881	64.38
235.115	64.38
235.349	82.38
235.583	86.38
235.817	68.38
236.051	81.38
236.285	80.38
236.519	63.38
236.753	91.38
236.987	81.38
237.221	73.38
237.455	83.38
237.689	70.38
237.922	76.38
238.156	84.38
238.39	70.38
238.624	77.38
238.858	75.38
239.091	82.38
239.325	70.38
239.559	79.38
239.793	76.38
240.027	78.38
240.26	80.38
240.494	72.38
240.728	65.38
240.961	81.38
241.195	73.38
241.429	70.38
241.662	81.38
241.896	77.38
242.13	84.38
242.363	78.38
242.597	82.38
242.83	83.38
243.064	77.38
243.298	77.38
243.531	71.38
243.765	76.38
243.998	82.38
244.232	82.38
244.465	89.38
244.699	76.38
244.932	87.38
245.166	82.38
245.399	76.38
245.633	78.38
245.866	81.38
246.099	90.38
246.333	67.38
246.566	71.38
246.8	87.38
247.033	78.38
247.266	100.38
247.5	76.38
247.733	86.38
247.966	78.38
248.2	71.38
248.433	94.38
248.666	83.38
248.899	70.38
249.133	68.38
249.366	87.38
249.599	73.38
249.832	89.38
250.066	72.38
250.299	78.38
250.532	84.38
250.765	78.38
250.998	94.38
251.231	93.38
251.465	91.38
251.698	74.38
251.931	82.38
252.164	69.38
252.397	65.38
252.63	89.38
252.863	88.38
253.096	81.38
253.329	93.38
253.562	90.38
253.795	86.38
254.028	81.38
254.261	84.38
254.494	82.38
254.727	90.38
254.96	84.38
255.193	72.38
255.426	72.38
255.659	77.38
255.892	85.38
256.124	82.38
256.357	84.38
256.59	78.38
256.823	76.38
257.056	86.38
257.289	88.38
257.521	76.38
257.754	80.38
257.987	77.38
258.22	90.38
258.452	79.38
258.685	76.38
258.918	88.38
259.151	83.38
259.383	78.38
259.616	79.38
259.849	78.38
260.081	76.38
260.314	76.38
260.547	73.38
260.779	90.38
261.012	64.38
261.244	91.38
261.477	84.38
261.71	92.38
261.942	90.38
262.175	79.38
262.407	86.38
262.64	97.38
262.872	82.38
263.105	75.38
263.337	85.38
263.57	86.38
263.802	84.38
264.035	84.38
264.267	78.38
264.499	83.38
264.732	76.38
264.964	88.38
265.197	86.38
265.429	80.38
265.661	76.38
265.894	77.38
266.126	84.38
266.358	84.38
266.591	65.38
266.823	82.38
267.055	84.38
267.287	88.38
267.52	77.38
267.752	83.38
267.984	91.38
268.216	96.38
268.448	82.38
268.681	88.38
268.913	86.38
269.145	77.38
269.377	85.38
269.609	88.38
269.841	73.38
270.073	86.38
270.306	98.38
270.538	82.38
270.77	84.38
271.002	80.38
271.234	90.38
271.466	75.38
271.698	88.38
271.93	80.38
272.162	92.38
272.394	80.38
272.626	75.38
272.858	84.38
273.09	82.38
273.322	78.38
273.553	96.38
273.785	68.38
274.017	83.38
274.249	88.38
274.481	74.38
274.713	77.38
274.945	85.38
275.176	90.38
275.408	73.38
275.64	88.38
275.872	86.38
276.104	91.38
276.335	71.38
276.567	93.38
276.799	91.38
277.031	84.38
277.262	86.38
277.494	84.38
277.726	83.38
277.957	83.38
278.189	107.38
278.421	71.38
278.652	73.38
278.884	83.38
279.115	99.38
279.347	100.38
279.579	82.38
279.81	72.38
280.042	90.38
280.273	86.38
280.505	85.38
280.736	83.38
280.968	84.38
281.199	97.38
281.431	92.38
281.662	84.38
281.894	89.38
282.125	82.38
282.356	83.38
282.588	81.38
282.819	80.38
283.051	73.38
283.282	89.38
283.513	71.38
283.745	70.38
283.976	95.38
284.207	66.38
284.439	85.38
284.67	86.38
284.901	92.38
285.132	85.38
285.364	73.38
285.595	66.38
285.826	73.38
286.057	79.38
286.288	82.38
286.52	84.38
286.751	86.38
286.982	77.38
287.213	84.38
287.444	98.38
287.675	86.38
287.906	81.38
288.138	81.38
288.369	90.38
288.6	83.38
288.831	92.38
289.062	71.38
289.293	84.38
289.524	76.38
289.755	76.38
289.986	72.38
290.217	90.38
290.448	78.38
290.679	80.38
290.91	77.38
291.141	84.38
291.371	79.38
291.602	79.38
291.833	99.38
292.064	96.38
292.295	74.38
292.526	76.38
292.757	68.38
292.987	77.38
293.218	85.38
293.449	82.38
293.68	69.38
293.91	72.38
294.141	85.38
294.372	84.38
294.603	77.38
294.833	89.38
295.064	88.38
295.295	82.38
295.525	85.38
295.756	94.38
295.987	90.38
296.217	78.38
296.448	90.38
296.679	78.38
296.909	101.38
297.14	97.38
297.37	89.38
297.601	96.38
297.831	87.38
298.062	73.38
298.292	82.38
298.523	80.38
298.753	85.38
298.984	98.38
299.214	91.38
299.445	79.38
299.675	76.38
299.905	86.38
300.136	88.38
300.366	99.38
300.597	76.38
300.827	98.38
301.057	97.38
301.288	99.38
301.518	81.38
301.748	86.38
301.979	81.38
302.209	86.38
302.439	83.38
302.669	85.38
302.9	84.38
303.13	90.38
303.36	76.38
303.59	90.38
303.82	83.38
304.051	83.38
304.281	87.38
304.511	85.38
304.741	83.38
304.971	85.38
305.201	73.38
305.431	82.38
305.661	77.38
305.891	88.38
306.121	89.38
306.352	85.38
306.582	88.38
306.812	84.38
307.042	83.38
307.272	96.38
307.502	81.38
307.731	86.38
307.961	86.38
308.191	84.38
308.421	90.38
308.651	66.38
308.881	76.38
309.111	76.38
309.341	85.38
309.571	84.38
309.8	97.38
310.03	91.38
310.26	74.38
310.49	67.38
310.72	92.38
310.949	78.38
311.179	87.38
311.409	72.38
311.639	81.38
311.868	92.38
312.098	77.38
312.328	83.38
312.557	93.38
312.787	83.38
313.017	92.38
313.246	88.38
313.476	84.38
313.706	74.38
313.935	76.38
314.165	88.38
314.394	88.38
314.624	82.38
314.853	78.38
315.083	74.38
315.312	97.38
315.542	98.38
315.771	68.38
316.001	91.38
316.23	95.38
316.46	89.38
316.689	99.38
316.919	81.38
317.148	77.38
317.377	87.38
317.607	92.38
317.836	77.38
318.065	87.38
318.295	93.38
318.524	91.38
318.753	80.38
318.983	76.38
319.212	89.38
319.441	85.38
319.67	86.38
319.9	78.38
320.129	68.38
320.358	80.38
320.587	82.38
320.816	90.38
321.046	86.38
321.275	68.38
321.504	84.38
321.733	90.38
321.962	76.38
322.191	84.38
322.42	90.38
322.649	99.38
322.878	73.38
323.108	85.38
323.337	81.38
323.566	85.38
323.795	68.38
324.024	74.38
324.253	90.38
324.482	83.38
324.71	89.38
324.939	89.38
325.168	89.38
325.397	86.38
325.626	84.38
325.855	72.38
326.084	78.38
326.313	102.38
326.542	84.38
326.77	87.38
326.999	76.38
327.228	90.38
327.457	90.38
327.686	85.38
327.914	74.38
328.143	82.38
328.372	100.38
328.6	79.38
328.829	89.38
329.058	83.38
329.287	83.38
329.515	70.38
329.744	88.38
329.972	70.38
330.201	81.38
330.43	94.38
330.658	98.38
330.887	82.38
331.115	89.38
331.344	77.38
331.572	76.38
331.801	90.38
332.03	82.38
332.258	82.38
332.486	98.38
332.715	81.38
332.943	90.38
333.172	78.38
333.4	88.38
333.629	91.38
333.857	96.38
334.085	86.38
334.314	85.38
334.542	83.38
334.771	89.38
334.999	92.38
335.227	78.38
335.455	100.38
335.684	99.38
335.912	94.38
336.14	95.38
336.369	95.38
336.597	82.38
336.825	92.38
337.053	94.38
337.281	87.38
337.51	79.38
337.738	92.38
337.966	92.38
338.194	83.38
338.422	74.38
338.65	83.38
338.878	80.38
339.106	65.38
339.334	84.38
339.562	84.38
339.79	78.38
340.018	85.38
340.246	86.38
340.474	88.38
340.702	87.38
340.93	92.38
341.158	86.38
341.386	81.38
341.614	101.38
341.842	84.38
342.07	85.38
342.298	97.38
342.526	72.38
342.754	74.38
342.981	87.38
343.209	102.38
343.437	108.38
343.665	82.38
343.893	82.38
344.12	80.38
344.348	87.38
344.576	82.38
344.804	89.38
345.031	96.38
345.259	80.38
345.487	88.38
345.714	67.38
345.942	78.38
346.17	92.38
346.397	82.38
346.625	95.38
346.853	89.38
347.08	88.38
347.308	90.38
347.535	82.38
347.763	99.38
347.99	84.38
348.218	92.38
348.445	85.38
348.673	85.38
348.9	86.38
349.128	89.38
349.355	84.38
349.583	89.38
349.81	88.38
350.037	82.38
350.265	83.38
350.492	91.38
350.72	89.38
350.947	90.38
351.174	97.38
351.402	86.38
351.629	75.38
351.856	70.38
352.083	90.38
352.311	72.38
352.538	82.38
352.765	87.38
352.992	85.38
353.22	99.38
353.447	88.38
353.674	87.38
353.901	100.38
354.128	81.38
354.355	91.38
354.583	81.38
354.81	82.38
355.037	81.38
355.264	97.38
355.491	86.38
355.718	84.38
355.945	78.38
356.172	80.38
356.399	86.38
356.626	91.38
356.853	82.38
357.08	77.38
357.307	90.38
357.534	77.38
357.761	88.38
357.988	91.38
358.215	92.38
358.441	82.38
358.668	84.38
358.895	90.38
359.122	97.38
359.349	92.38
359.576	93.38
359.802	82.38
360.029	80.38
360.256	84.38
360.483	94.38
360.709	74.38
360.936	91.38
361.163	94.38
361.39	93.38
361.616	79.38
361.843	91.38
362.07	112.38
362.296	93.38
362.523	112.38
362.749	113.38
362.976	124.38
363.203	118.38
363.429	106.38
363.656	109.38
363.882	107.38
364.109	124.38
364.335	125.38
364.562	142.38
364.788	102.38
365.015	109.38
365.241	80.38
365.468	106.38
365.694	83.38
365.92	92.38
366.147	92.38
366.373	94.38
366.599	97.38
366.826	76.38
367.052	88.38
367.278	88.38
367.505	70.38
367.731	94.38
367.957	68.38
368.184	90.38
368.41	74.38
368.636	73.38
368.862	74.38
369.089	83.38
369.315	84.38
369.541	101.38
369.767	83.38
369.993	90.38
370.219	85.38
370.445	94.38
370.672	82.38
370.898	82.38
371.124	89.38
371.35	86.38
371.576	76.38
371.802	98.38
372.028	82.38
372.254	80.38
372.48	77.38
372.706	69.38
372.932	77.38
373.158	92.38
373.384	86.38
373.61	118.38
373.835	94.38
374.061	89.38
374.287	94.38
374.513	93.38
374.739	88.38
374.965	101.38
375.191	88.38
375.416	84.38
375.642	97.38
375.868	104.38
376.094	82.38
376.319	80.38
376.545	92.38
376.771	85.38
376.997	87.38
377.222	88.38
377.448	85.38
377.674	74.38
377.899	104.38
378.125	84.38
378.35	96.38
378.576	91.38
378.802	80.38
379.027	78.38
379.253	71.38
379.478	74.38
379.704	85.38
379.929	90.38
380.155	87.38
380.38	86.38
380.606	68.38
380.831	86.38
381.057	97.38
381.282	84.38
381.507	76.38
381.733	90.38
381.958	89.38
382.184	86.38
382.409	84.38
382.634	108.38
382.86	91.38
383.085	83.38
383.31	97.38
383.535	96.38
383.761	84.38
383.986	99.38
384.211	87.38
384.436	99.38
384.662	90.38
384.887	74.38
385.112	85.38
385.337	89.38
385.562	84.38
385.787	101.38
386.013	88.38
386.238	96.38
386.463	96.38
386.688	100.38
386.913	90.38
387.138	82.38
387.363	98.38
387.588	90.38
387.813	97.38
388.038	102.38
388.263	99.38
388.488	104.38
388.713	88.38
388.938	86.38
389.163	91.38
389.387	88.38
389.612	88.38
389.837	91.38
390.062	92.38
390.287	75.38
390.512	97.38
390.736	87.38
390.961	90.38
391.186	92.38
391.411	86.38
391.636	85.38
391.86	93.38
392.085	85.38
392.31	88.38
392.534	109.38
392.759	110.38
392.984	131.38
393.208	194.38
393.433	260.38
393.658	212.38
393.882	136.38
394.107	106.38
394.331	103.38
394.556	116.38
394.78	105.38
395.005	98.38
395.229	100.38
395.454	98.38
395.678	102.38
395.903	119.38
396.127	121.38
396.352	133.38
396.576	154.38
396.801	212.38
397.025	202.38
397.249	147.38
397.474	133.38
397.698	108.38
397.922	100.38
398.147	93.38
398.371	100.38
398.595	86.38
398.82	81.38
399.044	92.38
399.268	93.38
399.492	84.38
399.717	88.38
399.941	71.38
400.165	82.38
400.389	86.38
400.613	93.38
400.837	73.38
401.062	80.38
401.286	90.38
401.51	90.38
401.734	72.38
401.958	72.38
402.182	84.38
402.406	77.38
402.63	86.38
402.854	70.38
403.078	85.38
403.302	93.38
403.526	96.38
403.75	82.38
403.974	110.38
404.198	125.38
404.422	132.38
404.645	128.38
404.869	117.38
405.093	101.38
405.317	92.38
405.541	94.38
405.765	89.38
405.988	96.38
406.212	68.38
406.436	84.38
406.66	108.38
406.883	93.38
407.107	86.38
407.331	103.38
407.555	100.38
407.778	97.38
408.002	95.38
408.226	96.38
408.449	85.38
408.673	74.38
408.896	92.38
409.12	100.38
409.344	94.38
409.567	97.38
409.791	110.38
410.014	106.38
410.238	90.38
410.461	106.38
410.685	81.38
410.908	82.38
411.132	105.38
411.355	97.38
411.578	86.38
411.802	82.38
412.025	78.38
412.249	84.38
412.472	87.38
412.695	93.38
412.919	101.38
413.142	92.38
413.365	85.38
413.589	93.38
413.812	77.38
414.035	92.38
414.258	91.38
414.482	92.38
414.705	89.38
414.928	99.38
415.151	88.38
415.374	84.38
415.597	98.38
415.821	88.38
416.044	89.38
416.267	83.38
416.49	88.38
416.713	84.38
416.936	80.38
417.159	92.38
417.382	96.38
417.605	90.38
417.828	93.38
418.051	95.38
418.274	84.38
418.497	85.38
418.72	98.38
418.943	84.38
419.166	95.38
419.389	93.38
419.611	88.38
419.834	88.38
420.057	91.38
420.28	101.38
420.503	88.38
420.726	84.38
420.948	90.38
421.171	97.38
421.394	120.38
421.617	126.38
421.839	116.38
422.062	134.38
422.285	182.38
422.507	249.38
422.73	294.38
422.953	270.38
423.175	236.38
423.398	162.38
423.621	104.38
423.843	126.38
424.066	113.38
424.288	102.38
424.511	111.38
424.733	98.38
424.956	89.38
425.178	101.38
425.401	79.38
425.623	97.38
425.846	87.38
426.068	84.38
426.291	83.38
426.513	96.38
426.735	79.38
426.958	96.38
427.18	81.38
427.402	85.38
427.625	97.38
427.847	103.38
428.069	100.38
428.292	132.38
428.514	147.38
428.736	106.38
428.958	116.38
429.181	135.38
429.403	94.38
429.625	86.38
429.847	117.38
430.069	151.38
430.292	200.38
430.514	173.38
430.736	138.38
430.958	154.38
431.18	113.38
431.402	99.38
431.624	92.38
431.846	124.38
432.068	127.38
432.29	100.38
432.512	87.38
432.734	87.38
432.956	84.38
433.178	84.38
433.4	100.38
433.622	83.38
433.844	98.38
434.066	82.38
434.287	96.38
434.509	91.38
434.731	93.38
434.953	82.38
435.175	89.38
435.397	84.38
435.618	99.38
435.84	97.38
436.062	93.38
436.284	100.38
436.505	87.38
436.727	72.38
436.949	92.38
437.17	94.38
437.392	72.38
437.614	88.38
437.835	94.38
438.057	98.38
438.278	89.38
438.5	88.38
438.721	89.38
438.943	94.38
439.165	86.38
439.386	83.38
439.608	81.38
439.829	85.38
440.05	88.38
440.272	92.38
440.493	82.38
440.715	83.38
440.936	84.38
441.158	78.38
441.379	90.38
441.6	93.38
441.822	112.38
442.043	102.38
442.264	104.38
442.486	147.38
442.707	188.38
442.928	150.38
443.149	130.38
443.371	161.38
443.592	257.38
443.813	232.38
444.034	123.38
444.255	93.38
444.476	91.38
444.698	88.38
444.919	107.38
445.14	197.38
445.361	230.38
445.582	306.38
445.803	246.38
446.024	144.38
446.245	98.38
446.466	97.38
446.687	90.38
446.908	92.38
447.129	82.38
447.35	98.38
447.571	80.38
447.792	90.38
448.013	86.38
448.234	96.38
448.455	75.38
448.675	61.38
448.896	76.38
449.117	81.38
449.338	88.38
449.559	84.38
449.779	92.38
450	91.38
450.221	81.38
450.442	77.38
450.662	87.38
450.883	92.38
451.104	77.38
451.324	94.38
451.545	92.38
451.766	88.38
451.986	81.38
452.207	94.38
452.428	82.38
452.648	92.38
452.869	114.38
453.089	84.38
453.31	92.38
453.53	92.38
453.751	92.38
453.971	88.38
454.192	87.38
454.412	88.38
454.633	73.38
454.853	91.38
455.073	89.38
455.294	97.38
455.514	83.38
455.734	86.38
455.955	98.38
456.175	90.38
456.395	89.38
456.616	89.38
456.836	88.38
457.056	83.38
457.276	88.38
457.497	89.38
457.717	82.38
457.937	120.38
458.157	131.38
458.377	140.38
458.598	143.38
458.818	146.38
459.038	115.38
459.258	90.38
459.478	104.38
459.698	88.38
459.918	93.38
460.138	106.38
460.358	70.38
460.578	94.38
460.798	105.38
461.018	119.38
461.238	102.38
461.458	79.38
461.678	82.38
461.898	76.38
462.118	87.38
462.338	91.38
462.558	106.38
462.777	77.38
462.997	84.38
463.217	89.38
463.437	76.38
463.657	100.38
463.876	85.38
464.096	96.38
464.316	80.38
464.536	76.38
464.755	82.38
464.975	83.38
465.195	94.38
465.414	80.38
465.634	86.38
465.854	82.38
466.073	87.38
466.293	86.38
466.512	89.38
466.732	102.38
466.951	79.38
467.171	80.38
467.391	82.38
467.61	75.38
467.829	94.38
468.049	84.38
468.268	90.38
468.488	101.38
468.707	100.38
468.927	75.38
469.146	78.38
469.365	81.38
469.585	89.38
469.804	79.38
470.023	86.38
470.243	91.38
470.462	86.38
470.681	87.38
470.901	60.38
471.12	88.38
471.339	90.38
471.558	85.38
471.777	101.38
471.997	90.38
472.216	69.38
472.435	105.38
472.654	81.38
472.873	78.38
473.092	80.38
473.311	82.38
473.53	87.38
473.749	89.38
473.968	100.38
474.187	79.38
474.406	75.38
474.625	94.38
474.844	85.38
475.063	94.38
475.282	90.38
475.501	74.38
475.72	94.38
475.939	90.38
476.158	76.38
476.377	101.38
476.596	82.38
476.814	74.38
477.033	85.38
477.252	69.38
477.471	82.38
477.69	96.38
477.908	75.38
478.127	90.38
478.346	79.38
478.564	99.38
478.783	82.38
479.002	75.38
479.22	94.38
479.439	108.38
479.658	88.38
479.876	87.38
480.095	75.38
480.313	84.38
480.532	84.38
480.751	92.38
480.969	102.38
481.188	83.38
481.406	82.38
481.624	88.38
481.843	84.38
482.061	84.38
482.28	84.38
482.498	78.38
482.717	92.38
482.935	88.38
483.153	100.38
483.372	103.38
483.59	107.38
483.808	85.38
484.027	82.38
484.245	93.38
484.463	93.38
484.681	100.38
484.9	90.38
485.118	84.38
485.336	77.38
485.554	84.38
485.772	89.38
485.99	97.38
486.209	104.38
486.427	72.38
486.645	83.38
486.863	86.38
487.081	93.38
487.299	81.38
487.517	114.38
487.735	120.38
487.953	196.38
488.171	168.38
488.389	109.38
488.607	86.38
488.825	84.38
489.043	91.38
489.261	100.38
489.479	81.38
489.696	96.38
489.914	89.38
490.132	101.38
490.35	86.38
490.568	84.38
490.786	92.38
491.003	88.38
491.221	100.38
491.439	89.38
491.657	86.38
491.874	92.38
492.092	85.38
492.31	94.38
492.527	70.38
492.745	81.38
492.963	86.38
493.18	82.38
493.398	74.38
493.615	92.38
493.833	93.38
494.05	92.38
494.268	87.38
494.485	94.38
494.703	82.38
494.92	87.38
495.138	91.38
495.355	81.38
495.573	98.38
495.79	89.38
496.008	91.38
496.225	94.38
496.442	97.38
496.66	99.38
496.877	72.38
497.094	86.38
497.312	86.38
497.529	90.38
497.746	97.38
497.963	91.38
498.181	103.38
498.398	100.38
498.615	92.38
498.832	94.38
499.049	86.38
499.267	97.38
499.484	87.38
499.701	96.38
499.918	97.38
500.135	94.38
500.352	91.38
500.569	88.38
500.786	80.38
501.003	84.38
501.22	85.38
501.437	98.38
501.654	94.38
501.871	84.38
502.088	98.38
502.305	92.38
502.522	87.38
502.739	89.38
502.956	90.38
503.172	69.38
503.389	92.38
503.606	92.38
503.823	106.38
504.04	132.38
504.256	146.38
504.473	151.38
504.69	100.38
504.907	105.38
505.123	95.38
505.34	91.38
505.557	96.38
505.773	96.38
505.99	82.38
506.207	104.38
506.423	83.38
506.64	91.38
506.856	104.38
507.073	84.38
507.289	88.38
507.506	96.38
507.722	86.38
507.939	90.38
508.155	105.38
508.372	84.38
508.588	81.38
508.805	87.38
509.021	87.38
509.238	107.38
509.454	92.38
509.67	75.38
509.887	104.38
510.103	96.38
510.319	86.38
510.536	69.38
510.752	87.38
510.968	95.38
511.184	103.38
511.401	89.38
511.617	87.38
511.833	97.38
512.049	88.38
512.265	100.38
512.481	85.38
512.698	80.38
512.914	88.38
513.13	93.38
513.346	82.38
513.562	90.38
513.778	93.38
513.994	82.38
514.21	93.38
514.426	98.38
514.642	101.38
514.858	95.38
515.074	84.38
515.29	87.38
515.506	90.38
515.721	89.38
515.937	96.38
516.153	92.38
516.369	83.38
516.585	92.38
516.801	81.38
517.016	105.38
517.232	89.38
517.448	92.38
517.664	101.38
517.879	92.38
518.095	98.38
518.311	102.38
518.527	107.38
518.742	130.38
518.958	192.38
519.173	190.38
519.389	125.38
519.605	116.38
519.82	100.38
520.036	90.38
520.251	94.38
520.467	92.38
520.682	85.38
520.898	90.38
521.113	78.38
521.329	87.38
521.544	80.38
521.76	86.38
521.975	82.38
522.19	92.38
522.406	82.38
522.621	96.38
522.836	103.38
523.052	103.38
523.267	86.38
523.482	96.38
523.698	80.38
523.913	91.38
524.128	89.38
524.343	75.38
524.559	95.38
524.774	96.38
524.989	94.38
525.204	103.38
525.419	96.38
525.634	103.38
525.849	120.38
526.064	132.38
526.28	264.38
526.495	374.38
526.71	400.38
526.925	261.38
527.14	316.38
527.355	289.38
527.57	148.38
527.785	102.38
527.999	99.38
528.214	96.38
528.429	92.38
528.644	83.38
528.859	85.38
529.074	79.38
529.289	74.38
529.503	88.38
529.718	101.38
529.933	88.38
530.148	100.38
530.363	77.38
530.577	83.38
530.792	97.38
531.007	92.38
531.221	96.38
531.436	100.38
531.651	94.38
531.865	106.38
532.08	101.38
532.295	103.38
532.509	105.38
532.724	104.38
532.938	91.38
533.153	106.38
533.367	96.38
533.582	90.38
533.796	95.38
534.011	92.38
534.225	106.38
534.44	108.38
534.654	121.38
534.868	124.38
535.083	200.38
535.297	164.38
535.511	116.38
535.726	105.38
535.94	88.38
536.154	95.38
536.369	103.38
536.583	107.38
536.797	89.38
537.011	107.38
537.225	93.38
537.44	94.38
537.654	115.38
537.868	96.38
538.082	93.38
538.296	87.38
538.51	107.38
538.724	103.38
538.938	94.38
539.153	90.38
539.367	105.38
539.581	104.38
539.795	90.38
540.009	91.38
540.222	89.38
540.436	93.38
540.65	98.38
540.864	107.38
541.078	84.38
541.292	108.38
541.506	97.38
541.72	100.38
541.934	89.38
542.147	107.38
542.361	100.38
542.575	97.38
542.789	97.38
543.002	108.38
543.216	102.38
543.43	83.38
543.644	109.38
543.857	97.38
544.071	99.38
544.285	120.38
544.498	113.38
544.712	99.38
544.925	100.38
545.139	105.38
545.352	104.38
545.566	100.38
545.779	104.38
545.993	104.38
546.206	110.38
546.42	101.38
546.633	106.38
546.847	104.38
547.06	129.38
547.274	132.38
547.487	146.38
547.7	150.38
547.914	159.38
548.127	156.38
548.34	166.38
548.554	161.38
548.767	170.38
548.98	166.38
549.193	155.38
549.407	164.38
549.62	182.38
549.833	181.38
550.046	212.38
550.259	209.38
550.473	215.38
550.686	221.38
550.899	225.38
551.112	260.38
551.325	285.38
551.538	285.38
551.751	267.38
551.964	242.38
552.177	242.38
552.39	233.38
552.603	236.38
552.816	233.38
553.029	239.38
553.242	237.38
553.455	249.38
553.667	256.38
553.88	258.38
554.093	259.38
554.306	262.38
554.519	265.38
554.732	238.38
554.944	275.38
555.157	254.38
555.37	248.38
555.583	221.38
555.795	203.38
556.008	222.38
556.221	187.38
556.433	196.38
556.646	198.38
556.859	171.38
557.071	170.38
557.284	187.38
557.496	147.38
557.709	137.38
557.921	139.38
558.134	181.38
558.346	235.38
558.559	206.38
558.771	193.38
558.984	333.38
559.196	416.38
559.409	251.38
559.621	322.38
559.833	264.38
560.046	313.38
560.258	280.38
560.47	278.38
560.683	176.38
560.895	126.38
561.107	108.38
561.32	109.38
561.532	97.38
561.744	108.38
561.956	121.38
562.168	104.38
562.381	114.38
562.593	84.38
562.805	104.38
563.017	115.38
563.229	116.38
563.441	93.38
563.653	106.38
563.865	86.38
564.077	96.38
564.289	114.38
564.501	110.38
564.713	94.38
564.925	108.38
565.137	107.38
565.349	97.38
565.561	116.38
565.773	98.38
565.985	98.38
566.197	93.38
566.408	106.38
566.62	96.38
566.832	104.38
567.044	106.38
567.255	90.38
567.467	96.38
567.679	112.38
567.891	94.38
568.102	112.38
568.314	105.38
568.526	110.38
568.737	101.38
568.949	85.38
569.161	103.38
569.372	104.38
569.584	118.38
569.795	104.38
570.007	92.38
570.218	98.38
570.43	106.38
570.641	89.38
570.853	92.38
571.064	90.38
571.276	86.38
571.487	93.38
571.698	107.38
571.91	107.38
572.121	109.38
572.333	88.38
572.544	104.38
572.755	100.38
572.966	116.38
573.178	92.38
573.389	99.38
573.6	97.38
573.811	105.38
574.023	96.38
574.234	97.38
574.445	95.38
574.656	99.38
574.867	93.38
575.078	88.38
575.289	101.38
575.501	100.38
575.712	102.38
575.923	74.38
576.134	96.38
576.345	93.38
576.556	92.38
576.767	90.38
576.978	77.38
577.188	88.38
577.399	100.38
577.61	101.38
577.821	89.38
578.032	89.38
578.243	89.38
578.454	105.38
578.665	102.38
578.875	107.38
579.086	99.38
579.297	90.38
579.508	93.38
579.718	102.38
579.929	103.38
580.14	100.38
580.35	107.38
580.561	122.38
580.772	100.38
580.982	90.38
581.193	94.38
581.403	78.38
581.614	95.38
581.825	93.38
582.035	116.38
582.246	108.38
582.456	95.38
582.667	88.38
582.877	87.38
583.087	90.38
583.298	103.38
583.508	112.38
583.719	107.38
583.929	102.38
584.139	98.38
584.35	94.38
584.56	87.38
584.77	83.38
584.981	109.38
585.191	98.38
585.401	109.38
585.611	112.38
585.821	164.38
586.032	270.38
586.242	157.38
586.452	121.38
586.662	103.38
586.872	104.38
587.082	115.38
587.292	93.38
587.502	107.38
587.713	108.38
587.923	106.38
588.133	125.38
588.343	111.38
588.553	116.38
588.762	146.38
588.972	240.38
589.182	429.38
589.392	324.38
589.602	246.38
589.812	386.38
590.022	248.38
590.232	136.38
590.441	104.38
590.651	122.38
590.861	113.38
591.071	117.38
591.281	115.38
591.49	109.38
591.7	104.38
591.91	113.38
592.119	109.38
592.329	107.38
592.539	113.38
592.748	108.38
592.958	125.38
593.167	93.38
593.377	115.38
593.587	121.38
593.796	113.38
594.006	109.38
594.215	122.38
594.424	135.38
594.634	110.38
594.843	120.38
595.053	129.38
595.262	144.38
595.472	142.38
595.681	120.38
595.89	144.38
596.1	148.38
596.309	144.38
596.518	152.38
596.727	161.38
596.937	164.38
597.146	173.38
597.355	173.38
597.564	168.38
597.774	165.38
597.983	168.38
598.192	171.38
598.401	165.38
598.61	192.38
598.819	190.38
599.028	178.38
599.237	188.38
599.446	214.38
599.655	201.38
599.864	176.38
600.073	187.38
600.282	204.38
600.491	196.38
600.7	202.38
600.909	186.38
601.118	183.38
601.327	171.38
601.536	167.38
601.745	164.38
601.953	170.38
602.162	160.38
602.371	168.38
602.58	168.38
602.789	182.38
602.997	165.38
603.206	182.38
603.415	177.38
603.623	176.38
603.832	151.38
604.041	174.38
604.249	181.38
604.458	189.38
604.666	190.38
604.875	185.38
605.084	184.38
605.292	179.38
605.501	205.38
605.709	200.38
605.918	212.38
606.126	211.38
606.334	218.38
606.543	213.38
606.751	207.38
606.96	215.38
607.168	203.38
607.376	195.38
607.585	202.38
607.793	195.38
608.001	205.38
608.21	206.38
608.418	205.38
608.626	209.38
608.834	208.38
609.043	223.38
609.251	240.38
609.459	214.38
609.667	233.38
609.875	246.38
610.083	248.38
610.291	269.38
610.499	340.38
610.707	252.38
610.916	213.38
611.124	207.38
611.332	229.38
611.54	222.38
611.748	219.38
611.955	230.38
612.163	254.38
612.371	373.38
612.579	331.38
612.787	252.38
612.995	252.38
613.203	237.38
613.411	218.38
613.618	216.38
613.826	215.38
614.034	242.38
614.242	243.38
614.449	246.38
614.657	238.38
614.865	247.38
615.072	222.38
615.28	213.38
615.488	237.38
615.695	238.38
615.903	259.38
616.111	259.38
616.318	396.38
616.526	421.38
616.733	327.38
616.941	322.38
617.148	357.38
617.356	302.38
617.563	240.38
617.771	249.38
617.978	227.38
618.185	217.38
618.393	240.38
618.6	218.38
618.807	209.38
619.015	217.38
619.222	210.38
619.429	210.38
619.637	225.38
619.844	230.38
620.051	209.38
620.258	238.38
620.466	224.38
620.673	217.38
620.88	224.38
621.087	232.38
621.294	229.38
621.501	210.38
621.708	217.38
621.915	213.38
622.122	231.38
622.329	229.38
622.536	210.38
622.743	231.38
622.95	242.38
623.157	250.38
623.364	258.38
623.571	242.38
623.778	255.38
623.985	252.38
624.192	245.38
624.399	257.38
624.606	267.38
624.812	280.38
625.019	284.38
625.226	260.38
625.433	253.38
625.639	256.38
625.846	242.38
626.053	240.38
626.259	240.38
626.466	224.38
626.673	225.38
626.879	235.38
627.086	236.38
627.293	237.38
627.499	233.38
627.706	221.38
627.912	183.38
628.119	156.38
628.325	170.38
628.532	154.38
628.738	144.38
628.945	124.38
629.151	130.38
629.357	130.38
629.564	112.38
629.77	131.38
629.976	126.38
630.183	126.38
630.389	123.38
630.595	118.38
630.802	118.38
631.008	115.38
631.214	110.38
631.42	116.38
631.627	128.38
631.833	123.38
632.039	113.38
632.245	108.38
632.451	116.38
632.657	92.38
632.863	116.38
633.069	107.38
633.275	98.38
633.481	118.38
633.688	126.38
633.893	120.38
634.099	127.38
634.305	117.38
634.511	118.38
634.717	114.38
634.923	119.38
635.129	126.38
635.335	130.38
635.541	120.38
635.747	118.38
635.952	110.38
636.158	106.38
636.364	122.38
636.57	123.38
636.775	120.38
636.981	118.38
637.187	125.38
637.392	131.38
637.598	123.38
637.804	134.38
638.009	102.38
638.215	103.38
638.421	94.38
638.626	122.38
638.832	114.38
639.037	116.38
639.243	96.38
639.448	93.38
639.654	113.38
639.859	109.38
640.065	93.38
640.27	108.38
640.475	102.38
640.681	100.38
640.886	112.38
641.091	91.38
641.297	96.38
641.502	109.38
641.707	93.38
641.913	97.38
642.118	109.38
642.323	101.38
642.528	88.38
642.733	92.38
642.939	99.38
643.144	97.38
643.349	110.38
643.554	108.38
643.759	120.38
643.964	140.38
644.169	176.38
644.374	134.38
644.579	120.38
644.784	108.38
644.989	98.38
645.194	138.38
645.399	116.38
645.604	110.38
645.809	121.38
646.014	116.38
646.219	134.38
646.423	154.38
646.628	138.38
646.833	124.38
647.038	107.38
647.243	112.38
647.447	127.38
647.652	100.38
647.857	88.38
648.062	95.38
648.266	94.38
648.471	92.38
648.676	100.38
648.88	95.38
649.085	105.38
649.289	104.38
649.494	112.38
649.698	128.38
649.903	102.38
650.107	109.38
650.312	110.38
650.516	85.38
650.721	87.38
650.925	101.38
651.13	94.38
651.334	84.38
651.539	89.38
651.743	91.38
651.947	79.38
652.152	88.38
652.356	95.38
652.56	90.38
652.764	78.38
652.969	97.38
653.173	93.38
653.377	66.38
653.581	93.38
653.785	82.38
653.99	97.38
654.194	83.38
654.398	87.38
654.602	86.38
654.806	86.38
655.01	90.38
655.214	91.38
655.418	76.38
655.622	87.38
655.826	100.38
656.03	97.38
656.234	91.38
656.438	94.38
656.642	94.38
656.846	89.38
657.049	89.38
657.253	81.38
657.457	82.38
657.661	94.38
657.865	97.38
658.068	79.38
658.272	90.38
658.476	82.38
658.68	69.38
658.883	87.38
659.087	79.38
659.291	82.38
659.494	84.38
659.698	88.38
659.901	79.38
660.105	77.38
660.309	84.38
660.512	86.38
660.716	82.38
660.919	69.38
661.123	94.38
661.326	90.38
661.53	85.38
661.733	66.38
661.936	81.38
662.14	92.38
662.343	96.38
662.546	75.38
662.75	78.38
662.953	84.38
663.156	70.38
663.36	83.38
663.563	68.38
663.766	83.38
663.969	88.38
664.173	87.38
664.376	78.38
664.579	93.38
664.782	85.38
664.985	94.38
665.188	101.38
665.391	93.38
665.594	79.38
665.797	87.38
666	71.38
666.203	87.38
666.406	90.38
666.609	84.38
666.812	90.38
667.015	78.38
667.218	65.38
667.421	86.38
667.624	82.38
667.827	72.38
668.03	95.38
668.232	72.38
668.435	73.38
668.638	81.38
668.841	98.38
669.043	81.38
669.246	91.38
669.449	92.38
669.651	85.38
669.854	91.38
670.057	85.38
670.259	82.38
670.462	83.38
670.665	92.38
670.867	89.38
671.07	88.38
671.272	85.38
671.475	82.38
671.677	85.38
671.88	75.38
672.082	71.38
672.284	86.38
672.487	84.38
672.689	74.38
672.892	84.38
