Data from 2145_2_HRD10591_00029.txt Node
Date: Mon Jan 19 14:22:16 EST 2026
User: Yrep
Spectrometer: HR+D1059
Trigger mode: 1
Integration Time (sec): 1.000000E-1
Scans to average: 1
Electric dark correction enabled: true
Nonlinearity correction enabled: false
Boxcar width: 0
XAxis mode: Wavelengths
Number of Pixels in Spectrum: 2048
>>>>>Begin Spectral Data<<<<<
223.165	-24.81
223.4	-24.81
223.635	-24.81
223.869	-7.81
224.104	-19.81
224.338	-8.81
224.573	-15.81
224.808	-16.81
225.042	-2.81
225.277	-14.81
225.511	-13.81
225.746	-2.81
225.98	6.19
226.215	12.19
226.449	21.19
226.683	18.19
226.918	33.19
227.152	37.19
227.387	44.19
227.621	33.19
227.856	36.19
228.09	53.19
228.324	43.19
228.559	52.19
228.793	57.19
229.027	54.19
229.262	67.19
229.496	62.19
229.73	66.19
229.964	73.19
230.199	77.19
230.433	72.19
230.667	72.19
230.901	76.19
231.136	79.19
231.37	68.19
231.604	70.19
231.838	88.19
232.072	78.19
232.306	63.19
232.541	78.19
232.775	88.19
233.009	87.19
233.243	83.19
233.477	84.19
233.711	85.19
233.945	83.19
234.179	82.19
234.413	73.19
234.647	78.19
234.881	78.19
235.115	87.19
235.349	80.19
235.583	79.19
235.817	78.19
236.051	68.19
236.285	88.19
236.519	75.19
236.753	70.19
236.987	77.19
237.221	70.19
237.455	72.19
237.689	74.19
237.922	74.19
238.156	71.19
238.39	80.19
238.624	78.19
238.858	77.19
239.091	67.19
239.325	67.19
239.559	66.19
239.793	77.19
240.027	77.19
240.26	76.19
240.494	56.19
240.728	66.19
240.961	71.19
241.195	87.19
241.429	95.19
241.662	80.19
241.896	57.19
242.13	72.19
242.363	86.19
242.597	73.19
242.83	80.19
243.064	74.19
243.298	82.19
243.531	76.19
243.765	82.19
243.998	83.19
244.232	72.19
244.465	73.19
244.699	57.19
244.932	64.19
245.166	79.19
245.399	77.19
245.633	72.19
245.866	79.19
246.099	66.19
246.333	84.19
246.566	70.19
246.8	81.19
247.033	84.19
247.266	71.19
247.5	88.19
247.733	84.19
247.966	84.19
248.2	76.19
248.433	68.19
248.666	67.19
248.899	59.19
249.133	67.19
249.366	69.19
249.599	77.19
249.832	77.19
250.066	65.19
250.299	91.19
250.532	87.19
250.765	73.19
250.998	77.19
251.231	82.19
251.465	69.19
251.698	78.19
251.931	79.19
252.164	73.19
252.397	82.19
252.63	93.19
252.863	83.19
253.096	61.19
253.329	76.19
253.562	85.19
253.795	72.19
254.028	82.19
254.261	70.19
254.494	81.19
254.727	85.19
254.96	70.19
255.193	94.19
255.426	82.19
255.659	75.19
255.892	88.19
256.124	75.19
256.357	86.19
256.59	92.19
256.823	79.19
257.056	77.19
257.289	70.19
257.521	82.19
257.754	81.19
257.987	88.19
258.22	69.19
258.452	82.19
258.685	83.19
258.918	90.19
259.151	72.19
259.383	76.19
259.616	86.19
259.849	62.19
260.081	86.19
260.314	76.19
260.547	81.19
260.779	75.19
261.012	84.19
261.244	88.19
261.477	82.19
261.71	78.19
261.942	76.19
262.175	67.19
262.407	83.19
262.64	72.19
262.872	83.19
263.105	76.19
263.337	90.19
263.57	84.19
263.802	69.19
264.035	82.19
264.267	80.19
264.499	77.19
264.732	57.19
264.964	75.19
265.197	81.19
265.429	95.19
265.661	84.19
265.894	84.19
266.126	81.19
266.358	76.19
266.591	75.19
266.823	58.19
267.055	79.19
267.287	71.19
267.52	72.19
267.752	98.19
267.984	69.19
268.216	82.19
268.448	93.19
268.681	59.19
268.913	97.19
269.145	93.19
269.377	76.19
269.609	77.19
269.841	84.19
270.073	78.19
270.306	78.19
270.538	90.19
270.77	71.19
271.002	89.19
271.234	69.19
271.466	82.19
271.698	72.19
271.93	72.19
272.162	64.19
272.394	93.19
272.626	86.19
272.858	79.19
273.09	77.19
273.322	82.19
273.553	82.19
273.785	78.19
274.017	89.19
274.249	93.19
274.481	71.19
274.713	83.19
274.945	86.19
275.176	91.19
275.408	94.19
275.64	85.19
275.872	91.19
276.104	82.19
276.335	76.19
276.567	88.19
276.799	83.19
277.031	77.19
277.262	103.19
277.494	87.19
277.726	67.19
277.957	81.19
278.189	59.19
278.421	64.19
278.652	80.19
278.884	78.19
279.115	90.19
279.347	73.19
279.579	92.19
279.81	83.19
280.042	88.19
280.273	86.19
280.505	75.19
280.736	84.19
280.968	82.19
281.199	88.19
281.431	88.19
281.662	83.19
281.894	89.19
282.125	87.19
282.356	90.19
282.588	87.19
282.819	78.19
283.051	83.19
283.282	85.19
283.513	86.19
283.745	89.19
283.976	82.19
284.207	74.19
284.439	78.19
284.67	84.19
284.901	86.19
285.132	84.19
285.364	82.19
285.595	77.19
285.826	78.19
286.057	61.19
286.288	92.19
286.52	87.19
286.751	74.19
286.982	68.19
287.213	85.19
287.444	84.19
287.675	90.19
287.906	85.19
288.138	90.19
288.369	76.19
288.6	76.19
288.831	85.19
289.062	87.19
289.293	84.19
289.524	87.19
289.755	76.19
289.986	88.19
290.217	69.19
290.448	83.19
290.679	86.19
290.91	88.19
291.141	84.19
291.371	75.19
291.602	83.19
291.833	90.19
292.064	92.19
292.295	90.19
292.526	89.19
292.757	85.19
292.987	72.19
293.218	79.19
293.449	83.19
293.68	88.19
293.91	67.19
294.141	77.19
294.372	89.19
294.603	75.19
294.833	68.19
295.064	90.19
295.295	82.19
295.525	83.19
295.756	91.19
295.987	77.19
296.217	82.19
296.448	78.19
296.679	87.19
296.909	97.19
297.14	90.19
297.37	90.19
297.601	83.19
297.831	76.19
298.062	87.19
298.292	105.19
298.523	92.19
298.753	92.19
298.984	87.19
299.214	93.19
299.445	89.19
299.675	84.19
299.905	88.19
300.136	93.19
300.366	80.19
300.597	90.19
300.827	88.19
301.057	86.19
301.288	93.19
301.518	72.19
301.748	76.19
301.979	92.19
302.209	63.19
302.439	82.19
302.669	90.19
302.9	85.19
303.13	90.19
303.36	76.19
303.59	80.19
303.82	78.19
304.051	79.19
304.281	83.19
304.511	81.19
304.741	72.19
304.971	86.19
305.201	88.19
305.431	95.19
305.661	80.19
305.891	78.19
306.121	72.19
306.352	88.19
306.582	88.19
306.812	76.19
307.042	107.19
307.272	93.19
307.502	83.19
307.731	84.19
307.961	84.19
308.191	78.19
308.421	87.19
308.651	85.19
308.881	92.19
309.111	76.19
309.341	83.19
309.571	76.19
309.8	73.19
310.03	79.19
310.26	82.19
310.49	92.19
310.72	89.19
310.949	76.19
311.179	76.19
311.409	86.19
311.639	83.19
311.868	88.19
312.098	88.19
312.328	86.19
312.557	82.19
312.787	82.19
313.017	88.19
313.246	90.19
313.476	84.19
313.706	65.19
313.935	77.19
314.165	91.19
314.394	96.19
314.624	98.19
314.853	72.19
315.083	72.19
315.312	69.19
315.542	70.19
315.771	105.19
316.001	80.19
316.23	66.19
316.46	89.19
316.689	76.19
316.919	88.19
317.148	77.19
317.377	85.19
317.607	90.19
317.836	88.19
318.065	82.19
318.295	85.19
318.524	85.19
318.753	77.19
318.983	80.19
319.212	90.19
319.441	82.19
319.67	93.19
319.9	74.19
320.129	105.19
320.358	71.19
320.587	97.19
320.816	65.19
321.046	84.19
321.275	87.19
321.504	82.19
321.733	85.19
321.962	87.19
322.191	72.19
322.42	79.19
322.649	88.19
322.878	85.19
323.108	79.19
323.337	86.19
323.566	88.19
323.795	90.19
324.024	95.19
324.253	72.19
324.482	87.19
324.71	76.19
324.939	74.19
325.168	94.19
325.397	81.19
325.626	90.19
325.855	100.19
326.084	98.19
326.313	92.19
326.542	88.19
326.77	82.19
326.999	75.19
327.228	90.19
327.457	76.19
327.686	84.19
327.914	101.19
328.143	89.19
328.372	76.19
328.6	87.19
328.829	84.19
329.058	82.19
329.287	91.19
329.515	80.19
329.744	77.19
329.972	73.19
330.201	84.19
330.43	99.19
330.658	68.19
330.887	89.19
331.115	93.19
331.344	84.19
331.572	97.19
331.801	75.19
332.03	97.19
332.258	86.19
332.486	76.19
332.715	88.19
332.943	94.19
333.172	87.19
333.4	86.19
333.629	89.19
333.857	85.19
334.085	76.19
334.314	76.19
334.542	92.19
334.771	97.19
334.999	84.19
335.227	75.19
335.455	96.19
335.684	86.19
335.912	85.19
336.14	87.19
336.369	79.19
336.597	89.19
336.825	80.19
337.053	84.19
337.281	93.19
337.51	98.19
337.738	103.19
337.966	89.19
338.194	81.19
338.422	80.19
338.65	84.19
338.878	91.19
339.106	88.19
339.334	89.19
339.562	69.19
339.79	78.19
340.018	71.19
340.246	87.19
340.474	77.19
340.702	85.19
340.93	86.19
341.158	89.19
341.386	88.19
341.614	77.19
341.842	86.19
342.07	80.19
342.298	74.19
342.526	92.19
342.754	88.19
342.981	92.19
343.209	78.19
343.437	84.19
343.665	82.19
343.893	82.19
344.12	89.19
344.348	82.19
344.576	91.19
344.804	93.19
345.031	96.19
345.259	74.19
345.487	88.19
345.714	100.19
345.942	93.19
346.17	78.19
346.397	80.19
346.625	101.19
346.853	88.19
347.08	82.19
347.308	91.19
347.535	99.19
347.763	101.19
347.99	88.19
348.218	84.19
348.445	75.19
348.673	88.19
348.9	72.19
349.128	93.19
349.355	85.19
349.583	92.19
349.81	86.19
350.037	95.19
350.265	93.19
350.492	84.19
350.72	82.19
350.947	82.19
351.174	92.19
351.402	85.19
351.629	92.19
351.856	72.19
352.083	84.19
352.311	81.19
352.538	96.19
352.765	82.19
352.992	87.19
353.22	96.19
353.447	64.19
353.674	77.19
353.901	87.19
354.128	73.19
354.355	96.19
354.583	86.19
354.81	105.19
355.037	102.19
355.264	78.19
355.491	89.19
355.718	77.19
355.945	91.19
356.172	91.19
356.399	78.19
356.626	89.19
356.853	94.19
357.08	89.19
357.307	93.19
357.534	94.19
357.761	94.19
357.988	96.19
358.215	68.19
358.441	78.19
358.668	98.19
358.895	68.19
359.122	88.19
359.349	89.19
359.576	73.19
359.802	103.19
360.029	94.19
360.256	91.19
360.483	83.19
360.709	85.19
360.936	91.19
361.163	90.19
361.39	87.19
361.616	80.19
361.843	83.19
362.07	90.19
362.296	91.19
362.523	92.19
362.749	98.19
362.976	98.19
363.203	108.19
363.429	90.19
363.656	92.19
363.882	83.19
364.109	80.19
364.335	102.19
364.562	119.19
364.788	77.19
365.015	78.19
365.241	91.19
365.468	83.19
365.694	96.19
365.92	90.19
366.147	87.19
366.373	96.19
366.599	73.19
366.826	83.19
367.052	76.19
367.278	84.19
367.505	84.19
367.731	76.19
367.957	83.19
368.184	87.19
368.41	82.19
368.636	88.19
368.862	86.19
369.089	85.19
369.315	84.19
369.541	93.19
369.767	73.19
369.993	87.19
370.219	99.19
370.445	90.19
370.672	75.19
370.898	72.19
371.124	87.19
371.35	71.19
371.576	95.19
371.802	85.19
372.028	87.19
372.254	78.19
372.48	74.19
372.706	88.19
372.932	80.19
373.158	92.19
373.384	89.19
373.61	95.19
373.835	94.19
374.061	82.19
374.287	96.19
374.513	85.19
374.739	81.19
374.965	88.19
375.191	99.19
375.416	78.19
375.642	86.19
375.868	86.19
376.094	100.19
376.319	76.19
376.545	68.19
376.771	83.19
376.997	79.19
377.222	88.19
377.448	93.19
377.674	104.19
377.899	92.19
378.125	90.19
378.35	87.19
378.576	103.19
378.802	75.19
379.027	92.19
379.253	83.19
379.478	74.19
379.704	69.19
379.929	71.19
380.155	75.19
380.38	74.19
380.606	79.19
380.831	86.19
381.057	86.19
381.282	88.19
381.507	84.19
381.733	80.19
381.958	84.19
382.184	84.19
382.409	84.19
382.634	89.19
382.86	90.19
383.085	83.19
383.31	91.19
383.535	81.19
383.761	88.19
383.986	96.19
384.211	88.19
384.436	85.19
384.662	81.19
384.887	91.19
385.112	69.19
385.337	87.19
385.562	85.19
385.787	89.19
386.013	85.19
386.238	77.19
386.463	74.19
386.688	109.19
386.913	89.19
387.138	91.19
387.363	96.19
387.588	101.19
387.813	88.19
388.038	100.19
388.263	84.19
388.488	87.19
388.713	90.19
388.938	69.19
389.163	68.19
389.387	72.19
389.612	67.19
389.837	83.19
390.062	90.19
390.287	101.19
390.512	92.19
390.736	86.19
390.961	86.19
391.186	73.19
391.411	79.19
391.636	86.19
391.86	78.19
392.085	81.19
392.31	89.19
392.534	86.19
392.759	100.19
392.984	75.19
393.208	132.19
393.433	137.19
393.658	133.19
393.882	104.19
394.107	96.19
394.331	77.19
394.556	91.19
394.78	88.19
395.005	91.19
395.229	93.19
395.454	90.19
395.678	87.19
395.903	109.19
396.127	104.19
396.352	110.19
396.576	104.19
396.801	121.19
397.025	120.19
397.249	113.19
397.474	97.19
397.698	78.19
397.922	79.19
398.147	77.19
398.371	94.19
398.595	85.19
398.82	85.19
399.044	76.19
399.268	79.19
399.492	84.19
399.717	82.19
399.941	89.19
400.165	77.19
400.389	92.19
400.613	89.19
400.837	91.19
401.062	82.19
401.286	70.19
401.51	79.19
401.734	82.19
401.958	89.19
402.182	75.19
402.406	78.19
402.63	92.19
402.854	80.19
403.078	100.19
403.302	84.19
403.526	73.19
403.75	88.19
403.974	86.19
404.198	83.19
404.422	98.19
404.645	84.19
404.869	88.19
405.093	80.19
405.317	96.19
405.541	84.19
405.765	76.19
405.988	88.19
406.212	82.19
406.436	82.19
406.66	100.19
406.883	83.19
407.107	86.19
407.331	74.19
407.555	71.19
407.778	89.19
408.002	82.19
408.226	86.19
408.449	81.19
408.673	68.19
408.896	85.19
409.12	85.19
409.344	101.19
409.567	99.19
409.791	78.19
410.014	91.19
410.238	92.19
410.461	78.19
410.685	82.19
410.908	101.19
411.132	89.19
411.355	88.19
411.578	70.19
411.802	88.19
412.025	90.19
412.249	75.19
412.472	90.19
412.695	88.19
412.919	82.19
413.142	97.19
413.365	82.19
413.589	87.19
413.812	79.19
414.035	89.19
414.258	91.19
414.482	77.19
414.705	93.19
414.928	91.19
415.151	91.19
415.374	85.19
415.597	83.19
415.821	73.19
416.044	92.19
416.267	93.19
416.49	82.19
416.713	81.19
416.936	95.19
417.159	88.19
417.382	74.19
417.605	67.19
417.828	67.19
418.051	85.19
418.274	93.19
418.497	84.19
418.72	85.19
418.943	90.19
419.166	84.19
419.389	77.19
419.611	74.19
419.834	78.19
420.057	90.19
420.28	83.19
420.503	87.19
420.726	92.19
420.948	76.19
421.171	78.19
421.394	78.19
421.617	83.19
421.839	100.19
422.062	97.19
422.285	118.19
422.507	167.19
422.73	192.19
422.953	202.19
423.175	126.19
423.398	108.19
423.621	90.19
423.843	83.19
424.066	86.19
424.288	83.19
424.511	84.19
424.733	83.19
424.956	82.19
425.178	89.19
425.401	101.19
425.623	84.19
425.846	93.19
426.068	86.19
426.291	86.19
426.513	89.19
426.735	78.19
426.958	76.19
427.18	81.19
427.402	86.19
427.625	71.19
427.847	83.19
428.069	87.19
428.292	110.19
428.514	100.19
428.736	84.19
428.958	105.19
429.181	106.19
429.403	85.19
429.625	89.19
429.847	93.19
430.069	113.19
430.292	116.19
430.514	118.19
430.736	90.19
430.958	98.19
431.18	88.19
431.402	84.19
431.624	71.19
431.846	82.19
432.068	104.19
432.29	94.19
432.512	78.19
432.734	79.19
432.956	86.19
433.178	79.19
433.4	79.19
433.622	87.19
433.844	81.19
434.066	85.19
434.287	83.19
434.509	85.19
434.731	93.19
434.953	86.19
435.175	102.19
435.397	80.19
435.618	84.19
435.84	85.19
436.062	85.19
436.284	78.19
436.505	80.19
436.727	83.19
436.949	82.19
437.17	93.19
437.392	81.19
437.614	87.19
437.835	92.19
438.057	89.19
438.278	103.19
438.5	88.19
438.721	85.19
438.943	81.19
439.165	87.19
439.386	87.19
439.608	75.19
439.829	80.19
440.05	86.19
440.272	90.19
440.493	81.19
440.715	89.19
440.936	77.19
441.158	93.19
441.379	76.19
441.6	89.19
441.822	91.19
442.043	87.19
442.264	88.19
442.486	108.19
442.707	110.19
442.928	96.19
443.149	100.19
443.371	93.19
443.592	150.19
443.813	140.19
444.034	88.19
444.255	75.19
444.476	87.19
444.698	97.19
444.919	66.19
445.14	194.19
445.361	161.19
445.582	172.19
445.803	150.19
446.024	90.19
446.245	83.19
446.466	78.19
446.687	72.19
446.908	76.19
447.129	89.19
447.35	84.19
447.571	80.19
447.792	92.19
448.013	85.19
448.234	80.19
448.455	80.19
448.675	82.19
448.896	71.19
449.117	86.19
449.338	77.19
449.559	90.19
449.779	83.19
450	101.19
450.221	84.19
450.442	74.19
450.662	72.19
450.883	84.19
451.104	80.19
451.324	83.19
451.545	74.19
451.766	76.19
451.986	83.19
452.207	89.19
452.428	85.19
452.648	88.19
452.869	78.19
453.089	96.19
453.31	96.19
453.53	84.19
453.751	101.19
453.971	92.19
454.192	84.19
454.412	80.19
454.633	96.19
454.853	90.19
455.073	82.19
455.294	74.19
455.514	75.19
455.734	77.19
455.955	77.19
456.175	90.19
456.395	76.19
456.616	68.19
456.836	88.19
457.056	80.19
457.276	85.19
457.497	84.19
457.717	73.19
457.937	87.19
458.157	86.19
458.377	97.19
458.598	102.19
458.818	91.19
459.038	79.19
459.258	91.19
459.478	69.19
459.698	76.19
459.918	79.19
460.138	78.19
460.358	78.19
460.578	93.19
460.798	96.19
461.018	89.19
461.238	98.19
461.458	77.19
461.678	90.19
461.898	85.19
462.118	79.19
462.338	90.19
462.558	93.19
462.777	102.19
462.997	83.19
463.217	81.19
463.437	66.19
463.657	72.19
463.876	78.19
464.096	88.19
464.316	82.19
464.536	71.19
464.755	82.19
464.975	86.19
465.195	88.19
465.414	82.19
465.634	84.19
465.854	83.19
466.073	89.19
466.293	79.19
466.512	72.19
466.732	85.19
466.951	74.19
467.171	79.19
467.391	77.19
467.61	79.19
467.829	82.19
468.049	87.19
468.268	74.19
468.488	81.19
468.707	85.19
468.927	90.19
469.146	78.19
469.365	74.19
469.585	86.19
469.804	65.19
470.023	86.19
470.243	76.19
470.462	78.19
470.681	88.19
470.901	78.19
471.12	86.19
471.339	97.19
471.558	91.19
471.777	90.19
471.997	82.19
472.216	81.19
472.435	76.19
472.654	75.19
472.873	81.19
473.092	83.19
473.311	87.19
473.53	91.19
473.749	89.19
473.968	90.19
474.187	93.19
474.406	86.19
474.625	90.19
474.844	91.19
475.063	86.19
475.282	85.19
475.501	91.19
475.72	85.19
475.939	97.19
476.158	76.19
476.377	80.19
476.596	66.19
476.814	84.19
477.033	69.19
477.252	88.19
477.471	76.19
477.69	68.19
477.908	90.19
478.127	94.19
478.346	84.19
478.564	105.19
478.783	95.19
479.002	81.19
479.22	76.19
479.439	74.19
479.658	78.19
479.876	90.19
480.095	86.19
480.313	77.19
480.532	101.19
480.751	82.19
480.969	99.19
481.188	80.19
481.406	84.19
481.624	82.19
481.843	76.19
482.061	75.19
482.28	78.19
482.498	104.19
482.717	64.19
482.935	77.19
483.153	90.19
483.372	98.19
483.59	77.19
483.808	77.19
484.027	74.19
484.245	84.19
484.463	88.19
484.681	84.19
484.9	95.19
485.118	71.19
485.336	68.19
485.554	81.19
485.772	90.19
485.99	86.19
486.209	93.19
486.427	70.19
486.645	69.19
486.863	77.19
487.081	79.19
487.299	96.19
487.517	78.19
487.735	100.19
487.953	127.19
488.171	121.19
488.389	89.19
488.607	84.19
488.825	83.19
489.043	99.19
489.261	99.19
489.479	90.19
489.696	89.19
489.914	98.19
490.132	92.19
490.35	95.19
490.568	90.19
490.786	90.19
491.003	70.19
491.221	84.19
491.439	83.19
491.657	89.19
491.874	88.19
492.092	74.19
492.31	76.19
492.527	87.19
492.745	81.19
492.963	88.19
493.18	76.19
493.398	98.19
493.615	88.19
493.833	86.19
494.05	86.19
494.268	75.19
494.485	75.19
494.703	85.19
494.92	82.19
495.138	91.19
495.355	89.19
495.573	85.19
495.79	93.19
496.008	88.19
496.225	86.19
496.442	83.19
496.66	81.19
496.877	84.19
497.094	88.19
497.312	87.19
497.529	83.19
497.746	82.19
497.963	88.19
498.181	80.19
498.398	94.19
498.615	85.19
498.832	73.19
499.049	77.19
499.267	77.19
499.484	96.19
499.701	87.19
499.918	93.19
500.135	90.19
500.352	77.19
500.569	85.19
500.786	90.19
501.003	83.19
501.22	66.19
501.437	88.19
501.654	78.19
501.871	84.19
502.088	78.19
502.305	97.19
502.522	83.19
502.739	97.19
502.956	78.19
503.172	86.19
503.389	80.19
503.606	81.19
503.823	72.19
504.04	77.19
504.256	97.19
504.473	98.19
504.69	90.19
504.907	76.19
505.123	80.19
505.34	95.19
505.557	92.19
505.773	81.19
505.99	85.19
506.207	79.19
506.423	77.19
506.64	68.19
506.856	76.19
507.073	80.19
507.289	88.19
507.506	87.19
507.722	84.19
507.939	89.19
508.155	81.19
508.372	82.19
508.588	67.19
508.805	94.19
509.021	90.19
509.238	90.19
509.454	87.19
509.67	76.19
509.887	91.19
510.103	88.19
510.319	93.19
510.536	95.19
510.752	77.19
510.968	76.19
511.184	88.19
511.401	86.19
511.617	88.19
511.833	73.19
512.049	93.19
512.265	93.19
512.481	85.19
512.698	100.19
512.914	81.19
513.13	80.19
513.346	87.19
513.562	84.19
513.778	69.19
513.994	75.19
514.21	93.19
514.426	78.19
514.642	86.19
514.858	96.19
515.074	91.19
515.29	88.19
515.506	84.19
515.721	84.19
515.937	88.19
516.153	93.19
516.369	87.19
516.585	69.19
516.801	85.19
517.016	90.19
517.232	89.19
517.448	78.19
517.664	76.19
517.879	79.19
518.095	84.19
518.311	80.19
518.527	85.19
518.742	85.19
518.958	116.19
519.173	126.19
519.389	88.19
519.605	93.19
519.82	92.19
520.036	94.19
520.251	83.19
520.467	96.19
520.682	93.19
520.898	77.19
521.113	96.19
521.329	79.19
521.544	79.19
521.76	88.19
521.975	95.19
522.19	84.19
522.406	74.19
522.621	82.19
522.836	87.19
523.052	81.19
523.267	91.19
523.482	91.19
523.698	86.19
523.913	82.19
524.128	81.19
524.343	90.19
524.559	72.19
524.774	76.19
524.989	84.19
525.204	98.19
525.419	84.19
525.634	94.19
525.849	93.19
526.064	98.19
526.28	142.19
526.495	174.19
526.71	176.19
526.925	131.19
527.14	166.19
527.355	156.19
527.57	91.19
527.785	90.19
527.999	96.19
528.214	92.19
528.429	72.19
528.644	78.19
528.859	80.19
529.074	80.19
529.289	90.19
529.503	81.19
529.718	87.19
529.933	92.19
530.148	92.19
530.363	88.19
530.577	96.19
530.792	82.19
531.007	94.19
531.221	99.19
531.436	75.19
531.651	82.19
531.865	96.19
532.08	95.19
532.295	88.19
532.509	93.19
532.724	99.19
532.938	88.19
533.153	93.19
533.367	91.19
533.582	98.19
533.796	86.19
534.011	94.19
534.225	93.19
534.44	93.19
534.654	90.19
534.868	84.19
535.083	122.19
535.297	126.19
535.511	101.19
535.726	105.19
535.94	83.19
536.154	92.19
536.369	98.19
536.583	84.19
536.797	81.19
537.011	95.19
537.225	95.19
537.44	91.19
537.654	86.19
537.868	93.19
538.082	88.19
538.296	95.19
538.51	72.19
538.724	96.19
538.938	81.19
539.153	101.19
539.367	85.19
539.581	97.19
539.795	81.19
540.009	87.19
540.222	83.19
540.436	85.19
540.65	96.19
540.864	84.19
541.078	88.19
541.292	83.19
541.506	104.19
541.72	101.19
541.934	84.19
542.147	94.19
542.361	79.19
542.575	86.19
542.789	103.19
543.002	96.19
543.216	92.19
543.43	80.19
543.644	90.19
543.857	97.19
544.071	101.19
544.285	112.19
544.498	92.19
544.712	98.19
544.925	94.19
545.139	100.19
545.352	92.19
545.566	88.19
545.779	100.19
545.993	99.19
546.206	90.19
546.42	98.19
546.633	102.19
546.847	108.19
547.06	117.19
547.274	118.19
547.487	127.19
547.7	135.19
547.914	139.19
548.127	144.19
548.34	149.19
548.554	141.19
548.767	144.19
548.98	154.19
549.193	138.19
549.407	147.19
549.62	152.19
549.833	174.19
550.046	184.19
550.259	160.19
550.473	178.19
550.686	188.19
550.899	208.19
551.112	217.19
551.325	222.19
551.538	227.19
551.751	203.19
551.964	207.19
552.177	216.19
552.39	204.19
552.603	192.19
552.816	219.19
553.029	215.19
553.242	200.19
553.455	197.19
553.667	203.19
553.88	201.19
554.093	210.19
554.306	229.19
554.519	216.19
554.732	216.19
554.944	215.19
555.157	208.19
555.37	200.19
555.583	196.19
555.795	179.19
556.008	189.19
556.221	178.19
556.433	174.19
556.646	169.19
556.859	174.19
557.071	147.19
557.284	144.19
557.496	137.19
557.709	117.19
557.921	129.19
558.134	130.19
558.346	152.19
558.559	126.19
558.771	133.19
558.984	186.19
559.196	205.19
559.409	143.19
559.621	167.19
559.833	153.19
560.046	161.19
560.258	146.19
560.47	153.19
560.683	102.19
560.895	106.19
561.107	101.19
561.32	93.19
561.532	110.19
561.744	93.19
561.956	89.19
562.168	95.19
562.381	101.19
562.593	102.19
562.805	93.19
563.017	110.19
563.229	94.19
563.441	78.19
563.653	89.19
563.865	87.19
564.077	87.19
564.289	107.19
564.501	100.19
564.713	93.19
564.925	95.19
565.137	105.19
565.349	93.19
565.561	108.19
565.773	107.19
565.985	102.19
566.197	103.19
566.408	110.19
566.62	96.19
566.832	100.19
567.044	100.19
567.255	90.19
567.467	86.19
567.679	92.19
567.891	86.19
568.102	100.19
568.314	95.19
568.526	101.19
568.737	105.19
568.949	98.19
569.161	97.19
569.372	109.19
569.584	102.19
569.795	93.19
570.007	93.19
570.218	104.19
570.43	93.19
570.641	91.19
570.853	88.19
571.064	97.19
571.276	100.19
571.487	93.19
571.698	94.19
571.91	97.19
572.121	104.19
572.333	77.19
572.544	94.19
572.755	89.19
572.966	100.19
573.178	96.19
573.389	97.19
573.6	92.19
573.811	100.19
574.023	92.19
574.234	100.19
574.445	102.19
574.656	96.19
574.867	92.19
575.078	81.19
575.289	85.19
575.501	89.19
575.712	79.19
575.923	88.19
576.134	97.19
576.345	98.19
576.556	91.19
576.767	86.19
576.978	103.19
577.188	92.19
577.399	97.19
577.61	89.19
577.821	86.19
578.032	86.19
578.243	95.19
578.454	89.19
578.665	91.19
578.875	85.19
579.086	100.19
579.297	80.19
579.508	85.19
579.718	88.19
579.929	89.19
580.14	91.19
580.35	88.19
580.561	88.19
580.772	91.19
580.982	98.19
581.193	98.19
581.403	93.19
581.614	83.19
581.825	99.19
582.035	82.19
582.246	90.19
582.456	87.19
582.667	96.19
582.877	86.19
583.087	88.19
583.298	83.19
583.508	84.19
583.719	96.19
583.929	110.19
584.139	92.19
584.35	83.19
584.56	106.19
584.77	87.19
584.981	72.19
585.191	98.19
585.401	98.19
585.611	92.19
585.821	128.19
586.032	157.19
586.242	101.19
586.452	101.19
586.662	97.19
586.872	96.19
587.082	86.19
587.292	98.19
587.502	91.19
587.713	98.19
587.923	108.19
588.133	107.19
588.343	103.19
588.553	112.19
588.762	136.19
588.972	221.19
589.182	372.19
589.392	306.19
589.602	258.19
589.812	339.19
590.022	231.19
590.232	139.19
590.441	118.19
590.651	110.19
590.861	108.19
591.071	93.19
591.281	100.19
591.49	103.19
591.7	96.19
591.91	99.19
592.119	99.19
592.329	101.19
592.539	100.19
592.748	98.19
592.958	104.19
593.167	109.19
593.377	97.19
593.587	97.19
593.796	110.19
594.006	123.19
594.215	104.19
594.424	120.19
594.634	104.19
594.843	132.19
595.053	135.19
595.262	102.19
595.472	106.19
595.681	138.19
595.89	118.19
596.1	124.19
596.309	145.19
596.518	130.19
596.727	141.19
596.937	149.19
597.146	161.19
597.355	153.19
597.564	136.19
597.774	136.19
597.983	133.19
598.192	135.19
598.401	146.19
598.61	140.19
598.819	163.19
599.028	155.19
599.237	153.19
599.446	152.19
599.655	153.19
599.864	151.19
600.073	154.19
600.282	152.19
600.491	144.19
600.7	168.19
600.909	147.19
601.118	144.19
601.327	152.19
601.536	146.19
601.745	130.19
601.953	143.19
602.162	140.19
602.371	145.19
602.58	148.19
602.789	147.19
602.997	140.19
603.206	145.19
603.415	162.19
603.623	155.19
603.832	163.19
604.041	149.19
604.249	158.19
604.458	162.19
604.666	150.19
604.875	168.19
605.084	162.19
605.292	168.19
605.501	155.19
605.709	174.19
605.918	180.19
606.126	180.19
606.334	169.19
606.543	194.19
606.751	185.19
606.96	177.19
607.168	169.19
607.376	157.19
607.585	161.19
607.793	171.19
608.001	151.19
608.21	172.19
608.418	153.19
608.626	165.19
608.834	177.19
609.043	176.19
609.251	181.19
609.459	170.19
609.667	179.19
609.875	181.19
610.083	206.19
610.291	192.19
610.499	225.19
610.707	190.19
610.916	171.19
611.124	172.19
611.332	176.19
611.54	183.19
611.748	169.19
611.955	190.19
612.163	218.19
612.371	244.19
612.579	229.19
612.787	218.19
612.995	208.19
613.203	215.19
613.411	172.19
613.618	194.19
613.826	189.19
614.034	190.19
614.242	204.19
614.449	193.19
614.657	191.19
614.865	184.19
615.072	211.19
615.28	185.19
615.488	202.19
615.695	202.19
615.903	201.19
616.111	204.19
616.318	260.19
616.526	279.19
616.733	215.19
616.941	217.19
617.148	234.19
617.356	224.19
617.563	189.19
617.771	177.19
617.978	197.19
618.185	197.19
618.393	186.19
618.6	180.19
618.807	180.19
619.015	165.19
619.222	190.19
619.429	181.19
619.637	165.19
619.844	178.19
620.051	163.19
620.258	158.19
620.466	185.19
620.673	166.19
620.88	186.19
621.087	181.19
621.294	170.19
621.501	170.19
621.708	185.19
621.915	189.19
622.122	184.19
622.329	186.19
622.536	193.19
622.743	181.19
622.95	193.19
623.157	180.19
623.364	198.19
623.571	182.19
623.778	186.19
623.985	182.19
624.192	196.19
624.399	198.19
624.606	201.19
624.812	191.19
625.019	184.19
625.226	178.19
625.433	190.19
625.639	182.19
625.846	176.19
626.053	176.19
626.259	174.19
626.466	159.19
626.673	166.19
626.879	162.19
627.086	156.19
627.293	173.19
627.499	161.19
627.706	149.19
627.912	155.19
628.119	131.19
628.325	120.19
628.532	128.19
628.738	117.19
628.945	101.19
629.151	108.19
629.357	114.19
629.564	105.19
629.77	112.19
629.976	111.19
630.183	109.19
630.389	85.19
630.595	101.19
630.802	98.19
631.008	97.19
631.214	106.19
631.42	119.19
631.627	119.19
631.833	99.19
632.039	97.19
632.245	106.19
632.451	91.19
632.657	88.19
632.863	86.19
633.069	94.19
633.275	99.19
633.481	102.19
633.688	102.19
633.893	107.19
634.099	100.19
634.305	96.19
634.511	106.19
634.717	99.19
634.923	96.19
635.129	109.19
635.335	98.19
635.541	93.19
635.747	98.19
635.952	94.19
636.158	100.19
636.364	94.19
636.57	102.19
636.775	100.19
636.981	92.19
637.187	97.19
637.392	102.19
637.598	101.19
637.804	92.19
638.009	97.19
638.215	90.19
638.421	100.19
638.626	102.19
638.832	92.19
639.037	101.19
639.243	99.19
639.448	91.19
639.654	97.19
639.859	93.19
640.065	68.19
640.27	101.19
640.475	96.19
640.681	97.19
640.886	106.19
641.091	92.19
641.297	86.19
641.502	109.19
641.707	89.19
641.913	91.19
642.118	100.19
642.323	86.19
642.528	111.19
642.733	95.19
642.939	99.19
643.144	95.19
643.349	87.19
643.554	91.19
643.759	105.19
643.964	103.19
644.169	132.19
644.374	105.19
644.579	103.19
644.784	100.19
644.989	101.19
645.194	110.19
645.399	95.19
645.604	71.19
645.809	84.19
646.014	88.19
646.219	102.19
646.423	112.19
646.628	92.19
646.833	102.19
647.038	92.19
647.243	77.19
647.447	104.19
647.652	92.19
647.857	92.19
648.062	110.19
648.266	93.19
648.471	81.19
648.676	84.19
648.88	76.19
649.085	76.19
649.289	88.19
649.494	93.19
649.698	105.19
649.903	80.19
650.107	89.19
650.312	92.19
650.516	84.19
650.721	93.19
650.925	76.19
651.13	79.19
651.334	84.19
651.539	84.19
651.743	90.19
651.947	90.19
652.152	86.19
652.356	88.19
652.56	81.19
652.764	82.19
652.969	90.19
653.173	81.19
653.377	79.19
653.581	88.19
653.785	88.19
653.99	78.19
654.194	75.19
654.398	66.19
654.602	84.19
654.806	76.19
655.01	89.19
655.214	81.19
655.418	85.19
655.622	87.19
655.826	88.19
656.03	78.19
656.234	83.19
656.438	84.19
656.642	96.19
656.846	64.19
657.049	87.19
657.253	78.19
657.457	72.19
657.661	71.19
657.865	99.19
658.068	80.19
658.272	75.19
658.476	78.19
658.68	74.19
658.883	78.19
659.087	91.19
659.291	88.19
659.494	91.19
659.698	77.19
659.901	81.19
660.105	72.19
660.309	87.19
660.512	86.19
660.716	89.19
660.919	88.19
661.123	92.19
661.326	80.19
661.53	91.19
661.733	87.19
661.936	78.19
662.14	71.19
662.343	87.19
662.546	87.19
662.75	75.19
662.953	96.19
663.156	77.19
663.36	74.19
663.563	85.19
663.766	92.19
663.969	70.19
664.173	65.19
664.376	68.19
664.579	72.19
664.782	90.19
664.985	80.19
665.188	92.19
665.391	84.19
665.594	86.19
665.797	92.19
666	69.19
666.203	80.19
666.406	89.19
666.609	74.19
666.812	79.19
667.015	81.19
667.218	83.19
667.421	68.19
667.624	76.19
667.827	92.19
668.03	80.19
668.232	80.19
668.435	75.19
668.638	69.19
668.841	84.19
669.043	96.19
669.246	83.19
669.449	89.19
669.651	88.19
669.854	91.19
670.057	74.19
670.259	97.19
670.462	88.19
670.665	78.19
670.867	84.19
671.07	86.19
671.272	83.19
671.475	90.19
671.677	76.19
671.88	70.19
672.082	85.19
672.284	80.19
672.487	75.19
672.689	87.19
672.892	84.19
