Data from 1600_1_HRD10591_00023.txt Node
Date: Mon Jan 19 13:47:52 EST 2026
User: Yrep
Spectrometer: HR+D1059
Trigger mode: 1
Integration Time (sec): 1.000000E-1
Scans to average: 1
Electric dark correction enabled: true
Nonlinearity correction enabled: false
Boxcar width: 0
XAxis mode: Wavelengths
Number of Pixels in Spectrum: 2048
>>>>>Begin Spectral Data<<<<<
223.165	-19.69
223.4	-19.69
223.635	-19.69
223.869	-10.69
224.104	-29.69
224.338	-7.69
224.573	-21.69
224.808	-15.69
225.042	4.31
225.277	-8.69
225.511	7.31
225.746	5.31
225.98	13.31
226.215	3.31
226.449	16.31
226.683	27.31
226.918	18.31
227.152	18.31
227.387	44.31
227.621	35.31
227.856	33.31
228.09	37.31
228.324	56.31
228.559	64.31
228.793	61.31
229.027	56.31
229.262	67.31
229.496	68.31
229.73	47.31
229.964	76.31
230.199	84.31
230.433	61.31
230.667	79.31
230.901	78.31
231.136	90.31
231.37	72.31
231.604	81.31
231.838	78.31
232.072	72.31
232.306	76.31
232.541	74.31
232.775	67.31
233.009	80.31
233.243	56.31
233.477	79.31
233.711	78.31
233.945	72.31
234.179	85.31
234.413	69.31
234.647	75.31
234.881	86.31
235.115	89.31
235.349	70.31
235.583	84.31
235.817	82.31
236.051	81.31
236.285	75.31
236.519	70.31
236.753	74.31
236.987	69.31
237.221	76.31
237.455	82.31
237.689	72.31
237.922	68.31
238.156	65.31
238.39	72.31
238.624	67.31
238.858	55.31
239.091	81.31
239.325	69.31
239.559	83.31
239.793	70.31
240.027	82.31
240.26	69.31
240.494	76.31
240.728	80.31
240.961	68.31
241.195	83.31
241.429	71.31
241.662	87.31
241.896	65.31
242.13	76.31
242.363	71.31
242.597	82.31
242.83	90.31
243.064	68.31
243.298	69.31
243.531	71.31
243.765	82.31
243.998	77.31
244.232	73.31
244.465	75.31
244.699	88.31
244.932	82.31
245.166	76.31
245.399	81.31
245.633	63.31
245.866	73.31
246.099	86.31
246.333	71.31
246.566	64.31
246.8	65.31
247.033	64.31
247.266	61.31
247.5	78.31
247.733	78.31
247.966	64.31
248.2	76.31
248.433	74.31
248.666	83.31
248.899	79.31
249.133	83.31
249.366	64.31
249.599	92.31
249.832	76.31
250.066	79.31
250.299	97.31
250.532	72.31
250.765	80.31
250.998	66.31
251.231	68.31
251.465	85.31
251.698	81.31
251.931	70.31
252.164	75.31
252.397	71.31
252.63	81.31
252.863	82.31
253.096	87.31
253.329	81.31
253.562	84.31
253.795	81.31
254.028	74.31
254.261	60.31
254.494	62.31
254.727	61.31
254.96	71.31
255.193	90.31
255.426	68.31
255.659	73.31
255.892	78.31
256.124	80.31
256.357	74.31
256.59	84.31
256.823	69.31
257.056	81.31
257.289	78.31
257.521	81.31
257.754	74.31
257.987	75.31
258.22	81.31
258.452	81.31
258.685	79.31
258.918	70.31
259.151	84.31
259.383	92.31
259.616	69.31
259.849	83.31
260.081	82.31
260.314	75.31
260.547	76.31
260.779	69.31
261.012	88.31
261.244	70.31
261.477	80.31
261.71	96.31
261.942	84.31
262.175	65.31
262.407	68.31
262.64	68.31
262.872	72.31
263.105	64.31
263.337	77.31
263.57	71.31
263.802	77.31
264.035	73.31
264.267	76.31
264.499	83.31
264.732	82.31
264.964	82.31
265.197	84.31
265.429	76.31
265.661	75.31
265.894	86.31
266.126	87.31
266.358	70.31
266.591	95.31
266.823	70.31
267.055	79.31
267.287	68.31
267.52	80.31
267.752	69.31
267.984	83.31
268.216	71.31
268.448	81.31
268.681	98.31
268.913	66.31
269.145	70.31
269.377	81.31
269.609	84.31
269.841	82.31
270.073	81.31
270.306	70.31
270.538	78.31
270.77	86.31
271.002	73.31
271.234	76.31
271.466	85.31
271.698	78.31
271.93	84.31
272.162	70.31
272.394	77.31
272.626	69.31
272.858	71.31
273.09	88.31
273.322	78.31
273.553	67.31
273.785	85.31
274.017	77.31
274.249	92.31
274.481	80.31
274.713	83.31
274.945	83.31
275.176	83.31
275.408	69.31
275.64	81.31
275.872	66.31
276.104	80.31
276.335	80.31
276.567	67.31
276.799	82.31
277.031	80.31
277.262	79.31
277.494	86.31
277.726	94.31
277.957	85.31
278.189	74.31
278.421	83.31
278.652	92.31
278.884	83.31
279.115	68.31
279.347	69.31
279.579	91.31
279.81	83.31
280.042	76.31
280.273	75.31
280.505	81.31
280.736	69.31
280.968	105.31
281.199	91.31
281.431	89.31
281.662	87.31
281.894	79.31
282.125	90.31
282.356	74.31
282.588	87.31
282.819	74.31
283.051	80.31
283.282	74.31
283.513	75.31
283.745	84.31
283.976	65.31
284.207	78.31
284.439	85.31
284.67	66.31
284.901	74.31
285.132	76.31
285.364	76.31
285.595	76.31
285.826	83.31
286.057	78.31
286.288	78.31
286.52	65.31
286.751	79.31
286.982	104.31
287.213	96.31
287.444	80.31
287.675	79.31
287.906	83.31
288.138	79.31
288.369	80.31
288.6	71.31
288.831	83.31
289.062	88.31
289.293	85.31
289.524	88.31
289.755	77.31
289.986	72.31
290.217	79.31
290.448	81.31
290.679	85.31
290.91	65.31
291.141	80.31
291.371	85.31
291.602	87.31
291.833	81.31
292.064	83.31
292.295	81.31
292.526	68.31
292.757	76.31
292.987	93.31
293.218	96.31
293.449	78.31
293.68	80.31
293.91	92.31
294.141	90.31
294.372	67.31
294.603	80.31
294.833	68.31
295.064	78.31
295.295	92.31
295.525	73.31
295.756	80.31
295.987	73.31
296.217	73.31
296.448	81.31
296.679	80.31
296.909	85.31
297.14	80.31
297.37	84.31
297.601	87.31
297.831	82.31
298.062	80.31
298.292	81.31
298.523	86.31
298.753	83.31
298.984	92.31
299.214	74.31
299.445	79.31
299.675	94.31
299.905	92.31
300.136	73.31
300.366	79.31
300.597	74.31
300.827	82.31
301.057	96.31
301.288	80.31
301.518	73.31
301.748	60.31
301.979	102.31
302.209	78.31
302.439	84.31
302.669	73.31
302.9	77.31
303.13	92.31
303.36	87.31
303.59	83.31
303.82	84.31
304.051	74.31
304.281	78.31
304.511	75.31
304.741	74.31
304.971	75.31
305.201	78.31
305.431	83.31
305.661	72.31
305.891	86.31
306.121	85.31
306.352	59.31
306.582	77.31
306.812	75.31
307.042	79.31
307.272	73.31
307.502	78.31
307.731	84.31
307.961	77.31
308.191	86.31
308.421	87.31
308.651	80.31
308.881	82.31
309.111	80.31
309.341	76.31
309.571	91.31
309.8	86.31
310.03	83.31
310.26	89.31
310.49	74.31
310.72	83.31
310.949	83.31
311.179	78.31
311.409	68.31
311.639	78.31
311.868	82.31
312.098	76.31
312.328	90.31
312.557	92.31
312.787	81.31
313.017	77.31
313.246	81.31
313.476	71.31
313.706	77.31
313.935	80.31
314.165	91.31
314.394	63.31
314.624	90.31
314.853	84.31
315.083	82.31
315.312	66.31
315.542	74.31
315.771	82.31
316.001	75.31
316.23	70.31
316.46	75.31
316.689	66.31
316.919	70.31
317.148	76.31
317.377	78.31
317.607	74.31
317.836	78.31
318.065	69.31
318.295	83.31
318.524	84.31
318.753	81.31
318.983	93.31
319.212	83.31
319.441	77.31
319.67	84.31
319.9	87.31
320.129	74.31
320.358	70.31
320.587	62.31
320.816	86.31
321.046	94.31
321.275	76.31
321.504	78.31
321.733	97.31
321.962	81.31
322.191	84.31
322.42	96.31
322.649	79.31
322.878	82.31
323.108	80.31
323.337	80.31
323.566	85.31
323.795	70.31
324.024	92.31
324.253	70.31
324.482	83.31
324.71	79.31
324.939	98.31
325.168	87.31
325.397	91.31
325.626	75.31
325.855	73.31
326.084	89.31
326.313	70.31
326.542	91.31
326.77	81.31
326.999	86.31
327.228	86.31
327.457	91.31
327.686	83.31
327.914	80.31
328.143	87.31
328.372	90.31
328.6	79.31
328.829	79.31
329.058	92.31
329.287	92.31
329.515	85.31
329.744	81.31
329.972	61.31
330.201	79.31
330.43	71.31
330.658	81.31
330.887	81.31
331.115	84.31
331.344	88.31
331.572	98.31
331.801	78.31
332.03	85.31
332.258	88.31
332.486	80.31
332.715	91.31
332.943	81.31
333.172	94.31
333.4	84.31
333.629	89.31
333.857	90.31
334.085	72.31
334.314	77.31
334.542	70.31
334.771	94.31
334.999	78.31
335.227	77.31
335.455	93.31
335.684	80.31
335.912	80.31
336.14	81.31
336.369	80.31
336.597	85.31
336.825	88.31
337.053	79.31
337.281	73.31
337.51	89.31
337.738	72.31
337.966	66.31
338.194	70.31
338.422	91.31
338.65	66.31
338.878	77.31
339.106	88.31
339.334	82.31
339.562	81.31
339.79	79.31
340.018	99.31
340.246	91.31
340.474	80.31
340.702	92.31
340.93	86.31
341.158	79.31
341.386	77.31
341.614	88.31
341.842	84.31
342.07	83.31
342.298	73.31
342.526	88.31
342.754	90.31
342.981	88.31
343.209	78.31
343.437	84.31
343.665	76.31
343.893	93.31
344.12	76.31
344.348	80.31
344.576	85.31
344.804	92.31
345.031	76.31
345.259	83.31
345.487	63.31
345.714	66.31
345.942	78.31
346.17	73.31
346.397	90.31
346.625	83.31
346.853	86.31
347.08	88.31
347.308	88.31
347.535	79.31
347.763	73.31
347.99	87.31
348.218	88.31
348.445	81.31
348.673	73.31
348.9	71.31
349.128	79.31
349.355	72.31
349.583	81.31
349.81	86.31
350.037	81.31
350.265	77.31
350.492	63.31
350.72	89.31
350.947	73.31
351.174	69.31
351.402	81.31
351.629	82.31
351.856	75.31
352.083	82.31
352.311	101.31
352.538	77.31
352.765	80.31
352.992	66.31
353.22	77.31
353.447	80.31
353.674	89.31
353.901	97.31
354.128	87.31
354.355	80.31
354.583	88.31
354.81	84.31
355.037	82.31
355.264	76.31
355.491	87.31
355.718	67.31
355.945	73.31
356.172	84.31
356.399	88.31
356.626	79.31
356.853	89.31
357.08	81.31
357.307	74.31
357.534	76.31
357.761	75.31
357.988	82.31
358.215	75.31
358.441	88.31
358.668	84.31
358.895	69.31
359.122	76.31
359.349	79.31
359.576	92.31
359.802	66.31
360.029	69.31
360.256	88.31
360.483	76.31
360.709	82.31
360.936	92.31
361.163	71.31
361.39	74.31
361.616	80.31
361.843	78.31
362.07	75.31
362.296	87.31
362.523	91.31
362.749	81.31
362.976	68.31
363.203	82.31
363.429	84.31
363.656	90.31
363.882	60.31
364.109	92.31
364.335	87.31
364.562	86.31
364.788	87.31
365.015	73.31
365.241	89.31
365.468	80.31
365.694	80.31
365.92	87.31
366.147	81.31
366.373	90.31
366.599	70.31
366.826	79.31
367.052	88.31
367.278	83.31
367.505	92.31
367.731	77.31
367.957	80.31
368.184	80.31
368.41	84.31
368.636	82.31
368.862	79.31
369.089	74.31
369.315	75.31
369.541	67.31
369.767	70.31
369.993	83.31
370.219	79.31
370.445	79.31
370.672	79.31
370.898	83.31
371.124	80.31
371.35	73.31
371.576	81.31
371.802	82.31
372.028	79.31
372.254	79.31
372.48	89.31
372.706	64.31
372.932	69.31
373.158	80.31
373.384	74.31
373.61	87.31
373.835	85.31
374.061	74.31
374.287	77.31
374.513	84.31
374.739	80.31
374.965	75.31
375.191	78.31
375.416	77.31
375.642	81.31
375.868	84.31
376.094	80.31
376.319	68.31
376.545	84.31
376.771	66.31
376.997	70.31
377.222	80.31
377.448	76.31
377.674	85.31
377.899	94.31
378.125	85.31
378.35	84.31
378.576	74.31
378.802	78.31
379.027	79.31
379.253	75.31
379.478	77.31
379.704	78.31
379.929	74.31
380.155	81.31
380.38	78.31
380.606	78.31
380.831	86.31
381.057	76.31
381.282	79.31
381.507	67.31
381.733	82.31
381.958	83.31
382.184	89.31
382.409	83.31
382.634	79.31
382.86	79.31
383.085	80.31
383.31	82.31
383.535	84.31
383.761	87.31
383.986	76.31
384.211	88.31
384.436	79.31
384.662	82.31
384.887	83.31
385.112	85.31
385.337	84.31
385.562	80.31
385.787	95.31
386.013	78.31
386.238	84.31
386.463	84.31
386.688	95.31
386.913	66.31
387.138	87.31
387.363	79.31
387.588	74.31
387.813	88.31
388.038	83.31
388.263	74.31
388.488	83.31
388.713	83.31
388.938	93.31
389.163	77.31
389.387	69.31
389.612	79.31
389.837	73.31
390.062	79.31
390.287	80.31
390.512	80.31
390.736	81.31
390.961	84.31
391.186	83.31
391.411	83.31
391.636	78.31
391.86	77.31
392.085	83.31
392.31	68.31
392.534	93.31
392.759	88.31
392.984	85.31
393.208	74.31
393.433	88.31
393.658	77.31
393.882	70.31
394.107	74.31
394.331	69.31
394.556	76.31
394.78	89.31
395.005	85.31
395.229	78.31
395.454	78.31
395.678	82.31
395.903	88.31
396.127	90.31
396.352	69.31
396.576	84.31
396.801	72.31
397.025	76.31
397.249	85.31
397.474	91.31
397.698	88.31
397.922	87.31
398.147	78.31
398.371	71.31
398.595	81.31
398.82	69.31
399.044	79.31
399.268	89.31
399.492	89.31
399.717	71.31
399.941	88.31
400.165	87.31
400.389	72.31
400.613	78.31
400.837	91.31
401.062	77.31
401.286	81.31
401.51	85.31
401.734	78.31
401.958	75.31
402.182	66.31
402.406	76.31
402.63	65.31
402.854	74.31
403.078	82.31
403.302	78.31
403.526	75.31
403.75	67.31
403.974	81.31
404.198	70.31
404.422	80.31
404.645	74.31
404.869	82.31
405.093	78.31
405.317	86.31
405.541	64.31
405.765	78.31
405.988	88.31
406.212	84.31
406.436	92.31
406.66	73.31
406.883	71.31
407.107	80.31
407.331	77.31
407.555	70.31
407.778	70.31
408.002	69.31
408.226	80.31
408.449	81.31
408.673	83.31
408.896	78.31
409.12	87.31
409.344	82.31
409.567	64.31
409.791	77.31
410.014	80.31
410.238	78.31
410.461	79.31
410.685	76.31
410.908	85.31
411.132	74.31
411.355	59.31
411.578	78.31
411.802	64.31
412.025	82.31
412.249	78.31
412.472	69.31
412.695	71.31
412.919	85.31
413.142	78.31
413.365	80.31
413.589	77.31
413.812	68.31
414.035	76.31
414.258	80.31
414.482	85.31
414.705	88.31
414.928	77.31
415.151	80.31
415.374	82.31
415.597	81.31
415.821	80.31
416.044	86.31
416.267	91.31
416.49	80.31
416.713	90.31
416.936	70.31
417.159	84.31
417.382	62.31
417.605	74.31
417.828	86.31
418.051	81.31
418.274	79.31
418.497	76.31
418.72	88.31
418.943	89.31
419.166	88.31
419.389	83.31
419.611	65.31
419.834	85.31
420.057	80.31
420.28	72.31
420.503	85.31
420.726	84.31
420.948	79.31
421.171	81.31
421.394	88.31
421.617	86.31
421.839	85.31
422.062	89.31
422.285	85.31
422.507	89.31
422.73	109.31
422.953	99.31
423.175	95.31
423.398	83.31
423.621	75.31
423.843	68.31
424.066	68.31
424.288	61.31
424.511	77.31
424.733	86.31
424.956	84.31
425.178	84.31
425.401	96.31
425.623	76.31
425.846	71.31
426.068	65.31
426.291	80.31
426.513	79.31
426.735	76.31
426.958	94.31
427.18	81.31
427.402	81.31
427.625	73.31
427.847	69.31
428.069	79.31
428.292	79.31
428.514	89.31
428.736	70.31
428.958	70.31
429.181	89.31
429.403	91.31
429.625	78.31
429.847	81.31
430.069	79.31
430.292	81.31
430.514	75.31
430.736	91.31
430.958	83.31
431.18	64.31
431.402	72.31
431.624	63.31
431.846	72.31
432.068	84.31
432.29	70.31
432.512	74.31
432.734	85.31
432.956	78.31
433.178	94.31
433.4	80.31
433.622	92.31
433.844	77.31
434.066	92.31
434.287	80.31
434.509	82.31
434.731	77.31
434.953	78.31
435.175	81.31
435.397	76.31
435.618	68.31
435.84	72.31
436.062	70.31
436.284	64.31
436.505	71.31
436.727	65.31
436.949	76.31
437.17	68.31
437.392	83.31
437.614	77.31
437.835	69.31
438.057	78.31
438.278	82.31
438.5	73.31
438.721	95.31
438.943	80.31
439.165	92.31
439.386	76.31
439.608	91.31
439.829	83.31
440.05	75.31
440.272	81.31
440.493	87.31
440.715	77.31
440.936	85.31
441.158	88.31
441.379	71.31
441.6	80.31
441.822	73.31
442.043	86.31
442.264	77.31
442.486	87.31
442.707	72.31
442.928	74.31
443.149	76.31
443.371	87.31
443.592	92.31
443.813	89.31
444.034	80.31
444.255	80.31
444.476	73.31
444.698	78.31
444.919	79.31
445.14	170.31
445.361	131.31
445.582	94.31
445.803	101.31
446.024	79.31
446.245	74.31
446.466	88.31
446.687	88.31
446.908	88.31
447.129	81.31
447.35	84.31
447.571	78.31
447.792	84.31
448.013	73.31
448.234	83.31
448.455	76.31
448.675	78.31
448.896	73.31
449.117	78.31
449.338	85.31
449.559	85.31
449.779	80.31
450	77.31
450.221	81.31
450.442	81.31
450.662	76.31
450.883	81.31
451.104	75.31
451.324	69.31
451.545	89.31
451.766	90.31
451.986	84.31
452.207	70.31
452.428	76.31
452.648	74.31
452.869	69.31
453.089	82.31
453.31	68.31
453.53	76.31
453.751	70.31
453.971	80.31
454.192	80.31
454.412	69.31
454.633	70.31
454.853	89.31
455.073	74.31
455.294	93.31
455.514	94.31
455.734	90.31
455.955	76.31
456.175	80.31
456.395	96.31
456.616	78.31
456.836	83.31
457.056	71.31
457.276	80.31
457.497	86.31
457.717	83.31
457.937	80.31
458.157	82.31
458.377	88.31
458.598	80.31
458.818	74.31
459.038	77.31
459.258	75.31
459.478	80.31
459.698	82.31
459.918	74.31
460.138	75.31
460.358	80.31
460.578	56.31
460.798	76.31
461.018	89.31
461.238	100.31
461.458	85.31
461.678	68.31
461.898	93.31
462.118	65.31
462.338	82.31
462.558	83.31
462.777	77.31
462.997	89.31
463.217	82.31
463.437	69.31
463.657	87.31
463.876	75.31
464.096	81.31
464.316	82.31
464.536	80.31
464.755	83.31
464.975	74.31
465.195	78.31
465.414	68.31
465.634	76.31
465.854	81.31
466.073	79.31
466.293	78.31
466.512	85.31
466.732	78.31
466.951	82.31
467.171	83.31
467.391	78.31
467.61	91.31
467.829	88.31
468.049	80.31
468.268	67.31
468.488	81.31
468.707	77.31
468.927	69.31
469.146	82.31
469.365	87.31
469.585	91.31
469.804	93.31
470.023	85.31
470.243	93.31
470.462	85.31
470.681	84.31
470.901	73.31
471.12	88.31
471.339	86.31
471.558	78.31
471.777	73.31
471.997	90.31
472.216	69.31
472.435	69.31
472.654	78.31
472.873	84.31
473.092	79.31
473.311	84.31
473.53	90.31
473.749	69.31
473.968	85.31
474.187	84.31
474.406	78.31
474.625	84.31
474.844	76.31
475.063	62.31
475.282	93.31
475.501	77.31
475.72	70.31
475.939	90.31
476.158	89.31
476.377	94.31
476.596	85.31
476.814	86.31
477.033	86.31
477.252	90.31
477.471	90.31
477.69	83.31
477.908	87.31
478.127	86.31
478.346	66.31
478.564	88.31
478.783	76.31
479.002	72.31
479.22	71.31
479.439	80.31
479.658	52.31
479.876	83.31
480.095	64.31
480.313	80.31
480.532	81.31
480.751	81.31
480.969	77.31
481.188	80.31
481.406	89.31
481.624	97.31
481.843	78.31
482.061	81.31
482.28	78.31
482.498	86.31
482.717	82.31
482.935	78.31
483.153	89.31
483.372	85.31
483.59	82.31
483.808	92.31
484.027	80.31
484.245	84.31
484.463	92.31
484.681	90.31
484.9	82.31
485.118	85.31
485.336	85.31
485.554	88.31
485.772	68.31
485.99	80.31
486.209	80.31
486.427	74.31
486.645	83.31
486.863	80.31
487.081	74.31
487.299	88.31
487.517	82.31
487.735	91.31
487.953	81.31
488.171	80.31
488.389	94.31
488.607	76.31
488.825	73.31
489.043	88.31
489.261	78.31
489.479	94.31
489.696	92.31
489.914	69.31
490.132	85.31
490.35	90.31
490.568	70.31
490.786	64.31
491.003	93.31
491.221	78.31
491.439	89.31
491.657	89.31
491.874	74.31
492.092	83.31
492.31	74.31
492.527	75.31
492.745	88.31
492.963	83.31
493.18	73.31
493.398	96.31
493.615	91.31
493.833	64.31
494.05	79.31
494.268	74.31
494.485	79.31
494.703	81.31
494.92	92.31
495.138	90.31
495.355	76.31
495.573	73.31
495.79	75.31
496.008	83.31
496.225	62.31
496.442	83.31
496.66	74.31
496.877	82.31
497.094	77.31
497.312	77.31
497.529	87.31
497.746	95.31
497.963	61.31
498.181	74.31
498.398	73.31
498.615	83.31
498.832	93.31
499.049	70.31
499.267	86.31
499.484	81.31
499.701	85.31
499.918	72.31
500.135	75.31
500.352	84.31
500.569	83.31
500.786	80.31
501.003	84.31
501.22	78.31
501.437	87.31
501.654	86.31
501.871	80.31
502.088	82.31
502.305	74.31
502.522	86.31
502.739	80.31
502.956	91.31
503.172	74.31
503.389	96.31
503.606	72.31
503.823	83.31
504.04	86.31
504.256	85.31
504.473	78.31
504.69	73.31
504.907	80.31
505.123	74.31
505.34	80.31
505.557	90.31
505.773	80.31
505.99	78.31
506.207	79.31
506.423	79.31
506.64	84.31
506.856	81.31
507.073	76.31
507.289	50.31
507.506	76.31
507.722	75.31
507.939	85.31
508.155	83.31
508.372	86.31
508.588	67.31
508.805	86.31
509.021	85.31
509.238	77.31
509.454	85.31
509.67	84.31
509.887	85.31
510.103	79.31
510.319	80.31
510.536	72.31
510.752	85.31
510.968	92.31
511.184	76.31
511.401	79.31
511.617	88.31
511.833	76.31
512.049	61.31
512.265	74.31
512.481	80.31
512.698	83.31
512.914	84.31
513.13	84.31
513.346	79.31
513.562	86.31
513.778	97.31
513.994	89.31
514.21	85.31
514.426	82.31
514.642	91.31
514.858	81.31
515.074	81.31
515.29	85.31
515.506	69.31
515.721	79.31
515.937	94.31
516.153	83.31
516.369	76.31
516.585	68.31
516.801	77.31
517.016	75.31
517.232	77.31
517.448	78.31
517.664	87.31
517.879	93.31
518.095	87.31
518.311	88.31
518.527	80.31
518.742	89.31
518.958	88.31
519.173	88.31
519.389	81.31
519.605	88.31
519.82	73.31
520.036	80.31
520.251	56.31
520.467	83.31
520.682	88.31
520.898	84.31
521.113	81.31
521.329	88.31
521.544	95.31
521.76	84.31
521.975	87.31
522.19	92.31
522.406	84.31
522.621	83.31
522.836	87.31
523.052	89.31
523.267	81.31
523.482	64.31
523.698	71.31
523.913	99.31
524.128	70.31
524.343	81.31
524.559	90.31
524.774	84.31
524.989	82.31
525.204	82.31
525.419	77.31
525.634	73.31
525.849	96.31
526.064	84.31
526.28	77.31
526.495	88.31
526.71	93.31
526.925	79.31
527.14	82.31
527.355	85.31
527.57	86.31
527.785	66.31
527.999	79.31
528.214	77.31
528.429	86.31
528.644	76.31
528.859	78.31
529.074	79.31
529.289	83.31
529.503	82.31
529.718	87.31
529.933	77.31
530.148	79.31
530.363	95.31
530.577	107.31
530.792	93.31
531.007	84.31
531.221	76.31
531.436	76.31
531.651	89.31
531.865	89.31
532.08	86.31
532.295	87.31
532.509	80.31
532.724	80.31
532.938	71.31
533.153	80.31
533.367	69.31
533.582	80.31
533.796	77.31
534.011	91.31
534.225	82.31
534.44	79.31
534.654	79.31
534.868	98.31
535.083	97.31
535.297	80.31
535.511	85.31
535.726	81.31
535.94	69.31
536.154	91.31
536.369	78.31
536.583	75.31
536.797	74.31
537.011	82.31
537.225	69.31
537.44	90.31
537.654	91.31
537.868	69.31
538.082	82.31
538.296	78.31
538.51	78.31
538.724	77.31
538.938	81.31
539.153	88.31
539.367	79.31
539.581	74.31
539.795	69.31
540.009	77.31
540.222	98.31
540.436	88.31
540.65	92.31
540.864	80.31
541.078	79.31
541.292	77.31
541.506	85.31
541.72	84.31
541.934	91.31
542.147	89.31
542.361	72.31
542.575	89.31
542.789	83.31
543.002	83.31
543.216	81.31
543.43	106.31
543.644	82.31
543.857	82.31
544.071	76.31
544.285	88.31
544.498	73.31
544.712	86.31
544.925	78.31
545.139	88.31
545.352	80.31
545.566	79.31
545.779	96.31
545.993	95.31
546.206	91.31
546.42	85.31
546.633	78.31
546.847	88.31
547.06	84.31
547.274	80.31
547.487	72.31
547.7	81.31
547.914	81.31
548.127	82.31
548.34	86.31
548.554	80.31
548.767	97.31
548.98	98.31
549.193	81.31
549.407	86.31
549.62	86.31
549.833	99.31
550.046	78.31
550.259	89.31
550.473	81.31
550.686	91.31
550.899	100.31
551.112	96.31
551.325	80.31
551.538	78.31
551.751	90.31
551.964	90.31
552.177	99.31
552.39	106.31
552.603	99.31
552.816	100.31
553.029	79.31
553.242	91.31
553.455	86.31
553.667	98.31
553.88	71.31
554.093	96.31
554.306	89.31
554.519	82.31
554.732	93.31
554.944	76.31
555.157	91.31
555.37	88.31
555.583	90.31
555.795	67.31
556.008	84.31
556.221	95.31
556.433	92.31
556.646	92.31
556.859	81.31
557.071	82.31
557.284	84.31
557.496	81.31
557.709	85.31
557.921	100.31
558.134	82.31
558.346	91.31
558.559	92.31
558.771	93.31
558.984	102.31
559.196	96.31
559.409	75.31
559.621	90.31
559.833	80.31
560.046	87.31
560.258	83.31
560.47	95.31
560.683	76.31
560.895	76.31
561.107	74.31
561.32	75.31
561.532	80.31
561.744	76.31
561.956	84.31
562.168	81.31
562.381	92.31
562.593	94.31
562.805	89.31
563.017	90.31
563.229	71.31
563.441	89.31
563.653	92.31
563.865	92.31
564.077	81.31
564.289	88.31
564.501	78.31
564.713	67.31
564.925	74.31
565.137	91.31
565.349	80.31
565.561	66.31
565.773	85.31
565.985	80.31
566.197	74.31
566.408	80.31
566.62	80.31
566.832	98.31
567.044	86.31
567.255	88.31
567.467	83.31
567.679	84.31
567.891	81.31
568.102	61.31
568.314	92.31
568.526	85.31
568.737	84.31
568.949	83.31
569.161	79.31
569.372	76.31
569.584	86.31
569.795	83.31
570.007	92.31
570.218	83.31
570.43	90.31
570.641	96.31
570.853	87.31
571.064	88.31
571.276	88.31
571.487	91.31
571.698	85.31
571.91	90.31
572.121	79.31
572.333	78.31
572.544	92.31
572.755	78.31
572.966	70.31
573.178	74.31
573.389	78.31
573.6	79.31
573.811	73.31
574.023	76.31
574.234	72.31
574.445	78.31
574.656	91.31
574.867	87.31
575.078	83.31
575.289	92.31
575.501	80.31
575.712	83.31
575.923	74.31
576.134	80.31
576.345	75.31
576.556	86.31
576.767	84.31
576.978	76.31
577.188	83.31
577.399	75.31
577.61	81.31
577.821	78.31
578.032	81.31
578.243	64.31
578.454	91.31
578.665	84.31
578.875	75.31
579.086	87.31
579.297	97.31
579.508	74.31
579.718	73.31
579.929	80.31
580.14	82.31
580.35	69.31
580.561	80.31
580.772	87.31
580.982	64.31
581.193	83.31
581.403	80.31
581.614	73.31
581.825	83.31
582.035	89.31
582.246	69.31
582.456	90.31
582.667	93.31
582.877	82.31
583.087	83.31
583.298	91.31
583.508	84.31
583.719	94.31
583.929	90.31
584.139	81.31
584.35	81.31
584.56	70.31
584.77	80.31
584.981	93.31
585.191	74.31
585.401	70.31
585.611	81.31
585.821	71.31
586.032	85.31
586.242	98.31
586.452	90.31
586.662	93.31
586.872	69.31
587.082	83.31
587.292	84.31
587.502	80.31
587.713	92.31
587.923	85.31
588.133	83.31
588.343	86.31
588.553	79.31
588.762	76.31
588.972	101.31
589.182	136.31
589.392	104.31
589.602	97.31
589.812	124.31
590.022	92.31
590.232	86.31
590.441	89.31
590.651	91.31
590.861	82.31
591.071	76.31
591.281	80.31
591.49	86.31
591.7	84.31
591.91	92.31
592.119	83.31
592.329	72.31
592.539	86.31
592.748	83.31
592.958	89.31
593.167	76.31
593.377	74.31
593.587	89.31
593.796	94.31
594.006	84.31
594.215	70.31
594.424	82.31
594.634	58.31
594.843	88.31
595.053	90.31
595.262	75.31
595.472	90.31
595.681	90.31
595.89	86.31
596.1	97.31
596.309	85.31
596.518	64.31
596.727	66.31
596.937	94.31
597.146	90.31
597.355	97.31
597.564	89.31
597.774	85.31
597.983	89.31
598.192	92.31
598.401	82.31
598.61	93.31
598.819	80.31
599.028	80.31
599.237	98.31
599.446	85.31
599.655	94.31
599.864	82.31
600.073	85.31
600.282	75.31
600.491	81.31
600.7	71.31
600.909	80.31
601.118	75.31
601.327	86.31
601.536	82.31
601.745	79.31
601.953	87.31
602.162	73.31
602.371	97.31
602.58	83.31
602.789	72.31
602.997	86.31
603.206	95.31
603.415	85.31
603.623	73.31
603.832	94.31
604.041	77.31
604.249	85.31
604.458	93.31
604.666	83.31
604.875	85.31
605.084	86.31
605.292	93.31
605.501	82.31
605.709	91.31
605.918	80.31
606.126	92.31
606.334	83.31
606.543	100.31
606.751	89.31
606.96	84.31
607.168	72.31
607.376	81.31
607.585	83.31
607.793	89.31
608.001	66.31
608.21	90.31
608.418	80.31
608.626	84.31
608.834	105.31
609.043	84.31
609.251	76.31
609.459	96.31
609.667	85.31
609.875	81.31
610.083	82.31
610.291	81.31
610.499	100.31
610.707	78.31
610.916	84.31
611.124	77.31
611.332	93.31
611.54	85.31
611.748	98.31
611.955	78.31
612.163	80.31
612.371	99.31
612.579	99.31
612.787	98.31
612.995	101.31
613.203	91.31
613.411	69.31
613.618	68.31
613.826	89.31
614.034	91.31
614.242	86.31
614.449	82.31
614.657	97.31
614.865	80.31
615.072	97.31
615.28	108.31
615.488	78.31
615.695	88.31
615.903	95.31
616.111	98.31
616.318	96.31
616.526	100.31
616.733	91.31
616.941	85.31
617.148	90.31
617.356	90.31
617.563	94.31
617.771	91.31
617.978	78.31
618.185	92.31
618.393	91.31
618.6	95.31
618.807	89.31
619.015	94.31
619.222	79.31
619.429	108.31
619.637	82.31
619.844	83.31
620.051	77.31
620.258	81.31
620.466	88.31
620.673	82.31
620.88	76.31
621.087	91.31
621.294	76.31
621.501	88.31
621.708	83.31
621.915	82.31
622.122	90.31
622.329	97.31
622.536	85.31
622.743	85.31
622.95	83.31
623.157	73.31
623.364	96.31
623.571	80.31
623.778	88.31
623.985	96.31
624.192	83.31
624.399	91.31
624.606	94.31
624.812	84.31
625.019	79.31
625.226	84.31
625.433	81.31
625.639	92.31
625.846	92.31
626.053	96.31
626.259	84.31
626.466	80.31
626.673	83.31
626.879	82.31
627.086	81.31
627.293	83.31
627.499	91.31
627.706	74.31
627.912	60.31
628.119	87.31
628.325	96.31
628.532	76.31
628.738	79.31
628.945	75.31
629.151	74.31
629.357	81.31
629.564	87.31
629.77	85.31
629.976	70.31
630.183	75.31
630.389	93.31
630.595	88.31
630.802	78.31
631.008	83.31
631.214	82.31
631.42	82.31
631.627	97.31
631.833	75.31
632.039	76.31
632.245	82.31
632.451	80.31
632.657	81.31
632.863	68.31
633.069	70.31
633.275	79.31
633.481	80.31
633.688	77.31
633.893	92.31
634.099	86.31
634.305	82.31
634.511	83.31
634.717	78.31
634.923	77.31
635.129	81.31
635.335	64.31
635.541	86.31
635.747	73.31
635.952	75.31
636.158	73.31
636.364	87.31
636.57	80.31
636.775	91.31
636.981	81.31
637.187	91.31
637.392	84.31
637.598	88.31
637.804	83.31
638.009	82.31
638.215	90.31
638.421	79.31
638.626	84.31
638.832	69.31
639.037	90.31
639.243	85.31
639.448	69.31
639.654	96.31
639.859	92.31
640.065	88.31
640.27	82.31
640.475	86.31
640.681	84.31
640.886	92.31
641.091	77.31
641.297	93.31
641.502	94.31
641.707	85.31
641.913	92.31
642.118	68.31
642.323	84.31
642.528	89.31
642.733	79.31
642.939	77.31
643.144	90.31
643.349	89.31
643.554	69.31
643.759	86.31
643.964	78.31
644.169	74.31
644.374	91.31
644.579	75.31
644.784	75.31
644.989	82.31
645.194	97.31
645.399	84.31
645.604	80.31
645.809	80.31
646.014	84.31
646.219	72.31
646.423	92.31
646.628	75.31
646.833	83.31
647.038	92.31
647.243	93.31
647.447	73.31
647.652	74.31
647.857	77.31
648.062	82.31
648.266	86.31
648.471	78.31
648.676	80.31
648.88	89.31
649.085	93.31
649.289	96.31
649.494	78.31
649.698	70.31
649.903	71.31
650.107	83.31
650.312	85.31
650.516	84.31
650.721	84.31
650.925	86.31
651.13	69.31
651.334	68.31
651.539	85.31
651.743	83.31
651.947	87.31
652.152	86.31
652.356	80.31
652.56	81.31
652.764	82.31
652.969	76.31
653.173	83.31
653.377	78.31
653.581	84.31
653.785	75.31
653.99	71.31
654.194	79.31
654.398	83.31
654.602	66.31
654.806	73.31
655.01	92.31
655.214	59.31
655.418	86.31
655.622	71.31
655.826	85.31
656.03	82.31
656.234	96.31
656.438	76.31
656.642	86.31
656.846	83.31
657.049	78.31
657.253	79.31
657.457	83.31
657.661	73.31
657.865	93.31
658.068	70.31
658.272	74.31
658.476	90.31
658.68	70.31
658.883	68.31
659.087	80.31
659.291	74.31
659.494	85.31
659.698	89.31
659.901	96.31
660.105	85.31
660.309	84.31
660.512	73.31
660.716	90.31
660.919	70.31
661.123	89.31
661.326	70.31
661.53	74.31
661.733	89.31
661.936	89.31
662.14	62.31
662.343	80.31
662.546	93.31
662.75	79.31
662.953	89.31
663.156	89.31
663.36	81.31
663.563	96.31
663.766	62.31
663.969	83.31
664.173	80.31
664.376	77.31
664.579	67.31
664.782	80.31
664.985	76.31
665.188	79.31
665.391	82.31
665.594	71.31
665.797	81.31
666	94.31
666.203	84.31
666.406	93.31
666.609	85.31
666.812	89.31
667.015	93.31
667.218	89.31
667.421	76.31
667.624	86.31
667.827	80.31
668.03	97.31
668.232	86.31
668.435	70.31
668.638	74.31
668.841	79.31
669.043	88.31
669.246	86.31
669.449	88.31
669.651	82.31
669.854	74.31
670.057	81.31
670.259	68.31
670.462	78.31
670.665	85.31
670.867	68.31
671.07	86.31
671.272	73.31
671.475	80.31
671.677	84.31
671.88	67.31
672.082	76.31
672.284	90.31
672.487	84.31
672.689	82.31
672.892	86.31
