Data from 1600_1_HRD10591_00043.txt Node
Date: Mon Jan 19 13:48:02 EST 2026
User: Yrep
Spectrometer: HR+D1059
Trigger mode: 1
Integration Time (sec): 1.000000E-1
Scans to average: 1
Electric dark correction enabled: true
Nonlinearity correction enabled: false
Boxcar width: 0
XAxis mode: Wavelengths
Number of Pixels in Spectrum: 2048
>>>>>Begin Spectral Data<<<<<
223.165	-20.94
223.4	-20.94
223.635	-20.94
223.869	-27.94
224.104	-16.94
224.338	2.06
224.573	-31.94
224.808	-14.94
225.042	-13.94
225.277	-16.94
225.511	3.06
225.746	4.06
225.98	12.06
226.215	28.06
226.449	-4.94
226.683	19.06
226.918	40.06
227.152	40.06
227.387	35.06
227.621	38.06
227.856	54.06
228.09	44.06
228.324	35.06
228.559	54.06
228.793	61.06
229.027	66.06
229.262	66.06
229.496	79.06
229.73	61.06
229.964	77.06
230.199	70.06
230.433	81.06
230.667	85.06
230.901	78.06
231.136	87.06
231.37	80.06
231.604	86.06
231.838	73.06
232.072	87.06
232.306	71.06
232.541	91.06
232.775	94.06
233.009	88.06
233.243	80.06
233.477	74.06
233.711	85.06
233.945	66.06
234.179	69.06
234.413	91.06
234.647	85.06
234.881	81.06
235.115	80.06
235.349	79.06
235.583	79.06
235.817	71.06
236.051	78.06
236.285	83.06
236.519	63.06
236.753	73.06
236.987	80.06
237.221	74.06
237.455	88.06
237.689	79.06
237.922	79.06
238.156	69.06
238.39	72.06
238.624	90.06
238.858	76.06
239.091	83.06
239.325	72.06
239.559	83.06
239.793	67.06
240.027	89.06
240.26	77.06
240.494	65.06
240.728	70.06
240.961	93.06
241.195	95.06
241.429	73.06
241.662	63.06
241.896	64.06
242.13	79.06
242.363	69.06
242.597	81.06
242.83	68.06
243.064	75.06
243.298	60.06
243.531	54.06
243.765	65.06
243.998	71.06
244.232	73.06
244.465	87.06
244.699	76.06
244.932	63.06
245.166	76.06
245.399	72.06
245.633	77.06
245.866	80.06
246.099	85.06
246.333	70.06
246.566	87.06
246.8	79.06
247.033	67.06
247.266	82.06
247.5	85.06
247.733	73.06
247.966	73.06
248.2	78.06
248.433	95.06
248.666	92.06
248.899	71.06
249.133	68.06
249.366	81.06
249.599	77.06
249.832	72.06
250.066	79.06
250.299	97.06
250.532	77.06
250.765	65.06
250.998	70.06
251.231	78.06
251.465	80.06
251.698	78.06
251.931	63.06
252.164	73.06
252.397	74.06
252.63	87.06
252.863	73.06
253.096	77.06
253.329	71.06
253.562	83.06
253.795	88.06
254.028	85.06
254.261	76.06
254.494	73.06
254.727	81.06
254.96	89.06
255.193	73.06
255.426	69.06
255.659	80.06
255.892	73.06
256.124	80.06
256.357	85.06
256.59	76.06
256.823	91.06
257.056	69.06
257.289	77.06
257.521	76.06
257.754	73.06
257.987	68.06
258.22	85.06
258.452	83.06
258.685	97.06
258.918	88.06
259.151	92.06
259.383	80.06
259.616	70.06
259.849	87.06
260.081	72.06
260.314	64.06
260.547	73.06
260.779	82.06
261.012	69.06
261.244	71.06
261.477	67.06
261.71	76.06
261.942	81.06
262.175	90.06
262.407	87.06
262.64	91.06
262.872	88.06
263.105	79.06
263.337	85.06
263.57	85.06
263.802	95.06
264.035	80.06
264.267	82.06
264.499	79.06
264.732	96.06
264.964	83.06
265.197	97.06
265.429	75.06
265.661	81.06
265.894	72.06
266.126	90.06
266.358	87.06
266.591	79.06
266.823	84.06
267.055	77.06
267.287	86.06
267.52	73.06
267.752	73.06
267.984	94.06
268.216	81.06
268.448	91.06
268.681	91.06
268.913	81.06
269.145	69.06
269.377	84.06
269.609	81.06
269.841	79.06
270.073	90.06
270.306	75.06
270.538	80.06
270.77	75.06
271.002	74.06
271.234	83.06
271.466	78.06
271.698	77.06
271.93	97.06
272.162	76.06
272.394	82.06
272.626	82.06
272.858	87.06
273.09	74.06
273.322	84.06
273.553	79.06
273.785	97.06
274.017	78.06
274.249	94.06
274.481	73.06
274.713	77.06
274.945	72.06
275.176	73.06
275.408	82.06
275.64	86.06
275.872	81.06
276.104	91.06
276.335	90.06
276.567	81.06
276.799	76.06
277.031	75.06
277.262	82.06
277.494	88.06
277.726	85.06
277.957	81.06
278.189	73.06
278.421	87.06
278.652	80.06
278.884	95.06
279.115	80.06
279.347	88.06
279.579	73.06
279.81	86.06
280.042	86.06
280.273	74.06
280.505	87.06
280.736	90.06
280.968	72.06
281.199	83.06
281.431	91.06
281.662	74.06
281.894	82.06
282.125	78.06
282.356	75.06
282.588	83.06
282.819	76.06
283.051	85.06
283.282	96.06
283.513	86.06
283.745	87.06
283.976	89.06
284.207	89.06
284.439	92.06
284.67	88.06
284.901	77.06
285.132	98.06
285.364	97.06
285.595	88.06
285.826	86.06
286.057	75.06
286.288	72.06
286.52	85.06
286.751	80.06
286.982	85.06
287.213	93.06
287.444	78.06
287.675	70.06
287.906	83.06
288.138	83.06
288.369	77.06
288.6	88.06
288.831	92.06
289.062	83.06
289.293	75.06
289.524	86.06
289.755	102.06
289.986	86.06
290.217	89.06
290.448	79.06
290.679	69.06
290.91	90.06
291.141	93.06
291.371	82.06
291.602	87.06
291.833	81.06
292.064	63.06
292.295	80.06
292.526	84.06
292.757	71.06
292.987	87.06
293.218	83.06
293.449	82.06
293.68	86.06
293.91	76.06
294.141	101.06
294.372	71.06
294.603	90.06
294.833	107.06
295.064	95.06
295.295	91.06
295.525	76.06
295.756	92.06
295.987	95.06
296.217	79.06
296.448	82.06
296.679	85.06
296.909	88.06
297.14	101.06
297.37	74.06
297.601	79.06
297.831	81.06
298.062	80.06
298.292	84.06
298.523	99.06
298.753	93.06
298.984	84.06
299.214	95.06
299.445	91.06
299.675	86.06
299.905	85.06
300.136	89.06
300.366	80.06
300.597	74.06
300.827	87.06
301.057	69.06
301.288	81.06
301.518	73.06
301.748	79.06
301.979	89.06
302.209	70.06
302.439	89.06
302.669	92.06
302.9	93.06
303.13	85.06
303.36	90.06
303.59	78.06
303.82	87.06
304.051	102.06
304.281	84.06
304.511	80.06
304.741	97.06
304.971	64.06
305.201	79.06
305.431	79.06
305.661	107.06
305.891	96.06
306.121	82.06
306.352	90.06
306.582	84.06
306.812	81.06
307.042	76.06
307.272	71.06
307.502	101.06
307.731	85.06
307.961	77.06
308.191	85.06
308.421	88.06
308.651	78.06
308.881	92.06
309.111	89.06
309.341	96.06
309.571	79.06
309.8	79.06
310.03	79.06
310.26	81.06
310.49	76.06
310.72	86.06
310.949	94.06
311.179	81.06
311.409	77.06
311.639	87.06
311.868	95.06
312.098	89.06
312.328	98.06
312.557	84.06
312.787	77.06
313.017	81.06
313.246	85.06
313.476	80.06
313.706	82.06
313.935	90.06
314.165	75.06
314.394	84.06
314.624	88.06
314.853	92.06
315.083	94.06
315.312	81.06
315.542	91.06
315.771	79.06
316.001	79.06
316.23	72.06
316.46	86.06
316.689	85.06
316.919	85.06
317.148	85.06
317.377	89.06
317.607	91.06
317.836	87.06
318.065	85.06
318.295	81.06
318.524	81.06
318.753	88.06
318.983	83.06
319.212	69.06
319.441	75.06
319.67	94.06
319.9	91.06
320.129	81.06
320.358	96.06
320.587	79.06
320.816	86.06
321.046	88.06
321.275	83.06
321.504	92.06
321.733	75.06
321.962	99.06
322.191	79.06
322.42	84.06
322.649	90.06
322.878	95.06
323.108	86.06
323.337	88.06
323.566	78.06
323.795	90.06
324.024	94.06
324.253	94.06
324.482	78.06
324.71	85.06
324.939	97.06
325.168	89.06
325.397	79.06
325.626	87.06
325.855	79.06
326.084	79.06
326.313	99.06
326.542	88.06
326.77	92.06
326.999	92.06
327.228	76.06
327.457	81.06
327.686	85.06
327.914	81.06
328.143	98.06
328.372	110.06
328.6	92.06
328.829	101.06
329.058	95.06
329.287	99.06
329.515	90.06
329.744	87.06
329.972	100.06
330.201	87.06
330.43	80.06
330.658	91.06
330.887	80.06
331.115	82.06
331.344	77.06
331.572	74.06
331.801	77.06
332.03	84.06
332.258	81.06
332.486	71.06
332.715	85.06
332.943	107.06
333.172	73.06
333.4	86.06
333.629	83.06
333.857	78.06
334.085	79.06
334.314	90.06
334.542	86.06
334.771	83.06
334.999	77.06
335.227	75.06
335.455	89.06
335.684	93.06
335.912	81.06
336.14	81.06
336.369	87.06
336.597	83.06
336.825	79.06
337.053	93.06
337.281	76.06
337.51	82.06
337.738	72.06
337.966	83.06
338.194	86.06
338.422	87.06
338.65	68.06
338.878	81.06
339.106	87.06
339.334	94.06
339.562	80.06
339.79	84.06
340.018	63.06
340.246	77.06
340.474	78.06
340.702	92.06
340.93	95.06
341.158	89.06
341.386	72.06
341.614	73.06
341.842	96.06
342.07	82.06
342.298	76.06
342.526	84.06
342.754	72.06
342.981	82.06
343.209	88.06
343.437	107.06
343.665	87.06
343.893	94.06
344.12	94.06
344.348	88.06
344.576	79.06
344.804	94.06
345.031	84.06
345.259	75.06
345.487	81.06
345.714	84.06
345.942	79.06
346.17	98.06
346.397	84.06
346.625	86.06
346.853	84.06
347.08	89.06
347.308	89.06
347.535	75.06
347.763	74.06
347.99	88.06
348.218	93.06
348.445	90.06
348.673	85.06
348.9	77.06
349.128	84.06
349.355	92.06
349.583	80.06
349.81	104.06
350.037	66.06
350.265	85.06
350.492	81.06
350.72	82.06
350.947	80.06
351.174	88.06
351.402	83.06
351.629	87.06
351.856	91.06
352.083	78.06
352.311	104.06
352.538	80.06
352.765	78.06
352.992	91.06
353.22	102.06
353.447	85.06
353.674	83.06
353.901	85.06
354.128	97.06
354.355	96.06
354.583	87.06
354.81	90.06
355.037	83.06
355.264	81.06
355.491	103.06
355.718	71.06
355.945	82.06
356.172	88.06
356.399	80.06
356.626	89.06
356.853	95.06
357.08	89.06
357.307	80.06
357.534	98.06
357.761	78.06
357.988	77.06
358.215	81.06
358.441	79.06
358.668	93.06
358.895	94.06
359.122	98.06
359.349	73.06
359.576	94.06
359.802	96.06
360.029	96.06
360.256	79.06
360.483	93.06
360.709	76.06
360.936	88.06
361.163	94.06
361.39	89.06
361.616	98.06
361.843	71.06
362.07	80.06
362.296	91.06
362.523	85.06
362.749	73.06
362.976	84.06
363.203	91.06
363.429	81.06
363.656	67.06
363.882	85.06
364.109	84.06
364.335	99.06
364.562	86.06
364.788	80.06
365.015	91.06
365.241	73.06
365.468	70.06
365.694	81.06
365.92	83.06
366.147	87.06
366.373	79.06
366.599	75.06
366.826	76.06
367.052	81.06
367.278	71.06
367.505	80.06
367.731	88.06
367.957	83.06
368.184	88.06
368.41	63.06
368.636	81.06
368.862	77.06
369.089	87.06
369.315	74.06
369.541	91.06
369.767	76.06
369.993	82.06
370.219	87.06
370.445	85.06
370.672	91.06
370.898	91.06
371.124	78.06
371.35	89.06
371.576	80.06
371.802	77.06
372.028	84.06
372.254	80.06
372.48	80.06
372.706	80.06
372.932	68.06
373.158	85.06
373.384	91.06
373.61	81.06
373.835	96.06
374.061	69.06
374.287	73.06
374.513	101.06
374.739	86.06
374.965	79.06
375.191	92.06
375.416	77.06
375.642	87.06
375.868	87.06
376.094	91.06
376.319	91.06
376.545	77.06
376.771	82.06
376.997	72.06
377.222	82.06
377.448	98.06
377.674	86.06
377.899	97.06
378.125	102.06
378.35	79.06
378.576	84.06
378.802	77.06
379.027	88.06
379.253	85.06
379.478	80.06
379.704	97.06
379.929	82.06
380.155	95.06
380.38	76.06
380.606	85.06
380.831	91.06
381.057	93.06
381.282	87.06
381.507	72.06
381.733	91.06
381.958	95.06
382.184	94.06
382.409	91.06
382.634	96.06
382.86	75.06
383.085	79.06
383.31	81.06
383.535	79.06
383.761	101.06
383.986	72.06
384.211	89.06
384.436	88.06
384.662	84.06
384.887	88.06
385.112	96.06
385.337	81.06
385.562	83.06
385.787	75.06
386.013	72.06
386.238	76.06
386.463	94.06
386.688	93.06
386.913	80.06
387.138	88.06
387.363	81.06
387.588	83.06
387.813	69.06
388.038	69.06
388.263	72.06
388.488	86.06
388.713	79.06
388.938	87.06
389.163	80.06
389.387	87.06
389.612	88.06
389.837	76.06
390.062	86.06
390.287	88.06
390.512	86.06
390.736	76.06
390.961	83.06
391.186	81.06
391.411	84.06
391.636	72.06
391.86	92.06
392.085	81.06
392.31	95.06
392.534	83.06
392.759	84.06
392.984	104.06
393.208	84.06
393.433	84.06
393.658	87.06
393.882	73.06
394.107	92.06
394.331	107.06
394.556	100.06
394.78	88.06
395.005	74.06
395.229	84.06
395.454	87.06
395.678	88.06
395.903	96.06
396.127	89.06
396.352	95.06
396.576	77.06
396.801	89.06
397.025	97.06
397.249	105.06
397.474	91.06
397.698	77.06
397.922	81.06
398.147	85.06
398.371	84.06
398.595	81.06
398.82	77.06
399.044	84.06
399.268	83.06
399.492	67.06
399.717	91.06
399.941	72.06
400.165	91.06
400.389	81.06
400.613	87.06
400.837	83.06
401.062	92.06
401.286	74.06
401.51	82.06
401.734	75.06
401.958	75.06
402.182	71.06
402.406	84.06
402.63	82.06
402.854	87.06
403.078	84.06
403.302	63.06
403.526	77.06
403.75	79.06
403.974	89.06
404.198	77.06
404.422	87.06
404.645	103.06
404.869	89.06
405.093	81.06
405.317	81.06
405.541	84.06
405.765	71.06
405.988	81.06
406.212	86.06
406.436	89.06
406.66	81.06
406.883	85.06
407.107	86.06
407.331	71.06
407.555	80.06
407.778	73.06
408.002	91.06
408.226	79.06
408.449	77.06
408.673	76.06
408.896	82.06
409.12	81.06
409.344	77.06
409.567	73.06
409.791	70.06
410.014	88.06
410.238	78.06
410.461	89.06
410.685	77.06
410.908	84.06
411.132	87.06
411.355	85.06
411.578	98.06
411.802	81.06
412.025	80.06
412.249	76.06
412.472	88.06
412.695	92.06
412.919	82.06
413.142	79.06
413.365	81.06
413.589	80.06
413.812	85.06
414.035	91.06
414.258	88.06
414.482	75.06
414.705	86.06
414.928	78.06
415.151	84.06
415.374	84.06
415.597	73.06
415.821	84.06
416.044	90.06
416.267	89.06
416.49	82.06
416.713	83.06
416.936	77.06
417.159	82.06
417.382	73.06
417.605	89.06
417.828	99.06
418.051	70.06
418.274	77.06
418.497	84.06
418.72	79.06
418.943	91.06
419.166	84.06
419.389	70.06
419.611	81.06
419.834	76.06
420.057	80.06
420.28	86.06
420.503	83.06
420.726	83.06
420.948	79.06
421.171	75.06
421.394	72.06
421.617	85.06
421.839	80.06
422.062	77.06
422.285	91.06
422.507	93.06
422.73	92.06
422.953	94.06
423.175	85.06
423.398	86.06
423.621	92.06
423.843	69.06
424.066	74.06
424.288	83.06
424.511	81.06
424.733	83.06
424.956	70.06
425.178	67.06
425.401	85.06
425.623	76.06
425.846	79.06
426.068	62.06
426.291	102.06
426.513	69.06
426.735	81.06
426.958	90.06
427.18	91.06
427.402	86.06
427.625	83.06
427.847	70.06
428.069	79.06
428.292	77.06
428.514	87.06
428.736	94.06
428.958	75.06
429.181	68.06
429.403	93.06
429.625	83.06
429.847	85.06
430.069	63.06
430.292	73.06
430.514	72.06
430.736	78.06
430.958	89.06
431.18	92.06
431.402	79.06
431.624	85.06
431.846	79.06
432.068	81.06
432.29	70.06
432.512	77.06
432.734	97.06
432.956	88.06
433.178	95.06
433.4	83.06
433.622	87.06
433.844	90.06
434.066	78.06
434.287	82.06
434.509	74.06
434.731	91.06
434.953	74.06
435.175	99.06
435.397	81.06
435.618	98.06
435.84	95.06
436.062	78.06
436.284	77.06
436.505	79.06
436.727	78.06
436.949	82.06
437.17	80.06
437.392	82.06
437.614	84.06
437.835	81.06
438.057	87.06
438.278	98.06
438.5	80.06
438.721	91.06
438.943	89.06
439.165	79.06
439.386	91.06
439.608	78.06
439.829	75.06
440.05	73.06
440.272	82.06
440.493	85.06
440.715	85.06
440.936	100.06
441.158	91.06
441.379	88.06
441.6	91.06
441.822	77.06
442.043	74.06
442.264	87.06
442.486	96.06
442.707	99.06
442.928	95.06
443.149	92.06
443.371	65.06
443.592	94.06
443.813	85.06
444.034	80.06
444.255	87.06
444.476	83.06
444.698	86.06
444.919	75.06
445.14	165.06
445.361	112.06
445.582	89.06
445.803	86.06
446.024	87.06
446.245	80.06
446.466	81.06
446.687	77.06
446.908	69.06
447.129	87.06
447.35	80.06
447.571	94.06
447.792	80.06
448.013	81.06
448.234	85.06
448.455	80.06
448.675	81.06
448.896	77.06
449.117	79.06
449.338	85.06
449.559	77.06
449.779	71.06
450	91.06
450.221	70.06
450.442	87.06
450.662	88.06
450.883	78.06
451.104	65.06
451.324	87.06
451.545	83.06
451.766	91.06
451.986	86.06
452.207	93.06
452.428	68.06
452.648	83.06
452.869	86.06
453.089	80.06
453.31	90.06
453.53	93.06
453.751	91.06
453.971	97.06
454.192	85.06
454.412	76.06
454.633	89.06
454.853	79.06
455.073	72.06
455.294	85.06
455.514	89.06
455.734	78.06
455.955	81.06
456.175	77.06
456.395	80.06
456.616	92.06
456.836	102.06
457.056	89.06
457.276	83.06
457.497	81.06
457.717	89.06
457.937	82.06
458.157	92.06
458.377	79.06
458.598	77.06
458.818	87.06
459.038	79.06
459.258	85.06
459.478	86.06
459.698	85.06
459.918	95.06
460.138	83.06
460.358	82.06
460.578	69.06
460.798	84.06
461.018	80.06
461.238	82.06
461.458	95.06
461.678	77.06
461.898	75.06
462.118	71.06
462.338	74.06
462.558	90.06
462.777	91.06
462.997	85.06
463.217	68.06
463.437	81.06
463.657	90.06
463.876	81.06
464.096	85.06
464.316	73.06
464.536	88.06
464.755	86.06
464.975	88.06
465.195	86.06
465.414	83.06
465.634	81.06
465.854	65.06
466.073	80.06
466.293	79.06
466.512	92.06
466.732	73.06
466.951	83.06
467.171	87.06
467.391	85.06
467.61	88.06
467.829	75.06
468.049	79.06
468.268	80.06
468.488	81.06
468.707	80.06
468.927	69.06
469.146	79.06
469.365	79.06
469.585	83.06
469.804	74.06
470.023	75.06
470.243	76.06
470.462	85.06
470.681	77.06
470.901	76.06
471.12	81.06
471.339	80.06
471.558	81.06
471.777	74.06
471.997	84.06
472.216	71.06
472.435	85.06
472.654	88.06
472.873	85.06
473.092	88.06
473.311	82.06
473.53	70.06
473.749	95.06
473.968	75.06
474.187	84.06
474.406	93.06
474.625	81.06
474.844	97.06
475.063	70.06
475.282	74.06
475.501	72.06
475.72	85.06
475.939	88.06
476.158	84.06
476.377	100.06
476.596	61.06
476.814	79.06
477.033	72.06
477.252	86.06
477.471	89.06
477.69	87.06
477.908	77.06
478.127	79.06
478.346	79.06
478.564	87.06
478.783	79.06
479.002	84.06
479.22	70.06
479.439	81.06
479.658	74.06
479.876	90.06
480.095	79.06
480.313	98.06
480.532	79.06
480.751	86.06
480.969	88.06
481.188	85.06
481.406	89.06
481.624	87.06
481.843	85.06
482.061	94.06
482.28	85.06
482.498	73.06
482.717	79.06
482.935	91.06
483.153	92.06
483.372	84.06
483.59	92.06
483.808	84.06
484.027	62.06
484.245	77.06
484.463	80.06
484.681	79.06
484.9	89.06
485.118	80.06
485.336	88.06
485.554	92.06
485.772	86.06
485.99	69.06
486.209	78.06
486.427	79.06
486.645	84.06
486.863	91.06
487.081	78.06
487.299	92.06
487.517	83.06
487.735	79.06
487.953	88.06
488.171	79.06
488.389	81.06
488.607	87.06
488.825	91.06
489.043	83.06
489.261	79.06
489.479	80.06
489.696	87.06
489.914	66.06
490.132	71.06
490.35	82.06
490.568	94.06
490.786	84.06
491.003	77.06
491.221	87.06
491.439	85.06
491.657	80.06
491.874	94.06
492.092	87.06
492.31	75.06
492.527	72.06
492.745	78.06
492.963	72.06
493.18	94.06
493.398	88.06
493.615	93.06
493.833	89.06
494.05	79.06
494.268	92.06
494.485	85.06
494.703	80.06
494.92	83.06
495.138	97.06
495.355	72.06
495.573	89.06
495.79	82.06
496.008	83.06
496.225	90.06
496.442	77.06
496.66	88.06
496.877	81.06
497.094	96.06
497.312	89.06
497.529	95.06
497.746	79.06
497.963	87.06
498.181	74.06
498.398	79.06
498.615	93.06
498.832	87.06
499.049	85.06
499.267	83.06
499.484	81.06
499.701	79.06
499.918	79.06
500.135	79.06
500.352	75.06
500.569	81.06
500.786	86.06
501.003	84.06
501.22	78.06
501.437	77.06
501.654	73.06
501.871	80.06
502.088	83.06
502.305	69.06
502.522	80.06
502.739	86.06
502.956	87.06
503.172	77.06
503.389	82.06
503.606	92.06
503.823	81.06
504.04	79.06
504.256	100.06
504.473	94.06
504.69	80.06
504.907	97.06
505.123	81.06
505.34	83.06
505.557	80.06
505.773	88.06
505.99	87.06
506.207	100.06
506.423	80.06
506.64	88.06
506.856	87.06
507.073	80.06
507.289	72.06
507.506	92.06
507.722	79.06
507.939	80.06
508.155	92.06
508.372	80.06
508.588	67.06
508.805	77.06
509.021	92.06
509.238	79.06
509.454	82.06
509.67	77.06
509.887	73.06
510.103	76.06
510.319	87.06
510.536	84.06
510.752	78.06
510.968	82.06
511.184	90.06
511.401	78.06
511.617	87.06
511.833	83.06
512.049	77.06
512.265	83.06
512.481	78.06
512.698	80.06
512.914	82.06
513.13	90.06
513.346	84.06
513.562	93.06
513.778	75.06
513.994	79.06
514.21	89.06
514.426	81.06
514.642	84.06
514.858	84.06
515.074	91.06
515.29	88.06
515.506	90.06
515.721	95.06
515.937	67.06
516.153	81.06
516.369	79.06
516.585	76.06
516.801	98.06
517.016	81.06
517.232	92.06
517.448	77.06
517.664	75.06
517.879	91.06
518.095	78.06
518.311	92.06
518.527	82.06
518.742	83.06
518.958	75.06
519.173	86.06
519.389	82.06
519.605	87.06
519.82	87.06
520.036	80.06
520.251	81.06
520.467	79.06
520.682	87.06
520.898	66.06
521.113	80.06
521.329	93.06
521.544	76.06
521.76	86.06
521.975	77.06
522.19	83.06
522.406	88.06
522.621	77.06
522.836	70.06
523.052	85.06
523.267	83.06
523.482	86.06
523.698	83.06
523.913	73.06
524.128	84.06
524.343	99.06
524.559	83.06
524.774	85.06
524.989	84.06
525.204	85.06
525.419	68.06
525.634	79.06
525.849	95.06
526.064	94.06
526.28	84.06
526.495	74.06
526.71	90.06
526.925	72.06
527.14	81.06
527.355	90.06
527.57	86.06
527.785	73.06
527.999	69.06
528.214	85.06
528.429	76.06
528.644	85.06
528.859	84.06
529.074	79.06
529.289	92.06
529.503	77.06
529.718	76.06
529.933	79.06
530.148	85.06
530.363	78.06
530.577	83.06
530.792	85.06
531.007	77.06
531.221	80.06
531.436	82.06
531.651	85.06
531.865	87.06
532.08	82.06
532.295	79.06
532.509	83.06
532.724	88.06
532.938	81.06
533.153	85.06
533.367	84.06
533.582	75.06
533.796	89.06
534.011	83.06
534.225	82.06
534.44	90.06
534.654	83.06
534.868	86.06
535.083	92.06
535.297	93.06
535.511	91.06
535.726	87.06
535.94	78.06
536.154	95.06
536.369	94.06
536.583	85.06
536.797	73.06
537.011	70.06
537.225	87.06
537.44	77.06
537.654	81.06
537.868	84.06
538.082	75.06
538.296	85.06
538.51	70.06
538.724	83.06
538.938	90.06
539.153	79.06
539.367	87.06
539.581	79.06
539.795	76.06
540.009	91.06
540.222	96.06
540.436	82.06
540.65	95.06
540.864	81.06
541.078	79.06
541.292	89.06
541.506	87.06
541.72	80.06
541.934	70.06
542.147	75.06
542.361	100.06
542.575	86.06
542.789	73.06
543.002	81.06
543.216	79.06
543.43	80.06
543.644	73.06
543.857	96.06
544.071	85.06
544.285	80.06
544.498	87.06
544.712	88.06
544.925	71.06
545.139	83.06
545.352	78.06
545.566	83.06
545.779	84.06
545.993	67.06
546.206	97.06
546.42	77.06
546.633	86.06
546.847	91.06
547.06	84.06
547.274	84.06
547.487	88.06
547.7	91.06
547.914	87.06
548.127	81.06
548.34	82.06
548.554	97.06
548.767	92.06
548.98	103.06
549.193	74.06
549.407	88.06
549.62	92.06
549.833	85.06
550.046	100.06
550.259	92.06
550.473	92.06
550.686	87.06
550.899	95.06
551.112	105.06
551.325	100.06
551.538	92.06
551.751	86.06
551.964	93.06
552.177	95.06
552.39	95.06
552.603	94.06
552.816	96.06
553.029	95.06
553.242	98.06
553.455	96.06
553.667	93.06
553.88	89.06
554.093	94.06
554.306	90.06
554.519	91.06
554.732	93.06
554.944	79.06
555.157	85.06
555.37	104.06
555.583	95.06
555.795	81.06
556.008	88.06
556.221	102.06
556.433	94.06
556.646	92.06
556.859	74.06
557.071	91.06
557.284	88.06
557.496	90.06
557.709	79.06
557.921	79.06
558.134	102.06
558.346	83.06
558.559	85.06
558.771	80.06
558.984	83.06
559.196	103.06
559.409	102.06
559.621	96.06
559.833	99.06
560.046	96.06
560.258	72.06
560.47	87.06
560.683	81.06
560.895	93.06
561.107	95.06
561.32	84.06
561.532	95.06
561.744	89.06
561.956	82.06
562.168	96.06
562.381	68.06
562.593	87.06
562.805	79.06
563.017	96.06
563.229	98.06
563.441	79.06
563.653	78.06
563.865	80.06
564.077	90.06
564.289	85.06
564.501	80.06
564.713	86.06
564.925	82.06
565.137	84.06
565.349	90.06
565.561	87.06
565.773	83.06
565.985	97.06
566.197	84.06
566.408	84.06
566.62	85.06
566.832	86.06
567.044	87.06
567.255	88.06
567.467	72.06
567.679	83.06
567.891	84.06
568.102	65.06
568.314	91.06
568.526	87.06
568.737	91.06
568.949	96.06
569.161	99.06
569.372	78.06
569.584	72.06
569.795	98.06
570.007	74.06
570.218	90.06
570.43	72.06
570.641	75.06
570.853	71.06
571.064	72.06
571.276	83.06
571.487	79.06
571.698	89.06
571.91	76.06
572.121	86.06
572.333	59.06
572.544	83.06
572.755	78.06
572.966	79.06
573.178	90.06
573.389	89.06
573.6	80.06
573.811	88.06
574.023	75.06
574.234	77.06
574.445	100.06
574.656	84.06
574.867	85.06
575.078	87.06
575.289	74.06
575.501	86.06
575.712	76.06
575.923	84.06
576.134	89.06
576.345	69.06
576.556	101.06
576.767	79.06
576.978	75.06
577.188	78.06
577.399	86.06
577.61	84.06
577.821	85.06
578.032	75.06
578.243	88.06
578.454	84.06
578.665	77.06
578.875	81.06
579.086	80.06
579.297	85.06
579.508	74.06
579.718	81.06
579.929	79.06
580.14	72.06
580.35	93.06
580.561	89.06
580.772	80.06
580.982	96.06
581.193	79.06
581.403	76.06
581.614	97.06
581.825	73.06
582.035	91.06
582.246	79.06
582.456	89.06
582.667	83.06
582.877	99.06
583.087	78.06
583.298	81.06
583.508	85.06
583.719	77.06
583.929	81.06
584.139	77.06
584.35	84.06
584.56	80.06
584.77	93.06
584.981	97.06
585.191	84.06
585.401	76.06
585.611	70.06
585.821	87.06
586.032	84.06
586.242	85.06
586.452	78.06
586.662	87.06
586.872	86.06
587.082	91.06
587.292	79.06
587.502	94.06
587.713	81.06
587.923	80.06
588.133	93.06
588.343	81.06
588.553	90.06
588.762	97.06
588.972	109.06
589.182	149.06
589.392	135.06
589.602	100.06
589.812	118.06
590.022	107.06
590.232	80.06
590.441	100.06
590.651	88.06
590.861	72.06
591.071	88.06
591.281	84.06
591.49	82.06
591.7	94.06
591.91	83.06
592.119	91.06
592.329	101.06
592.539	79.06
592.748	77.06
592.958	88.06
593.167	88.06
593.377	92.06
593.587	93.06
593.796	86.06
594.006	83.06
594.215	92.06
594.424	94.06
594.634	94.06
594.843	89.06
595.053	89.06
595.262	81.06
595.472	92.06
595.681	70.06
595.89	91.06
596.1	89.06
596.309	100.06
596.518	101.06
596.727	95.06
596.937	92.06
597.146	82.06
597.355	90.06
597.564	94.06
597.774	92.06
597.983	91.06
598.192	104.06
598.401	72.06
598.61	91.06
598.819	79.06
599.028	71.06
599.237	92.06
599.446	83.06
599.655	92.06
599.864	88.06
600.073	95.06
600.282	89.06
600.491	83.06
600.7	96.06
600.909	85.06
601.118	83.06
601.327	85.06
601.536	83.06
601.745	96.06
601.953	81.06
602.162	84.06
602.371	87.06
602.58	69.06
602.789	88.06
602.997	73.06
603.206	80.06
603.415	83.06
603.623	79.06
603.832	84.06
604.041	90.06
604.249	80.06
604.458	81.06
604.666	89.06
604.875	81.06
605.084	84.06
605.292	75.06
605.501	83.06
605.709	100.06
605.918	89.06
606.126	79.06
606.334	87.06
606.543	87.06
606.751	89.06
606.96	76.06
607.168	79.06
607.376	77.06
607.585	76.06
607.793	95.06
608.001	87.06
608.21	79.06
608.418	88.06
608.626	91.06
608.834	96.06
609.043	77.06
609.251	105.06
609.459	98.06
609.667	85.06
609.875	87.06
610.083	82.06
610.291	107.06
610.499	101.06
610.707	93.06
610.916	81.06
611.124	85.06
611.332	80.06
611.54	92.06
611.748	77.06
611.955	70.06
612.163	84.06
612.371	107.06
612.579	98.06
612.787	99.06
612.995	102.06
613.203	99.06
613.411	87.06
613.618	81.06
613.826	96.06
614.034	91.06
614.242	92.06
614.449	91.06
614.657	96.06
614.865	92.06
615.072	101.06
615.28	90.06
615.488	90.06
615.695	87.06
615.903	100.06
616.111	77.06
616.318	96.06
616.526	91.06
616.733	79.06
616.941	86.06
617.148	91.06
617.356	91.06
617.563	83.06
617.771	90.06
617.978	87.06
618.185	95.06
618.393	86.06
618.6	91.06
618.807	77.06
619.015	88.06
619.222	97.06
619.429	92.06
619.637	107.06
619.844	91.06
620.051	89.06
620.258	86.06
620.466	89.06
620.673	79.06
620.88	85.06
621.087	88.06
621.294	77.06
621.501	97.06
621.708	86.06
621.915	96.06
622.122	87.06
622.329	79.06
622.536	80.06
622.743	92.06
622.95	101.06
623.157	83.06
623.364	76.06
623.571	99.06
623.778	73.06
623.985	88.06
624.192	97.06
624.399	90.06
624.606	101.06
624.812	99.06
625.019	88.06
625.226	87.06
625.433	96.06
625.639	104.06
625.846	91.06
626.053	80.06
626.259	79.06
626.466	83.06
626.673	89.06
626.879	92.06
627.086	93.06
627.293	83.06
627.499	95.06
627.706	90.06
627.912	88.06
628.119	67.06
628.325	88.06
628.532	87.06
628.738	83.06
628.945	71.06
629.151	76.06
629.357	95.06
629.564	86.06
629.77	79.06
629.976	74.06
630.183	83.06
630.389	89.06
630.595	87.06
630.802	94.06
631.008	83.06
631.214	83.06
631.42	89.06
631.627	89.06
631.833	82.06
632.039	79.06
632.245	84.06
632.451	83.06
632.657	87.06
632.863	92.06
633.069	85.06
633.275	87.06
633.481	88.06
633.688	86.06
633.893	78.06
634.099	88.06
634.305	96.06
634.511	91.06
634.717	91.06
634.923	92.06
635.129	83.06
635.335	100.06
635.541	87.06
635.747	87.06
635.952	76.06
636.158	79.06
636.364	82.06
636.57	80.06
636.775	78.06
636.981	90.06
637.187	88.06
637.392	89.06
637.598	81.06
637.804	79.06
638.009	79.06
638.215	80.06
638.421	66.06
638.626	99.06
638.832	89.06
639.037	83.06
639.243	91.06
639.448	87.06
639.654	85.06
639.859	99.06
640.065	90.06
640.27	95.06
640.475	87.06
640.681	87.06
640.886	89.06
641.091	89.06
641.297	83.06
641.502	88.06
641.707	91.06
641.913	100.06
642.118	73.06
642.323	83.06
642.528	95.06
642.733	88.06
642.939	85.06
643.144	73.06
643.349	95.06
643.554	78.06
643.759	92.06
643.964	78.06
644.169	87.06
644.374	87.06
644.579	93.06
644.784	93.06
644.989	76.06
645.194	79.06
645.399	81.06
645.604	90.06
645.809	86.06
646.014	69.06
646.219	74.06
646.423	109.06
646.628	91.06
646.833	103.06
647.038	85.06
647.243	92.06
647.447	88.06
647.652	96.06
647.857	88.06
648.062	99.06
648.266	90.06
648.471	73.06
648.676	78.06
648.88	90.06
649.085	83.06
649.289	91.06
649.494	76.06
649.698	82.06
649.903	83.06
650.107	82.06
650.312	71.06
650.516	71.06
650.721	72.06
650.925	72.06
651.13	87.06
651.334	89.06
651.539	89.06
651.743	92.06
651.947	67.06
652.152	86.06
652.356	81.06
652.56	90.06
652.764	96.06
652.969	84.06
653.173	79.06
653.377	79.06
653.581	87.06
653.785	99.06
653.99	87.06
654.194	96.06
654.398	89.06
654.602	81.06
654.806	83.06
655.01	90.06
655.214	68.06
655.418	99.06
655.622	69.06
655.826	92.06
656.03	78.06
656.234	89.06
656.438	80.06
656.642	71.06
656.846	71.06
657.049	73.06
657.253	89.06
657.457	81.06
657.661	85.06
657.865	87.06
658.068	88.06
658.272	83.06
658.476	86.06
658.68	63.06
658.883	71.06
659.087	70.06
659.291	82.06
659.494	78.06
659.698	72.06
659.901	76.06
660.105	75.06
660.309	86.06
660.512	84.06
660.716	74.06
660.919	78.06
661.123	79.06
661.326	91.06
661.53	76.06
661.733	79.06
661.936	94.06
662.14	92.06
662.343	85.06
662.546	81.06
662.75	77.06
662.953	93.06
663.156	96.06
663.36	87.06
663.563	101.06
663.766	82.06
663.969	76.06
664.173	85.06
664.376	65.06
664.579	79.06
664.782	87.06
664.985	83.06
665.188	83.06
665.391	80.06
665.594	81.06
665.797	74.06
666	86.06
666.203	74.06
666.406	80.06
666.609	92.06
666.812	81.06
667.015	74.06
667.218	84.06
667.421	89.06
667.624	82.06
667.827	56.06
668.03	86.06
668.232	96.06
668.435	89.06
668.638	79.06
668.841	72.06
669.043	78.06
669.246	73.06
669.449	81.06
669.651	77.06
669.854	73.06
670.057	83.06
670.259	77.06
670.462	77.06
670.665	79.06
670.867	82.06
671.07	96.06
671.272	86.06
671.475	64.06
671.677	83.06
671.88	81.06
672.082	78.06
672.284	96.06
672.487	91.06
672.689	84.06
672.892	96.06
