Data from 17600_2_HRD10591_00033.txt Node
Date: Mon Jan 19 14:08:39 EST 2026
User: Yrep
Spectrometer: HR+D1059
Trigger mode: 1
Integration Time (sec): 1.000000E-1
Scans to average: 1
Electric dark correction enabled: true
Nonlinearity correction enabled: false
Boxcar width: 0
XAxis mode: Wavelengths
Number of Pixels in Spectrum: 2048
>>>>>Begin Spectral Data<<<<<
223.165	-17.44
223.4	-17.44
223.635	-17.44
223.869	-30.44
224.104	-22.44
224.338	-21.44
224.573	-15.44
224.808	-15.44
225.042	6.56
225.277	1.56
225.511	-6.44
225.746	16.56
225.98	-4.44
226.215	12.56
226.449	8.56
226.683	18.56
226.918	30.56
227.152	38.56
227.387	45.56
227.621	52.56
227.856	48.56
228.09	59.56
228.324	60.56
228.559	50.56
228.793	50.56
229.027	57.56
229.262	55.56
229.496	74.56
229.73	66.56
229.964	77.56
230.199	71.56
230.433	76.56
230.667	72.56
230.901	68.56
231.136	66.56
231.37	74.56
231.604	84.56
231.838	75.56
232.072	74.56
232.306	78.56
232.541	78.56
232.775	72.56
233.009	76.56
233.243	64.56
233.477	84.56
233.711	73.56
233.945	88.56
234.179	80.56
234.413	79.56
234.647	87.56
234.881	81.56
235.115	84.56
235.349	74.56
235.583	70.56
235.817	74.56
236.051	91.56
236.285	80.56
236.519	63.56
236.753	73.56
236.987	72.56
237.221	76.56
237.455	64.56
237.689	88.56
237.922	81.56
238.156	62.56
238.39	61.56
238.624	61.56
238.858	67.56
239.091	84.56
239.325	66.56
239.559	78.56
239.793	85.56
240.027	74.56
240.26	71.56
240.494	81.56
240.728	80.56
240.961	57.56
241.195	74.56
241.429	71.56
241.662	77.56
241.896	86.56
242.13	80.56
242.363	85.56
242.597	75.56
242.83	76.56
243.064	53.56
243.298	70.56
243.531	82.56
243.765	78.56
243.998	80.56
244.232	91.56
244.465	82.56
244.699	79.56
244.932	65.56
245.166	69.56
245.399	73.56
245.633	72.56
245.866	79.56
246.099	74.56
246.333	71.56
246.566	79.56
246.8	82.56
247.033	70.56
247.266	89.56
247.5	80.56
247.733	79.56
247.966	75.56
248.2	74.56
248.433	80.56
248.666	86.56
248.899	64.56
249.133	86.56
249.366	82.56
249.599	85.56
249.832	73.56
250.066	94.56
250.299	72.56
250.532	81.56
250.765	64.56
250.998	82.56
251.231	68.56
251.465	74.56
251.698	72.56
251.931	104.56
252.164	78.56
252.397	89.56
252.63	66.56
252.863	81.56
253.096	77.56
253.329	77.56
253.562	80.56
253.795	90.56
254.028	70.56
254.261	74.56
254.494	88.56
254.727	96.56
254.96	84.56
255.193	78.56
255.426	81.56
255.659	67.56
255.892	82.56
256.124	84.56
256.357	72.56
256.59	74.56
256.823	81.56
257.056	83.56
257.289	63.56
257.521	84.56
257.754	84.56
257.987	93.56
258.22	80.56
258.452	82.56
258.685	78.56
258.918	88.56
259.151	81.56
259.383	71.56
259.616	70.56
259.849	77.56
260.081	72.56
260.314	80.56
260.547	79.56
260.779	92.56
261.012	72.56
261.244	72.56
261.477	81.56
261.71	89.56
261.942	78.56
262.175	85.56
262.407	80.56
262.64	70.56
262.872	80.56
263.105	67.56
263.337	88.56
263.57	71.56
263.802	73.56
264.035	72.56
264.267	59.56
264.499	76.56
264.732	85.56
264.964	72.56
265.197	90.56
265.429	70.56
265.661	84.56
265.894	78.56
266.126	77.56
266.358	80.56
266.591	73.56
266.823	82.56
267.055	83.56
267.287	82.56
267.52	76.56
267.752	94.56
267.984	77.56
268.216	75.56
268.448	71.56
268.681	74.56
268.913	84.56
269.145	75.56
269.377	74.56
269.609	88.56
269.841	70.56
270.073	77.56
270.306	70.56
270.538	82.56
270.77	70.56
271.002	89.56
271.234	69.56
271.466	89.56
271.698	93.56
271.93	76.56
272.162	90.56
272.394	75.56
272.626	70.56
272.858	70.56
273.09	75.56
273.322	81.56
273.553	82.56
273.785	93.56
274.017	78.56
274.249	67.56
274.481	97.56
274.713	78.56
274.945	84.56
275.176	68.56
275.408	82.56
275.64	94.56
275.872	82.56
276.104	71.56
276.335	89.56
276.567	74.56
276.799	70.56
277.031	80.56
277.262	88.56
277.494	80.56
277.726	73.56
277.957	83.56
278.189	84.56
278.421	78.56
278.652	72.56
278.884	78.56
279.115	81.56
279.347	88.56
279.579	88.56
279.81	92.56
280.042	82.56
280.273	79.56
280.505	78.56
280.736	73.56
280.968	72.56
281.199	90.56
281.431	98.56
281.662	92.56
281.894	73.56
282.125	89.56
282.356	92.56
282.588	81.56
282.819	92.56
283.051	69.56
283.282	73.56
283.513	84.56
283.745	80.56
283.976	81.56
284.207	81.56
284.439	77.56
284.67	108.56
284.901	93.56
285.132	81.56
285.364	90.56
285.595	87.56
285.826	96.56
286.057	90.56
286.288	80.56
286.52	88.56
286.751	65.56
286.982	86.56
287.213	84.56
287.444	86.56
287.675	85.56
287.906	96.56
288.138	93.56
288.369	88.56
288.6	82.56
288.831	90.56
289.062	93.56
289.293	72.56
289.524	82.56
289.755	77.56
289.986	84.56
290.217	82.56
290.448	82.56
290.679	89.56
290.91	68.56
291.141	76.56
291.371	89.56
291.602	74.56
291.833	82.56
292.064	82.56
292.295	90.56
292.526	91.56
292.757	85.56
292.987	92.56
293.218	82.56
293.449	77.56
293.68	88.56
293.91	84.56
294.141	82.56
294.372	81.56
294.603	89.56
294.833	78.56
295.064	81.56
295.295	70.56
295.525	99.56
295.756	85.56
295.987	88.56
296.217	80.56
296.448	81.56
296.679	76.56
296.909	81.56
297.14	82.56
297.37	79.56
297.601	74.56
297.831	78.56
298.062	70.56
298.292	82.56
298.523	89.56
298.753	88.56
298.984	92.56
299.214	73.56
299.445	81.56
299.675	78.56
299.905	84.56
300.136	80.56
300.366	88.56
300.597	86.56
300.827	82.56
301.057	73.56
301.288	100.56
301.518	86.56
301.748	82.56
301.979	87.56
302.209	84.56
302.439	82.56
302.669	85.56
302.9	82.56
303.13	77.56
303.36	101.56
303.59	92.56
303.82	73.56
304.051	85.56
304.281	92.56
304.511	86.56
304.741	94.56
304.971	74.56
305.201	85.56
305.431	86.56
305.661	92.56
305.891	77.56
306.121	93.56
306.352	84.56
306.582	84.56
306.812	71.56
307.042	80.56
307.272	88.56
307.502	86.56
307.731	92.56
307.961	79.56
308.191	100.56
308.421	91.56
308.651	96.56
308.881	79.56
309.111	80.56
309.341	84.56
309.571	99.56
309.8	72.56
310.03	74.56
310.26	88.56
310.49	73.56
310.72	86.56
310.949	71.56
311.179	90.56
311.409	86.56
311.639	94.56
311.868	71.56
312.098	84.56
312.328	90.56
312.557	83.56
312.787	81.56
313.017	83.56
313.246	74.56
313.476	83.56
313.706	90.56
313.935	94.56
314.165	95.56
314.394	84.56
314.624	78.56
314.853	95.56
315.083	99.56
315.312	83.56
315.542	88.56
315.771	95.56
316.001	91.56
316.23	92.56
316.46	87.56
316.689	77.56
316.919	87.56
317.148	95.56
317.377	79.56
317.607	82.56
317.836	99.56
318.065	108.56
318.295	90.56
318.524	78.56
318.753	58.56
318.983	63.56
319.212	92.56
319.441	80.56
319.67	101.56
319.9	87.56
320.129	77.56
320.358	79.56
320.587	83.56
320.816	86.56
321.046	91.56
321.275	88.56
321.504	76.56
321.733	81.56
321.962	89.56
322.191	102.56
322.42	88.56
322.649	93.56
322.878	77.56
323.108	93.56
323.337	92.56
323.566	84.56
323.795	81.56
324.024	74.56
324.253	88.56
324.482	91.56
324.71	86.56
324.939	92.56
325.168	98.56
325.397	85.56
325.626	95.56
325.855	81.56
326.084	90.56
326.313	94.56
326.542	95.56
326.77	81.56
326.999	67.56
327.228	80.56
327.457	81.56
327.686	82.56
327.914	97.56
328.143	84.56
328.372	80.56
328.6	82.56
328.829	86.56
329.058	80.56
329.287	93.56
329.515	75.56
329.744	102.56
329.972	93.56
330.201	83.56
330.43	85.56
330.658	73.56
330.887	83.56
331.115	84.56
331.344	75.56
331.572	81.56
331.801	92.56
332.03	74.56
332.258	92.56
332.486	75.56
332.715	88.56
332.943	90.56
333.172	81.56
333.4	76.56
333.629	80.56
333.857	88.56
334.085	83.56
334.314	78.56
334.542	72.56
334.771	79.56
334.999	92.56
335.227	73.56
335.455	88.56
335.684	80.56
335.912	82.56
336.14	80.56
336.369	93.56
336.597	88.56
336.825	87.56
337.053	89.56
337.281	76.56
337.51	86.56
337.738	88.56
337.966	97.56
338.194	78.56
338.422	76.56
338.65	79.56
338.878	83.56
339.106	81.56
339.334	85.56
339.562	80.56
339.79	84.56
340.018	85.56
340.246	72.56
340.474	76.56
340.702	89.56
340.93	69.56
341.158	72.56
341.386	88.56
341.614	85.56
341.842	78.56
342.07	74.56
342.298	92.56
342.526	77.56
342.754	82.56
342.981	79.56
343.209	79.56
343.437	92.56
343.665	74.56
343.893	73.56
344.12	98.56
344.348	95.56
344.576	98.56
344.804	83.56
345.031	80.56
345.259	88.56
345.487	80.56
345.714	66.56
345.942	80.56
346.17	71.56
346.397	65.56
346.625	82.56
346.853	83.56
347.08	87.56
347.308	97.56
347.535	73.56
347.763	73.56
347.99	84.56
348.218	95.56
348.445	84.56
348.673	81.56
348.9	86.56
349.128	79.56
349.355	79.56
349.583	83.56
349.81	80.56
350.037	69.56
350.265	83.56
350.492	78.56
350.72	75.56
350.947	87.56
351.174	83.56
351.402	68.56
351.629	88.56
351.856	80.56
352.083	78.56
352.311	75.56
352.538	81.56
352.765	86.56
352.992	93.56
353.22	82.56
353.447	62.56
353.674	81.56
353.901	94.56
354.128	82.56
354.355	73.56
354.583	97.56
354.81	95.56
355.037	84.56
355.264	73.56
355.491	82.56
355.718	91.56
355.945	94.56
356.172	80.56
356.399	97.56
356.626	83.56
356.853	91.56
357.08	83.56
357.307	96.56
357.534	71.56
357.761	86.56
357.988	78.56
358.215	86.56
358.441	82.56
358.668	75.56
358.895	88.56
359.122	77.56
359.349	82.56
359.576	88.56
359.802	74.56
360.029	77.56
360.256	85.56
360.483	86.56
360.709	86.56
360.936	80.56
361.163	88.56
361.39	88.56
361.616	82.56
361.843	92.56
362.07	82.56
362.296	71.56
362.523	94.56
362.749	85.56
362.976	84.56
363.203	94.56
363.429	87.56
363.656	80.56
363.882	82.56
364.109	95.56
364.335	105.56
364.562	98.56
364.788	89.56
365.015	87.56
365.241	82.56
365.468	81.56
365.694	73.56
365.92	86.56
366.147	87.56
366.373	71.56
366.599	85.56
366.826	90.56
367.052	87.56
367.278	87.56
367.505	79.56
367.731	90.56
367.957	91.56
368.184	96.56
368.41	85.56
368.636	90.56
368.862	89.56
369.089	75.56
369.315	80.56
369.541	82.56
369.767	82.56
369.993	82.56
370.219	85.56
370.445	80.56
370.672	82.56
370.898	85.56
371.124	93.56
371.35	80.56
371.576	88.56
371.802	73.56
372.028	96.56
372.254	94.56
372.48	87.56
372.706	84.56
372.932	68.56
373.158	78.56
373.384	88.56
373.61	103.56
373.835	109.56
374.061	75.56
374.287	67.56
374.513	85.56
374.739	92.56
374.965	87.56
375.191	92.56
375.416	82.56
375.642	93.56
375.868	98.56
376.094	88.56
376.319	89.56
376.545	80.56
376.771	73.56
376.997	80.56
377.222	70.56
377.448	91.56
377.674	85.56
377.899	92.56
378.125	89.56
378.35	85.56
378.576	86.56
378.802	76.56
379.027	92.56
379.253	87.56
379.478	92.56
379.704	83.56
379.929	88.56
380.155	80.56
380.38	88.56
380.606	78.56
380.831	78.56
381.057	75.56
381.282	95.56
381.507	87.56
381.733	76.56
381.958	82.56
382.184	96.56
382.409	94.56
382.634	93.56
382.86	82.56
383.085	88.56
383.31	79.56
383.535	101.56
383.761	74.56
383.986	76.56
384.211	88.56
384.436	85.56
384.662	69.56
384.887	81.56
385.112	84.56
385.337	82.56
385.562	84.56
385.787	97.56
386.013	108.56
386.238	100.56
386.463	84.56
386.688	101.56
386.913	97.56
387.138	80.56
387.363	90.56
387.588	94.56
387.813	88.56
388.038	90.56
388.263	99.56
388.488	90.56
388.713	78.56
388.938	78.56
389.163	81.56
389.387	82.56
389.612	78.56
389.837	91.56
390.062	86.56
390.287	75.56
390.512	87.56
390.736	88.56
390.961	82.56
391.186	77.56
391.411	85.56
391.636	78.56
391.86	79.56
392.085	85.56
392.31	103.56
392.534	100.56
392.759	108.56
392.984	133.56
393.208	223.56
393.433	353.56
393.658	279.56
393.882	127.56
394.107	103.56
394.331	116.56
394.556	112.56
394.78	97.56
395.005	96.56
395.229	81.56
395.454	92.56
395.678	94.56
395.903	103.56
396.127	125.56
396.352	132.56
396.576	163.56
396.801	249.56
397.025	280.56
397.249	153.56
397.474	103.56
397.698	80.56
397.922	85.56
398.147	96.56
398.371	72.56
398.595	91.56
398.82	80.56
399.044	91.56
399.268	88.56
399.492	90.56
399.717	91.56
399.941	85.56
400.165	88.56
400.389	67.56
400.613	88.56
400.837	73.56
401.062	96.56
401.286	88.56
401.51	86.56
401.734	84.56
401.958	89.56
402.182	79.56
402.406	80.56
402.63	86.56
402.854	73.56
403.078	78.56
403.302	86.56
403.526	99.56
403.75	78.56
403.974	87.56
404.198	81.56
404.422	95.56
404.645	94.56
404.869	85.56
405.093	89.56
405.317	86.56
405.541	82.56
405.765	80.56
405.988	81.56
406.212	98.56
406.436	89.56
406.66	71.56
406.883	82.56
407.107	82.56
407.331	88.56
407.555	74.56
407.778	100.56
408.002	124.56
408.226	93.56
408.449	80.56
408.673	75.56
408.896	86.56
409.12	79.56
409.344	80.56
409.567	88.56
409.791	92.56
410.014	88.56
410.238	97.56
410.461	86.56
410.685	84.56
410.908	89.56
411.132	89.56
411.355	73.56
411.578	98.56
411.802	90.56
412.025	71.56
412.249	78.56
412.472	75.56
412.695	82.56
412.919	83.56
413.142	79.56
413.365	86.56
413.589	83.56
413.812	76.56
414.035	84.56
414.258	84.56
414.482	86.56
414.705	77.56
414.928	87.56
415.151	66.56
415.374	82.56
415.597	72.56
415.821	83.56
416.044	74.56
416.267	76.56
416.49	87.56
416.713	78.56
416.936	86.56
417.159	85.56
417.382	74.56
417.605	83.56
417.828	92.56
418.051	89.56
418.274	94.56
418.497	69.56
418.72	77.56
418.943	81.56
419.166	79.56
419.389	86.56
419.611	79.56
419.834	71.56
420.057	90.56
420.28	81.56
420.503	86.56
420.726	94.56
420.948	85.56
421.171	81.56
421.394	99.56
421.617	121.56
421.839	115.56
422.062	89.56
422.285	126.56
422.507	185.56
422.73	310.56
422.953	293.56
423.175	156.56
423.398	116.56
423.621	100.56
423.843	71.56
424.066	95.56
424.288	94.56
424.511	88.56
424.733	94.56
424.956	97.56
425.178	95.56
425.401	75.56
425.623	84.56
425.846	74.56
426.068	70.56
426.291	88.56
426.513	81.56
426.735	89.56
426.958	86.56
427.18	88.56
427.402	75.56
427.625	88.56
427.847	77.56
428.069	84.56
428.292	110.56
428.514	124.56
428.736	100.56
428.958	108.56
429.181	105.56
429.403	87.56
429.625	96.56
429.847	104.56
430.069	141.56
430.292	157.56
430.514	128.56
430.736	106.56
430.958	103.56
431.18	84.56
431.402	82.56
431.624	78.56
431.846	91.56
432.068	101.56
432.29	91.56
432.512	97.56
432.734	74.56
432.956	88.56
433.178	84.56
433.4	71.56
433.622	92.56
433.844	79.56
434.066	83.56
434.287	75.56
434.509	81.56
434.731	90.56
434.953	90.56
435.175	84.56
435.397	84.56
435.618	94.56
435.84	85.56
436.062	83.56
436.284	86.56
436.505	85.56
436.727	72.56
436.949	72.56
437.17	84.56
437.392	75.56
437.614	65.56
437.835	78.56
438.057	88.56
438.278	91.56
438.5	87.56
438.721	94.56
438.943	92.56
439.165	101.56
439.386	74.56
439.608	82.56
439.829	81.56
440.05	90.56
440.272	83.56
440.493	76.56
440.715	80.56
440.936	86.56
441.158	92.56
441.379	78.56
441.6	94.56
441.822	88.56
442.043	86.56
442.264	80.56
442.486	95.56
442.707	116.56
442.928	105.56
443.149	82.56
443.371	103.56
443.592	175.56
443.813	159.56
444.034	78.56
444.255	90.56
444.476	85.56
444.698	85.56
444.919	93.56
445.14	150.56
445.361	148.56
445.582	197.56
445.803	159.56
446.024	111.56
446.245	82.56
446.466	68.56
446.687	84.56
446.908	79.56
447.129	84.56
447.35	76.56
447.571	77.56
447.792	58.56
448.013	85.56
448.234	68.56
448.455	78.56
448.675	90.56
448.896	82.56
449.117	82.56
449.338	87.56
449.559	97.56
449.779	68.56
450	83.56
450.221	85.56
450.442	81.56
450.662	87.56
450.883	85.56
451.104	97.56
451.324	84.56
451.545	87.56
451.766	84.56
451.986	86.56
452.207	90.56
452.428	81.56
452.648	78.56
452.869	92.56
453.089	92.56
453.31	93.56
453.53	72.56
453.751	85.56
453.971	80.56
454.192	64.56
454.412	90.56
454.633	84.56
454.853	85.56
455.073	77.56
455.294	82.56
455.514	88.56
455.734	76.56
455.955	78.56
456.175	79.56
456.395	79.56
456.616	70.56
456.836	90.56
457.056	79.56
457.276	86.56
457.497	84.56
457.717	82.56
457.937	89.56
458.157	90.56
458.377	94.56
458.598	89.56
458.818	86.56
459.038	84.56
459.258	89.56
459.478	85.56
459.698	74.56
459.918	87.56
460.138	86.56
460.358	78.56
460.578	84.56
460.798	105.56
461.018	109.56
461.238	94.56
461.458	80.56
461.678	78.56
461.898	87.56
462.118	80.56
462.338	83.56
462.558	72.56
462.777	72.56
462.997	94.56
463.217	90.56
463.437	100.56
463.657	96.56
463.876	88.56
464.096	101.56
464.316	76.56
464.536	81.56
464.755	76.56
464.975	104.56
465.195	81.56
465.414	71.56
465.634	62.56
465.854	71.56
466.073	73.56
466.293	90.56
466.512	75.56
466.732	80.56
466.951	96.56
467.171	75.56
467.391	61.56
467.61	82.56
467.829	95.56
468.049	89.56
468.268	89.56
468.488	81.56
468.707	87.56
468.927	84.56
469.146	78.56
469.365	74.56
469.585	90.56
469.804	76.56
470.023	66.56
470.243	83.56
470.462	88.56
470.681	89.56
470.901	84.56
471.12	90.56
471.339	79.56
471.558	64.56
471.777	74.56
471.997	65.56
472.216	84.56
472.435	88.56
472.654	75.56
472.873	92.56
473.092	84.56
473.311	92.56
473.53	82.56
473.749	85.56
473.968	82.56
474.187	80.56
474.406	77.56
474.625	91.56
474.844	71.56
475.063	84.56
475.282	72.56
475.501	74.56
475.72	104.56
475.939	84.56
476.158	78.56
476.377	96.56
476.596	88.56
476.814	79.56
477.033	84.56
477.252	87.56
477.471	92.56
477.69	84.56
477.908	82.56
478.127	80.56
478.346	69.56
478.564	82.56
478.783	70.56
479.002	88.56
479.22	73.56
479.439	80.56
479.658	93.56
479.876	73.56
480.095	78.56
480.313	83.56
480.532	84.56
480.751	95.56
480.969	80.56
481.188	88.56
481.406	100.56
481.624	87.56
481.843	88.56
482.061	91.56
482.28	78.56
482.498	92.56
482.717	84.56
482.935	106.56
483.153	84.56
483.372	89.56
483.59	82.56
483.808	80.56
484.027	88.56
484.245	86.56
484.463	87.56
484.681	96.56
484.9	86.56
485.118	97.56
485.336	83.56
485.554	84.56
485.772	94.56
485.99	98.56
486.209	73.56
486.427	75.56
486.645	81.56
486.863	83.56
487.081	78.56
487.299	86.56
487.517	98.56
487.735	99.56
487.953	124.56
488.171	94.56
488.389	89.56
488.607	85.56
488.825	89.56
489.043	87.56
489.261	88.56
489.479	92.56
489.696	89.56
489.914	86.56
490.132	92.56
490.35	79.56
490.568	78.56
490.786	84.56
491.003	82.56
491.221	77.56
491.439	94.56
491.657	92.56
491.874	88.56
492.092	73.56
492.31	78.56
492.527	70.56
492.745	88.56
492.963	92.56
493.18	89.56
493.398	82.56
493.615	92.56
493.833	76.56
494.05	88.56
494.268	78.56
494.485	89.56
494.703	83.56
494.92	92.56
495.138	89.56
495.355	79.56
495.573	86.56
495.79	92.56
496.008	102.56
496.225	98.56
496.442	75.56
496.66	95.56
496.877	94.56
497.094	92.56
497.312	77.56
497.529	80.56
497.746	90.56
497.963	83.56
498.181	91.56
498.398	98.56
498.615	77.56
498.832	80.56
499.049	73.56
499.267	92.56
499.484	89.56
499.701	94.56
499.918	94.56
500.135	81.56
500.352	74.56
500.569	74.56
500.786	88.56
501.003	80.56
501.22	75.56
501.437	81.56
501.654	75.56
501.871	95.56
502.088	93.56
502.305	89.56
502.522	82.56
502.739	110.56
502.956	89.56
503.172	96.56
503.389	112.56
503.606	105.56
503.823	80.56
504.04	98.56
504.256	105.56
504.473	104.56
504.69	90.56
504.907	93.56
505.123	80.56
505.34	93.56
505.557	83.56
505.773	79.56
505.99	87.56
506.207	94.56
506.423	78.56
506.64	77.56
506.856	87.56
507.073	86.56
507.289	92.56
507.506	88.56
507.722	81.56
507.939	87.56
508.155	80.56
508.372	84.56
508.588	80.56
508.805	81.56
509.021	86.56
509.238	78.56
509.454	86.56
509.67	91.56
509.887	72.56
510.103	82.56
510.319	75.56
510.536	72.56
510.752	86.56
510.968	82.56
511.184	82.56
511.401	82.56
511.617	81.56
511.833	68.56
512.049	70.56
512.265	80.56
512.481	102.56
512.698	89.56
512.914	84.56
513.13	77.56
513.346	94.56
513.562	107.56
513.778	87.56
513.994	86.56
514.21	76.56
514.426	73.56
514.642	92.56
514.858	74.56
515.074	86.56
515.29	75.56
515.506	80.56
515.721	79.56
515.937	90.56
516.153	73.56
516.369	92.56
516.585	92.56
516.801	96.56
517.016	103.56
517.232	97.56
517.448	70.56
517.664	98.56
517.879	86.56
518.095	91.56
518.311	99.56
518.527	97.56
518.742	95.56
518.958	121.56
519.173	124.56
519.389	89.56
519.605	82.56
519.82	90.56
520.036	94.56
520.251	90.56
520.467	80.56
520.682	80.56
520.898	85.56
521.113	96.56
521.329	97.56
521.544	86.56
521.76	60.56
521.975	72.56
522.19	83.56
522.406	81.56
522.621	86.56
522.836	97.56
523.052	79.56
523.267	92.56
523.482	94.56
523.698	87.56
523.913	89.56
524.128	87.56
524.343	85.56
524.559	88.56
524.774	86.56
524.989	96.56
525.204	90.56
525.419	83.56
525.634	76.56
525.849	104.56
526.064	95.56
526.28	148.56
526.495	187.56
526.71	208.56
526.925	134.56
527.14	175.56
527.355	166.56
527.57	102.56
527.785	81.56
527.999	85.56
528.214	80.56
528.429	96.56
528.644	97.56
528.859	83.56
529.074	87.56
529.289	80.56
529.503	75.56
529.718	92.56
529.933	100.56
530.148	77.56
530.363	85.56
530.577	91.56
530.792	100.56
531.007	81.56
531.221	84.56
531.436	88.56
531.651	82.56
531.865	87.56
532.08	88.56
532.295	109.56
532.509	101.56
532.724	93.56
532.938	83.56
533.153	101.56
533.367	78.56
533.582	90.56
533.796	92.56
534.011	85.56
534.225	94.56
534.44	89.56
534.654	87.56
534.868	92.56
535.083	113.56
535.297	117.56
535.511	104.56
535.726	94.56
535.94	77.56
536.154	93.56
536.369	85.56
536.583	84.56
536.797	99.56
537.011	113.56
537.225	82.56
537.44	96.56
537.654	101.56
537.868	102.56
538.082	87.56
538.296	98.56
538.51	100.56
538.724	90.56
538.938	110.56
539.153	92.56
539.367	98.56
539.581	80.56
539.795	83.56
540.009	70.56
540.222	102.56
540.436	108.56
540.65	95.56
540.864	94.56
541.078	81.56
541.292	86.56
541.506	83.56
541.72	89.56
541.934	102.56
542.147	102.56
542.361	90.56
542.575	100.56
542.789	92.56
543.002	99.56
543.216	109.56
543.43	82.56
543.644	104.56
543.857	82.56
544.071	103.56
544.285	90.56
544.498	92.56
544.712	90.56
544.925	82.56
545.139	99.56
545.352	81.56
545.566	105.56
545.779	108.56
545.993	100.56
546.206	114.56
546.42	104.56
546.633	94.56
546.847	110.56
547.06	117.56
547.274	131.56
547.487	137.56
547.7	136.56
547.914	154.56
548.127	152.56
548.34	147.56
548.554	153.56
548.767	161.56
548.98	165.56
549.193	163.56
549.407	161.56
549.62	162.56
549.833	161.56
550.046	190.56
550.259	199.56
550.473	192.56
550.686	206.56
550.899	202.56
551.112	238.56
551.325	247.56
551.538	244.56
551.751	236.56
551.964	234.56
552.177	219.56
552.39	232.56
552.603	216.56
552.816	213.56
553.029	205.56
553.242	211.56
553.455	233.56
553.667	223.56
553.88	226.56
554.093	236.56
554.306	240.56
554.519	246.56
554.732	220.56
554.944	221.56
555.157	216.56
555.37	223.56
555.583	204.56
555.795	199.56
556.008	190.56
556.221	181.56
556.433	164.56
556.646	164.56
556.859	133.56
557.071	160.56
557.284	162.56
557.496	150.56
557.709	134.56
557.921	137.56
558.134	123.56
558.346	169.56
558.559	143.56
558.771	130.56
558.984	232.56
559.196	260.56
559.409	151.56
559.621	236.56
559.833	190.56
560.046	208.56
560.258	158.56
560.47	162.56
560.683	126.56
560.895	99.56
561.107	114.56
561.32	112.56
561.532	97.56
561.744	109.56
561.956	98.56
562.168	114.56
562.381	104.56
562.593	94.56
562.805	106.56
563.017	88.56
563.229	84.56
563.441	98.56
563.653	97.56
563.865	95.56
564.077	98.56
564.289	103.56
564.501	99.56
564.713	91.56
564.925	86.56
565.137	90.56
565.349	92.56
565.561	89.56
565.773	98.56
565.985	100.56
566.197	88.56
566.408	97.56
566.62	89.56
566.832	106.56
567.044	87.56
567.255	102.56
567.467	87.56
567.679	94.56
567.891	104.56
568.102	101.56
568.314	82.56
568.526	97.56
568.737	92.56
568.949	94.56
569.161	95.56
569.372	102.56
569.584	103.56
569.795	101.56
570.007	97.56
570.218	102.56
570.43	90.56
570.641	92.56
570.853	100.56
571.064	91.56
571.276	80.56
571.487	94.56
571.698	89.56
571.91	83.56
572.121	88.56
572.333	90.56
572.544	72.56
572.755	90.56
572.966	99.56
573.178	89.56
573.389	94.56
573.6	85.56
573.811	74.56
574.023	104.56
574.234	95.56
574.445	85.56
574.656	92.56
574.867	89.56
575.078	71.56
575.289	80.56
575.501	100.56
575.712	94.56
575.923	86.56
576.134	87.56
576.345	106.56
576.556	86.56
576.767	77.56
576.978	95.56
577.188	93.56
577.399	93.56
577.61	94.56
577.821	82.56
578.032	93.56
578.243	96.56
578.454	104.56
578.665	108.56
578.875	100.56
579.086	97.56
579.297	82.56
579.508	87.56
579.718	96.56
579.929	100.56
580.14	95.56
580.35	96.56
580.561	99.56
580.772	95.56
580.982	92.56
581.193	88.56
581.403	76.56
581.614	90.56
581.825	96.56
582.035	86.56
582.246	87.56
582.456	88.56
582.667	84.56
582.877	93.56
583.087	77.56
583.298	99.56
583.508	96.56
583.719	89.56
583.929	100.56
584.139	93.56
584.35	77.56
584.56	108.56
584.77	100.56
584.981	89.56
585.191	103.56
585.401	100.56
585.611	98.56
585.821	132.56
586.032	156.56
586.242	100.56
586.452	98.56
586.662	100.56
586.872	106.56
587.082	89.56
587.292	96.56
587.502	97.56
587.713	84.56
587.923	109.56
588.133	106.56
588.343	111.56
588.553	105.56
588.762	134.56
588.972	216.56
589.182	489.56
589.392	338.56
589.602	266.56
589.812	416.56
590.022	236.56
590.232	142.56
590.441	120.56
590.651	101.56
590.861	94.56
591.071	87.56
591.281	108.56
591.49	90.56
591.7	96.56
591.91	92.56
592.119	100.56
592.329	110.56
592.539	100.56
592.748	114.56
592.958	114.56
593.167	106.56
593.377	119.56
593.587	124.56
593.796	118.56
594.006	116.56
594.215	108.56
594.424	117.56
594.634	124.56
594.843	112.56
595.053	110.56
595.262	110.56
595.472	117.56
595.681	118.56
595.89	133.56
596.1	129.56
596.309	127.56
596.518	135.56
596.727	157.56
596.937	161.56
597.146	169.56
597.355	178.56
597.564	161.56
597.774	146.56
597.983	164.56
598.192	157.56
598.401	164.56
598.61	151.56
598.819	159.56
599.028	144.56
599.237	155.56
599.446	157.56
599.655	166.56
599.864	169.56
600.073	142.56
600.282	142.56
600.491	175.56
600.7	179.56
600.909	161.56
601.118	135.56
601.327	140.56
601.536	138.56
601.745	146.56
601.953	144.56
602.162	142.56
602.371	157.56
602.58	143.56
602.789	146.56
602.997	146.56
603.206	147.56
603.415	161.56
603.623	159.56
603.832	152.56
604.041	154.56
604.249	169.56
604.458	158.56
604.666	166.56
604.875	149.56
605.084	184.56
605.292	172.56
605.501	166.56
605.709	176.56
605.918	187.56
606.126	200.56
606.334	190.56
606.543	178.56
606.751	209.56
606.96	192.56
607.168	175.56
607.376	165.56
607.585	172.56
607.793	166.56
608.001	178.56
608.21	166.56
608.418	163.56
608.626	188.56
608.834	177.56
609.043	173.56
609.251	178.56
609.459	178.56
609.667	179.56
609.875	198.56
610.083	198.56
610.291	190.56
610.499	237.56
610.707	197.56
610.916	174.56
611.124	187.56
611.332	192.56
611.54	203.56
611.748	200.56
611.955	198.56
612.163	199.56
612.371	285.56
612.579	270.56
612.787	224.56
612.995	222.56
613.203	208.56
613.411	201.56
613.618	202.56
613.826	186.56
614.034	214.56
614.242	204.56
614.449	206.56
614.657	199.56
614.865	192.56
615.072	194.56
615.28	205.56
615.488	186.56
615.695	206.56
615.903	200.56
616.111	225.56
616.318	274.56
616.526	314.56
616.733	241.56
616.941	222.56
617.148	258.56
617.356	218.56
617.563	198.56
617.771	203.56
617.978	192.56
618.185	184.56
618.393	192.56
618.6	172.56
618.807	202.56
619.015	167.56
619.222	184.56
619.429	196.56
619.637	185.56
619.844	176.56
620.051	178.56
620.258	189.56
620.466	178.56
620.673	146.56
620.88	183.56
621.087	201.56
621.294	175.56
621.501	196.56
621.708	198.56
621.915	169.56
622.122	190.56
622.329	172.56
622.536	182.56
622.743	186.56
622.95	176.56
623.157	186.56
623.364	176.56
623.571	174.56
623.778	169.56
623.985	172.56
624.192	163.56
624.399	180.56
624.606	161.56
624.812	172.56
625.019	182.56
625.226	160.56
625.433	180.56
625.639	162.56
625.846	189.56
626.053	176.56
626.259	159.56
626.466	172.56
626.673	150.56
626.879	139.56
627.086	144.56
627.293	148.56
627.499	119.56
627.706	134.56
627.912	117.56
628.119	125.56
628.325	137.56
628.532	108.56
628.738	115.56
628.945	114.56
629.151	103.56
629.357	94.56
629.564	96.56
629.77	98.56
629.976	100.56
630.183	96.56
630.389	102.56
630.595	103.56
630.802	105.56
631.008	108.56
631.214	85.56
631.42	101.56
631.627	104.56
631.833	90.56
632.039	85.56
632.245	89.56
632.451	92.56
632.657	94.56
632.863	104.56
633.069	90.56
633.275	108.56
633.481	93.56
633.688	95.56
633.893	99.56
634.099	95.56
634.305	92.56
634.511	99.56
634.717	100.56
634.923	85.56
635.129	85.56
635.335	102.56
635.541	84.56
635.747	87.56
635.952	82.56
636.158	78.56
636.364	88.56
636.57	84.56
636.775	89.56
636.981	95.56
637.187	102.56
637.392	86.56
637.598	107.56
637.804	93.56
638.009	91.56
638.215	93.56
638.421	81.56
638.626	93.56
638.832	94.56
639.037	101.56
639.243	103.56
639.448	88.56
639.654	94.56
639.859	77.56
640.065	105.56
640.27	110.56
640.475	102.56
640.681	102.56
640.886	108.56
641.091	97.56
641.297	89.56
641.502	97.56
641.707	110.56
641.913	94.56
642.118	82.56
642.323	105.56
642.528	92.56
642.733	80.56
642.939	88.56
643.144	98.56
643.349	86.56
643.554	101.56
643.759	98.56
643.964	108.56
644.169	144.56
644.374	106.56
644.579	85.56
644.784	94.56
644.989	105.56
645.194	107.56
645.399	110.56
645.604	93.56
645.809	81.56
646.014	80.56
646.219	92.56
646.423	126.56
646.628	114.56
646.833	103.56
647.038	88.56
647.243	97.56
647.447	103.56
647.652	94.56
647.857	88.56
648.062	93.56
648.266	80.56
648.471	79.56
648.676	74.56
648.88	82.56
649.085	80.56
649.289	86.56
649.494	104.56
649.698	115.56
649.903	92.56
650.107	98.56
650.312	95.56
650.516	93.56
650.721	94.56
650.925	88.56
651.13	86.56
651.334	74.56
651.539	80.56
651.743	71.56
651.947	84.56
652.152	89.56
652.356	92.56
652.56	80.56
652.764	97.56
652.969	92.56
653.173	84.56
653.377	83.56
653.581	85.56
653.785	84.56
653.99	85.56
654.194	84.56
654.398	91.56
654.602	76.56
654.806	78.56
655.01	91.56
655.214	82.56
655.418	82.56
655.622	81.56
655.826	84.56
656.03	83.56
656.234	83.56
656.438	85.56
656.642	78.56
656.846	73.56
657.049	103.56
657.253	79.56
657.457	70.56
657.661	81.56
657.865	76.56
658.068	94.56
658.272	88.56
658.476	91.56
658.68	73.56
658.883	85.56
659.087	77.56
659.291	74.56
659.494	80.56
659.698	82.56
659.901	76.56
660.105	87.56
660.309	86.56
660.512	73.56
660.716	82.56
660.919	71.56
661.123	89.56
661.326	78.56
661.53	88.56
661.733	79.56
661.936	84.56
662.14	75.56
662.343	81.56
662.546	75.56
662.75	87.56
662.953	88.56
663.156	78.56
663.36	85.56
663.563	80.56
663.766	71.56
663.969	82.56
664.173	60.56
664.376	84.56
664.579	86.56
664.782	78.56
664.985	75.56
665.188	82.56
665.391	72.56
665.594	87.56
665.797	79.56
666	77.56
666.203	85.56
666.406	70.56
666.609	96.56
666.812	74.56
667.015	74.56
667.218	75.56
667.421	86.56
667.624	72.56
667.827	72.56
668.03	70.56
668.232	79.56
668.435	80.56
668.638	66.56
668.841	80.56
669.043	84.56
669.246	82.56
669.449	82.56
669.651	75.56
669.854	71.56
670.057	89.56
670.259	93.56
670.462	68.56
670.665	87.56
670.867	90.56
671.07	88.56
671.272	82.56
671.475	81.56
671.677	86.56
671.88	76.56
672.082	81.56
672.284	79.56
672.487	77.56
672.689	64.56
672.892	85.56
