Data from 17600_2_HRD10591_00027.txt Node
Date: Mon Jan 19 14:08:36 EST 2026
User: Yrep
Spectrometer: HR+D1059
Trigger mode: 1
Integration Time (sec): 1.000000E-1
Scans to average: 1
Electric dark correction enabled: true
Nonlinearity correction enabled: false
Boxcar width: 0
XAxis mode: Wavelengths
Number of Pixels in Spectrum: 2048
>>>>>Begin Spectral Data<<<<<
223.165	-16.94
223.4	-16.94
223.635	-16.94
223.869	-24.94
224.104	-21.94
224.338	-11.94
224.573	-20.94
224.808	-4.94
225.042	-12.94
225.277	3.06
225.511	5.06
225.746	9.06
225.98	-3.94
226.215	13.06
226.449	27.06
226.683	13.06
226.918	19.06
227.152	29.06
227.387	31.06
227.621	44.06
227.856	48.06
228.09	43.06
228.324	39.06
228.559	49.06
228.793	50.06
229.027	65.06
229.262	70.06
229.496	58.06
229.73	61.06
229.964	81.06
230.199	70.06
230.433	72.06
230.667	78.06
230.901	55.06
231.136	68.06
231.37	81.06
231.604	74.06
231.838	90.06
232.072	81.06
232.306	70.06
232.541	72.06
232.775	71.06
233.009	75.06
233.243	82.06
233.477	82.06
233.711	77.06
233.945	88.06
234.179	72.06
234.413	92.06
234.647	95.06
234.881	92.06
235.115	69.06
235.349	71.06
235.583	78.06
235.817	83.06
236.051	77.06
236.285	79.06
236.519	76.06
236.753	81.06
236.987	80.06
237.221	64.06
237.455	91.06
237.689	80.06
237.922	67.06
238.156	81.06
238.39	76.06
238.624	76.06
238.858	68.06
239.091	78.06
239.325	68.06
239.559	74.06
239.793	74.06
240.027	80.06
240.26	78.06
240.494	75.06
240.728	65.06
240.961	73.06
241.195	78.06
241.429	83.06
241.662	78.06
241.896	73.06
242.13	71.06
242.363	83.06
242.597	74.06
242.83	81.06
243.064	82.06
243.298	95.06
243.531	52.06
243.765	66.06
243.998	73.06
244.232	56.06
244.465	72.06
244.699	81.06
244.932	61.06
245.166	75.06
245.399	74.06
245.633	72.06
245.866	69.06
246.099	83.06
246.333	62.06
246.566	70.06
246.8	70.06
247.033	74.06
247.266	65.06
247.5	71.06
247.733	70.06
247.966	68.06
248.2	75.06
248.433	83.06
248.666	74.06
248.899	73.06
249.133	82.06
249.366	89.06
249.599	74.06
249.832	80.06
250.066	71.06
250.299	78.06
250.532	71.06
250.765	91.06
250.998	76.06
251.231	76.06
251.465	76.06
251.698	84.06
251.931	71.06
252.164	64.06
252.397	69.06
252.63	77.06
252.863	85.06
253.096	75.06
253.329	64.06
253.562	77.06
253.795	79.06
254.028	76.06
254.261	73.06
254.494	79.06
254.727	90.06
254.96	70.06
255.193	76.06
255.426	72.06
255.659	73.06
255.892	80.06
256.124	55.06
256.357	81.06
256.59	84.06
256.823	88.06
257.056	85.06
257.289	84.06
257.521	73.06
257.754	78.06
257.987	71.06
258.22	78.06
258.452	78.06
258.685	74.06
258.918	88.06
259.151	93.06
259.383	90.06
259.616	62.06
259.849	88.06
260.081	85.06
260.314	76.06
260.547	68.06
260.779	64.06
261.012	75.06
261.244	88.06
261.477	93.06
261.71	80.06
261.942	87.06
262.175	89.06
262.407	78.06
262.64	73.06
262.872	93.06
263.105	74.06
263.337	70.06
263.57	80.06
263.802	76.06
264.035	86.06
264.267	80.06
264.499	82.06
264.732	73.06
264.964	87.06
265.197	76.06
265.429	79.06
265.661	81.06
265.894	74.06
266.126	74.06
266.358	71.06
266.591	78.06
266.823	84.06
267.055	77.06
267.287	72.06
267.52	79.06
267.752	71.06
267.984	86.06
268.216	86.06
268.448	78.06
268.681	79.06
268.913	85.06
269.145	87.06
269.377	77.06
269.609	79.06
269.841	79.06
270.073	75.06
270.306	71.06
270.538	90.06
270.77	69.06
271.002	78.06
271.234	68.06
271.466	88.06
271.698	76.06
271.93	88.06
272.162	78.06
272.394	77.06
272.626	80.06
272.858	80.06
273.09	83.06
273.322	80.06
273.553	74.06
273.785	78.06
274.017	90.06
274.249	75.06
274.481	75.06
274.713	85.06
274.945	79.06
275.176	80.06
275.408	83.06
275.64	90.06
275.872	82.06
276.104	76.06
276.335	78.06
276.567	85.06
276.799	80.06
277.031	74.06
277.262	86.06
277.494	83.06
277.726	77.06
277.957	73.06
278.189	68.06
278.421	81.06
278.652	76.06
278.884	96.06
279.115	65.06
279.347	85.06
279.579	83.06
279.81	83.06
280.042	82.06
280.273	76.06
280.505	81.06
280.736	85.06
280.968	79.06
281.199	91.06
281.431	76.06
281.662	73.06
281.894	76.06
282.125	92.06
282.356	69.06
282.588	79.06
282.819	82.06
283.051	85.06
283.282	72.06
283.513	86.06
283.745	74.06
283.976	84.06
284.207	72.06
284.439	85.06
284.67	95.06
284.901	81.06
285.132	86.06
285.364	84.06
285.595	74.06
285.826	70.06
286.057	73.06
286.288	69.06
286.52	83.06
286.751	70.06
286.982	78.06
287.213	79.06
287.444	85.06
287.675	87.06
287.906	97.06
288.138	96.06
288.369	80.06
288.6	85.06
288.831	86.06
289.062	83.06
289.293	66.06
289.524	80.06
289.755	67.06
289.986	63.06
290.217	76.06
290.448	83.06
290.679	81.06
290.91	91.06
291.141	63.06
291.371	70.06
291.602	92.06
291.833	82.06
292.064	79.06
292.295	71.06
292.526	85.06
292.757	82.06
292.987	77.06
293.218	81.06
293.449	86.06
293.68	86.06
293.91	81.06
294.141	80.06
294.372	83.06
294.603	72.06
294.833	87.06
295.064	81.06
295.295	74.06
295.525	82.06
295.756	86.06
295.987	75.06
296.217	80.06
296.448	75.06
296.679	74.06
296.909	80.06
297.14	70.06
297.37	76.06
297.601	75.06
297.831	68.06
298.062	87.06
298.292	92.06
298.523	78.06
298.753	70.06
298.984	94.06
299.214	68.06
299.445	96.06
299.675	85.06
299.905	84.06
300.136	88.06
300.366	74.06
300.597	84.06
300.827	72.06
301.057	76.06
301.288	87.06
301.518	81.06
301.748	68.06
301.979	88.06
302.209	60.06
302.439	85.06
302.669	80.06
302.9	80.06
303.13	102.06
303.36	87.06
303.59	79.06
303.82	66.06
304.051	88.06
304.281	82.06
304.511	82.06
304.741	83.06
304.971	88.06
305.201	70.06
305.431	89.06
305.661	87.06
305.891	70.06
306.121	73.06
306.352	89.06
306.582	72.06
306.812	78.06
307.042	94.06
307.272	90.06
307.502	88.06
307.731	92.06
307.961	78.06
308.191	97.06
308.421	84.06
308.651	76.06
308.881	81.06
309.111	82.06
309.341	80.06
309.571	84.06
309.8	90.06
310.03	72.06
310.26	99.06
310.49	81.06
310.72	80.06
310.949	84.06
311.179	73.06
311.409	82.06
311.639	77.06
311.868	76.06
312.098	77.06
312.328	84.06
312.557	74.06
312.787	64.06
313.017	78.06
313.246	78.06
313.476	80.06
313.706	92.06
313.935	75.06
314.165	71.06
314.394	97.06
314.624	80.06
314.853	76.06
315.083	81.06
315.312	75.06
315.542	84.06
315.771	87.06
316.001	94.06
316.23	92.06
316.46	86.06
316.689	91.06
316.919	85.06
317.148	89.06
317.377	92.06
317.607	90.06
317.836	90.06
318.065	91.06
318.295	80.06
318.524	85.06
318.753	92.06
318.983	92.06
319.212	73.06
319.441	80.06
319.67	79.06
319.9	80.06
320.129	90.06
320.358	87.06
320.587	86.06
320.816	74.06
321.046	81.06
321.275	95.06
321.504	79.06
321.733	83.06
321.962	75.06
322.191	76.06
322.42	90.06
322.649	78.06
322.878	76.06
323.108	87.06
323.337	85.06
323.566	90.06
323.795	87.06
324.024	80.06
324.253	82.06
324.482	79.06
324.71	87.06
324.939	89.06
325.168	99.06
325.397	75.06
325.626	80.06
325.855	86.06
326.084	79.06
326.313	74.06
326.542	86.06
326.77	80.06
326.999	78.06
327.228	83.06
327.457	81.06
327.686	78.06
327.914	80.06
328.143	79.06
328.372	87.06
328.6	74.06
328.829	85.06
329.058	86.06
329.287	73.06
329.515	80.06
329.744	77.06
329.972	78.06
330.201	76.06
330.43	86.06
330.658	84.06
330.887	90.06
331.115	73.06
331.344	96.06
331.572	80.06
331.801	91.06
332.03	83.06
332.258	70.06
332.486	80.06
332.715	90.06
332.943	73.06
333.172	71.06
333.4	75.06
333.629	69.06
333.857	76.06
334.085	81.06
334.314	73.06
334.542	74.06
334.771	83.06
334.999	107.06
335.227	74.06
335.455	79.06
335.684	93.06
335.912	80.06
336.14	76.06
336.369	93.06
336.597	78.06
336.825	80.06
337.053	85.06
337.281	92.06
337.51	82.06
337.738	93.06
337.966	79.06
338.194	63.06
338.422	79.06
338.65	80.06
338.878	78.06
339.106	83.06
339.334	86.06
339.562	78.06
339.79	71.06
340.018	73.06
340.246	70.06
340.474	76.06
340.702	84.06
340.93	90.06
341.158	78.06
341.386	72.06
341.614	90.06
341.842	71.06
342.07	80.06
342.298	79.06
342.526	87.06
342.754	69.06
342.981	72.06
343.209	79.06
343.437	98.06
343.665	81.06
343.893	91.06
344.12	88.06
344.348	88.06
344.576	90.06
344.804	80.06
345.031	85.06
345.259	77.06
345.487	71.06
345.714	78.06
345.942	98.06
346.17	78.06
346.397	79.06
346.625	68.06
346.853	82.06
347.08	86.06
347.308	67.06
347.535	84.06
347.763	89.06
347.99	79.06
348.218	80.06
348.445	81.06
348.673	80.06
348.9	98.06
349.128	90.06
349.355	80.06
349.583	95.06
349.81	93.06
350.037	84.06
350.265	84.06
350.492	77.06
350.72	72.06
350.947	81.06
351.174	72.06
351.402	81.06
351.629	87.06
351.856	85.06
352.083	71.06
352.311	82.06
352.538	79.06
352.765	82.06
352.992	86.06
353.22	80.06
353.447	80.06
353.674	76.06
353.901	74.06
354.128	72.06
354.355	82.06
354.583	83.06
354.81	71.06
355.037	68.06
355.264	77.06
355.491	86.06
355.718	70.06
355.945	88.06
356.172	81.06
356.399	86.06
356.626	70.06
356.853	86.06
357.08	90.06
357.307	83.06
357.534	78.06
357.761	85.06
357.988	98.06
358.215	87.06
358.441	90.06
358.668	74.06
358.895	102.06
359.122	85.06
359.349	89.06
359.576	69.06
359.802	88.06
360.029	84.06
360.256	86.06
360.483	76.06
360.709	78.06
360.936	82.06
361.163	71.06
361.39	76.06
361.616	79.06
361.843	80.06
362.07	83.06
362.296	92.06
362.523	82.06
362.749	97.06
362.976	101.06
363.203	120.06
363.429	95.06
363.656	83.06
363.882	92.06
364.109	88.06
364.335	106.06
364.562	111.06
364.788	115.06
365.015	100.06
365.241	93.06
365.468	85.06
365.694	65.06
365.92	86.06
366.147	78.06
366.373	94.06
366.599	80.06
366.826	83.06
367.052	78.06
367.278	86.06
367.505	95.06
367.731	102.06
367.957	82.06
368.184	78.06
368.41	91.06
368.636	77.06
368.862	88.06
369.089	84.06
369.315	77.06
369.541	90.06
369.767	72.06
369.993	86.06
370.219	73.06
370.445	75.06
370.672	84.06
370.898	68.06
371.124	84.06
371.35	88.06
371.576	84.06
371.802	84.06
372.028	88.06
372.254	83.06
372.48	80.06
372.706	78.06
372.932	90.06
373.158	85.06
373.384	87.06
373.61	104.06
373.835	96.06
374.061	87.06
374.287	90.06
374.513	92.06
374.739	85.06
374.965	87.06
375.191	82.06
375.416	80.06
375.642	85.06
375.868	79.06
376.094	89.06
376.319	86.06
376.545	78.06
376.771	70.06
376.997	89.06
377.222	71.06
377.448	76.06
377.674	64.06
377.899	72.06
378.125	60.06
378.35	66.06
378.576	83.06
378.802	88.06
379.027	82.06
379.253	90.06
379.478	82.06
379.704	90.06
379.929	102.06
380.155	80.06
380.38	72.06
380.606	74.06
380.831	94.06
381.057	84.06
381.282	84.06
381.507	83.06
381.733	83.06
381.958	81.06
382.184	68.06
382.409	90.06
382.634	96.06
382.86	84.06
383.085	89.06
383.31	90.06
383.535	74.06
383.761	90.06
383.986	89.06
384.211	100.06
384.436	84.06
384.662	86.06
384.887	84.06
385.112	84.06
385.337	85.06
385.562	81.06
385.787	92.06
386.013	104.06
386.238	94.06
386.463	110.06
386.688	96.06
386.913	92.06
387.138	95.06
387.363	96.06
387.588	103.06
387.813	102.06
388.038	84.06
388.263	73.06
388.488	90.06
388.713	96.06
388.938	83.06
389.163	80.06
389.387	85.06
389.612	79.06
389.837	76.06
390.062	82.06
390.287	71.06
390.512	85.06
390.736	78.06
390.961	86.06
391.186	87.06
391.411	95.06
391.636	73.06
391.86	88.06
392.085	82.06
392.31	94.06
392.534	93.06
392.759	104.06
392.984	152.06
393.208	229.06
393.433	318.06
393.658	257.06
393.882	120.06
394.107	100.06
394.331	103.06
394.556	129.06
394.78	98.06
395.005	96.06
395.229	83.06
395.454	102.06
395.678	93.06
395.903	102.06
396.127	117.06
396.352	131.06
396.576	152.06
396.801	237.06
397.025	263.06
397.249	167.06
397.474	111.06
397.698	83.06
397.922	82.06
398.147	82.06
398.371	71.06
398.595	96.06
398.82	90.06
399.044	97.06
399.268	83.06
399.492	71.06
399.717	93.06
399.941	71.06
400.165	98.06
400.389	68.06
400.613	75.06
400.837	82.06
401.062	91.06
401.286	69.06
401.51	76.06
401.734	77.06
401.958	68.06
402.182	83.06
402.406	88.06
402.63	86.06
402.854	83.06
403.078	85.06
403.302	86.06
403.526	79.06
403.75	88.06
403.974	75.06
404.198	82.06
404.422	84.06
404.645	91.06
404.869	86.06
405.093	85.06
405.317	97.06
405.541	78.06
405.765	78.06
405.988	80.06
406.212	82.06
406.436	88.06
406.66	80.06
406.883	87.06
407.107	87.06
407.331	81.06
407.555	92.06
407.778	110.06
408.002	86.06
408.226	72.06
408.449	80.06
408.673	88.06
408.896	83.06
409.12	85.06
409.344	88.06
409.567	95.06
409.791	84.06
410.014	100.06
410.238	77.06
410.461	82.06
410.685	88.06
410.908	84.06
411.132	84.06
411.355	77.06
411.578	80.06
411.802	84.06
412.025	68.06
412.249	84.06
412.472	65.06
412.695	81.06
412.919	84.06
413.142	75.06
413.365	87.06
413.589	80.06
413.812	85.06
414.035	92.06
414.258	73.06
414.482	78.06
414.705	61.06
414.928	84.06
415.151	81.06
415.374	82.06
415.597	81.06
415.821	81.06
416.044	72.06
416.267	88.06
416.49	70.06
416.713	79.06
416.936	87.06
417.159	77.06
417.382	75.06
417.605	79.06
417.828	78.06
418.051	79.06
418.274	78.06
418.497	83.06
418.72	86.06
418.943	91.06
419.166	76.06
419.389	80.06
419.611	75.06
419.834	77.06
420.057	90.06
420.28	84.06
420.503	88.06
420.726	79.06
420.948	72.06
421.171	91.06
421.394	106.06
421.617	120.06
421.839	110.06
422.062	94.06
422.285	151.06
422.507	242.06
422.73	343.06
422.953	307.06
423.175	179.06
423.398	124.06
423.621	97.06
423.843	92.06
424.066	90.06
424.288	82.06
424.511	84.06
424.733	84.06
424.956	87.06
425.178	83.06
425.401	84.06
425.623	84.06
425.846	95.06
426.068	90.06
426.291	72.06
426.513	80.06
426.735	83.06
426.958	86.06
427.18	91.06
427.402	91.06
427.625	75.06
427.847	72.06
428.069	92.06
428.292	113.06
428.514	118.06
428.736	115.06
428.958	124.06
429.181	123.06
429.403	94.06
429.625	87.06
429.847	110.06
430.069	131.06
430.292	160.06
430.514	138.06
430.736	113.06
430.958	123.06
431.18	111.06
431.402	97.06
431.624	94.06
431.846	112.06
432.068	125.06
432.29	94.06
432.512	91.06
432.734	86.06
432.956	93.06
433.178	86.06
433.4	85.06
433.622	71.06
433.844	81.06
434.066	70.06
434.287	76.06
434.509	75.06
434.731	81.06
434.953	67.06
435.175	90.06
435.397	76.06
435.618	93.06
435.84	77.06
436.062	91.06
436.284	70.06
436.505	76.06
436.727	68.06
436.949	82.06
437.17	70.06
437.392	76.06
437.614	72.06
437.835	77.06
438.057	81.06
438.278	83.06
438.5	74.06
438.721	92.06
438.943	85.06
439.165	79.06
439.386	66.06
439.608	88.06
439.829	88.06
440.05	83.06
440.272	84.06
440.493	82.06
440.715	84.06
440.936	85.06
441.158	82.06
441.379	75.06
441.6	88.06
441.822	78.06
442.043	82.06
442.264	103.06
442.486	122.06
442.707	146.06
442.928	108.06
443.149	96.06
443.371	128.06
443.592	199.06
443.813	178.06
444.034	102.06
444.255	87.06
444.476	86.06
444.698	88.06
444.919	71.06
445.14	154.06
445.361	182.06
445.582	239.06
445.803	208.06
446.024	107.06
446.245	86.06
446.466	83.06
446.687	76.06
446.908	90.06
447.129	93.06
447.35	84.06
447.571	104.06
447.792	84.06
448.013	80.06
448.234	82.06
448.455	70.06
448.675	81.06
448.896	79.06
449.117	86.06
449.338	79.06
449.559	72.06
449.779	85.06
450	90.06
450.221	69.06
450.442	80.06
450.662	90.06
450.883	82.06
451.104	68.06
451.324	72.06
451.545	82.06
451.766	93.06
451.986	92.06
452.207	98.06
452.428	91.06
452.648	82.06
452.869	92.06
453.089	88.06
453.31	98.06
453.53	78.06
453.751	98.06
453.971	82.06
454.192	63.06
454.412	90.06
454.633	80.06
454.853	87.06
455.073	93.06
455.294	85.06
455.514	69.06
455.734	80.06
455.955	79.06
456.175	83.06
456.395	84.06
456.616	76.06
456.836	71.06
457.056	84.06
457.276	82.06
457.497	83.06
457.717	81.06
457.937	97.06
458.157	102.06
458.377	107.06
458.598	96.06
458.818	110.06
459.038	90.06
459.258	92.06
459.478	87.06
459.698	87.06
459.918	77.06
460.138	73.06
460.358	73.06
460.578	84.06
460.798	119.06
461.018	115.06
461.238	82.06
461.458	70.06
461.678	87.06
461.898	83.06
462.118	95.06
462.338	90.06
462.558	80.06
462.777	79.06
462.997	84.06
463.217	56.06
463.437	68.06
463.657	80.06
463.876	81.06
464.096	84.06
464.316	89.06
464.536	64.06
464.755	80.06
464.975	82.06
465.195	76.06
465.414	80.06
465.634	84.06
465.854	82.06
466.073	86.06
466.293	83.06
466.512	72.06
466.732	75.06
466.951	86.06
467.171	75.06
467.391	83.06
467.61	79.06
467.829	96.06
468.049	87.06
468.268	90.06
468.488	85.06
468.707	85.06
468.927	78.06
469.146	83.06
469.365	92.06
469.585	91.06
469.804	85.06
470.023	82.06
470.243	83.06
470.462	79.06
470.681	80.06
470.901	93.06
471.12	96.06
471.339	76.06
471.558	82.06
471.777	91.06
471.997	82.06
472.216	82.06
472.435	94.06
472.654	72.06
472.873	87.06
473.092	75.06
473.311	80.06
473.53	87.06
473.749	87.06
473.968	82.06
474.187	83.06
474.406	85.06
474.625	84.06
474.844	98.06
475.063	79.06
475.282	99.06
475.501	68.06
475.72	72.06
475.939	86.06
476.158	93.06
476.377	86.06
476.596	85.06
476.814	70.06
477.033	68.06
477.252	85.06
477.471	88.06
477.69	87.06
477.908	68.06
478.127	87.06
478.346	79.06
478.564	76.06
478.783	79.06
479.002	72.06
479.22	85.06
479.439	85.06
479.658	86.06
479.876	90.06
480.095	82.06
480.313	75.06
480.532	89.06
480.751	85.06
480.969	75.06
481.188	104.06
481.406	113.06
481.624	86.06
481.843	82.06
482.061	88.06
482.28	88.06
482.498	99.06
482.717	96.06
482.935	66.06
483.153	82.06
483.372	88.06
483.59	81.06
483.808	92.06
484.027	90.06
484.245	79.06
484.463	92.06
484.681	94.06
484.9	83.06
485.118	91.06
485.336	84.06
485.554	85.06
485.772	77.06
485.99	74.06
486.209	80.06
486.427	71.06
486.645	90.06
486.863	85.06
487.081	92.06
487.299	84.06
487.517	98.06
487.735	98.06
487.953	138.06
488.171	140.06
488.389	79.06
488.607	80.06
488.825	77.06
489.043	91.06
489.261	82.06
489.479	76.06
489.696	90.06
489.914	82.06
490.132	101.06
490.35	100.06
490.568	85.06
490.786	91.06
491.003	90.06
491.221	87.06
491.439	91.06
491.657	79.06
491.874	90.06
492.092	84.06
492.31	100.06
492.527	91.06
492.745	84.06
492.963	80.06
493.18	98.06
493.398	78.06
493.615	91.06
493.833	81.06
494.05	74.06
494.268	77.06
494.485	84.06
494.703	75.06
494.92	78.06
495.138	83.06
495.355	93.06
495.573	87.06
495.79	82.06
496.008	92.06
496.225	89.06
496.442	85.06
496.66	95.06
496.877	71.06
497.094	86.06
497.312	68.06
497.529	93.06
497.746	92.06
497.963	80.06
498.181	83.06
498.398	85.06
498.615	80.06
498.832	87.06
499.049	82.06
499.267	90.06
499.484	83.06
499.701	86.06
499.918	73.06
500.135	87.06
500.352	87.06
500.569	70.06
500.786	81.06
501.003	82.06
501.22	96.06
501.437	81.06
501.654	74.06
501.871	91.06
502.088	85.06
502.305	79.06
502.522	92.06
502.739	94.06
502.956	88.06
503.172	90.06
503.389	74.06
503.606	86.06
503.823	93.06
504.04	94.06
504.256	106.06
504.473	129.06
504.69	84.06
504.907	96.06
505.123	83.06
505.34	70.06
505.557	82.06
505.773	78.06
505.99	77.06
506.207	86.06
506.423	87.06
506.64	88.06
506.856	78.06
507.073	78.06
507.289	91.06
507.506	79.06
507.722	86.06
507.939	78.06
508.155	77.06
508.372	100.06
508.588	72.06
508.805	91.06
509.021	84.06
509.238	80.06
509.454	108.06
509.67	85.06
509.887	92.06
510.103	87.06
510.319	80.06
510.536	82.06
510.752	90.06
510.968	71.06
511.184	70.06
511.401	72.06
511.617	93.06
511.833	74.06
512.049	76.06
512.265	81.06
512.481	83.06
512.698	72.06
512.914	90.06
513.13	82.06
513.346	81.06
513.562	87.06
513.778	87.06
513.994	82.06
514.21	80.06
514.426	99.06
514.642	78.06
514.858	94.06
515.074	81.06
515.29	98.06
515.506	98.06
515.721	75.06
515.937	82.06
516.153	81.06
516.369	93.06
516.585	80.06
516.801	85.06
517.016	92.06
517.232	94.06
517.448	86.06
517.664	83.06
517.879	82.06
518.095	93.06
518.311	96.06
518.527	98.06
518.742	99.06
518.958	142.06
519.173	146.06
519.389	114.06
519.605	100.06
519.82	76.06
520.036	85.06
520.251	77.06
520.467	94.06
520.682	78.06
520.898	86.06
521.113	85.06
521.329	89.06
521.544	94.06
521.76	78.06
521.975	87.06
522.19	72.06
522.406	94.06
522.621	90.06
522.836	74.06
523.052	95.06
523.267	83.06
523.482	99.06
523.698	83.06
523.913	87.06
524.128	78.06
524.343	78.06
524.559	86.06
524.774	96.06
524.989	76.06
525.204	94.06
525.419	86.06
525.634	84.06
525.849	103.06
526.064	103.06
526.28	187.06
526.495	246.06
526.71	270.06
526.925	184.06
527.14	230.06
527.355	215.06
527.57	101.06
527.785	83.06
527.999	87.06
528.214	95.06
528.429	90.06
528.644	93.06
528.859	81.06
529.074	84.06
529.289	98.06
529.503	95.06
529.718	92.06
529.933	76.06
530.148	75.06
530.363	90.06
530.577	106.06
530.792	112.06
531.007	79.06
531.221	102.06
531.436	101.06
531.651	95.06
531.865	87.06
532.08	86.06
532.295	82.06
532.509	100.06
532.724	89.06
532.938	86.06
533.153	86.06
533.367	86.06
533.582	78.06
533.796	95.06
534.011	88.06
534.225	90.06
534.44	80.06
534.654	97.06
534.868	95.06
535.083	126.06
535.297	132.06
535.511	94.06
535.726	84.06
535.94	96.06
536.154	88.06
536.369	90.06
536.583	92.06
536.797	85.06
537.011	92.06
537.225	103.06
537.44	96.06
537.654	86.06
537.868	85.06
538.082	100.06
538.296	104.06
538.51	85.06
538.724	120.06
538.938	96.06
539.153	92.06
539.367	99.06
539.581	86.06
539.795	96.06
540.009	94.06
540.222	101.06
540.436	93.06
540.65	97.06
540.864	86.06
541.078	100.06
541.292	104.06
541.506	84.06
541.72	92.06
541.934	94.06
542.147	111.06
542.361	90.06
542.575	88.06
542.789	91.06
543.002	108.06
543.216	90.06
543.43	84.06
543.644	87.06
543.857	94.06
544.071	94.06
544.285	103.06
544.498	85.06
544.712	92.06
544.925	94.06
545.139	91.06
545.352	99.06
545.566	94.06
545.779	85.06
545.993	83.06
546.206	92.06
546.42	112.06
546.633	104.06
546.847	128.06
547.06	118.06
547.274	142.06
547.487	141.06
547.7	134.06
547.914	146.06
548.127	167.06
548.34	164.06
548.554	163.06
548.767	162.06
548.98	162.06
549.193	146.06
549.407	166.06
549.62	158.06
549.833	181.06
550.046	183.06
550.259	186.06
550.473	195.06
550.686	214.06
550.899	222.06
551.112	229.06
551.325	253.06
551.538	278.06
551.751	241.06
551.964	235.06
552.177	249.06
552.39	250.06
552.603	228.06
552.816	247.06
553.029	244.06
553.242	238.06
553.455	247.06
553.667	261.06
553.88	261.06
554.093	271.06
554.306	271.06
554.519	275.06
554.732	280.06
554.944	276.06
555.157	261.06
555.37	271.06
555.583	252.06
555.795	246.06
556.008	213.06
556.221	222.06
556.433	206.06
556.646	196.06
556.859	191.06
557.071	178.06
557.284	157.06
557.496	172.06
557.709	166.06
557.921	153.06
558.134	150.06
558.346	182.06
558.559	165.06
558.771	174.06
558.984	266.06
559.196	316.06
559.409	190.06
559.621	258.06
559.833	206.06
560.046	236.06
560.258	202.06
560.47	206.06
560.683	142.06
560.895	121.06
561.107	106.06
561.32	109.06
561.532	107.06
561.744	102.06
561.956	98.06
562.168	97.06
562.381	101.06
562.593	98.06
562.805	93.06
563.017	102.06
563.229	103.06
563.441	90.06
563.653	92.06
563.865	104.06
564.077	96.06
564.289	111.06
564.501	108.06
564.713	101.06
564.925	97.06
565.137	99.06
565.349	82.06
565.561	98.06
565.773	113.06
565.985	88.06
566.197	99.06
566.408	80.06
566.62	94.06
566.832	91.06
567.044	101.06
567.255	95.06
567.467	89.06
567.679	91.06
567.891	82.06
568.102	92.06
568.314	102.06
568.526	86.06
568.737	99.06
568.949	120.06
569.161	99.06
569.372	85.06
569.584	97.06
569.795	92.06
570.007	88.06
570.218	106.06
570.43	108.06
570.641	90.06
570.853	90.06
571.064	100.06
571.276	101.06
571.487	98.06
571.698	93.06
571.91	76.06
572.121	101.06
572.333	95.06
572.544	90.06
572.755	112.06
572.966	92.06
573.178	78.06
573.389	93.06
573.6	93.06
573.811	89.06
574.023	99.06
574.234	81.06
574.445	84.06
574.656	87.06
574.867	87.06
575.078	82.06
575.289	88.06
575.501	86.06
575.712	91.06
575.923	104.06
576.134	108.06
576.345	90.06
576.556	86.06
576.767	85.06
576.978	86.06
577.188	73.06
577.399	81.06
577.61	86.06
577.821	88.06
578.032	89.06
578.243	90.06
578.454	78.06
578.665	91.06
578.875	85.06
579.086	90.06
579.297	82.06
579.508	86.06
579.718	106.06
579.929	96.06
580.14	92.06
580.35	99.06
580.561	90.06
580.772	86.06
580.982	73.06
581.193	81.06
581.403	86.06
581.614	90.06
581.825	83.06
582.035	96.06
582.246	92.06
582.456	101.06
582.667	94.06
582.877	82.06
583.087	87.06
583.298	78.06
583.508	92.06
583.719	78.06
583.929	98.06
584.139	109.06
584.35	97.06
584.56	92.06
584.77	86.06
584.981	92.06
585.191	98.06
585.401	84.06
585.611	92.06
585.821	133.06
586.032	206.06
586.242	109.06
586.452	115.06
586.662	111.06
586.872	90.06
587.082	103.06
587.292	102.06
587.502	87.06
587.713	86.06
587.923	75.06
588.133	86.06
588.343	97.06
588.553	108.06
588.762	138.06
588.972	231.06
589.182	503.06
589.392	362.06
589.602	262.06
589.812	423.06
590.022	246.06
590.232	131.06
590.441	126.06
590.651	104.06
590.861	115.06
591.071	113.06
591.281	112.06
591.49	94.06
591.7	106.06
591.91	101.06
592.119	106.06
592.329	98.06
592.539	102.06
592.748	117.06
592.958	117.06
593.167	127.06
593.377	114.06
593.587	124.06
593.796	113.06
594.006	106.06
594.215	109.06
594.424	128.06
594.634	127.06
594.843	116.06
595.053	116.06
595.262	137.06
595.472	132.06
595.681	126.06
595.89	148.06
596.1	136.06
596.309	135.06
596.518	148.06
596.727	155.06
596.937	159.06
597.146	140.06
597.355	160.06
597.564	165.06
597.774	153.06
597.983	160.06
598.192	144.06
598.401	161.06
598.61	180.06
598.819	163.06
599.028	165.06
599.237	163.06
599.446	163.06
599.655	175.06
599.864	176.06
600.073	160.06
600.282	163.06
600.491	172.06
600.7	186.06
600.909	154.06
601.118	164.06
601.327	159.06
601.536	153.06
601.745	136.06
601.953	124.06
602.162	147.06
602.371	150.06
602.58	165.06
602.789	160.06
602.997	165.06
603.206	159.06
603.415	159.06
603.623	156.06
603.832	173.06
604.041	172.06
604.249	175.06
604.458	172.06
604.666	177.06
604.875	171.06
605.084	199.06
605.292	175.06
605.501	167.06
605.709	173.06
605.918	198.06
606.126	179.06
606.334	207.06
606.543	206.06
606.751	190.06
606.96	192.06
607.168	190.06
607.376	177.06
607.585	196.06
607.793	172.06
608.001	185.06
608.21	175.06
608.418	173.06
608.626	184.06
608.834	189.06
609.043	206.06
609.251	197.06
609.459	172.06
609.667	191.06
609.875	230.06
610.083	197.06
610.291	212.06
610.499	264.06
610.707	215.06
610.916	189.06
611.124	198.06
611.332	208.06
611.54	191.06
611.748	211.06
611.955	211.06
612.163	239.06
612.371	326.06
612.579	312.06
612.787	225.06
612.995	226.06
613.203	208.06
613.411	199.06
613.618	195.06
613.826	204.06
614.034	203.06
614.242	214.06
614.449	213.06
614.657	230.06
614.865	220.06
615.072	221.06
615.28	219.06
615.488	225.06
615.695	228.06
615.903	228.06
616.111	245.06
616.318	354.06
616.526	390.06
616.733	267.06
616.941	238.06
617.148	306.06
617.356	253.06
617.563	243.06
617.771	242.06
617.978	216.06
618.185	227.06
618.393	217.06
618.6	234.06
618.807	224.06
619.015	215.06
619.222	212.06
619.429	219.06
619.637	216.06
619.844	214.06
620.051	208.06
620.258	198.06
620.466	214.06
620.673	201.06
620.88	208.06
621.087	213.06
621.294	197.06
621.501	208.06
621.708	223.06
621.915	208.06
622.122	212.06
622.329	229.06
622.536	224.06
622.743	200.06
622.95	198.06
623.157	222.06
623.364	219.06
623.571	228.06
623.778	203.06
623.985	202.06
624.192	205.06
624.399	222.06
624.606	216.06
624.812	209.06
625.019	221.06
625.226	219.06
625.433	206.06
625.639	205.06
625.846	199.06
626.053	199.06
626.259	191.06
626.466	192.06
626.673	149.06
626.879	181.06
627.086	175.06
627.293	174.06
627.499	148.06
627.706	146.06
627.912	156.06
628.119	140.06
628.325	141.06
628.532	130.06
628.738	123.06
628.945	103.06
629.151	126.06
629.357	112.06
629.564	100.06
629.77	116.06
629.976	99.06
630.183	113.06
630.389	106.06
630.595	115.06
630.802	111.06
631.008	104.06
631.214	100.06
631.42	108.06
631.627	119.06
631.833	101.06
632.039	106.06
632.245	98.06
632.451	104.06
632.657	105.06
632.863	90.06
633.069	97.06
633.275	100.06
633.481	87.06
633.688	90.06
633.893	96.06
634.099	96.06
634.305	101.06
634.511	107.06
634.717	109.06
634.923	106.06
635.129	100.06
635.335	87.06
635.541	97.06
635.747	111.06
635.952	78.06
636.158	112.06
636.364	88.06
636.57	105.06
636.775	103.06
636.981	93.06
637.187	97.06
637.392	96.06
637.598	98.06
637.804	102.06
638.009	102.06
638.215	91.06
638.421	94.06
638.626	101.06
638.832	106.06
639.037	94.06
639.243	87.06
639.448	89.06
639.654	94.06
639.859	97.06
640.065	98.06
640.27	104.06
640.475	89.06
640.681	106.06
640.886	102.06
641.091	87.06
641.297	93.06
641.502	82.06
641.707	99.06
641.913	110.06
642.118	92.06
642.323	94.06
642.528	95.06
642.733	87.06
642.939	112.06
643.144	100.06
643.349	100.06
643.554	83.06
643.759	99.06
643.964	116.06
644.169	162.06
644.374	122.06
644.579	103.06
644.784	87.06
644.989	112.06
645.194	122.06
645.399	106.06
645.604	99.06
645.809	82.06
646.014	90.06
646.219	117.06
646.423	137.06
646.628	119.06
646.833	108.06
647.038	92.06
647.243	108.06
647.447	106.06
647.652	90.06
647.857	107.06
648.062	89.06
648.266	102.06
648.471	97.06
648.676	86.06
648.88	74.06
649.085	98.06
649.289	85.06
649.494	108.06
649.698	117.06
649.903	101.06
650.107	85.06
650.312	86.06
650.516	84.06
650.721	83.06
650.925	84.06
651.13	90.06
651.334	80.06
651.539	90.06
651.743	92.06
651.947	93.06
652.152	92.06
652.356	96.06
652.56	79.06
652.764	81.06
652.969	75.06
653.173	78.06
653.377	76.06
653.581	75.06
653.785	81.06
653.99	83.06
654.194	76.06
654.398	71.06
654.602	70.06
654.806	81.06
655.01	81.06
655.214	86.06
655.418	83.06
655.622	80.06
655.826	83.06
656.03	76.06
656.234	82.06
656.438	75.06
656.642	86.06
656.846	87.06
657.049	89.06
657.253	82.06
657.457	58.06
657.661	82.06
657.865	100.06
658.068	74.06
658.272	71.06
658.476	80.06
658.68	87.06
658.883	84.06
659.087	94.06
659.291	82.06
659.494	85.06
659.698	88.06
659.901	95.06
660.105	72.06
660.309	71.06
660.512	63.06
660.716	90.06
660.919	89.06
661.123	70.06
661.326	82.06
661.53	74.06
661.733	78.06
661.936	76.06
662.14	84.06
662.343	81.06
662.546	90.06
662.75	85.06
662.953	77.06
663.156	92.06
663.36	86.06
663.563	86.06
663.766	81.06
663.969	85.06
664.173	88.06
664.376	76.06
664.579	81.06
664.782	90.06
664.985	70.06
665.188	72.06
665.391	75.06
665.594	82.06
665.797	86.06
666	75.06
666.203	75.06
666.406	84.06
666.609	72.06
666.812	65.06
667.015	68.06
667.218	91.06
667.421	76.06
667.624	71.06
667.827	66.06
668.03	87.06
668.232	76.06
668.435	84.06
668.638	95.06
668.841	86.06
669.043	73.06
669.246	87.06
669.449	87.06
669.651	82.06
669.854	73.06
670.057	70.06
670.259	83.06
670.462	86.06
670.665	80.06
670.867	83.06
671.07	84.06
671.272	83.06
671.475	78.06
671.677	78.06
671.88	72.06
672.082	87.06
672.284	82.06
672.487	82.06
672.689	78.06
672.892	87.06
