Data from 17600_2_HRD10591_00037.txt Node
Date: Mon Jan 19 14:08:41 EST 2026
User: Yrep
Spectrometer: HR+D1059
Trigger mode: 1
Integration Time (sec): 1.000000E-1
Scans to average: 1
Electric dark correction enabled: true
Nonlinearity correction enabled: false
Boxcar width: 0
XAxis mode: Wavelengths
Number of Pixels in Spectrum: 2048
>>>>>Begin Spectral Data<<<<<
223.165	-26.12
223.4	-26.12
223.635	-26.12
223.869	-21.12
224.104	-21.12
224.338	-20.12
224.573	-15.12
224.808	-15.12
225.042	-8.12
225.277	-6.12
225.511	4.88
225.746	8.88
225.98	9.88
226.215	10.88
226.449	15.88
226.683	17.88
226.918	31.88
227.152	32.88
227.387	24.88
227.621	51.88
227.856	37.88
228.09	51.88
228.324	55.88
228.559	63.88
228.793	62.88
229.027	64.88
229.262	62.88
229.496	63.88
229.73	64.88
229.964	81.88
230.199	85.88
230.433	78.88
230.667	79.88
230.901	84.88
231.136	93.88
231.37	78.88
231.604	97.88
231.838	91.88
232.072	85.88
232.306	82.88
232.541	87.88
232.775	84.88
233.009	73.88
233.243	75.88
233.477	70.88
233.711	72.88
233.945	94.88
234.179	77.88
234.413	87.88
234.647	83.88
234.881	84.88
235.115	83.88
235.349	88.88
235.583	98.88
235.817	91.88
236.051	72.88
236.285	75.88
236.519	82.88
236.753	76.88
236.987	81.88
237.221	72.88
237.455	87.88
237.689	87.88
237.922	68.88
238.156	63.88
238.39	63.88
238.624	82.88
238.858	65.88
239.091	87.88
239.325	75.88
239.559	82.88
239.793	67.88
240.027	78.88
240.26	84.88
240.494	77.88
240.728	87.88
240.961	81.88
241.195	78.88
241.429	87.88
241.662	83.88
241.896	85.88
242.13	58.88
242.363	71.88
242.597	67.88
242.83	88.88
243.064	83.88
243.298	77.88
243.531	67.88
243.765	76.88
243.998	65.88
244.232	77.88
244.465	77.88
244.699	81.88
244.932	80.88
245.166	84.88
245.399	84.88
245.633	81.88
245.866	82.88
246.099	84.88
246.333	73.88
246.566	71.88
246.8	75.88
247.033	66.88
247.266	69.88
247.5	80.88
247.733	86.88
247.966	87.88
248.2	72.88
248.433	82.88
248.666	99.88
248.899	92.88
249.133	83.88
249.366	83.88
249.599	86.88
249.832	75.88
250.066	85.88
250.299	75.88
250.532	89.88
250.765	77.88
250.998	90.88
251.231	73.88
251.465	92.88
251.698	100.88
251.931	92.88
252.164	89.88
252.397	80.88
252.63	77.88
252.863	92.88
253.096	88.88
253.329	77.88
253.562	91.88
253.795	93.88
254.028	79.88
254.261	87.88
254.494	77.88
254.727	71.88
254.96	69.88
255.193	81.88
255.426	86.88
255.659	81.88
255.892	88.88
256.124	74.88
256.357	88.88
256.59	91.88
256.823	75.88
257.056	93.88
257.289	73.88
257.521	84.88
257.754	83.88
257.987	75.88
258.22	83.88
258.452	86.88
258.685	74.88
258.918	83.88
259.151	81.88
259.383	83.88
259.616	90.88
259.849	85.88
260.081	91.88
260.314	66.88
260.547	73.88
260.779	86.88
261.012	92.88
261.244	97.88
261.477	88.88
261.71	75.88
261.942	87.88
262.175	90.88
262.407	86.88
262.64	111.88
262.872	71.88
263.105	84.88
263.337	75.88
263.57	69.88
263.802	83.88
264.035	86.88
264.267	91.88
264.499	75.88
264.732	88.88
264.964	74.88
265.197	77.88
265.429	72.88
265.661	72.88
265.894	81.88
266.126	85.88
266.358	90.88
266.591	95.88
266.823	81.88
267.055	88.88
267.287	81.88
267.52	63.88
267.752	69.88
267.984	72.88
268.216	87.88
268.448	85.88
268.681	79.88
268.913	81.88
269.145	80.88
269.377	77.88
269.609	81.88
269.841	93.88
270.073	90.88
270.306	100.88
270.538	85.88
270.77	94.88
271.002	87.88
271.234	92.88
271.466	83.88
271.698	75.88
271.93	83.88
272.162	87.88
272.394	62.88
272.626	75.88
272.858	90.88
273.09	94.88
273.322	101.88
273.553	89.88
273.785	82.88
274.017	77.88
274.249	80.88
274.481	87.88
274.713	84.88
274.945	85.88
275.176	93.88
275.408	88.88
275.64	93.88
275.872	79.88
276.104	72.88
276.335	89.88
276.567	76.88
276.799	75.88
277.031	85.88
277.262	96.88
277.494	92.88
277.726	94.88
277.957	92.88
278.189	72.88
278.421	83.88
278.652	80.88
278.884	83.88
279.115	91.88
279.347	83.88
279.579	78.88
279.81	89.88
280.042	102.88
280.273	87.88
280.505	96.88
280.736	83.88
280.968	58.88
281.199	89.88
281.431	85.88
281.662	95.88
281.894	87.88
282.125	71.88
282.356	85.88
282.588	98.88
282.819	91.88
283.051	77.88
283.282	96.88
283.513	81.88
283.745	80.88
283.976	78.88
284.207	89.88
284.439	84.88
284.67	73.88
284.901	85.88
285.132	91.88
285.364	93.88
285.595	96.88
285.826	83.88
286.057	76.88
286.288	89.88
286.52	81.88
286.751	95.88
286.982	96.88
287.213	98.88
287.444	87.88
287.675	86.88
287.906	92.88
288.138	85.88
288.369	95.88
288.6	97.88
288.831	90.88
289.062	83.88
289.293	75.88
289.524	91.88
289.755	93.88
289.986	75.88
290.217	77.88
290.448	74.88
290.679	81.88
290.91	93.88
291.141	75.88
291.371	77.88
291.602	85.88
291.833	83.88
292.064	82.88
292.295	87.88
292.526	92.88
292.757	85.88
292.987	90.88
293.218	81.88
293.449	69.88
293.68	83.88
293.91	87.88
294.141	96.88
294.372	95.88
294.603	88.88
294.833	85.88
295.064	96.88
295.295	91.88
295.525	90.88
295.756	81.88
295.987	90.88
296.217	65.88
296.448	77.88
296.679	85.88
296.909	69.88
297.14	91.88
297.37	86.88
297.601	77.88
297.831	92.88
298.062	88.88
298.292	91.88
298.523	91.88
298.753	92.88
298.984	84.88
299.214	77.88
299.445	66.88
299.675	85.88
299.905	86.88
300.136	100.88
300.366	83.88
300.597	73.88
300.827	90.88
301.057	95.88
301.288	73.88
301.518	95.88
301.748	79.88
301.979	81.88
302.209	77.88
302.439	91.88
302.669	90.88
302.9	80.88
303.13	92.88
303.36	94.88
303.59	83.88
303.82	94.88
304.051	85.88
304.281	85.88
304.511	77.88
304.741	86.88
304.971	84.88
305.201	81.88
305.431	93.88
305.661	76.88
305.891	78.88
306.121	95.88
306.352	75.88
306.582	91.88
306.812	97.88
307.042	87.88
307.272	85.88
307.502	89.88
307.731	84.88
307.961	96.88
308.191	88.88
308.421	93.88
308.651	86.88
308.881	99.88
309.111	87.88
309.341	87.88
309.571	92.88
309.8	72.88
310.03	88.88
310.26	76.88
310.49	82.88
310.72	87.88
310.949	90.88
311.179	85.88
311.409	84.88
311.639	78.88
311.868	92.88
312.098	92.88
312.328	86.88
312.557	88.88
312.787	83.88
313.017	93.88
313.246	89.88
313.476	98.88
313.706	99.88
313.935	89.88
314.165	80.88
314.394	90.88
314.624	91.88
314.853	86.88
315.083	78.88
315.312	97.88
315.542	91.88
315.771	99.88
316.001	102.88
316.23	90.88
316.46	100.88
316.689	99.88
316.919	99.88
317.148	95.88
317.377	94.88
317.607	93.88
317.836	93.88
318.065	101.88
318.295	104.88
318.524	87.88
318.753	81.88
318.983	84.88
319.212	76.88
319.441	84.88
319.67	92.88
319.9	86.88
320.129	89.88
320.358	78.88
320.587	83.88
320.816	84.88
321.046	92.88
321.275	101.88
321.504	87.88
321.733	85.88
321.962	88.88
322.191	99.88
322.42	94.88
322.649	95.88
322.878	88.88
323.108	95.88
323.337	85.88
323.566	79.88
323.795	92.88
324.024	88.88
324.253	79.88
324.482	87.88
324.71	88.88
324.939	88.88
325.168	73.88
325.397	85.88
325.626	82.88
325.855	76.88
326.084	79.88
326.313	91.88
326.542	67.88
326.77	78.88
326.999	81.88
327.228	99.88
327.457	82.88
327.686	86.88
327.914	98.88
328.143	87.88
328.372	72.88
328.6	77.88
328.829	88.88
329.058	79.88
329.287	92.88
329.515	89.88
329.744	88.88
329.972	96.88
330.201	92.88
330.43	86.88
330.658	85.88
330.887	69.88
331.115	75.88
331.344	75.88
331.572	75.88
331.801	80.88
332.03	90.88
332.258	75.88
332.486	77.88
332.715	92.88
332.943	82.88
333.172	75.88
333.4	85.88
333.629	87.88
333.857	83.88
334.085	94.88
334.314	97.88
334.542	107.88
334.771	92.88
334.999	92.88
335.227	75.88
335.455	83.88
335.684	103.88
335.912	81.88
336.14	108.88
336.369	104.88
336.597	104.88
336.825	89.88
337.053	91.88
337.281	87.88
337.51	85.88
337.738	71.88
337.966	88.88
338.194	95.88
338.422	95.88
338.65	97.88
338.878	89.88
339.106	91.88
339.334	105.88
339.562	89.88
339.79	78.88
340.018	81.88
340.246	74.88
340.474	82.88
340.702	91.88
340.93	92.88
341.158	72.88
341.386	83.88
341.614	97.88
341.842	92.88
342.07	91.88
342.298	85.88
342.526	78.88
342.754	87.88
342.981	73.88
343.209	79.88
343.437	95.88
343.665	85.88
343.893	84.88
344.12	86.88
344.348	84.88
344.576	98.88
344.804	93.88
345.031	83.88
345.259	77.88
345.487	83.88
345.714	69.88
345.942	86.88
346.17	81.88
346.397	91.88
346.625	88.88
346.853	94.88
347.08	87.88
347.308	97.88
347.535	96.88
347.763	82.88
347.99	78.88
348.218	90.88
348.445	86.88
348.673	85.88
348.9	89.88
349.128	83.88
349.355	83.88
349.583	91.88
349.81	99.88
350.037	91.88
350.265	95.88
350.492	82.88
350.72	85.88
350.947	94.88
351.174	79.88
351.402	91.88
351.629	84.88
351.856	80.88
352.083	71.88
352.311	91.88
352.538	100.88
352.765	96.88
352.992	87.88
353.22	90.88
353.447	71.88
353.674	73.88
353.901	87.88
354.128	93.88
354.355	99.88
354.583	99.88
354.81	86.88
355.037	97.88
355.264	93.88
355.491	92.88
355.718	99.88
355.945	75.88
356.172	91.88
356.399	80.88
356.626	67.88
356.853	93.88
357.08	100.88
357.307	84.88
357.534	81.88
357.761	93.88
357.988	91.88
358.215	99.88
358.441	83.88
358.668	92.88
358.895	88.88
359.122	83.88
359.349	81.88
359.576	82.88
359.802	96.88
360.029	88.88
360.256	94.88
360.483	80.88
360.709	75.88
360.936	95.88
361.163	79.88
361.39	88.88
361.616	94.88
361.843	92.88
362.07	99.88
362.296	82.88
362.523	111.88
362.749	98.88
362.976	95.88
363.203	116.88
363.429	104.88
363.656	109.88
363.882	107.88
364.109	112.88
364.335	122.88
364.562	129.88
364.788	107.88
365.015	111.88
365.241	95.88
365.468	84.88
365.694	88.88
365.92	96.88
366.147	87.88
366.373	98.88
366.599	97.88
366.826	82.88
367.052	83.88
367.278	95.88
367.505	87.88
367.731	85.88
367.957	87.88
368.184	89.88
368.41	105.88
368.636	73.88
368.862	92.88
369.089	81.88
369.315	91.88
369.541	88.88
369.767	87.88
369.993	95.88
370.219	84.88
370.445	104.88
370.672	103.88
370.898	90.88
371.124	85.88
371.35	90.88
371.576	87.88
371.802	88.88
372.028	90.88
372.254	92.88
372.48	93.88
372.706	86.88
372.932	92.88
373.158	97.88
373.384	110.88
373.61	115.88
373.835	120.88
374.061	89.88
374.287	87.88
374.513	88.88
374.739	89.88
374.965	95.88
375.191	93.88
375.416	82.88
375.642	106.88
375.868	83.88
376.094	90.88
376.319	87.88
376.545	77.88
376.771	90.88
376.997	105.88
377.222	95.88
377.448	89.88
377.674	79.88
377.899	78.88
378.125	80.88
378.35	98.88
378.576	90.88
378.802	88.88
379.027	89.88
379.253	87.88
379.478	80.88
379.704	95.88
379.929	76.88
380.155	89.88
380.38	75.88
380.606	89.88
380.831	89.88
381.057	90.88
381.282	91.88
381.507	107.88
381.733	99.88
381.958	93.88
382.184	95.88
382.409	88.88
382.634	97.88
382.86	103.88
383.085	109.88
383.31	89.88
383.535	115.88
383.761	91.88
383.986	111.88
384.211	90.88
384.436	76.88
384.662	91.88
384.887	85.88
385.112	93.88
385.337	89.88
385.562	88.88
385.787	93.88
386.013	94.88
386.238	87.88
386.463	93.88
386.688	87.88
386.913	99.88
387.138	90.88
387.363	89.88
387.588	89.88
387.813	88.88
388.038	83.88
388.263	89.88
388.488	101.88
388.713	84.88
388.938	93.88
389.163	81.88
389.387	83.88
389.612	85.88
389.837	79.88
390.062	103.88
390.287	84.88
390.512	83.88
390.736	84.88
390.961	83.88
391.186	96.88
391.411	77.88
391.636	88.88
391.86	84.88
392.085	104.88
392.31	90.88
392.534	98.88
392.759	131.88
392.984	159.88
393.208	312.88
393.433	471.88
393.658	348.88
393.882	168.88
394.107	110.88
394.331	123.88
394.556	118.88
394.78	115.88
395.005	100.88
395.229	87.88
395.454	99.88
395.678	110.88
395.903	107.88
396.127	125.88
396.352	170.88
396.576	193.88
396.801	328.88
397.025	363.88
397.249	195.88
397.474	116.88
397.698	87.88
397.922	90.88
398.147	95.88
398.371	78.88
398.595	93.88
398.82	79.88
399.044	101.88
399.268	85.88
399.492	88.88
399.717	90.88
399.941	92.88
400.165	89.88
400.389	81.88
400.613	86.88
400.837	85.88
401.062	76.88
401.286	89.88
401.51	83.88
401.734	92.88
401.958	91.88
402.182	86.88
402.406	89.88
402.63	83.88
402.854	94.88
403.078	99.88
403.302	82.88
403.526	88.88
403.75	84.88
403.974	88.88
404.198	91.88
404.422	85.88
404.645	105.88
404.869	99.88
405.093	62.88
405.317	88.88
405.541	77.88
405.765	78.88
405.988	77.88
406.212	78.88
406.436	90.88
406.66	85.88
406.883	91.88
407.107	76.88
407.331	91.88
407.555	97.88
407.778	135.88
408.002	150.88
408.226	101.88
408.449	69.88
408.673	83.88
408.896	88.88
409.12	91.88
409.344	93.88
409.567	84.88
409.791	99.88
410.014	97.88
410.238	83.88
410.461	79.88
410.685	88.88
410.908	88.88
411.132	78.88
411.355	76.88
411.578	84.88
411.802	77.88
412.025	89.88
412.249	91.88
412.472	87.88
412.695	77.88
412.919	87.88
413.142	90.88
413.365	77.88
413.589	90.88
413.812	77.88
414.035	89.88
414.258	78.88
414.482	92.88
414.705	89.88
414.928	86.88
415.151	76.88
415.374	69.88
415.597	102.88
415.821	97.88
416.044	85.88
416.267	76.88
416.49	91.88
416.713	81.88
416.936	80.88
417.159	99.88
417.382	92.88
417.605	87.88
417.828	92.88
418.051	90.88
418.274	88.88
418.497	95.88
418.72	81.88
418.943	93.88
419.166	84.88
419.389	87.88
419.611	95.88
419.834	72.88
420.057	90.88
420.28	99.88
420.503	79.88
420.726	96.88
420.948	91.88
421.171	88.88
421.394	106.88
421.617	138.88
421.839	124.88
422.062	133.88
422.285	169.88
422.507	266.88
422.73	467.88
422.953	404.88
423.175	175.88
423.398	111.88
423.621	104.88
423.843	95.88
424.066	97.88
424.288	87.88
424.511	97.88
424.733	103.88
424.956	95.88
425.178	74.88
425.401	91.88
425.623	92.88
425.846	80.88
426.068	72.88
426.291	93.88
426.513	85.88
426.735	80.88
426.958	93.88
427.18	81.88
427.402	82.88
427.625	87.88
427.847	83.88
428.069	92.88
428.292	122.88
428.514	143.88
428.736	120.88
428.958	125.88
429.181	127.88
429.403	101.88
429.625	99.88
429.847	118.88
430.069	162.88
430.292	187.88
430.514	165.88
430.736	133.88
430.958	119.88
431.18	100.88
431.402	96.88
431.624	101.88
431.846	122.88
432.068	121.88
432.29	89.88
432.512	74.88
432.734	83.88
432.956	88.88
433.178	86.88
433.4	81.88
433.622	85.88
433.844	91.88
434.066	81.88
434.287	86.88
434.509	73.88
434.731	91.88
434.953	92.88
435.175	79.88
435.397	98.88
435.618	93.88
435.84	76.88
436.062	92.88
436.284	79.88
436.505	98.88
436.727	76.88
436.949	91.88
437.17	85.88
437.392	84.88
437.614	98.88
437.835	74.88
438.057	99.88
438.278	100.88
438.5	100.88
438.721	100.88
438.943	90.88
439.165	97.88
439.386	83.88
439.608	92.88
439.829	99.88
440.05	85.88
440.272	69.88
440.493	90.88
440.715	98.88
440.936	90.88
441.158	81.88
441.379	81.88
441.6	60.88
441.822	75.88
442.043	89.88
442.264	94.88
442.486	126.88
442.707	152.88
442.928	112.88
443.149	99.88
443.371	133.88
443.592	228.88
443.813	196.88
444.034	117.88
444.255	107.88
444.476	95.88
444.698	85.88
444.919	95.88
445.14	177.88
445.361	196.88
445.582	250.88
445.803	228.88
446.024	100.88
446.245	93.88
446.466	88.88
446.687	93.88
446.908	91.88
447.129	83.88
447.35	73.88
447.571	79.88
447.792	78.88
448.013	76.88
448.234	84.88
448.455	82.88
448.675	88.88
448.896	73.88
449.117	84.88
449.338	80.88
449.559	98.88
449.779	75.88
450	93.88
450.221	79.88
450.442	88.88
450.662	92.88
450.883	95.88
451.104	98.88
451.324	79.88
451.545	95.88
451.766	69.88
451.986	81.88
452.207	98.88
452.428	88.88
452.648	91.88
452.869	100.88
453.089	89.88
453.31	80.88
453.53	83.88
453.751	88.88
453.971	72.88
454.192	78.88
454.412	85.88
454.633	82.88
454.853	79.88
455.073	80.88
455.294	83.88
455.514	84.88
455.734	80.88
455.955	89.88
456.175	83.88
456.395	91.88
456.616	95.88
456.836	96.88
457.056	87.88
457.276	94.88
457.497	88.88
457.717	91.88
457.937	97.88
458.157	113.88
458.377	116.88
458.598	103.88
458.818	118.88
459.038	89.88
459.258	88.88
459.478	80.88
459.698	84.88
459.918	71.88
460.138	79.88
460.358	84.88
460.578	88.88
460.798	121.88
461.018	128.88
461.238	94.88
461.458	97.88
461.678	87.88
461.898	80.88
462.118	79.88
462.338	91.88
462.558	81.88
462.777	81.88
462.997	93.88
463.217	78.88
463.437	80.88
463.657	91.88
463.876	78.88
464.096	96.88
464.316	82.88
464.536	76.88
464.755	87.88
464.975	90.88
465.195	87.88
465.414	85.88
465.634	104.88
465.854	81.88
466.073	97.88
466.293	81.88
466.512	87.88
466.732	88.88
466.951	84.88
467.171	79.88
467.391	67.88
467.61	70.88
467.829	95.88
468.049	95.88
468.268	86.88
468.488	73.88
468.707	93.88
468.927	81.88
469.146	83.88
469.365	88.88
469.585	104.88
469.804	93.88
470.023	86.88
470.243	83.88
470.462	78.88
470.681	99.88
470.901	93.88
471.12	75.88
471.339	87.88
471.558	96.88
471.777	83.88
471.997	77.88
472.216	80.88
472.435	86.88
472.654	88.88
472.873	90.88
473.092	93.88
473.311	96.88
473.53	75.88
473.749	81.88
473.968	86.88
474.187	91.88
474.406	87.88
474.625	77.88
474.844	88.88
475.063	79.88
475.282	91.88
475.501	92.88
475.72	76.88
475.939	99.88
476.158	79.88
476.377	77.88
476.596	82.88
476.814	83.88
477.033	82.88
477.252	84.88
477.471	70.88
477.69	87.88
477.908	73.88
478.127	94.88
478.346	77.88
478.564	82.88
478.783	91.88
479.002	87.88
479.22	93.88
479.439	77.88
479.658	83.88
479.876	84.88
480.095	86.88
480.313	87.88
480.532	96.88
480.751	78.88
480.969	72.88
481.188	100.88
481.406	99.88
481.624	85.88
481.843	84.88
482.061	82.88
482.28	69.88
482.498	89.88
482.717	77.88
482.935	83.88
483.153	82.88
483.372	85.88
483.59	60.88
483.808	78.88
484.027	83.88
484.245	75.88
484.463	83.88
484.681	103.88
484.9	88.88
485.118	115.88
485.336	83.88
485.554	84.88
485.772	84.88
485.99	94.88
486.209	82.88
486.427	80.88
486.645	85.88
486.863	92.88
487.081	80.88
487.299	91.88
487.517	84.88
487.735	95.88
487.953	158.88
488.171	116.88
488.389	100.88
488.607	91.88
488.825	76.88
489.043	94.88
489.261	92.88
489.479	89.88
489.696	80.88
489.914	84.88
490.132	76.88
490.35	85.88
490.568	93.88
490.786	89.88
491.003	89.88
491.221	83.88
491.439	85.88
491.657	83.88
491.874	80.88
492.092	79.88
492.31	101.88
492.527	90.88
492.745	80.88
492.963	96.88
493.18	80.88
493.398	96.88
493.615	86.88
493.833	85.88
494.05	82.88
494.268	79.88
494.485	75.88
494.703	87.88
494.92	89.88
495.138	86.88
495.355	101.88
495.573	89.88
495.79	89.88
496.008	89.88
496.225	86.88
496.442	98.88
496.66	98.88
496.877	90.88
497.094	83.88
497.312	95.88
497.529	86.88
497.746	100.88
497.963	94.88
498.181	86.88
498.398	86.88
498.615	80.88
498.832	85.88
499.049	101.88
499.267	90.88
499.484	104.88
499.701	84.88
499.918	92.88
500.135	97.88
500.352	86.88
500.569	84.88
500.786	95.88
501.003	93.88
501.22	89.88
501.437	84.88
501.654	79.88
501.871	101.88
502.088	95.88
502.305	81.88
502.522	88.88
502.739	92.88
502.956	87.88
503.172	87.88
503.389	84.88
503.606	89.88
503.823	92.88
504.04	81.88
504.256	99.88
504.473	130.88
504.69	97.88
504.907	81.88
505.123	77.88
505.34	97.88
505.557	76.88
505.773	98.88
505.99	92.88
506.207	92.88
506.423	85.88
506.64	79.88
506.856	85.88
507.073	91.88
507.289	92.88
507.506	66.88
507.722	75.88
507.939	75.88
508.155	103.88
508.372	75.88
508.588	81.88
508.805	89.88
509.021	76.88
509.238	81.88
509.454	71.88
509.67	77.88
509.887	83.88
510.103	86.88
510.319	86.88
510.536	79.88
510.752	73.88
510.968	101.88
511.184	73.88
511.401	73.88
511.617	93.88
511.833	87.88
512.049	87.88
512.265	101.88
512.481	76.88
512.698	85.88
512.914	95.88
513.13	87.88
513.346	86.88
513.562	94.88
513.778	70.88
513.994	73.88
514.21	82.88
514.426	95.88
514.642	87.88
514.858	92.88
515.074	91.88
515.29	72.88
515.506	89.88
515.721	91.88
515.937	84.88
516.153	101.88
516.369	91.88
516.585	94.88
516.801	87.88
517.016	104.88
517.232	94.88
517.448	92.88
517.664	87.88
517.879	90.88
518.095	78.88
518.311	90.88
518.527	93.88
518.742	101.88
518.958	145.88
519.173	153.88
519.389	105.88
519.605	91.88
519.82	88.88
520.036	93.88
520.251	81.88
520.467	77.88
520.682	82.88
520.898	89.88
521.113	91.88
521.329	98.88
521.544	88.88
521.76	87.88
521.975	84.88
522.19	102.88
522.406	93.88
522.621	105.88
522.836	88.88
523.052	89.88
523.267	84.88
523.482	91.88
523.698	83.88
523.913	87.88
524.128	97.88
524.343	85.88
524.559	97.88
524.774	93.88
524.989	89.88
525.204	86.88
525.419	96.88
525.634	88.88
525.849	90.88
526.064	122.88
526.28	196.88
526.495	259.88
526.71	273.88
526.925	203.88
527.14	251.88
527.355	223.88
527.57	106.88
527.785	83.88
527.999	89.88
528.214	97.88
528.429	92.88
528.644	96.88
528.859	89.88
529.074	76.88
529.289	87.88
529.503	84.88
529.718	84.88
529.933	104.88
530.148	94.88
530.363	88.88
530.577	81.88
530.792	81.88
531.007	82.88
531.221	80.88
531.436	90.88
531.651	108.88
531.865	97.88
532.08	105.88
532.295	95.88
532.509	96.88
532.724	88.88
532.938	94.88
533.153	92.88
533.367	82.88
533.582	90.88
533.796	102.88
534.011	92.88
534.225	104.88
534.44	87.88
534.654	92.88
534.868	108.88
535.083	135.88
535.297	119.88
535.511	86.88
535.726	97.88
535.94	109.88
536.154	106.88
536.369	105.88
536.583	93.88
536.797	99.88
537.011	85.88
537.225	91.88
537.44	91.88
537.654	98.88
537.868	74.88
538.082	83.88
538.296	87.88
538.51	102.88
538.724	96.88
538.938	87.88
539.153	98.88
539.367	101.88
539.581	102.88
539.795	74.88
540.009	94.88
540.222	91.88
540.436	97.88
540.65	98.88
540.864	107.88
541.078	101.88
541.292	103.88
541.506	97.88
541.72	99.88
541.934	94.88
542.147	95.88
542.361	112.88
542.575	92.88
542.789	91.88
543.002	97.88
543.216	97.88
543.43	80.88
543.644	95.88
543.857	98.88
544.071	92.88
544.285	102.88
544.498	91.88
544.712	81.88
544.925	119.88
545.139	101.88
545.352	87.88
545.566	107.88
545.779	104.88
545.993	105.88
546.206	116.88
546.42	108.88
546.633	100.88
546.847	124.88
547.06	115.88
547.274	129.88
547.487	140.88
547.7	155.88
547.914	166.88
548.127	164.88
548.34	152.88
548.554	163.88
548.767	164.88
548.98	169.88
549.193	157.88
549.407	151.88
549.62	156.88
549.833	170.88
550.046	192.88
550.259	190.88
550.473	181.88
550.686	192.88
550.899	215.88
551.112	230.88
551.325	249.88
551.538	242.88
551.751	211.88
551.964	223.88
552.177	202.88
552.39	203.88
552.603	197.88
552.816	195.88
553.029	200.88
553.242	216.88
553.455	195.88
553.667	201.88
553.88	202.88
554.093	201.88
554.306	185.88
554.519	205.88
554.732	193.88
554.944	197.88
555.157	186.88
555.37	186.88
555.583	193.88
555.795	168.88
556.008	164.88
556.221	154.88
556.433	159.88
556.646	167.88
556.859	130.88
557.071	137.88
557.284	131.88
557.496	130.88
557.709	115.88
557.921	121.88
558.134	123.88
558.346	174.88
558.559	161.88
558.771	161.88
558.984	277.88
559.196	332.88
559.409	177.88
559.621	287.88
559.833	207.88
560.046	253.88
560.258	196.88
560.47	212.88
560.683	133.88
560.895	98.88
561.107	100.88
561.32	99.88
561.532	100.88
561.744	105.88
561.956	103.88
562.168	90.88
562.381	95.88
562.593	99.88
562.805	97.88
563.017	104.88
563.229	99.88
563.441	100.88
563.653	96.88
563.865	87.88
564.077	106.88
564.289	96.88
564.501	89.88
564.713	101.88
564.925	99.88
565.137	102.88
565.349	90.88
565.561	85.88
565.773	90.88
565.985	85.88
566.197	107.88
566.408	96.88
566.62	106.88
566.832	104.88
567.044	90.88
567.255	88.88
567.467	97.88
567.679	104.88
567.891	104.88
568.102	87.88
568.314	97.88
568.526	104.88
568.737	84.88
568.949	111.88
569.161	107.88
569.372	101.88
569.584	106.88
569.795	94.88
570.007	96.88
570.218	108.88
570.43	104.88
570.641	96.88
570.853	92.88
571.064	87.88
571.276	84.88
571.487	98.88
571.698	100.88
571.91	84.88
572.121	107.88
572.333	97.88
572.544	103.88
572.755	112.88
572.966	80.88
573.178	104.88
573.389	104.88
573.6	92.88
573.811	96.88
574.023	90.88
574.234	99.88
574.445	96.88
574.656	86.88
574.867	81.88
575.078	96.88
575.289	89.88
575.501	91.88
575.712	85.88
575.923	103.88
576.134	94.88
576.345	84.88
576.556	93.88
576.767	89.88
576.978	106.88
577.188	92.88
577.399	96.88
577.61	88.88
577.821	86.88
578.032	97.88
578.243	92.88
578.454	111.88
578.665	85.88
578.875	100.88
579.086	85.88
579.297	106.88
579.508	87.88
579.718	84.88
579.929	91.88
580.14	94.88
580.35	91.88
580.561	93.88
580.772	98.88
580.982	94.88
581.193	105.88
581.403	90.88
581.614	85.88
581.825	89.88
582.035	88.88
582.246	98.88
582.456	85.88
582.667	81.88
582.877	99.88
583.087	99.88
583.298	90.88
583.508	97.88
583.719	93.88
583.929	102.88
584.139	82.88
584.35	90.88
584.56	107.88
584.77	98.88
584.981	78.88
585.191	73.88
585.401	96.88
585.611	101.88
585.821	151.88
586.032	208.88
586.242	126.88
586.452	109.88
586.662	104.88
586.872	112.88
587.082	98.88
587.292	100.88
587.502	92.88
587.713	91.88
587.923	99.88
588.133	107.88
588.343	97.88
588.553	111.88
588.762	132.88
588.972	213.88
589.182	562.88
589.392	346.88
589.602	262.88
589.812	479.88
590.022	239.88
590.232	131.88
590.441	99.88
590.651	108.88
590.861	113.88
591.071	97.88
591.281	103.88
591.49	99.88
591.7	101.88
591.91	109.88
592.119	114.88
592.329	107.88
592.539	115.88
592.748	108.88
592.958	97.88
593.167	115.88
593.377	106.88
593.587	113.88
593.796	101.88
594.006	114.88
594.215	111.88
594.424	119.88
594.634	112.88
594.843	119.88
595.053	105.88
595.262	127.88
595.472	129.88
595.681	115.88
595.89	135.88
596.1	149.88
596.309	136.88
596.518	125.88
596.727	149.88
596.937	140.88
597.146	146.88
597.355	144.88
597.564	156.88
597.774	148.88
597.983	153.88
598.192	144.88
598.401	143.88
598.61	158.88
598.819	151.88
599.028	159.88
599.237	164.88
599.446	159.88
599.655	151.88
599.864	154.88
600.073	142.88
600.282	154.88
600.491	144.88
600.7	152.88
600.909	153.88
601.118	130.88
601.327	137.88
601.536	113.88
601.745	136.88
601.953	134.88
602.162	138.88
602.371	144.88
602.58	151.88
602.789	132.88
602.997	149.88
603.206	159.88
603.415	154.88
603.623	147.88
603.832	167.88
604.041	145.88
604.249	154.88
604.458	149.88
604.666	168.88
604.875	180.88
605.084	153.88
605.292	179.88
605.501	181.88
605.709	183.88
605.918	199.88
606.126	200.88
606.334	193.88
606.543	207.88
606.751	178.88
606.96	199.88
607.168	175.88
607.376	173.88
607.585	167.88
607.793	181.88
608.001	162.88
608.21	153.88
608.418	145.88
608.626	168.88
608.834	176.88
609.043	179.88
609.251	178.88
609.459	162.88
609.667	185.88
609.875	195.88
610.083	175.88
610.291	203.88
610.499	252.88
610.707	185.88
610.916	175.88
611.124	165.88
611.332	178.88
611.54	188.88
611.748	199.88
611.955	196.88
612.163	217.88
612.371	343.88
612.579	291.88
612.787	224.88
612.995	214.88
613.203	192.88
613.411	185.88
613.618	179.88
613.826	188.88
614.034	199.88
614.242	207.88
614.449	185.88
614.657	191.88
614.865	197.88
615.072	183.88
615.28	191.88
615.488	188.88
615.695	210.88
615.903	210.88
616.111	208.88
616.318	333.88
616.526	382.88
616.733	221.88
616.941	221.88
617.148	278.88
617.356	224.88
617.563	192.88
617.771	191.88
617.978	172.88
618.185	169.88
618.393	167.88
618.6	176.88
618.807	156.88
619.015	160.88
619.222	187.88
619.429	158.88
619.637	172.88
619.844	156.88
620.051	151.88
620.258	162.88
620.466	152.88
620.673	159.88
620.88	155.88
621.087	170.88
621.294	154.88
621.501	162.88
621.708	167.88
621.915	158.88
622.122	169.88
622.329	164.88
622.536	156.88
622.743	166.88
622.95	158.88
623.157	163.88
623.364	172.88
623.571	161.88
623.778	151.88
623.985	166.88
624.192	163.88
624.399	153.88
624.606	153.88
624.812	145.88
625.019	173.88
625.226	157.88
625.433	159.88
625.639	159.88
625.846	161.88
626.053	148.88
626.259	155.88
626.466	146.88
626.673	143.88
626.879	113.88
627.086	141.88
627.293	130.88
627.499	116.88
627.706	125.88
627.912	122.88
628.119	111.88
628.325	115.88
628.532	118.88
628.738	104.88
628.945	95.88
629.151	116.88
629.357	112.88
629.564	114.88
629.77	108.88
629.976	114.88
630.183	96.88
630.389	96.88
630.595	106.88
630.802	108.88
631.008	95.88
631.214	97.88
631.42	85.88
631.627	102.88
631.833	90.88
632.039	93.88
632.245	108.88
632.451	100.88
632.657	98.88
632.863	80.88
633.069	91.88
633.275	93.88
633.481	91.88
633.688	92.88
633.893	102.88
634.099	94.88
634.305	95.88
634.511	100.88
634.717	91.88
634.923	93.88
635.129	107.88
635.335	97.88
635.541	97.88
635.747	107.88
635.952	88.88
636.158	105.88
636.364	105.88
636.57	89.88
636.775	83.88
636.981	88.88
637.187	89.88
637.392	94.88
637.598	92.88
637.804	95.88
638.009	82.88
638.215	95.88
638.421	93.88
638.626	82.88
638.832	97.88
639.037	99.88
639.243	90.88
639.448	108.88
639.654	101.88
639.859	93.88
640.065	103.88
640.27	86.88
640.475	94.88
640.681	100.88
640.886	88.88
641.091	113.88
641.297	90.88
641.502	79.88
641.707	84.88
641.913	93.88
642.118	82.88
642.323	92.88
642.528	101.88
642.733	88.88
642.939	111.88
643.144	105.88
643.349	83.88
643.554	99.88
643.759	89.88
643.964	136.88
644.169	175.88
644.374	111.88
644.579	98.88
644.784	98.88
644.989	97.88
645.194	113.88
645.399	101.88
645.604	90.88
645.809	95.88
646.014	96.88
646.219	107.88
646.423	150.88
646.628	120.88
646.833	81.88
647.038	85.88
647.243	117.88
647.447	103.88
647.652	90.88
647.857	98.88
648.062	95.88
648.266	91.88
648.471	87.88
648.676	99.88
648.88	95.88
649.085	87.88
649.289	92.88
649.494	109.88
649.698	116.88
649.903	89.88
650.107	95.88
650.312	111.88
650.516	95.88
650.721	101.88
650.925	85.88
651.13	76.88
651.334	86.88
651.539	87.88
651.743	90.88
651.947	104.88
652.152	90.88
652.356	93.88
652.56	88.88
652.764	91.88
652.969	96.88
653.173	86.88
653.377	89.88
653.581	88.88
653.785	106.88
653.99	85.88
654.194	79.88
654.398	84.88
654.602	96.88
654.806	98.88
655.01	84.88
655.214	71.88
655.418	91.88
655.622	83.88
655.826	85.88
656.03	80.88
656.234	70.88
656.438	84.88
656.642	83.88
656.846	60.88
657.049	89.88
657.253	92.88
657.457	91.88
657.661	85.88
657.865	83.88
658.068	81.88
658.272	94.88
658.476	80.88
658.68	68.88
658.883	76.88
659.087	83.88
659.291	82.88
659.494	93.88
659.698	74.88
659.901	79.88
660.105	87.88
660.309	80.88
660.512	84.88
660.716	91.88
660.919	84.88
661.123	67.88
661.326	82.88
661.53	84.88
661.733	88.88
661.936	102.88
662.14	92.88
662.343	80.88
662.546	78.88
662.75	69.88
662.953	91.88
663.156	79.88
663.36	89.88
663.563	96.88
663.766	81.88
663.969	79.88
664.173	91.88
664.376	77.88
664.579	75.88
664.782	93.88
664.985	80.88
665.188	81.88
665.391	91.88
665.594	77.88
665.797	83.88
666	82.88
666.203	89.88
666.406	76.88
666.609	77.88
666.812	84.88
667.015	91.88
667.218	83.88
667.421	76.88
667.624	89.88
667.827	93.88
668.03	66.88
668.232	80.88
668.435	71.88
668.638	82.88
668.841	96.88
669.043	92.88
669.246	83.88
669.449	74.88
669.651	81.88
669.854	77.88
670.057	81.88
670.259	88.88
670.462	87.88
670.665	85.88
670.867	87.88
671.07	87.88
671.272	90.88
671.475	75.88
671.677	82.88
671.88	81.88
672.082	83.88
672.284	83.88
672.487	81.88
672.689	72.88
672.892	74.88
