Data from Circ_1991_H10_HRD10591_00060.txt Node
Date: Wed Jan 03 11:51:53 EST 2024
User: Yrep
Spectrometer: HR+D1059
Trigger mode: 1
Integration Time (sec): 1.000000E-1
Scans to average: 1
Electric dark correction enabled: true
Nonlinearity correction enabled: false
Boxcar width: 0
XAxis mode: Wavelengths
Number of Pixels in Spectrum: 2048
>>>>>Begin Spectral Data<<<<<
223.165	-16.06
223.4	-16.06
223.635	-16.06
223.869	-8.06
224.104	-8.06
224.338	-15.06
224.573	-7.06
224.808	-33.06
225.042	-6.06
225.277	2.94
225.511	6.94
225.746	-11.06
225.98	-0.06
226.215	0.94
226.449	19.94
226.683	29.94
226.918	14.94
227.152	28.94
227.387	50.94
227.621	40.94
227.856	42.94
228.09	45.94
228.324	48.94
228.559	45.94
228.793	161.94
229.027	417.94
229.262	516.94
229.496	592.94
229.73	751.94
229.964	782.94
230.199	513.94
230.433	467.94
230.667	480.94
230.901	466.94
231.136	462.94
231.37	464.94
231.604	468.94
231.838	472.94
232.072	468.94
232.306	465.94
232.541	483.94
232.775	494.94
233.009	481.94
233.243	470.94
233.477	477.94
233.711	512.94
233.945	500.94
234.179	525.94
234.413	512.94
234.647	509.94
234.881	500.94
235.115	540.94
235.349	553.94
235.583	568.94
235.817	598.94
236.051	641.94
236.285	613.94
236.519	629.94
236.753	681.94
236.987	893.94
237.221	1298.94
237.455	1418.94
237.689	860.94
237.922	745.94
238.156	707.94
238.39	682.94
238.624	657.94
238.858	693.94
239.091	662.94
239.325	697.94
239.559	735.94
239.793	734.94
240.027	791.94
240.26	885.94
240.494	953.94
240.728	969.94
240.961	891.94
241.195	813.94
241.429	812.94
241.662	813.94
241.896	805.94
242.13	802.94
242.363	824.94
242.597	840.94
242.83	872.94
243.064	871.94
243.298	929.94
243.531	907.94
243.765	890.94
243.998	903.94
244.232	917.94
244.465	938.94
244.699	932.94
244.932	968.94
245.166	982.94
245.399	953.94
245.633	961.94
245.866	992.94
246.099	960.94
246.333	995.94
246.566	1035.94
246.8	1017.94
247.033	1080.94
247.266	1132.94
247.5	1139.94
247.733	1153.94
247.966	1204.94
248.2	1180.94
248.433	1209.94
248.666	1271.94
248.899	1383.94
249.133	1502.94
249.366	1498.94
249.599	1456.94
249.832	1431.94
250.066	1550.94
250.299	1936.94
250.532	2486.94
250.765	2472.94
250.998	2165.94
251.231	1889.94
251.465	1688.94
251.698	1543.94
251.931	1544.94
252.164	1485.94
252.397	1546.94
252.63	1555.94
252.863	1635.94
253.096	1704.94
253.329	1754.94
253.562	1678.94
253.795	1620.94
254.028	1626.94
254.261	1680.94
254.494	1857.94
254.727	2177.94
254.96	2256.94
255.193	2108.94
255.426	2098.94
255.659	2427.94
255.892	3272.94
256.124	4317.94
256.357	3726.94
256.59	2740.94
256.823	2296.94
257.056	2052.94
257.289	1933.94
257.521	1858.94
257.754	1842.94
257.987	1741.94
258.22	1763.94
258.452	1742.94
258.685	1724.94
258.918	1731.94
259.151	1749.94
259.383	1801.94
259.616	1768.94
259.849	1839.94
260.081	1967.94
260.314	2092.94
260.547	2031.94
260.779	1845.94
261.012	1842.94
261.244	1786.94
261.477	1775.94
261.71	1785.94
261.942	1835.94
262.175	1847.94
262.407	1744.94
262.64	1740.94
262.872	1692.94
263.105	1736.94
263.337	1702.94
263.57	1765.94
263.802	1782.94
264.035	1732.94
264.267	1754.94
264.499	1725.94
264.732	1785.94
264.964	1780.94
265.197	1822.94
265.429	1789.94
265.661	1812.94
265.894	1816.94
266.126	1803.94
266.358	1818.94
266.591	1859.94
266.823	1947.94
267.055	1959.94
267.287	1955.94
267.52	1896.94
267.752	1913.94
267.984	1951.94
268.216	1983.94
268.448	1971.94
268.681	2047.94
268.913	2145.94
269.145	2350.94
269.377	2372.94
269.609	2251.94
269.841	2265.94
270.073	2381.94
270.306	2580.94
270.538	2724.94
270.77	2603.94
271.002	2449.94
271.234	2460.94
271.466	2567.94
271.698	2636.94
271.93	2616.94
272.162	2684.94
272.394	2594.94
272.626	2488.94
272.858	2393.94
273.09	2358.94
273.322	2387.94
273.553	2326.94
273.785	2331.94
274.017	2357.94
274.249	2342.94
274.481	2366.94
274.713	2383.94
274.945	2379.94
275.176	2429.94
275.408	2451.94
275.64	2456.94
275.872	2488.94
276.104	2526.94
276.335	2513.94
276.567	2625.94
276.799	2729.94
277.031	3056.94
277.262	3160.94
277.494	2950.94
277.726	2816.94
277.957	2721.94
278.189	2683.94
278.421	2563.94
278.652	2601.94
278.884	2561.94
279.115	2580.94
279.347	2595.94
279.579	2608.94
279.81	2685.94
280.042	2770.94
280.273	2920.94
280.505	2853.94
280.736	2730.94
280.968	2672.94
281.199	2685.94
281.431	2658.94
281.662	2671.94
281.894	2685.94
282.125	2732.94
282.356	2821.94
282.588	2972.94
282.819	2802.94
283.051	2650.94
283.282	2644.94
283.513	2688.94
283.745	2726.94
283.976	2762.94
284.207	2700.94
284.439	2746.94
284.67	2700.94
284.901	2778.94
285.132	2710.94
285.364	2721.94
285.595	2739.94
285.826	2837.94
286.057	2784.94
286.288	2804.94
286.52	2795.94
286.751	2777.94
286.982	2825.94
287.213	2779.94
287.444	2836.94
287.675	2940.94
287.906	2998.94
288.138	2998.94
288.369	3038.94
288.6	3002.94
288.831	2953.94
289.062	2908.94
289.293	2948.94
289.524	2940.94
289.755	2915.94
289.986	2929.94
290.217	2917.94
290.448	2923.94
290.679	2941.94
290.91	2936.94
291.141	2906.94
291.371	2941.94
291.602	2937.94
291.833	2874.94
292.064	2911.94
292.295	2886.94
292.526	2919.94
292.757	2888.94
292.987	2889.94
293.218	2848.94
293.449	2938.94
293.68	2914.94
293.91	2885.94
294.141	2987.94
294.372	2947.94
294.603	2934.94
294.833	2963.94
295.064	2969.94
295.295	2931.94
295.525	2971.94
295.756	3035.94
295.987	3098.94
296.217	3224.94
296.448	3186.94
296.679	3096.94
296.909	3001.94
297.14	3023.94
297.37	3104.94
297.601	3138.94
297.831	3155.94
298.062	3149.94
298.292	3167.94
298.523	3177.94
298.753	3254.94
298.984	3211.94
299.214	3155.94
299.445	3171.94
299.675	3193.94
299.905	3251.94
300.136	3226.94
300.366	3188.94
300.597	3319.94
300.827	3357.94
301.057	3384.94
301.288	3480.94
301.518	3464.94
301.748	3444.94
301.979	3493.94
302.209	3476.94
302.439	3502.94
302.669	3425.94
302.9	3390.94
303.13	3387.94
303.36	3434.94
303.59	3545.94
303.82	3583.94
304.051	3510.94
304.281	3493.94
304.511	3389.94
304.741	3354.94
304.971	3383.94
305.201	3369.94
305.431	3333.94
305.661	3389.94
305.891	3384.94
306.121	3340.94
306.352	3402.94
306.582	3397.94
306.812	3345.94
307.042	3395.94
307.272	3450.94
307.502	3555.94
307.731	3572.94
307.961	3446.94
308.191	3379.94
308.421	3384.94
308.651	3419.94
308.881	3392.94
309.111	3436.94
309.341	3444.94
309.571	3516.94
309.8	3578.94
310.03	3678.94
310.26	3654.94
310.49	3750.94
310.72	3771.94
310.949	3833.94
311.179	3862.94
311.409	3696.94
311.639	3787.94
311.868	3717.94
312.098	3787.94
312.328	3787.94
312.557	3979.94
312.787	4102.94
313.017	3973.94
313.246	3876.94
313.476	3806.94
313.706	3868.94
313.935	3949.94
314.165	4032.94
314.394	4065.94
314.624	3988.94
314.853	3886.94
315.083	3901.94
315.312	3830.94
315.542	3806.94
315.771	3761.94
316.001	3786.94
316.23	3817.94
316.46	3730.94
316.689	3905.94
316.919	3889.94
317.148	3866.94
317.377	3943.94
317.607	3846.94
317.836	3822.94
318.065	3821.94
318.295	3815.94
318.524	3797.94
318.753	3808.94
318.983	3820.94
319.212	3821.94
319.441	3873.94
319.67	3879.94
319.9	3821.94
320.129	3822.94
320.358	3834.94
320.587	3914.94
320.816	3945.94
321.046	4021.94
321.275	3991.94
321.504	3939.94
321.733	3917.94
321.962	4075.94
322.191	4191.94
322.42	4311.94
322.649	4367.94
322.878	4399.94
323.108	4526.94
323.337	4810.94
323.566	4861.94
323.795	5161.94
324.024	5753.94
324.253	7376.94
324.482	10926.94
324.71	15269.94
324.939	15622.94
325.168	13025.94
325.397	6633.94
325.626	5517.94
325.855	5075.94
326.084	5142.94
326.313	5109.94
326.542	5240.94
326.77	5912.94
326.999	7390.94
327.228	10660.94
327.457	14635.94
327.686	14090.94
327.914	8546.94
328.143	7868.94
328.372	8149.94
328.6	6980.94
328.829	6376.94
329.058	6476.94
329.287	6482.94
329.515	6456.94
329.744	6953.94
329.972	8354.94
330.201	10480.94
330.43	11684.94
330.658	8944.94
330.887	7532.94
331.115	6593.94
331.344	6022.94
331.572	5769.94
331.801	5840.94
332.03	5870.94
332.258	5714.94
332.486	5809.94
332.715	5962.94
332.943	6168.94
333.172	6485.94
333.4	6859.94
333.629	7276.94
333.857	8227.94
334.085	9636.94
334.314	11990.94
334.542	14164.94
334.771	13486.94
334.999	8899.94
335.227	7159.94
335.455	6527.94
335.684	6077.94
335.912	5781.94
336.14	5646.94
336.369	5560.94
336.597	5578.94
336.825	5436.94
337.053	5244.94
337.281	5153.94
337.51	5092.94
337.738	4995.94
337.966	4989.94
338.194	4955.94
338.422	4817.94
338.65	4778.94
338.878	4746.94
339.106	4715.94
339.334	4673.94
339.562	4690.94
339.79	4542.94
340.018	4581.94
340.246	4588.94
340.474	4591.94
340.702	4568.94
340.93	4580.94
341.158	4584.94
341.386	4505.94
341.614	4533.94
341.842	4481.94
342.07	4420.94
342.298	4430.94
342.526	4422.94
342.754	4458.94
342.981	4411.94
343.209	4517.94
343.437	4741.94
343.665	4979.94
343.893	5244.94
344.12	5277.94
344.348	5064.94
344.576	4877.94
344.804	4853.94
345.031	4744.94
345.259	4630.94
345.487	4595.94
345.714	4449.94
345.942	4411.94
346.17	4328.94
346.397	4295.94
346.625	4298.94
346.853	4265.94
347.08	4317.94
347.308	4266.94
347.535	4371.94
347.763	4417.94
347.99	4366.94
348.218	4340.94
348.445	4390.94
348.673	4308.94
348.9	4248.94
349.128	4192.94
349.355	4105.94
349.583	4122.94
349.81	4170.94
350.037	4131.94
350.265	4148.94
350.492	4157.94
350.72	4162.94
350.947	4196.94
351.174	4285.94
351.402	4359.94
351.629	4258.94
351.856	4276.94
352.083	4328.94
352.311	4292.94
352.538	4332.94
352.765	4304.94
352.992	4211.94
353.22	4186.94
353.447	4187.94
353.674	4101.94
353.901	4085.94
354.128	4008.94
354.355	4070.94
354.583	4081.94
354.81	3967.94
355.037	4092.94
355.264	4021.94
355.491	4042.94
355.718	4038.94
355.945	4005.94
356.172	4036.94
356.399	4025.94
356.626	4028.94
356.853	4094.94
357.08	4071.94
357.307	3979.94
357.534	4035.94
357.761	3973.94
357.988	4084.94
358.215	4019.94
358.441	4008.94
358.668	4083.94
358.895	4056.94
359.122	4163.94
359.349	4246.94
359.576	4359.94
359.802	4506.94
360.029	4697.94
360.256	4650.94
360.483	4427.94
360.709	4264.94
360.936	4279.94
361.163	4314.94
361.39	4234.94
361.616	4373.94
361.843	4277.94
362.07	4224.94
362.296	4277.94
362.523	4216.94
362.749	4257.94
362.976	4272.94
363.203	4197.94
363.429	4133.94
363.656	4207.94
363.882	4160.94
364.109	4159.94
364.335	4099.94
364.562	4140.94
364.788	4128.94
365.015	4122.94
365.241	4101.94
365.468	4204.94
365.694	4187.94
365.92	4193.94
366.147	4140.94
366.373	4085.94
366.599	4087.94
366.826	4087.94
367.052	4062.94
367.278	4154.94
367.505	4125.94
367.731	4132.94
367.957	4110.94
368.184	4199.94
368.41	4197.94
368.636	4365.94
368.862	4375.94
369.089	4252.94
369.315	4277.94
369.541	4238.94
369.767	4324.94
369.993	4259.94
370.219	4248.94
370.445	4296.94
370.672	4307.94
370.898	4407.94
371.124	4369.94
371.35	4390.94
371.576	4362.94
371.802	4352.94
372.028	4313.94
372.254	4365.94
372.48	4419.94
372.706	4528.94
372.932	4544.94
373.158	4505.94
373.384	4417.94
373.61	4345.94
373.835	4401.94
374.061	4416.94
374.287	4451.94
374.513	4564.94
374.739	4700.94
374.965	4728.94
375.191	4763.94
375.416	4693.94
375.642	4542.94
375.868	4526.94
376.094	4513.94
376.319	4520.94
376.545	4426.94
376.771	4428.94
376.997	4355.94
377.222	4360.94
377.448	4337.94
377.674	4352.94
377.899	4261.94
378.125	4289.94
378.35	4334.94
378.576	4305.94
378.802	4283.94
379.027	4316.94
379.253	4284.94
379.478	4253.94
379.704	4307.94
379.929	4303.94
380.155	4306.94
380.38	4346.94
380.606	4382.94
380.831	4316.94
381.057	4432.94
381.282	4326.94
381.507	4399.94
381.733	4380.94
381.958	4415.94
382.184	4496.94
382.409	4562.94
382.634	4602.94
382.86	4623.94
383.085	4644.94
383.31	4710.94
383.535	4770.94
383.761	4768.94
383.986	4976.94
384.211	5040.94
384.436	5069.94
384.662	5146.94
384.887	5263.94
385.112	5209.94
385.337	5248.94
385.562	5296.94
385.787	5331.94
386.013	5432.94
386.238	5353.94
386.463	5351.94
386.688	5299.94
386.913	5228.94
387.138	5266.94
387.363	5167.94
387.588	5090.94
387.813	5171.94
388.038	5160.94
388.263	5204.94
388.488	5193.94
388.713	5226.94
388.938	5173.94
389.163	5129.94
389.387	5095.94
389.612	5106.94
389.837	5093.94
390.062	5105.94
390.287	5112.94
390.512	5091.94
390.736	5245.94
390.961	5279.94
391.186	5423.94
391.411	5516.94
391.636	5592.94
391.86	5780.94
392.085	5841.94
392.31	5734.94
392.534	5645.94
392.759	5553.94
392.984	5418.94
393.208	5421.94
393.433	5507.94
393.658	5410.94
393.882	5385.94
394.107	5438.94
394.331	5483.94
394.556	5415.94
394.78	5532.94
395.005	5548.94
395.229	5528.94
395.454	5737.94
395.678	5848.94
395.903	5921.94
396.127	5921.94
396.352	5794.94
396.576	5544.94
396.801	5490.94
397.025	5595.94
397.249	5765.94
397.474	5837.94
397.698	5941.94
397.922	6088.94
398.147	6089.94
398.371	6285.94
398.595	6378.94
398.82	6653.94
399.044	7241.94
399.268	7960.94
399.492	9070.94
399.717	9619.94
399.941	9384.94
400.165	8767.94
400.389	8163.94
400.613	7358.94
400.837	6886.94
401.062	6730.94
401.286	6654.94
401.51	6627.94
401.734	6563.94
401.958	6736.94
402.182	6830.94
402.406	6912.94
402.63	7006.94
402.854	7166.94
403.078	7192.94
403.302	7355.94
403.526	7480.94
403.75	7526.94
403.974	7637.94
404.198	7678.94
404.422	7883.94
404.645	7946.94
404.869	8149.94
405.093	8723.94
405.317	9132.94
405.541	9082.94
405.765	8166.94
405.988	7796.94
406.212	7822.94
406.436	7919.94
406.66	7980.94
406.883	7764.94
407.107	8421.94
407.331	8914.94
407.555	9512.94
407.778	9045.94
408.002	8350.94
408.226	8018.94
408.449	7939.94
408.673	7745.94
408.896	7821.94
409.12	7985.94
409.344	7547.94
409.567	7308.94
409.791	7143.94
410.014	7226.94
410.238	7166.94
410.461	7140.94
410.685	7142.94
410.908	7238.94
411.132	7448.94
411.355	7558.94
411.578	7152.94
411.802	7082.94
412.025	7307.94
412.249	7780.94
412.472	8352.94
412.695	8938.94
412.919	8306.94
413.142	7766.94
413.365	7420.94
413.589	7156.94
413.812	6883.94
414.035	6719.94
414.258	6746.94
414.482	6792.94
414.705	6782.94
414.928	6695.94
415.151	6673.94
415.374	6580.94
415.597	6570.94
415.821	6502.94
416.044	6554.94
416.267	6480.94
416.49	6434.94
416.713	6329.94
416.936	6493.94
417.159	6478.94
417.382	6633.94
417.605	6721.94
417.828	6864.94
418.051	6877.94
418.274	6681.94
418.497	6562.94
418.72	6737.94
418.943	6676.94
419.166	7164.94
419.389	7524.94
419.611	7514.94
419.834	7493.94
420.057	7626.94
420.28	7888.94
420.503	7741.94
420.726	7449.94
420.948	7329.94
421.171	7547.94
421.394	7328.94
421.617	6800.94
421.839	6741.94
422.062	6849.94
422.285	6913.94
422.507	7596.94
422.73	8076.94
422.953	7327.94
423.175	7115.94
423.398	7055.94
423.621	7074.94
423.843	7300.94
424.066	7326.94
424.288	7121.94
424.511	7381.94
424.733	7923.94
424.956	8138.94
425.178	7732.94
425.401	7840.94
425.623	7757.94
425.846	6845.94
426.068	6800.94
426.291	6636.94
426.513	6618.94
426.735	6756.94
426.958	7129.94
427.18	7916.94
427.402	9225.94
427.625	9593.94
427.847	8695.94
428.069	8477.94
428.292	7273.94
428.514	6450.94
428.736	6164.94
428.958	6159.94
429.181	5903.94
429.403	5940.94
429.625	6089.94
429.847	6257.94
430.069	6896.94
430.292	6442.94
430.514	5854.94
430.736	5957.94
430.958	5773.94
431.18	5708.94
431.402	5786.94
431.624	5724.94
431.846	5830.94
432.068	5757.94
432.29	5941.94
432.512	5792.94
432.734	5872.94
432.956	5784.94
433.178	5843.94
433.4	5893.94
433.622	5866.94
433.844	5848.94
434.066	5857.94
434.287	5917.94
434.509	6096.94
434.731	6362.94
434.953	6491.94
435.175	6652.94
435.397	6776.94
435.618	6565.94
435.84	6948.94
436.062	7862.94
436.284	7737.94
436.505	6523.94
436.727	6226.94
436.949	6055.94
437.17	5920.94
437.392	5851.94
437.614	6053.94
437.835	6378.94
438.057	7314.94
438.278	7945.94
438.5	7712.94
438.721	8657.94
438.943	7546.94
439.165	6314.94
439.386	6205.94
439.608	6217.94
439.829	6379.94
440.05	6690.94
440.272	7092.94
440.493	6454.94
440.715	6133.94
440.936	6092.94
441.158	6118.94
441.379	6276.94
441.6	6595.94
441.822	6910.94
442.043	7183.94
442.264	8064.94
442.486	7740.94
442.707	6918.94
442.928	6675.94
443.149	6958.94
443.371	7150.94
443.592	7597.94
443.813	8673.94
444.034	8573.94
444.255	7518.94
444.476	7339.94
444.698	7517.94
444.919	7660.94
445.14	7438.94
445.361	7363.94
445.582	7399.94
445.803	8060.94
446.024	8640.94
446.245	8270.94
446.466	7300.94
446.687	6455.94
446.908	6060.94
447.129	5760.94
447.35	5702.94
447.571	5743.94
447.792	5579.94
448.013	5624.94
448.234	5804.94
448.455	6480.94
448.675	7670.94
448.896	8114.94
449.117	6641.94
449.338	6896.94
449.559	8216.94
449.779	8432.94
450	6444.94
450.221	5787.94
450.442	5550.94
450.662	5452.94
450.883	5572.94
451.104	5683.94
451.324	5462.94
451.545	5357.94
451.766	5257.94
451.986	5177.94
452.207	5136.94
452.428	5039.94
452.648	5141.94
452.869	5165.94
453.089	5173.94
453.31	5261.94
453.53	5102.94
453.751	5067.94
453.971	5093.94
454.192	5302.94
454.412	5094.94
454.633	4946.94
454.853	4918.94
455.073	5025.94
455.294	5381.94
455.514	5876.94
455.734	5345.94
455.955	4838.94
456.175	4730.94
456.395	4726.94
456.616	4680.94
456.836	4747.94
457.056	4738.94
457.276	4680.94
457.497	4830.94
457.717	4770.94
457.937	4858.94
458.157	4971.94
458.377	5016.94
458.598	5478.94
458.818	6046.94
459.038	6814.94
459.258	6692.94
459.478	6032.94
459.698	5964.94
459.918	5987.94
460.138	6192.94
460.358	6351.94
460.578	6448.94
460.798	6482.94
461.018	6432.94
461.238	6356.94
461.458	6359.94
461.678	6249.94
461.898	6537.94
462.118	6501.94
462.338	6848.94
462.558	6889.94
462.777	7304.94
462.997	7834.94
463.217	8290.94
463.437	7985.94
463.657	7392.94
463.876	7243.94
464.096	7277.94
464.316	7327.94
464.536	7313.94
464.755	7068.94
464.975	6989.94
465.195	7153.94
465.414	7143.94
465.634	6401.94
465.854	6067.94
466.073	5772.94
466.293	5615.94
466.512	5460.94
466.732	5295.94
466.951	5379.94
467.171	5376.94
467.391	5580.94
467.61	5557.94
467.829	5712.94
468.049	6379.94
468.268	6973.94
468.488	6050.94
468.707	5565.94
468.927	5457.94
469.146	5337.94
469.365	5395.94
469.585	5347.94
469.804	5508.94
470.023	5653.94
470.243	5642.94
470.462	5809.94
470.681	5905.94
470.901	5705.94
471.12	5660.94
471.339	5658.94
471.558	5660.94
471.777	5656.94
471.997	5998.94
472.216	7791.94
472.435	11011.94
472.654	8560.94
472.873	6762.94
473.092	6076.94
473.311	5842.94
473.53	5757.94
473.749	5664.94
473.968	6078.94
474.187	7000.94
474.406	6486.94
474.625	5659.94
474.844	5373.94
475.063	5341.94
475.282	5323.94
475.501	5380.94
475.72	5388.94
475.939	5433.94
476.158	5389.94
476.377	5441.94
476.596	5478.94
476.814	5640.94
477.033	5668.94
477.252	5692.94
477.471	5748.94
477.69	5909.94
477.908	6075.94
478.127	6191.94
478.346	6205.94
478.564	6413.94
478.783	6414.94
479.002	6614.94
479.22	6714.94
479.439	6787.94
479.658	6804.94
479.876	6998.94
480.095	7231.94
480.313	7765.94
480.532	7843.94
480.751	8124.94
480.969	9717.94
481.188	14696.94
481.406	14627.94
481.624	10454.94
481.843	8720.94
482.061	7858.94
482.28	7300.94
482.498	7096.94
482.717	6801.94
482.935	6690.94
483.153	6591.94
483.372	6481.94
483.59	6494.94
483.808	6402.94
484.027	6446.94
484.245	6490.94
484.463	6425.94
484.681	6522.94
484.9	6595.94
485.118	6493.94
485.336	6613.94
485.554	6662.94
485.772	6681.94
485.99	6671.94
486.209	6786.94
486.427	6748.94
486.645	6788.94
486.863	6934.94
487.081	6837.94
487.299	6837.94
487.517	6904.94
487.735	6815.94
487.953	6736.94
488.171	6802.94
488.389	6783.94
488.607	6851.94
488.825	6784.94
489.043	7008.94
489.261	7075.94
489.479	7030.94
489.696	7144.94
489.914	7210.94
490.132	7465.94
490.35	7488.94
490.568	7628.94
490.786	7962.94
491.003	8030.94
491.221	8377.94
491.439	8728.94
491.657	8843.94
491.874	8912.94
492.092	9105.94
492.31	9280.94
492.527	9349.94
492.745	9670.94
492.963	9665.94
493.18	9499.94
493.398	9424.94
493.615	9402.94
493.833	9185.94
494.05	9037.94
494.268	8908.94
494.485	8812.94
494.703	8663.94
494.92	8705.94
495.138	8585.94
495.355	8368.94
495.573	8484.94
495.79	8414.94
496.008	8429.94
496.225	8268.94
496.442	8372.94
496.66	8375.94
496.877	8355.94
497.094	8410.94
497.312	8459.94
497.529	8628.94
497.746	8766.94
497.963	8972.94
498.181	9397.94
498.398	9546.94
498.615	9823.94
498.832	10423.94
499.049	10956.94
499.267	11517.94
499.484	12248.94
499.701	12956.94
499.918	13718.94
500.135	14561.94
500.352	15084.94
500.569	15330.94
500.786	15282.94
501.003	14813.94
501.22	14162.94
501.437	13452.94
501.654	12552.94
501.871	11872.94
502.088	11069.94
502.305	10473.94
502.522	9880.94
502.739	9696.94
502.956	9219.94
503.172	8844.94
503.389	8601.94
503.606	8400.94
503.823	8368.94
504.04	8284.94
504.256	8266.94
504.473	8407.94
504.69	8433.94
504.907	8240.94
505.123	7861.94
505.34	7582.94
505.557	7378.94
505.773	7283.94
505.99	7226.94
506.207	7223.94
506.423	7098.94
506.64	6914.94
506.856	6754.94
507.073	6842.94
507.289	6783.94
507.506	6741.94
507.722	6741.94
507.939	6841.94
508.155	6567.94
508.372	6480.94
508.588	6425.94
508.805	6378.94
509.021	6380.94
509.238	6749.94
509.454	6670.94
509.67	6456.94
509.887	6355.94
510.103	6302.94
510.319	6488.94
510.536	7627.94
510.752	11225.94
510.968	7583.94
511.184	6275.94
511.401	6343.94
511.617	6540.94
511.833	7181.94
512.049	7318.94
512.265	6942.94
512.481	6601.94
512.698	6352.94
512.914	6361.94
513.13	6196.94
513.346	6149.94
513.562	6078.94
513.778	6130.94
513.994	6188.94
514.21	6226.94
514.426	6411.94
514.642	6721.94
514.858	6891.94
515.074	7161.94
515.29	8556.94
515.506	11116.94
515.721	8236.94
515.937	6958.94
516.153	6812.94
516.369	6745.94
516.585	6770.94
516.801	6995.94
517.016	7138.94
517.232	7390.94
517.448	7534.94
517.664	7694.94
517.879	7718.94
518.095	7576.94
518.311	7514.94
518.527	7188.94
518.742	7029.94
518.958	6744.94
519.173	6529.94
519.389	6505.94
519.605	6310.94
519.82	6226.94
520.036	6309.94
520.251	6509.94
520.467	6440.94
520.682	6484.94
520.898	6384.94
521.113	6524.94
521.329	6822.94
521.544	7477.94
521.76	9423.94
521.975	13798.94
522.19	10877.94
522.406	7138.94
522.621	6156.94
522.836	5809.94
523.052	5674.94
523.267	5540.94
523.482	5398.94
523.698	5343.94
523.913	5333.94
524.128	5233.94
524.343	5172.94
524.559	5190.94
524.774	5068.94
524.989	5090.94
525.204	5163.94
525.419	5133.94
525.634	5040.94
525.849	4996.94
526.064	5004.94
526.28	4899.94
526.495	4866.94
526.71	4915.94
526.925	4892.94
527.14	4913.94
527.355	4888.94
527.57	4818.94
527.785	4838.94
527.999	4912.94
528.214	4858.94
528.429	4840.94
528.644	4867.94
528.859	4860.94
529.074	4894.94
529.289	5032.94
529.503	5551.94
529.718	5330.94
529.933	5044.94
530.148	4877.94
530.363	4923.94
530.577	4878.94
530.792	4867.94
531.007	4772.94
531.221	4833.94
531.436	4765.94
531.651	4827.94
531.865	4793.94
532.08	4769.94
532.295	4773.94
532.509	4771.94
532.724	4782.94
532.938	4864.94
533.153	4743.94
533.367	4788.94
533.582	4752.94
533.796	4757.94
534.011	4781.94
534.225	4729.94
534.44	4668.94
534.654	4620.94
534.868	4650.94
535.083	4631.94
535.297	4637.94
535.511	4642.94
535.726	4682.94
535.94	4720.94
536.154	4622.94
536.369	4518.94
536.583	4467.94
536.797	4465.94
537.011	4468.94
537.225	4411.94
537.44	4435.94
537.654	4427.94
537.868	4440.94
538.082	4416.94
538.296	4465.94
538.51	4463.94
538.724	4387.94
538.938	4385.94
539.153	4329.94
539.367	4452.94
539.581	4429.94
539.795	4353.94
540.009	4324.94
540.222	4375.94
540.436	4314.94
540.65	4347.94
540.864	4352.94
541.078	4411.94
541.292	4382.94
541.506	4252.94
541.72	4229.94
541.934	4186.94
542.147	4255.94
542.361	4172.94
542.575	4181.94
542.789	4151.94
543.002	4185.94
543.216	4259.94
543.43	4294.94
543.644	4239.94
543.857	4253.94
544.071	4251.94
544.285	4297.94
544.498	4215.94
544.712	4215.94
544.925	4250.94
545.139	4301.94
545.352	4257.94
545.566	4228.94
545.779	4202.94
545.993	4276.94
546.206	4215.94
546.42	4220.94
546.633	4263.94
546.847	4258.94
547.06	4180.94
547.274	4142.94
547.487	4231.94
547.7	4240.94
547.914	4169.94
548.127	4196.94
548.34	4255.94
548.554	4251.94
548.767	4212.94
548.98	4248.94
549.193	4256.94
549.407	4254.94
549.62	4298.94
549.833	4384.94
550.046	4257.94
550.259	4252.94
550.473	4152.94
550.686	4160.94
550.899	4178.94
551.112	4162.94
551.325	4128.94
551.538	4160.94
551.751	4150.94
551.964	4176.94
552.177	4239.94
552.39	4252.94
552.603	4360.94
552.816	4490.94
553.029	4558.94
553.242	4582.94
553.455	4667.94
553.667	4739.94
553.88	4714.94
554.093	4478.94
554.306	4427.94
554.519	4324.94
554.732	4292.94
554.944	4152.94
555.157	4074.94
555.37	4010.94
555.583	4001.94
555.795	3916.94
556.008	3852.94
556.221	3798.94
556.433	3689.94
556.646	3730.94
556.859	3672.94
557.071	3638.94
557.284	3548.94
557.496	3528.94
557.709	3548.94
557.921	3522.94
558.134	3500.94
558.346	3497.94
558.559	3489.94
558.771	3453.94
558.984	3393.94
559.196	3421.94
559.409	3442.94
559.621	3408.94
559.833	3424.94
560.046	3441.94
560.258	3523.94
560.47	3470.94
560.683	3489.94
560.895	3403.94
561.107	3438.94
561.32	3342.94
561.532	3406.94
561.744	3393.94
561.956	3426.94
562.168	3410.94
562.381	3349.94
562.593	3472.94
562.805	3473.94
563.017	3417.94
563.229	3429.94
563.441	3521.94
563.653	3468.94
563.865	3483.94
564.077	3506.94
564.289	3491.94
564.501	3622.94
564.713	3680.94
564.925	3759.94
565.137	3906.94
565.349	3855.94
565.561	4014.94
565.773	4176.94
565.985	4333.94
566.197	4509.94
566.408	4814.94
566.62	5199.94
566.832	5452.94
567.044	5505.94
567.255	5574.94
567.467	5735.94
567.679	5987.94
567.891	6323.94
568.102	6328.94
568.314	5924.94
568.526	5433.94
568.737	4970.94
568.949	4583.94
569.161	4229.94
569.372	3998.94
569.584	3900.94
569.795	3727.94
570.007	3642.94
570.218	3840.94
570.43	3558.94
570.641	3480.94
570.853	3523.94
571.064	3542.94
571.276	3465.94
571.487	3326.94
571.698	3217.94
571.91	3070.94
572.121	3065.94
572.333	3038.94
572.544	2965.94
572.755	2885.94
572.966	2874.94
573.178	2896.94
573.389	2829.94
573.6	2796.94
573.811	2789.94
574.023	2696.94
574.234	2777.94
574.445	2672.94
574.656	2743.94
574.867	2742.94
575.078	2749.94
575.289	2684.94
575.501	2698.94
575.712	2581.94
575.923	2613.94
576.134	2584.94
576.345	2588.94
576.556	2573.94
576.767	2546.94
576.978	2536.94
577.188	2535.94
577.399	2547.94
577.61	2480.94
577.821	2451.94
578.032	2495.94
578.243	2788.94
578.454	3837.94
578.665	2682.94
578.875	2444.94
579.086	2328.94
579.297	2366.94
579.508	2373.94
579.718	2316.94
579.929	2314.94
580.14	2291.94
580.35	2307.94
580.561	2306.94
580.772	2278.94
580.982	2265.94
581.193	2244.94
581.403	2272.94
581.614	2218.94
581.825	2249.94
582.035	2232.94
582.246	2200.94
582.456	2249.94
582.667	2222.94
582.877	2203.94
583.087	2194.94
583.298	2237.94
583.508	2207.94
583.719	2206.94
583.929	2214.94
584.139	2169.94
584.35	2161.94
584.56	2161.94
584.77	2152.94
584.981	2123.94
585.191	2160.94
585.401	2091.94
585.611	2158.94
585.821	2131.94
586.032	2136.94
586.242	2132.94
586.452	2113.94
586.662	2094.94
586.872	2102.94
587.082	2098.94
587.292	2113.94
587.502	2065.94
587.713	2074.94
587.923	2092.94
588.133	2069.94
588.343	2104.94
588.553	2095.94
588.762	2049.94
588.972	2072.94
589.182	2227.94
589.392	2153.94
589.602	2243.94
589.812	2251.94
590.022	2106.94
590.232	2109.94
590.441	2088.94
590.651	2137.94
590.861	2157.94
591.071	2188.94
591.281	2162.94
591.49	2171.94
591.7	2217.94
591.91	2282.94
592.119	2316.94
592.329	2382.94
592.539	2495.94
592.748	2466.94
592.958	2599.94
593.167	2575.94
593.377	2656.94
593.587	2731.94
593.796	2726.94
594.006	2668.94
594.215	2697.94
594.424	2686.94
594.634	2643.94
594.843	2529.94
595.053	2390.94
595.262	2339.94
595.472	2309.94
595.681	2181.94
595.89	2163.94
596.1	2127.94
596.309	2052.94
596.518	2048.94
596.727	2014.94
596.937	1928.94
597.146	1933.94
597.355	1899.94
597.564	1890.94
597.774	1844.94
597.983	1829.94
598.192	1833.94
598.401	1818.94
598.61	1824.94
598.819	1835.94
599.028	1796.94
599.237	1777.94
599.446	1773.94
599.655	1755.94
599.864	1725.94
600.073	1775.94
600.282	1720.94
600.491	1684.94
600.7	1726.94
600.909	1721.94
601.118	1702.94
601.327	1715.94
601.536	1725.94
601.745	1712.94
601.953	1712.94
602.162	1701.94
602.371	1720.94
602.58	1645.94
602.789	1680.94
602.997	1655.94
603.206	1650.94
603.415	1649.94
603.623	1600.94
603.832	1625.94
604.041	1643.94
604.249	1626.94
604.458	1628.94
604.666	1569.94
604.875	1573.94
605.084	1580.94
605.292	1574.94
605.501	1567.94
605.709	1585.94
605.918	1561.94
606.126	1544.94
606.334	1565.94
606.543	1570.94
606.751	1581.94
606.96	1544.94
607.168	1576.94
607.376	1544.94
607.585	1573.94
607.793	1607.94
608.001	1589.94
608.21	1552.94
608.418	1548.94
608.626	1538.94
608.834	1533.94
609.043	1525.94
609.251	1538.94
609.459	1522.94
609.667	1504.94
609.875	1555.94
610.083	1546.94
610.291	1552.94
610.499	1533.94
610.707	1523.94
610.916	1518.94
611.124	1555.94
611.332	1523.94
611.54	1549.94
611.748	1513.94
611.955	1500.94
612.163	1462.94
612.371	1482.94
612.579	1480.94
612.787	1503.94
612.995	1453.94
613.203	1474.94
613.411	1439.94
613.618	1463.94
613.826	1452.94
614.034	1445.94
614.242	1406.94
614.449	1406.94
614.657	1428.94
614.865	1398.94
615.072	1413.94
615.28	1450.94
615.488	1417.94
615.695	1412.94
615.903	1403.94
616.111	1476.94
616.318	1476.94
616.526	1473.94
616.733	1443.94
616.941	1428.94
617.148	1448.94
617.356	1433.94
617.563	1423.94
617.771	1424.94
617.978	1404.94
618.185	1391.94
618.393	1416.94
618.6	1402.94
618.807	1397.94
619.015	1434.94
619.222	1366.94
619.429	1403.94
619.637	1370.94
619.844	1379.94
620.051	1353.94
620.258	1349.94
620.466	1291.94
620.673	1280.94
620.88	1240.94
621.087	1297.94
621.294	1298.94
621.501	1314.94
621.708	1290.94
621.915	1269.94
622.122	1276.94
622.329	1275.94
622.536	1273.94
622.743	1253.94
622.95	1230.94
623.157	1244.94
623.364	1216.94
623.571	1198.94
623.778	1231.94
623.985	1212.94
624.192	1158.94
624.399	1178.94
624.606	1150.94
624.812	1183.94
625.019	1187.94
625.226	1193.94
625.433	1180.94
625.639	1173.94
625.846	1169.94
626.053	1167.94
626.259	1152.94
626.466	1140.94
626.673	1119.94
626.879	1124.94
627.086	1119.94
627.293	1135.94
627.499	1120.94
627.706	1079.94
627.912	1101.94
628.119	1112.94
628.325	1074.94
628.532	1106.94
628.738	1060.94
628.945	1082.94
629.151	1052.94
629.357	1070.94
629.564	1062.94
629.77	1046.94
629.976	1026.94
630.183	1056.94
630.389	1050.94
630.595	1038.94
630.802	1017.94
631.008	1018.94
631.214	1013.94
631.42	1028.94
631.627	1013.94
631.833	974.94
632.039	980.94
632.245	965.94
632.451	979.94
632.657	970.94
632.863	962.94
633.069	974.94
633.275	962.94
633.481	949.94
633.688	954.94
633.893	976.94
634.099	976.94
634.305	959.94
634.511	946.94
634.717	958.94
634.923	947.94
635.129	932.94
635.335	939.94
635.541	949.94
635.747	972.94
635.952	976.94
636.158	1057.94
636.364	1324.94
636.57	1358.94
636.775	1184.94
636.981	1088.94
637.187	1056.94
637.392	1000.94
637.598	1005.94
637.804	1000.94
638.009	953.94
638.215	953.94
638.421	913.94
638.626	898.94
638.832	887.94
639.037	888.94
639.243	871.94
639.448	872.94
639.654	861.94
639.859	860.94
640.065	853.94
640.27	860.94
640.475	853.94
640.681	851.94
640.886	840.94
641.091	847.94
641.297	836.94
641.502	813.94
641.707	836.94
641.913	809.94
642.118	801.94
642.323	789.94
642.528	792.94
642.733	785.94
642.939	799.94
643.144	769.94
643.349	811.94
643.554	768.94
643.759	747.94
643.964	771.94
644.169	754.94
644.374	748.94
644.579	781.94
644.784	779.94
644.989	770.94
645.194	740.94
645.399	768.94
645.604	744.94
645.809	776.94
646.014	728.94
646.219	784.94
646.423	752.94
646.628	750.94
646.833	770.94
647.038	765.94
647.243	770.94
647.447	779.94
647.652	810.94
647.857	796.94
648.062	820.94
648.266	814.94
648.471	826.94
648.676	864.94
648.88	853.94
649.085	825.94
649.289	820.94
649.494	885.94
649.698	1038.94
649.903	846.94
650.107	767.94
650.312	730.94
650.516	716.94
650.721	669.94
650.925	654.94
651.13	638.94
651.334	626.94
651.539	644.94
651.743	603.94
651.947	573.94
652.152	593.94
652.356	578.94
652.56	567.94
652.764	561.94
652.969	539.94
653.173	523.94
653.377	524.94
653.581	517.94
653.785	527.94
653.99	523.94
654.194	513.94
654.398	485.94
654.602	468.94
654.806	497.94
655.01	576.94
655.214	532.94
655.418	480.94
655.622	472.94
655.826	472.94
656.03	465.94
656.234	483.94
656.438	496.94
656.642	492.94
656.846	470.94
657.049	426.94
657.253	403.94
657.457	376.94
657.661	317.94
657.865	337.94
658.068	293.94
658.272	314.94
658.476	273.94
658.68	255.94
658.883	247.94
659.087	248.94
659.291	226.94
659.494	229.94
659.698	209.94
659.901	218.94
660.105	195.94
660.309	188.94
660.512	189.94
660.716	174.94
660.919	165.94
661.123	146.94
661.326	151.94
661.53	132.94
661.733	131.94
661.936	123.94
662.14	108.94
662.343	127.94
662.546	111.94
662.75	99.94
662.953	100.94
663.156	96.94
663.36	105.94
663.563	92.94
663.766	96.94
663.969	94.94
664.173	91.94
664.376	96.94
664.579	79.94
664.782	85.94
664.985	78.94
665.188	77.94
665.391	77.94
665.594	93.94
665.797	76.94
666	93.94
666.203	85.94
666.406	88.94
666.609	78.94
666.812	85.94
667.015	76.94
667.218	88.94
667.421	79.94
667.624	66.94
667.827	72.94
668.03	70.94
668.232	82.94
668.435	84.94
668.638	89.94
668.841	84.94
669.043	80.94
669.246	82.94
669.449	73.94
669.651	76.94
669.854	79.94
670.057	96.94
670.259	93.94
670.462	85.94
670.665	71.94
670.867	92.94
671.07	90.94
671.272	83.94
671.475	84.94
671.677	82.94
671.88	79.94
672.082	87.94
672.284	78.94
672.487	88.94
672.689	81.94
672.892	78.94
