Data from Circ_1991_H10_HRD10591_00017.txt Node
Date: Wed Jan 03 11:51:44 EST 2024
User: Yrep
Spectrometer: HR+D1059
Trigger mode: 1
Integration Time (sec): 1.000000E-1
Scans to average: 1
Electric dark correction enabled: true
Nonlinearity correction enabled: false
Boxcar width: 0
XAxis mode: Wavelengths
Number of Pixels in Spectrum: 2048
>>>>>Begin Spectral Data<<<<<
223.165	-20.56
223.4	-20.56
223.635	-20.56
223.869	-10.56
224.104	-22.56
224.338	-14.56
224.573	-7.56
224.808	-10.56
225.042	-20.56
225.277	-6.56
225.511	10.44
225.746	6.44
225.98	6.44
226.215	16.44
226.449	11.44
226.683	15.44
226.918	13.44
227.152	33.44
227.387	30.44
227.621	40.44
227.856	37.44
228.09	50.44
228.324	57.44
228.559	54.44
228.793	62.44
229.027	60.44
229.262	70.44
229.496	80.44
229.73	91.44
229.964	80.44
230.199	77.44
230.433	65.44
230.667	82.44
230.901	66.44
231.136	68.44
231.37	71.44
231.604	84.44
231.838	76.44
232.072	83.44
232.306	85.44
232.541	86.44
232.775	67.44
233.009	85.44
233.243	79.44
233.477	75.44
233.711	82.44
233.945	83.44
234.179	76.44
234.413	84.44
234.647	96.44
234.881	80.44
235.115	88.44
235.349	69.44
235.583	92.44
235.817	84.44
236.051	59.44
236.285	71.44
236.519	79.44
236.753	88.44
236.987	75.44
237.221	78.44
237.455	86.44
237.689	76.44
237.922	72.44
238.156	65.44
238.39	61.44
238.624	86.44
238.858	82.44
239.091	68.44
239.325	81.44
239.559	88.44
239.793	78.44
240.027	81.44
240.26	85.44
240.494	77.44
240.728	85.44
240.961	70.44
241.195	80.44
241.429	78.44
241.662	78.44
241.896	75.44
242.13	71.44
242.363	66.44
242.597	87.44
242.83	65.44
243.064	81.44
243.298	78.44
243.531	82.44
243.765	73.44
243.998	66.44
244.232	91.44
244.465	76.44
244.699	94.44
244.932	86.44
245.166	91.44
245.399	85.44
245.633	76.44
245.866	83.44
246.099	82.44
246.333	76.44
246.566	82.44
246.8	82.44
247.033	83.44
247.266	83.44
247.5	83.44
247.733	80.44
247.966	82.44
248.2	92.44
248.433	95.44
248.666	70.44
248.899	83.44
249.133	72.44
249.366	96.44
249.599	102.44
249.832	78.44
250.066	94.44
250.299	87.44
250.532	92.44
250.765	76.44
250.998	78.44
251.231	74.44
251.465	92.44
251.698	75.44
251.931	69.44
252.164	80.44
252.397	79.44
252.63	85.44
252.863	80.44
253.096	65.44
253.329	78.44
253.562	86.44
253.795	76.44
254.028	89.44
254.261	92.44
254.494	78.44
254.727	71.44
254.96	84.44
255.193	92.44
255.426	79.44
255.659	78.44
255.892	87.44
256.124	84.44
256.357	83.44
256.59	84.44
256.823	78.44
257.056	70.44
257.289	78.44
257.521	85.44
257.754	82.44
257.987	88.44
258.22	94.44
258.452	84.44
258.685	83.44
258.918	91.44
259.151	83.44
259.383	78.44
259.616	83.44
259.849	92.44
260.081	80.44
260.314	85.44
260.547	74.44
260.779	101.44
261.012	83.44
261.244	94.44
261.477	98.44
261.71	100.44
261.942	116.44
262.175	108.44
262.407	91.44
262.64	89.44
262.872	91.44
263.105	90.44
263.337	81.44
263.57	79.44
263.802	94.44
264.035	90.44
264.267	87.44
264.499	99.44
264.732	85.44
264.964	86.44
265.197	84.44
265.429	82.44
265.661	83.44
265.894	86.44
266.126	99.44
266.358	90.44
266.591	92.44
266.823	81.44
267.055	80.44
267.287	90.44
267.52	85.44
267.752	78.44
267.984	78.44
268.216	83.44
268.448	86.44
268.681	90.44
268.913	77.44
269.145	84.44
269.377	74.44
269.609	75.44
269.841	80.44
270.073	75.44
270.306	80.44
270.538	85.44
270.77	71.44
271.002	79.44
271.234	87.44
271.466	94.44
271.698	87.44
271.93	75.44
272.162	74.44
272.394	92.44
272.626	81.44
272.858	76.44
273.09	72.44
273.322	82.44
273.553	82.44
273.785	79.44
274.017	81.44
274.249	79.44
274.481	84.44
274.713	78.44
274.945	86.44
275.176	87.44
275.408	79.44
275.64	87.44
275.872	90.44
276.104	97.44
276.335	103.44
276.567	88.44
276.799	112.44
277.031	87.44
277.262	103.44
277.494	96.44
277.726	86.44
277.957	93.44
278.189	94.44
278.421	90.44
278.652	82.44
278.884	87.44
279.115	82.44
279.347	94.44
279.579	92.44
279.81	96.44
280.042	99.44
280.273	100.44
280.505	101.44
280.736	91.44
280.968	84.44
281.199	97.44
281.431	79.44
281.662	68.44
281.894	93.44
282.125	110.44
282.356	105.44
282.588	112.44
282.819	103.44
283.051	84.44
283.282	87.44
283.513	84.44
283.745	93.44
283.976	107.44
284.207	111.44
284.439	91.44
284.67	86.44
284.901	104.44
285.132	95.44
285.364	74.44
285.595	86.44
285.826	91.44
286.057	99.44
286.288	86.44
286.52	86.44
286.751	92.44
286.982	90.44
287.213	88.44
287.444	95.44
287.675	89.44
287.906	86.44
288.138	95.44
288.369	97.44
288.6	82.44
288.831	75.44
289.062	83.44
289.293	107.44
289.524	102.44
289.755	106.44
289.986	85.44
290.217	86.44
290.448	82.44
290.679	97.44
290.91	87.44
291.141	88.44
291.371	87.44
291.602	82.44
291.833	74.44
292.064	85.44
292.295	91.44
292.526	92.44
292.757	84.44
292.987	99.44
293.218	78.44
293.449	84.44
293.68	96.44
293.91	93.44
294.141	91.44
294.372	88.44
294.603	97.44
294.833	74.44
295.064	83.44
295.295	98.44
295.525	97.44
295.756	116.44
295.987	115.44
296.217	128.44
296.448	114.44
296.679	78.44
296.909	99.44
297.14	98.44
297.37	91.44
297.601	82.44
297.831	93.44
298.062	87.44
298.292	85.44
298.523	72.44
298.753	92.44
298.984	92.44
299.214	101.44
299.445	99.44
299.675	98.44
299.905	103.44
300.136	99.44
300.366	77.44
300.597	83.44
300.827	102.44
301.057	99.44
301.288	97.44
301.518	99.44
301.748	95.44
301.979	90.44
302.209	94.44
302.439	116.44
302.669	90.44
302.9	83.44
303.13	85.44
303.36	99.44
303.59	82.44
303.82	115.44
304.051	88.44
304.281	90.44
304.511	95.44
304.741	89.44
304.971	92.44
305.201	109.44
305.431	94.44
305.661	95.44
305.891	95.44
306.121	99.44
306.352	103.44
306.582	92.44
306.812	92.44
307.042	98.44
307.272	108.44
307.502	99.44
307.731	104.44
307.961	94.44
308.191	83.44
308.421	87.44
308.651	95.44
308.881	93.44
309.111	84.44
309.341	90.44
309.571	100.44
309.8	86.44
310.03	102.44
310.26	93.44
310.49	103.44
310.72	94.44
310.949	108.44
311.179	95.44
311.409	91.44
311.639	81.44
311.868	101.44
312.098	102.44
312.328	93.44
312.557	93.44
312.787	104.44
313.017	92.44
313.246	82.44
313.476	94.44
313.706	96.44
313.935	97.44
314.165	106.44
314.394	106.44
314.624	94.44
314.853	86.44
315.083	95.44
315.312	94.44
315.542	84.44
315.771	99.44
316.001	86.44
316.23	82.44
316.46	107.44
316.689	93.44
316.919	90.44
317.148	99.44
317.377	87.44
317.607	88.44
317.836	94.44
318.065	81.44
318.295	92.44
318.524	90.44
318.753	82.44
318.983	102.44
319.212	90.44
319.441	106.44
319.67	107.44
319.9	114.44
320.129	83.44
320.358	93.44
320.587	82.44
320.816	94.44
321.046	99.44
321.275	107.44
321.504	111.44
321.733	99.44
321.962	94.44
322.191	93.44
322.42	101.44
322.649	111.44
322.878	109.44
323.108	111.44
323.337	120.44
323.566	129.44
323.795	154.44
324.024	194.44
324.253	360.44
324.482	740.44
324.71	1634.44
324.939	2081.44
325.168	784.44
325.397	247.44
325.626	143.44
325.855	120.44
326.084	122.44
326.313	140.44
326.542	141.44
326.77	215.44
326.999	443.44
327.228	887.44
327.457	1643.44
327.686	1310.44
327.914	357.44
328.143	221.44
328.372	196.44
328.6	144.44
328.829	116.44
329.058	119.44
329.287	130.44
329.515	110.44
329.744	125.44
329.972	162.44
330.201	231.44
330.43	274.44
330.658	177.44
330.887	146.44
331.115	113.44
331.344	98.44
331.572	119.44
331.801	103.44
332.03	101.44
332.258	107.44
332.486	94.44
332.715	98.44
332.943	98.44
333.172	92.44
333.4	107.44
333.629	95.44
333.857	122.44
334.085	159.44
334.314	219.44
334.542	327.44
334.771	311.44
334.999	164.44
335.227	104.44
335.455	97.44
335.684	98.44
335.912	104.44
336.14	103.44
336.369	108.44
336.597	86.44
336.825	94.44
337.053	97.44
337.281	99.44
337.51	83.44
337.738	99.44
337.966	87.44
338.194	95.44
338.422	93.44
338.65	86.44
338.878	107.44
339.106	97.44
339.334	97.44
339.562	69.44
339.79	95.44
340.018	98.44
340.246	89.44
340.474	101.44
340.702	103.44
340.93	90.44
341.158	75.44
341.386	83.44
341.614	85.44
341.842	94.44
342.07	105.44
342.298	89.44
342.526	71.44
342.754	87.44
342.981	76.44
343.209	78.44
343.437	85.44
343.665	91.44
343.893	99.44
344.12	94.44
344.348	82.44
344.576	92.44
344.804	82.44
345.031	102.44
345.259	84.44
345.487	96.44
345.714	99.44
345.942	98.44
346.17	90.44
346.397	79.44
346.625	82.44
346.853	87.44
347.08	83.44
347.308	93.44
347.535	96.44
347.763	99.44
347.99	87.44
348.218	97.44
348.445	83.44
348.673	101.44
348.9	100.44
349.128	87.44
349.355	92.44
349.583	86.44
349.81	87.44
350.037	104.44
350.265	98.44
350.492	86.44
350.72	102.44
350.947	95.44
351.174	90.44
351.402	105.44
351.629	107.44
351.856	102.44
352.083	103.44
352.311	93.44
352.538	113.44
352.765	81.44
352.992	99.44
353.22	107.44
353.447	97.44
353.674	101.44
353.901	99.44
354.128	100.44
354.355	91.44
354.583	99.44
354.81	102.44
355.037	94.44
355.264	100.44
355.491	94.44
355.718	91.44
355.945	84.44
356.172	94.44
356.399	93.44
356.626	99.44
356.853	106.44
357.08	99.44
357.307	96.44
357.534	97.44
357.761	95.44
357.988	96.44
358.215	104.44
358.441	103.44
358.668	94.44
358.895	95.44
359.122	85.44
359.349	104.44
359.576	85.44
359.802	96.44
360.029	107.44
360.256	110.44
360.483	97.44
360.709	84.44
360.936	104.44
361.163	100.44
361.39	87.44
361.616	81.44
361.843	82.44
362.07	90.44
362.296	94.44
362.523	72.44
362.749	98.44
362.976	79.44
363.203	99.44
363.429	95.44
363.656	94.44
363.882	85.44
364.109	78.44
364.335	99.44
364.562	87.44
364.788	101.44
365.015	91.44
365.241	94.44
365.468	108.44
365.694	101.44
365.92	82.44
366.147	98.44
366.373	94.44
366.599	80.44
366.826	79.44
367.052	86.44
367.278	89.44
367.505	87.44
367.731	86.44
367.957	85.44
368.184	107.44
368.41	86.44
368.636	110.44
368.862	101.44
369.089	104.44
369.315	93.44
369.541	87.44
369.767	87.44
369.993	92.44
370.219	93.44
370.445	92.44
370.672	76.44
370.898	87.44
371.124	84.44
371.35	86.44
371.576	94.44
371.802	92.44
372.028	81.44
372.254	94.44
372.48	77.44
372.706	72.44
372.932	83.44
373.158	88.44
373.384	100.44
373.61	83.44
373.835	87.44
374.061	82.44
374.287	89.44
374.513	92.44
374.739	100.44
374.965	92.44
375.191	78.44
375.416	85.44
375.642	82.44
375.868	86.44
376.094	93.44
376.319	81.44
376.545	91.44
376.771	78.44
376.997	92.44
377.222	94.44
377.448	91.44
377.674	104.44
377.899	98.44
378.125	82.44
378.35	98.44
378.576	83.44
378.802	83.44
379.027	85.44
379.253	104.44
379.478	84.44
379.704	88.44
379.929	100.44
380.155	102.44
380.38	96.44
380.606	103.44
380.831	97.44
381.057	90.44
381.282	102.44
381.507	104.44
381.733	103.44
381.958	92.44
382.184	92.44
382.409	103.44
382.634	104.44
382.86	105.44
383.085	114.44
383.31	109.44
383.535	111.44
383.761	110.44
383.986	106.44
384.211	100.44
384.436	105.44
384.662	99.44
384.887	117.44
385.112	118.44
385.337	133.44
385.562	116.44
385.787	125.44
386.013	118.44
386.238	132.44
386.463	117.44
386.688	128.44
386.913	110.44
387.138	127.44
387.363	117.44
387.588	109.44
387.813	102.44
388.038	116.44
388.263	136.44
388.488	117.44
388.713	98.44
388.938	89.44
389.163	100.44
389.387	93.44
389.612	87.44
389.837	92.44
390.062	102.44
390.287	93.44
390.512	70.44
390.736	85.44
390.961	84.44
391.186	96.44
391.411	92.44
391.636	87.44
391.86	97.44
392.085	96.44
392.31	98.44
392.534	71.44
392.759	89.44
392.984	115.44
393.208	140.44
393.433	213.44
393.658	175.44
393.882	90.44
394.107	92.44
394.331	79.44
394.556	83.44
394.78	90.44
395.005	88.44
395.229	79.44
395.454	95.44
395.678	81.44
395.903	90.44
396.127	91.44
396.352	99.44
396.576	90.44
396.801	118.44
397.025	142.44
397.249	101.44
397.474	76.44
397.698	90.44
397.922	84.44
398.147	80.44
398.371	91.44
398.595	83.44
398.82	87.44
399.044	83.44
399.268	92.44
399.492	104.44
399.717	95.44
399.941	82.44
400.165	84.44
400.389	80.44
400.613	84.44
400.837	80.44
401.062	80.44
401.286	83.44
401.51	95.44
401.734	86.44
401.958	101.44
402.182	99.44
402.406	146.44
402.63	98.44
402.854	93.44
403.078	85.44
403.302	89.44
403.526	99.44
403.75	87.44
403.974	88.44
404.198	79.44
404.422	89.44
404.645	96.44
404.869	87.44
405.093	104.44
405.317	116.44
405.541	109.44
405.765	101.44
405.988	117.44
406.212	147.44
406.436	218.44
406.66	138.44
406.883	107.44
407.107	90.44
407.331	90.44
407.555	92.44
407.778	96.44
408.002	84.44
408.226	81.44
408.449	84.44
408.673	78.44
408.896	100.44
409.12	105.44
409.344	85.44
409.567	78.44
409.791	85.44
410.014	102.44
410.238	84.44
410.461	94.44
410.685	90.44
410.908	90.44
411.132	107.44
411.355	108.44
411.578	100.44
411.802	87.44
412.025	92.44
412.249	94.44
412.472	92.44
412.695	99.44
412.919	94.44
413.142	101.44
413.365	85.44
413.589	96.44
413.812	104.44
414.035	90.44
414.258	93.44
414.482	79.44
414.705	86.44
414.928	91.44
415.151	98.44
415.374	93.44
415.597	94.44
415.821	86.44
416.044	100.44
416.267	92.44
416.49	83.44
416.713	84.44
416.936	94.44
417.159	85.44
417.382	84.44
417.605	93.44
417.828	90.44
418.051	98.44
418.274	85.44
418.497	85.44
418.72	81.44
418.943	102.44
419.166	112.44
419.389	87.44
419.611	79.44
419.834	92.44
420.057	91.44
420.28	111.44
420.503	92.44
420.726	94.44
420.948	84.44
421.171	98.44
421.394	94.44
421.617	88.44
421.839	82.44
422.062	97.44
422.285	92.44
422.507	101.44
422.73	110.44
422.953	98.44
423.175	94.44
423.398	95.44
423.621	90.44
423.843	86.44
424.066	102.44
424.288	91.44
424.511	87.44
424.733	106.44
424.956	111.44
425.178	111.44
425.401	101.44
425.623	106.44
425.846	99.44
426.068	92.44
426.291	102.44
426.513	95.44
426.735	100.44
426.958	103.44
427.18	101.44
427.402	138.44
427.625	166.44
427.847	133.44
428.069	142.44
428.292	99.44
428.514	79.44
428.736	85.44
428.958	72.44
429.181	92.44
429.403	88.44
429.625	84.44
429.847	85.44
430.069	98.44
430.292	91.44
430.514	89.44
430.736	85.44
430.958	87.44
431.18	77.44
431.402	82.44
431.624	76.44
431.846	71.44
432.068	82.44
432.29	85.44
432.512	95.44
432.734	107.44
432.956	87.44
433.178	107.44
433.4	92.44
433.622	93.44
433.844	101.44
434.066	97.44
434.287	92.44
434.509	86.44
434.731	91.44
434.953	78.44
435.175	83.44
435.397	90.44
435.618	91.44
435.84	103.44
436.062	136.44
436.284	115.44
436.505	104.44
436.727	102.44
436.949	91.44
437.17	87.44
437.392	79.44
437.614	88.44
437.835	100.44
438.057	114.44
438.278	127.44
438.5	107.44
438.721	120.44
438.943	117.44
439.165	92.44
439.386	99.44
439.608	77.44
439.829	96.44
440.05	114.44
440.272	136.44
440.493	105.44
440.715	86.44
440.936	85.44
441.158	94.44
441.379	89.44
441.6	101.44
441.822	98.44
442.043	99.44
442.264	111.44
442.486	104.44
442.707	97.44
442.928	99.44
443.149	123.44
443.371	125.44
443.592	109.44
443.813	88.44
444.034	103.44
444.255	89.44
444.476	94.44
444.698	92.44
444.919	76.44
445.14	144.44
445.361	115.44
445.582	121.44
445.803	137.44
446.024	144.44
446.245	130.44
446.466	115.44
446.687	93.44
446.908	76.44
447.129	100.44
447.35	92.44
447.571	84.44
447.792	92.44
448.013	90.44
448.234	104.44
448.455	103.44
448.675	120.44
448.896	122.44
449.117	95.44
449.338	85.44
449.559	119.44
449.779	149.44
450	101.44
450.221	87.44
450.442	91.44
450.662	99.44
450.883	115.44
451.104	115.44
451.324	99.44
451.545	100.44
451.766	80.44
451.986	98.44
452.207	94.44
452.428	91.44
452.648	98.44
452.869	93.44
453.089	104.44
453.31	114.44
453.53	76.44
453.751	106.44
453.971	108.44
454.192	101.44
454.412	78.44
454.633	102.44
454.853	86.44
455.073	93.44
455.294	87.44
455.514	90.44
455.734	100.44
455.955	87.44
456.175	94.44
456.395	95.44
456.616	93.44
456.836	82.44
457.056	71.44
457.276	86.44
457.497	84.44
457.717	62.44
457.937	84.44
458.157	94.44
458.377	85.44
458.598	95.44
458.818	133.44
459.038	150.44
459.258	124.44
459.478	82.44
459.698	96.44
459.918	91.44
460.138	85.44
460.358	82.44
460.578	73.44
460.798	76.44
461.018	100.44
461.238	80.44
461.458	70.44
461.678	88.44
461.898	80.44
462.118	90.44
462.338	91.44
462.558	86.44
462.777	75.44
462.997	93.44
463.217	79.44
463.437	70.44
463.657	74.44
463.876	92.44
464.096	83.44
464.316	83.44
464.536	87.44
464.755	96.44
464.975	108.44
465.195	162.44
465.414	145.44
465.634	86.44
465.854	88.44
466.073	95.44
466.293	93.44
466.512	77.44
466.732	94.44
466.951	92.44
467.171	96.44
467.391	96.44
467.61	108.44
467.829	107.44
468.049	151.44
468.268	187.44
468.488	85.44
468.707	98.44
468.927	95.44
469.146	90.44
469.365	81.44
469.585	89.44
469.804	93.44
470.023	91.44
470.243	81.44
470.462	96.44
470.681	108.44
470.901	92.44
471.12	93.44
471.339	86.44
471.558	90.44
471.777	100.44
471.997	121.44
472.216	245.44
472.435	459.44
472.654	156.44
472.873	98.44
473.092	99.44
473.311	96.44
473.53	92.44
473.749	93.44
473.968	88.44
474.187	99.44
474.406	90.44
474.625	99.44
474.844	89.44
475.063	98.44
475.282	95.44
475.501	76.44
475.72	109.44
475.939	82.44
476.158	77.44
476.377	95.44
476.596	81.44
476.814	90.44
477.033	90.44
477.252	84.44
477.471	65.44
477.69	84.44
477.908	90.44
478.127	76.44
478.346	96.44
478.564	100.44
478.783	107.44
479.002	91.44
479.22	96.44
479.439	94.44
479.658	109.44
479.876	109.44
480.095	96.44
480.313	110.44
480.532	96.44
480.751	122.44
480.969	242.44
481.188	766.44
481.406	460.44
481.624	138.44
481.843	88.44
482.061	87.44
482.28	82.44
482.498	89.44
482.717	93.44
482.935	86.44
483.153	85.44
483.372	99.44
483.59	95.44
483.808	80.44
484.027	85.44
484.245	81.44
484.463	95.44
484.681	93.44
484.9	95.44
485.118	87.44
485.336	83.44
485.554	100.44
485.772	95.44
485.99	87.44
486.209	102.44
486.427	116.44
486.645	102.44
486.863	100.44
487.081	97.44
487.299	102.44
487.517	88.44
487.735	83.44
487.953	100.44
488.171	86.44
488.389	88.44
488.607	97.44
488.825	109.44
489.043	90.44
489.261	86.44
489.479	87.44
489.696	90.44
489.914	81.44
490.132	92.44
490.35	87.44
490.568	95.44
490.786	103.44
491.003	91.44
491.221	101.44
491.439	80.44
491.657	70.44
491.874	77.44
492.092	91.44
492.31	95.44
492.527	88.44
492.745	83.44
492.963	97.44
493.18	82.44
493.398	83.44
493.615	92.44
493.833	92.44
494.05	90.44
494.268	93.44
494.485	95.44
494.703	92.44
494.92	85.44
495.138	82.44
495.355	79.44
495.573	81.44
495.79	87.44
496.008	94.44
496.225	92.44
496.442	100.44
496.66	88.44
496.877	96.44
497.094	84.44
497.312	87.44
497.529	79.44
497.746	94.44
497.963	101.44
498.181	92.44
498.398	93.44
498.615	115.44
498.832	99.44
499.049	88.44
499.267	103.44
499.484	86.44
499.701	100.44
499.918	83.44
500.135	86.44
500.352	86.44
500.569	93.44
500.786	97.44
501.003	84.44
501.22	91.44
501.437	99.44
501.654	99.44
501.871	110.44
502.088	74.44
502.305	101.44
502.522	84.44
502.739	103.44
502.956	84.44
503.172	87.44
503.389	86.44
503.606	99.44
503.823	101.44
504.04	100.44
504.256	77.44
504.473	91.44
504.69	87.44
504.907	98.44
505.123	102.44
505.34	88.44
505.557	87.44
505.773	107.44
505.99	94.44
506.207	101.44
506.423	92.44
506.64	98.44
506.856	80.44
507.073	87.44
507.289	93.44
507.506	97.44
507.722	112.44
507.939	105.44
508.155	104.44
508.372	92.44
508.588	92.44
508.805	87.44
509.021	96.44
509.238	91.44
509.454	96.44
509.67	100.44
509.887	115.44
510.103	129.44
510.319	200.44
510.536	667.44
510.752	2139.44
510.968	588.44
511.184	145.44
511.401	115.44
511.617	100.44
511.833	102.44
512.049	99.44
512.265	97.44
512.481	70.44
512.698	96.44
512.914	96.44
513.13	83.44
513.346	99.44
513.562	84.44
513.778	95.44
513.994	102.44
514.21	103.44
514.426	107.44
514.642	119.44
514.858	108.44
515.074	155.44
515.29	387.44
515.506	1299.44
515.721	474.44
515.937	130.44
516.153	106.44
516.369	100.44
516.585	111.44
516.801	108.44
517.016	96.44
517.232	95.44
517.448	87.44
517.664	85.44
517.879	92.44
518.095	93.44
518.311	91.44
518.527	82.44
518.742	102.44
518.958	98.44
519.173	86.44
519.389	87.44
519.605	93.44
519.82	95.44
520.036	99.44
520.251	114.44
520.467	122.44
520.682	105.44
520.898	110.44
521.113	109.44
521.329	133.44
521.544	186.44
521.76	522.44
521.975	2133.44
522.19	1296.44
522.406	262.44
522.621	113.44
522.836	110.44
523.052	94.44
523.267	91.44
523.482	94.44
523.698	92.44
523.913	114.44
524.128	98.44
524.343	101.44
524.559	102.44
524.774	94.44
524.989	91.44
525.204	108.44
525.419	97.44
525.634	86.44
525.849	92.44
526.064	96.44
526.28	97.44
526.495	88.44
526.71	95.44
526.925	78.44
527.14	96.44
527.355	99.44
527.57	98.44
527.785	100.44
527.999	85.44
528.214	89.44
528.429	110.44
528.644	91.44
528.859	88.44
529.074	69.44
529.289	128.44
529.503	165.44
529.718	105.44
529.933	85.44
530.148	93.44
530.363	86.44
530.577	88.44
530.792	86.44
531.007	98.44
531.221	94.44
531.436	91.44
531.651	81.44
531.865	112.44
532.08	85.44
532.295	81.44
532.509	100.44
532.724	94.44
532.938	87.44
533.153	85.44
533.367	95.44
533.582	90.44
533.796	82.44
534.011	93.44
534.225	81.44
534.44	101.44
534.654	87.44
534.868	90.44
535.083	79.44
535.297	93.44
535.511	102.44
535.726	103.44
535.94	90.44
536.154	92.44
536.369	87.44
536.583	94.44
536.797	93.44
537.011	90.44
537.225	94.44
537.44	93.44
537.654	93.44
537.868	88.44
538.082	89.44
538.296	88.44
538.51	94.44
538.724	87.44
538.938	78.44
539.153	91.44
539.367	97.44
539.581	104.44
539.795	109.44
540.009	93.44
540.222	95.44
540.436	101.44
540.65	92.44
540.864	80.44
541.078	85.44
541.292	98.44
541.506	91.44
541.72	94.44
541.934	87.44
542.147	100.44
542.361	83.44
542.575	91.44
542.789	103.44
543.002	95.44
543.216	90.44
543.43	97.44
543.644	95.44
543.857	79.44
544.071	88.44
544.285	83.44
544.498	86.44
544.712	90.44
544.925	91.44
545.139	84.44
545.352	90.44
545.566	83.44
545.779	91.44
545.993	92.44
546.206	84.44
546.42	79.44
546.633	90.44
546.847	85.44
547.06	93.44
547.274	94.44
547.487	93.44
547.7	86.44
547.914	86.44
548.127	95.44
548.34	92.44
548.554	88.44
548.767	96.44
548.98	99.44
549.193	94.44
549.407	95.44
549.62	94.44
549.833	96.44
550.046	107.44
550.259	88.44
550.473	95.44
550.686	89.44
550.899	96.44
551.112	83.44
551.325	92.44
551.538	95.44
551.751	89.44
551.964	100.44
552.177	83.44
552.39	70.44
552.603	92.44
552.816	96.44
553.029	91.44
553.242	100.44
553.455	91.44
553.667	100.44
553.88	99.44
554.093	87.44
554.306	81.44
554.519	89.44
554.732	91.44
554.944	88.44
555.157	101.44
555.37	85.44
555.583	83.44
555.795	98.44
556.008	87.44
556.221	78.44
556.433	88.44
556.646	77.44
556.859	85.44
557.071	85.44
557.284	90.44
557.496	94.44
557.709	94.44
557.921	86.44
558.134	88.44
558.346	95.44
558.559	90.44
558.771	78.44
558.984	75.44
559.196	88.44
559.409	95.44
559.621	95.44
559.833	96.44
560.046	87.44
560.258	79.44
560.47	90.44
560.683	84.44
560.895	93.44
561.107	98.44
561.32	87.44
561.532	109.44
561.744	84.44
561.956	80.44
562.168	86.44
562.381	91.44
562.593	75.44
562.805	77.44
563.017	98.44
563.229	82.44
563.441	87.44
563.653	90.44
563.865	84.44
564.077	84.44
564.289	84.44
564.501	85.44
564.713	99.44
564.925	88.44
565.137	92.44
565.349	104.44
565.561	87.44
565.773	77.44
565.985	83.44
566.197	79.44
566.408	84.44
566.62	84.44
566.832	91.44
567.044	80.44
567.255	96.44
567.467	81.44
567.679	84.44
567.891	77.44
568.102	97.44
568.314	101.44
568.526	80.44
568.737	81.44
568.949	103.44
569.161	96.44
569.372	75.44
569.584	84.44
569.795	97.44
570.007	111.44
570.218	236.44
570.43	134.44
570.641	90.44
570.853	93.44
571.064	93.44
571.276	80.44
571.487	71.44
571.698	77.44
571.91	99.44
572.121	81.44
572.333	80.44
572.544	85.44
572.755	93.44
572.966	84.44
573.178	83.44
573.389	100.44
573.6	81.44
573.811	85.44
574.023	79.44
574.234	89.44
574.445	87.44
574.656	84.44
574.867	94.44
575.078	95.44
575.289	110.44
575.501	75.44
575.712	84.44
575.923	82.44
576.134	101.44
576.345	76.44
576.556	98.44
576.767	99.44
576.978	85.44
577.188	78.44
577.399	94.44
577.61	99.44
577.821	91.44
578.032	97.44
578.243	229.44
578.454	642.44
578.665	174.44
578.875	95.44
579.086	97.44
579.297	88.44
579.508	86.44
579.718	85.44
579.929	81.44
580.14	82.44
580.35	96.44
580.561	79.44
580.772	95.44
580.982	96.44
581.193	84.44
581.403	94.44
581.614	81.44
581.825	85.44
582.035	92.44
582.246	90.44
582.456	90.44
582.667	84.44
582.877	92.44
583.087	92.44
583.298	85.44
583.508	92.44
583.719	101.44
583.929	107.44
584.139	86.44
584.35	84.44
584.56	100.44
584.77	74.44
584.981	71.44
585.191	81.44
585.401	96.44
585.611	84.44
585.821	92.44
586.032	98.44
586.242	86.44
586.452	89.44
586.662	86.44
586.872	86.44
587.082	94.44
587.292	75.44
587.502	86.44
587.713	80.44
587.923	85.44
588.133	85.44
588.343	87.44
588.553	96.44
588.762	98.44
588.972	133.44
589.182	299.44
589.392	174.44
589.602	133.44
589.812	217.44
590.022	110.44
590.232	86.44
590.441	85.44
590.651	102.44
590.861	86.44
591.071	82.44
591.281	88.44
591.49	79.44
591.7	84.44
591.91	86.44
592.119	87.44
592.329	96.44
592.539	77.44
592.748	92.44
592.958	92.44
593.167	89.44
593.377	84.44
593.587	98.44
593.796	78.44
594.006	83.44
594.215	87.44
594.424	87.44
594.634	87.44
594.843	85.44
595.053	97.44
595.262	82.44
595.472	92.44
595.681	90.44
595.89	89.44
596.1	81.44
596.309	76.44
596.518	92.44
596.727	91.44
596.937	94.44
597.146	80.44
597.355	94.44
597.564	90.44
597.774	79.44
597.983	91.44
598.192	82.44
598.401	90.44
598.61	81.44
598.819	96.44
599.028	85.44
599.237	71.44
599.446	87.44
599.655	90.44
599.864	87.44
600.073	90.44
600.282	70.44
600.491	82.44
600.7	90.44
600.909	82.44
601.118	93.44
601.327	94.44
601.536	89.44
601.745	76.44
601.953	98.44
602.162	84.44
602.371	94.44
602.58	87.44
602.789	93.44
602.997	94.44
603.206	90.44
603.415	98.44
603.623	83.44
603.832	91.44
604.041	68.44
604.249	85.44
604.458	86.44
604.666	102.44
604.875	83.44
605.084	81.44
605.292	92.44
605.501	88.44
605.709	89.44
605.918	82.44
606.126	81.44
606.334	78.44
606.543	93.44
606.751	94.44
606.96	91.44
607.168	91.44
607.376	86.44
607.585	96.44
607.793	88.44
608.001	91.44
608.21	86.44
608.418	69.44
608.626	82.44
608.834	94.44
609.043	90.44
609.251	85.44
609.459	88.44
609.667	86.44
609.875	94.44
610.083	95.44
610.291	84.44
610.499	80.44
610.707	71.44
610.916	96.44
611.124	90.44
611.332	82.44
611.54	100.44
611.748	87.44
611.955	100.44
612.163	97.44
612.371	97.44
612.579	90.44
612.787	82.44
612.995	72.44
613.203	80.44
613.411	89.44
613.618	74.44
613.826	83.44
614.034	83.44
614.242	79.44
614.449	74.44
614.657	75.44
614.865	94.44
615.072	101.44
615.28	86.44
615.488	91.44
615.695	82.44
615.903	103.44
616.111	107.44
616.318	97.44
616.526	96.44
616.733	91.44
616.941	79.44
617.148	99.44
617.356	85.44
617.563	82.44
617.771	90.44
617.978	72.44
618.185	80.44
618.393	83.44
618.6	87.44
618.807	107.44
619.015	76.44
619.222	94.44
619.429	86.44
619.637	90.44
619.844	90.44
620.051	87.44
620.258	88.44
620.466	80.44
620.673	87.44
620.88	86.44
621.087	93.44
621.294	83.44
621.501	88.44
621.708	89.44
621.915	83.44
622.122	86.44
622.329	90.44
622.536	92.44
622.743	87.44
622.95	95.44
623.157	88.44
623.364	75.44
623.571	85.44
623.778	94.44
623.985	82.44
624.192	88.44
624.399	84.44
624.606	107.44
624.812	84.44
625.019	77.44
625.226	92.44
625.433	92.44
625.639	85.44
625.846	79.44
626.053	75.44
626.259	84.44
626.466	83.44
626.673	81.44
626.879	83.44
627.086	91.44
627.293	83.44
627.499	85.44
627.706	88.44
627.912	92.44
628.119	101.44
628.325	84.44
628.532	97.44
628.738	87.44
628.945	94.44
629.151	86.44
629.357	81.44
629.564	74.44
629.77	80.44
629.976	80.44
630.183	89.44
630.389	90.44
630.595	88.44
630.802	84.44
631.008	87.44
631.214	89.44
631.42	78.44
631.627	85.44
631.833	87.44
632.039	83.44
632.245	72.44
632.451	94.44
632.657	84.44
632.863	83.44
633.069	78.44
633.275	83.44
633.481	88.44
633.688	82.44
633.893	102.44
634.099	87.44
634.305	78.44
634.511	97.44
634.717	98.44
634.923	62.44
635.129	79.44
635.335	98.44
635.541	91.44
635.747	75.44
635.952	82.44
636.158	78.44
636.364	128.44
636.57	110.44
636.775	78.44
636.981	85.44
637.187	86.44
637.392	95.44
637.598	83.44
637.804	87.44
638.009	71.44
638.215	93.44
638.421	94.44
638.626	66.44
638.832	78.44
639.037	91.44
639.243	82.44
639.448	77.44
639.654	94.44
639.859	84.44
640.065	83.44
640.27	86.44
640.475	81.44
640.681	70.44
640.886	85.44
641.091	84.44
641.297	85.44
641.502	76.44
641.707	86.44
641.913	85.44
642.118	82.44
642.323	81.44
642.528	95.44
642.733	80.44
642.939	83.44
643.144	82.44
643.349	83.44
643.554	97.44
643.759	84.44
643.964	85.44
644.169	84.44
644.374	74.44
644.579	85.44
644.784	70.44
644.989	85.44
645.194	78.44
645.399	84.44
645.604	81.44
645.809	99.44
646.014	91.44
646.219	84.44
646.423	74.44
646.628	83.44
646.833	63.44
647.038	93.44
647.243	90.44
647.447	106.44
647.652	86.44
647.857	80.44
648.062	87.44
648.266	85.44
648.471	82.44
648.676	85.44
648.88	88.44
649.085	93.44
649.289	82.44
649.494	92.44
649.698	130.44
649.903	103.44
650.107	82.44
650.312	88.44
650.516	80.44
650.721	80.44
650.925	81.44
651.13	95.44
651.334	79.44
651.539	76.44
651.743	99.44
651.947	71.44
652.152	98.44
652.356	82.44
652.56	90.44
652.764	84.44
652.969	86.44
653.173	69.44
653.377	95.44
653.581	79.44
653.785	75.44
653.99	83.44
654.194	85.44
654.398	78.44
654.602	95.44
654.806	78.44
655.01	98.44
655.214	86.44
655.418	85.44
655.622	82.44
655.826	82.44
656.03	89.44
656.234	74.44
656.438	97.44
656.642	87.44
656.846	102.44
657.049	86.44
657.253	70.44
657.457	88.44
657.661	89.44
657.865	104.44
658.068	84.44
658.272	74.44
658.476	72.44
658.68	81.44
658.883	90.44
659.087	77.44
659.291	83.44
659.494	80.44
659.698	94.44
659.901	93.44
660.105	80.44
660.309	88.44
660.512	88.44
660.716	94.44
660.919	81.44
661.123	93.44
661.326	77.44
661.53	87.44
661.733	69.44
661.936	77.44
662.14	83.44
662.343	86.44
662.546	82.44
662.75	75.44
662.953	88.44
663.156	72.44
663.36	83.44
663.563	80.44
663.766	88.44
663.969	89.44
664.173	85.44
664.376	74.44
664.579	81.44
664.782	93.44
664.985	74.44
665.188	78.44
665.391	70.44
665.594	82.44
665.797	87.44
666	79.44
666.203	66.44
666.406	74.44
666.609	81.44
666.812	81.44
667.015	91.44
667.218	94.44
667.421	77.44
667.624	74.44
667.827	90.44
668.03	82.44
668.232	68.44
668.435	85.44
668.638	91.44
668.841	82.44
669.043	86.44
669.246	81.44
669.449	99.44
669.651	82.44
669.854	91.44
670.057	70.44
670.259	79.44
670.462	82.44
670.665	82.44
670.867	67.44
671.07	76.44
671.272	76.44
671.475	72.44
671.677	69.44
671.88	91.44
672.082	83.44
672.284	89.44
672.487	73.44
672.689	95.44
672.892	92.44
