Data from Circ_1991_H10_HRD10591_00073.txt Node
Date: Wed Jan 03 11:51:55 EST 2024
User: Yrep
Spectrometer: HR+D1059
Trigger mode: 1
Integration Time (sec): 1.000000E-1
Scans to average: 1
Electric dark correction enabled: true
Nonlinearity correction enabled: false
Boxcar width: 0
XAxis mode: Wavelengths
Number of Pixels in Spectrum: 2048
>>>>>Begin Spectral Data<<<<<
223.165	-17.81
223.4	-17.81
223.635	-17.81
223.869	-20.81
224.104	-15.81
224.338	-18.81
224.573	-4.81
224.808	-16.81
225.042	-3.81
225.277	-13.81
225.511	-2.81
225.746	1.19
225.98	3.19
226.215	18.19
226.449	19.19
226.683	13.19
226.918	23.19
227.152	37.19
227.387	40.19
227.621	37.19
227.856	55.19
228.09	37.19
228.324	51.19
228.559	59.19
228.793	61.19
229.027	68.19
229.262	70.19
229.496	82.19
229.73	86.19
229.964	96.19
230.199	72.19
230.433	79.19
230.667	83.19
230.901	90.19
231.136	81.19
231.37	75.19
231.604	91.19
231.838	70.19
232.072	87.19
232.306	83.19
232.541	84.19
232.775	81.19
233.009	73.19
233.243	89.19
233.477	85.19
233.711	74.19
233.945	82.19
234.179	85.19
234.413	88.19
234.647	92.19
234.881	85.19
235.115	80.19
235.349	66.19
235.583	96.19
235.817	85.19
236.051	92.19
236.285	86.19
236.519	86.19
236.753	85.19
236.987	79.19
237.221	78.19
237.455	90.19
237.689	74.19
237.922	74.19
238.156	73.19
238.39	83.19
238.624	81.19
238.858	86.19
239.091	86.19
239.325	86.19
239.559	86.19
239.793	81.19
240.027	74.19
240.26	93.19
240.494	79.19
240.728	74.19
240.961	82.19
241.195	82.19
241.429	90.19
241.662	93.19
241.896	68.19
242.13	85.19
242.363	79.19
242.597	84.19
242.83	101.19
243.064	73.19
243.298	86.19
243.531	88.19
243.765	83.19
243.998	95.19
244.232	83.19
244.465	87.19
244.699	87.19
244.932	70.19
245.166	98.19
245.399	79.19
245.633	77.19
245.866	85.19
246.099	87.19
246.333	90.19
246.566	62.19
246.8	90.19
247.033	90.19
247.266	86.19
247.5	92.19
247.733	81.19
247.966	76.19
248.2	91.19
248.433	72.19
248.666	88.19
248.899	79.19
249.133	79.19
249.366	96.19
249.599	92.19
249.832	83.19
250.066	81.19
250.299	72.19
250.532	82.19
250.765	87.19
250.998	77.19
251.231	74.19
251.465	83.19
251.698	90.19
251.931	80.19
252.164	74.19
252.397	81.19
252.63	93.19
252.863	95.19
253.096	91.19
253.329	97.19
253.562	86.19
253.795	81.19
254.028	93.19
254.261	81.19
254.494	74.19
254.727	79.19
254.96	88.19
255.193	85.19
255.426	79.19
255.659	86.19
255.892	85.19
256.124	95.19
256.357	79.19
256.59	92.19
256.823	79.19
257.056	92.19
257.289	84.19
257.521	81.19
257.754	86.19
257.987	85.19
258.22	81.19
258.452	89.19
258.685	99.19
258.918	87.19
259.151	88.19
259.383	83.19
259.616	86.19
259.849	80.19
260.081	89.19
260.314	83.19
260.547	82.19
260.779	88.19
261.012	91.19
261.244	101.19
261.477	94.19
261.71	85.19
261.942	102.19
262.175	126.19
262.407	100.19
262.64	91.19
262.872	85.19
263.105	77.19
263.337	91.19
263.57	93.19
263.802	83.19
264.035	84.19
264.267	89.19
264.499	93.19
264.732	90.19
264.964	89.19
265.197	81.19
265.429	75.19
265.661	84.19
265.894	82.19
266.126	94.19
266.358	99.19
266.591	90.19
266.823	75.19
267.055	81.19
267.287	77.19
267.52	88.19
267.752	90.19
267.984	85.19
268.216	89.19
268.448	95.19
268.681	95.19
268.913	84.19
269.145	89.19
269.377	87.19
269.609	89.19
269.841	89.19
270.073	74.19
270.306	89.19
270.538	82.19
270.77	71.19
271.002	79.19
271.234	91.19
271.466	96.19
271.698	80.19
271.93	98.19
272.162	86.19
272.394	83.19
272.626	91.19
272.858	96.19
273.09	99.19
273.322	77.19
273.553	77.19
273.785	71.19
274.017	83.19
274.249	91.19
274.481	98.19
274.713	90.19
274.945	75.19
275.176	98.19
275.408	90.19
275.64	91.19
275.872	94.19
276.104	97.19
276.335	90.19
276.567	111.19
276.799	122.19
277.031	128.19
277.262	136.19
277.494	105.19
277.726	99.19
277.957	99.19
278.189	88.19
278.421	95.19
278.652	89.19
278.884	87.19
279.115	91.19
279.347	85.19
279.579	84.19
279.81	92.19
280.042	116.19
280.273	147.19
280.505	108.19
280.736	91.19
280.968	90.19
281.199	88.19
281.431	102.19
281.662	86.19
281.894	94.19
282.125	94.19
282.356	125.19
282.588	136.19
282.819	114.19
283.051	102.19
283.282	86.19
283.513	91.19
283.745	92.19
283.976	89.19
284.207	81.19
284.439	86.19
284.67	83.19
284.901	86.19
285.132	79.19
285.364	81.19
285.595	95.19
285.826	84.19
286.057	98.19
286.288	93.19
286.52	94.19
286.751	89.19
286.982	83.19
287.213	79.19
287.444	100.19
287.675	84.19
287.906	82.19
288.138	83.19
288.369	85.19
288.6	81.19
288.831	90.19
289.062	92.19
289.293	95.19
289.524	93.19
289.755	95.19
289.986	81.19
290.217	99.19
290.448	85.19
290.679	93.19
290.91	104.19
291.141	87.19
291.371	102.19
291.602	100.19
291.833	91.19
292.064	96.19
292.295	107.19
292.526	88.19
292.757	88.19
292.987	93.19
293.218	100.19
293.449	100.19
293.68	89.19
293.91	94.19
294.141	99.19
294.372	99.19
294.603	98.19
294.833	97.19
295.064	85.19
295.295	102.19
295.525	99.19
295.756	105.19
295.987	126.19
296.217	148.19
296.448	114.19
296.679	107.19
296.909	102.19
297.14	98.19
297.37	102.19
297.601	97.19
297.831	98.19
298.062	86.19
298.292	84.19
298.523	90.19
298.753	90.19
298.984	85.19
299.214	97.19
299.445	82.19
299.675	91.19
299.905	96.19
300.136	92.19
300.366	95.19
300.597	104.19
300.827	98.19
301.057	105.19
301.288	108.19
301.518	105.19
301.748	87.19
301.979	109.19
302.209	95.19
302.439	106.19
302.669	82.19
302.9	82.19
303.13	100.19
303.36	100.19
303.59	104.19
303.82	106.19
304.051	99.19
304.281	90.19
304.511	95.19
304.741	103.19
304.971	86.19
305.201	95.19
305.431	97.19
305.661	97.19
305.891	84.19
306.121	100.19
306.352	112.19
306.582	105.19
306.812	111.19
307.042	116.19
307.272	113.19
307.502	144.19
307.731	130.19
307.961	111.19
308.191	93.19
308.421	101.19
308.651	109.19
308.881	100.19
309.111	94.19
309.341	98.19
309.571	102.19
309.8	115.19
310.03	109.19
310.26	99.19
310.49	91.19
310.72	99.19
310.949	112.19
311.179	123.19
311.409	102.19
311.639	96.19
311.868	97.19
312.098	105.19
312.328	95.19
312.557	109.19
312.787	101.19
313.017	88.19
313.246	95.19
313.476	93.19
313.706	98.19
313.935	107.19
314.165	118.19
314.394	111.19
314.624	103.19
314.853	97.19
315.083	92.19
315.312	94.19
315.542	89.19
315.771	101.19
316.001	95.19
316.23	80.19
316.46	98.19
316.689	94.19
316.919	102.19
317.148	102.19
317.377	94.19
317.607	97.19
317.836	106.19
318.065	103.19
318.295	98.19
318.524	106.19
318.753	88.19
318.983	92.19
319.212	103.19
319.441	115.19
319.67	105.19
319.9	97.19
320.129	105.19
320.358	95.19
320.587	105.19
320.816	106.19
321.046	111.19
321.275	104.19
321.504	93.19
321.733	92.19
321.962	118.19
322.191	106.19
322.42	112.19
322.649	103.19
322.878	109.19
323.108	115.19
323.337	117.19
323.566	137.19
323.795	149.19
324.024	207.19
324.253	431.19
324.482	879.19
324.71	1860.19
324.939	2520.19
325.168	890.19
325.397	258.19
325.626	170.19
325.855	142.19
326.084	137.19
326.313	151.19
326.542	163.19
326.77	232.19
326.999	481.19
327.228	1005.19
327.457	1885.19
327.686	1539.19
327.914	457.19
328.143	315.19
328.372	302.19
328.6	210.19
328.829	142.19
329.058	144.19
329.287	144.19
329.515	132.19
329.744	161.19
329.972	243.19
330.201	416.19
330.43	579.19
330.658	294.19
330.887	175.19
331.115	145.19
331.344	115.19
331.572	110.19
331.801	108.19
332.03	115.19
332.258	97.19
332.486	91.19
332.715	95.19
332.943	104.19
333.172	102.19
333.4	119.19
333.629	123.19
333.857	153.19
334.085	235.19
334.314	403.19
334.542	726.19
334.771	699.19
334.999	229.19
335.227	120.19
335.455	118.19
335.684	112.19
335.912	97.19
336.14	115.19
336.369	97.19
336.597	106.19
336.825	110.19
337.053	95.19
337.281	104.19
337.51	102.19
337.738	85.19
337.966	106.19
338.194	91.19
338.422	94.19
338.65	97.19
338.878	98.19
339.106	98.19
339.334	87.19
339.562	88.19
339.79	85.19
340.018	95.19
340.246	94.19
340.474	98.19
340.702	89.19
340.93	94.19
341.158	84.19
341.386	98.19
341.614	105.19
341.842	93.19
342.07	101.19
342.298	107.19
342.526	104.19
342.754	100.19
342.981	98.19
343.209	96.19
343.437	91.19
343.665	87.19
343.893	88.19
344.12	95.19
344.348	95.19
344.576	104.19
344.804	94.19
345.031	102.19
345.259	96.19
345.487	89.19
345.714	104.19
345.942	105.19
346.17	87.19
346.397	95.19
346.625	98.19
346.853	99.19
347.08	103.19
347.308	102.19
347.535	98.19
347.763	105.19
347.99	105.19
348.218	97.19
348.445	104.19
348.673	104.19
348.9	102.19
349.128	88.19
349.355	101.19
349.583	74.19
349.81	102.19
350.037	91.19
350.265	97.19
350.492	109.19
350.72	108.19
350.947	99.19
351.174	104.19
351.402	102.19
351.629	95.19
351.856	89.19
352.083	106.19
352.311	109.19
352.538	108.19
352.765	111.19
352.992	111.19
353.22	114.19
353.447	99.19
353.674	104.19
353.901	99.19
354.128	112.19
354.355	81.19
354.583	102.19
354.81	98.19
355.037	110.19
355.264	111.19
355.491	101.19
355.718	99.19
355.945	105.19
356.172	99.19
356.399	88.19
356.626	80.19
356.853	97.19
357.08	96.19
357.307	68.19
357.534	93.19
357.761	103.19
357.988	103.19
358.215	105.19
358.441	102.19
358.668	107.19
358.895	103.19
359.122	80.19
359.349	95.19
359.576	100.19
359.802	100.19
360.029	126.19
360.256	111.19
360.483	99.19
360.709	105.19
360.936	89.19
361.163	103.19
361.39	93.19
361.616	95.19
361.843	98.19
362.07	106.19
362.296	103.19
362.523	103.19
362.749	96.19
362.976	74.19
363.203	93.19
363.429	83.19
363.656	85.19
363.882	88.19
364.109	95.19
364.335	84.19
364.562	100.19
364.788	94.19
365.015	93.19
365.241	85.19
365.468	119.19
365.694	115.19
365.92	107.19
366.147	106.19
366.373	94.19
366.599	98.19
366.826	94.19
367.052	92.19
367.278	100.19
367.505	97.19
367.731	90.19
367.957	105.19
368.184	97.19
368.41	91.19
368.636	100.19
368.862	117.19
369.089	105.19
369.315	95.19
369.541	112.19
369.767	96.19
369.993	99.19
370.219	95.19
370.445	92.19
370.672	98.19
370.898	85.19
371.124	88.19
371.35	103.19
371.576	89.19
371.802	89.19
372.028	92.19
372.254	97.19
372.48	97.19
372.706	94.19
372.932	81.19
373.158	90.19
373.384	106.19
373.61	101.19
373.835	95.19
374.061	94.19
374.287	110.19
374.513	93.19
374.739	100.19
374.965	78.19
375.191	88.19
375.416	83.19
375.642	93.19
375.868	104.19
376.094	95.19
376.319	81.19
376.545	81.19
376.771	97.19
376.997	87.19
377.222	106.19
377.448	94.19
377.674	94.19
377.899	88.19
378.125	103.19
378.35	90.19
378.576	97.19
378.802	99.19
379.027	97.19
379.253	80.19
379.478	90.19
379.704	94.19
379.929	101.19
380.155	99.19
380.38	98.19
380.606	86.19
380.831	99.19
381.057	103.19
381.282	102.19
381.507	110.19
381.733	95.19
381.958	96.19
382.184	97.19
382.409	108.19
382.634	98.19
382.86	98.19
383.085	95.19
383.31	107.19
383.535	89.19
383.761	95.19
383.986	99.19
384.211	97.19
384.436	94.19
384.662	101.19
384.887	93.19
385.112	93.19
385.337	113.19
385.562	106.19
385.787	113.19
386.013	115.19
386.238	108.19
386.463	86.19
386.688	115.19
386.913	105.19
387.138	109.19
387.363	98.19
387.588	97.19
387.813	113.19
388.038	94.19
388.263	108.19
388.488	117.19
388.713	86.19
388.938	80.19
389.163	105.19
389.387	93.19
389.612	91.19
389.837	107.19
390.062	103.19
390.287	79.19
390.512	95.19
390.736	95.19
390.961	96.19
391.186	89.19
391.411	99.19
391.636	92.19
391.86	92.19
392.085	96.19
392.31	75.19
392.534	92.19
392.759	83.19
392.984	73.19
393.208	97.19
393.433	105.19
393.658	100.19
393.882	84.19
394.107	84.19
394.331	93.19
394.556	90.19
394.78	90.19
395.005	103.19
395.229	96.19
395.454	85.19
395.678	85.19
395.903	92.19
396.127	90.19
396.352	95.19
396.576	86.19
396.801	101.19
397.025	96.19
397.249	87.19
397.474	107.19
397.698	99.19
397.922	90.19
398.147	101.19
398.371	94.19
398.595	96.19
398.82	83.19
399.044	87.19
399.268	84.19
399.492	103.19
399.717	92.19
399.941	90.19
400.165	81.19
400.389	86.19
400.613	85.19
400.837	101.19
401.062	78.19
401.286	87.19
401.51	94.19
401.734	93.19
401.958	104.19
402.182	120.19
402.406	157.19
402.63	107.19
402.854	94.19
403.078	94.19
403.302	85.19
403.526	99.19
403.75	88.19
403.974	82.19
404.198	104.19
404.422	90.19
404.645	86.19
404.869	99.19
405.093	103.19
405.317	118.19
405.541	113.19
405.765	114.19
405.988	118.19
406.212	159.19
406.436	234.19
406.66	152.19
406.883	105.19
407.107	105.19
407.331	86.19
407.555	101.19
407.778	101.19
408.002	89.19
408.226	90.19
408.449	88.19
408.673	96.19
408.896	88.19
409.12	101.19
409.344	102.19
409.567	102.19
409.791	93.19
410.014	93.19
410.238	88.19
410.461	101.19
410.685	91.19
410.908	107.19
411.132	101.19
411.355	94.19
411.578	93.19
411.802	93.19
412.025	90.19
412.249	87.19
412.472	102.19
412.695	118.19
412.919	103.19
413.142	89.19
413.365	97.19
413.589	86.19
413.812	82.19
414.035	101.19
414.258	105.19
414.482	102.19
414.705	93.19
414.928	91.19
415.151	83.19
415.374	101.19
415.597	97.19
415.821	86.19
416.044	86.19
416.267	101.19
416.49	107.19
416.713	71.19
416.936	94.19
417.159	93.19
417.382	97.19
417.605	95.19
417.828	93.19
418.051	103.19
418.274	86.19
418.497	101.19
418.72	80.19
418.943	80.19
419.166	87.19
419.389	89.19
419.611	99.19
419.834	104.19
420.057	84.19
420.28	91.19
420.503	82.19
420.726	94.19
420.948	90.19
421.171	90.19
421.394	96.19
421.617	81.19
421.839	81.19
422.062	87.19
422.285	103.19
422.507	102.19
422.73	105.19
422.953	85.19
423.175	95.19
423.398	82.19
423.621	94.19
423.843	92.19
424.066	87.19
424.288	82.19
424.511	96.19
424.733	106.19
424.956	105.19
425.178	109.19
425.401	100.19
425.623	99.19
425.846	96.19
426.068	102.19
426.291	86.19
426.513	101.19
426.735	97.19
426.958	109.19
427.18	124.19
427.402	147.19
427.625	185.19
427.847	176.19
428.069	162.19
428.292	103.19
428.514	96.19
428.736	89.19
428.958	78.19
429.181	77.19
429.403	79.19
429.625	100.19
429.847	91.19
430.069	103.19
430.292	83.19
430.514	91.19
430.736	97.19
430.958	82.19
431.18	86.19
431.402	93.19
431.624	98.19
431.846	93.19
432.068	77.19
432.29	83.19
432.512	84.19
432.734	88.19
432.956	85.19
433.178	103.19
433.4	96.19
433.622	99.19
433.844	96.19
434.066	104.19
434.287	94.19
434.509	91.19
434.731	93.19
434.953	90.19
435.175	83.19
435.397	100.19
435.618	94.19
435.84	105.19
436.062	131.19
436.284	125.19
436.505	104.19
436.727	97.19
436.949	87.19
437.17	81.19
437.392	100.19
437.614	94.19
437.835	107.19
438.057	123.19
438.278	125.19
438.5	105.19
438.721	123.19
438.943	98.19
439.165	92.19
439.386	83.19
439.608	91.19
439.829	97.19
440.05	122.19
440.272	146.19
440.493	104.19
440.715	90.19
440.936	94.19
441.158	85.19
441.379	96.19
441.6	93.19
441.822	100.19
442.043	101.19
442.264	109.19
442.486	117.19
442.707	100.19
442.928	116.19
443.149	129.19
443.371	132.19
443.592	111.19
443.813	126.19
444.034	123.19
444.255	93.19
444.476	93.19
444.698	104.19
444.919	90.19
445.14	141.19
445.361	127.19
445.582	97.19
445.803	131.19
446.024	131.19
446.245	157.19
446.466	110.19
446.687	98.19
446.908	88.19
447.129	78.19
447.35	87.19
447.571	93.19
447.792	81.19
448.013	104.19
448.234	103.19
448.455	107.19
448.675	106.19
448.896	125.19
449.117	111.19
449.338	101.19
449.559	131.19
449.779	142.19
450	101.19
450.221	91.19
450.442	87.19
450.662	106.19
450.883	97.19
451.104	122.19
451.324	86.19
451.545	86.19
451.766	82.19
451.986	93.19
452.207	73.19
452.428	85.19
452.648	106.19
452.869	119.19
453.089	105.19
453.31	123.19
453.53	106.19
453.751	103.19
453.971	100.19
454.192	105.19
454.412	99.19
454.633	96.19
454.853	101.19
455.073	81.19
455.294	89.19
455.514	96.19
455.734	93.19
455.955	106.19
456.175	83.19
456.395	87.19
456.616	97.19
456.836	84.19
457.056	97.19
457.276	93.19
457.497	90.19
457.717	86.19
457.937	70.19
458.157	89.19
458.377	83.19
458.598	116.19
458.818	147.19
459.038	189.19
459.258	121.19
459.478	85.19
459.698	86.19
459.918	95.19
460.138	81.19
460.358	73.19
460.578	90.19
460.798	94.19
461.018	96.19
461.238	87.19
461.458	102.19
461.678	93.19
461.898	87.19
462.118	95.19
462.338	95.19
462.558	83.19
462.777	88.19
462.997	90.19
463.217	80.19
463.437	85.19
463.657	84.19
463.876	79.19
464.096	95.19
464.316	99.19
464.536	105.19
464.755	102.19
464.975	116.19
465.195	173.19
465.414	167.19
465.634	90.19
465.854	87.19
466.073	87.19
466.293	110.19
466.512	100.19
466.732	71.19
466.951	82.19
467.171	103.19
467.391	95.19
467.61	110.19
467.829	153.19
468.049	276.19
468.268	390.19
468.488	141.19
468.707	99.19
468.927	88.19
469.146	99.19
469.365	113.19
469.585	103.19
469.804	106.19
470.023	107.19
470.243	106.19
470.462	102.19
470.681	112.19
470.901	103.19
471.12	90.19
471.339	95.19
471.558	89.19
471.777	113.19
471.997	183.19
472.216	506.19
472.435	1043.19
472.654	281.19
472.873	131.19
473.092	99.19
473.311	78.19
473.53	102.19
473.749	84.19
473.968	101.19
474.187	120.19
474.406	82.19
474.625	97.19
474.844	90.19
475.063	89.19
475.282	90.19
475.501	83.19
475.72	93.19
475.939	77.19
476.158	87.19
476.377	95.19
476.596	78.19
476.814	102.19
477.033	96.19
477.252	91.19
477.471	103.19
477.69	91.19
477.908	89.19
478.127	97.19
478.346	90.19
478.564	79.19
478.783	110.19
479.002	119.19
479.22	98.19
479.439	105.19
479.658	123.19
479.876	101.19
480.095	105.19
480.313	120.19
480.532	113.19
480.751	188.19
480.969	490.19
481.188	1858.19
481.406	1061.19
481.624	216.19
481.843	110.19
482.061	96.19
482.28	98.19
482.498	82.19
482.717	93.19
482.935	96.19
483.153	94.19
483.372	98.19
483.59	85.19
483.808	102.19
484.027	81.19
484.245	88.19
484.463	87.19
484.681	103.19
484.9	91.19
485.118	82.19
485.336	97.19
485.554	95.19
485.772	103.19
485.99	110.19
486.209	108.19
486.427	113.19
486.645	115.19
486.863	121.19
487.081	97.19
487.299	104.19
487.517	102.19
487.735	90.19
487.953	101.19
488.171	94.19
488.389	102.19
488.607	89.19
488.825	107.19
489.043	93.19
489.261	95.19
489.479	96.19
489.696	106.19
489.914	93.19
490.132	87.19
490.35	84.19
490.568	87.19
490.786	94.19
491.003	99.19
491.221	90.19
491.439	93.19
491.657	106.19
491.874	81.19
492.092	100.19
492.31	101.19
492.527	92.19
492.745	103.19
492.963	113.19
493.18	98.19
493.398	90.19
493.615	98.19
493.833	94.19
494.05	84.19
494.268	87.19
494.485	93.19
494.703	89.19
494.92	89.19
495.138	101.19
495.355	101.19
495.573	95.19
495.79	95.19
496.008	91.19
496.225	87.19
496.442	91.19
496.66	105.19
496.877	104.19
497.094	97.19
497.312	93.19
497.529	102.19
497.746	81.19
497.963	88.19
498.181	81.19
498.398	94.19
498.615	111.19
498.832	114.19
499.049	101.19
499.267	90.19
499.484	91.19
499.701	88.19
499.918	82.19
500.135	81.19
500.352	81.19
500.569	90.19
500.786	110.19
501.003	90.19
501.22	82.19
501.437	96.19
501.654	87.19
501.871	87.19
502.088	97.19
502.305	93.19
502.522	97.19
502.739	83.19
502.956	90.19
503.172	83.19
503.389	90.19
503.606	105.19
503.823	97.19
504.04	95.19
504.256	96.19
504.473	92.19
504.69	87.19
504.907	90.19
505.123	80.19
505.34	97.19
505.557	83.19
505.773	96.19
505.99	83.19
506.207	88.19
506.423	101.19
506.64	106.19
506.856	88.19
507.073	86.19
507.289	90.19
507.506	104.19
507.722	108.19
507.939	111.19
508.155	92.19
508.372	90.19
508.588	103.19
508.805	108.19
509.021	94.19
509.238	97.19
509.454	93.19
509.67	99.19
509.887	114.19
510.103	118.19
510.319	211.19
510.536	759.19
510.752	2443.19
510.968	659.19
511.184	163.19
511.401	107.19
511.617	96.19
511.833	79.19
512.049	84.19
512.265	95.19
512.481	102.19
512.698	90.19
512.914	89.19
513.13	99.19
513.346	93.19
513.562	90.19
513.778	91.19
513.994	118.19
514.21	123.19
514.426	119.19
514.642	155.19
514.858	121.19
515.074	159.19
515.29	460.19
515.506	1574.19
515.721	559.19
515.937	167.19
516.153	108.19
516.369	103.19
516.585	97.19
516.801	113.19
517.016	91.19
517.232	109.19
517.448	108.19
517.664	83.19
517.879	94.19
518.095	102.19
518.311	99.19
518.527	93.19
518.742	92.19
518.958	98.19
519.173	96.19
519.389	105.19
519.605	89.19
519.82	93.19
520.036	105.19
520.251	122.19
520.467	117.19
520.682	105.19
520.898	117.19
521.113	122.19
521.329	142.19
521.544	203.19
521.76	582.19
521.975	2611.19
522.19	1522.19
522.406	321.19
522.621	129.19
522.836	104.19
523.052	89.19
523.267	102.19
523.482	94.19
523.698	114.19
523.913	127.19
524.128	109.19
524.343	90.19
524.559	95.19
524.774	96.19
524.989	110.19
525.204	117.19
525.419	106.19
525.634	91.19
525.849	89.19
526.064	91.19
526.28	94.19
526.495	81.19
526.71	95.19
526.925	81.19
527.14	80.19
527.355	95.19
527.57	92.19
527.785	82.19
527.999	89.19
528.214	105.19
528.429	95.19
528.644	89.19
528.859	98.19
529.074	99.19
529.289	124.19
529.503	184.19
529.718	100.19
529.933	83.19
530.148	101.19
530.363	91.19
530.577	89.19
530.792	91.19
531.007	95.19
531.221	99.19
531.436	87.19
531.651	83.19
531.865	94.19
532.08	93.19
532.295	81.19
532.509	97.19
532.724	108.19
532.938	80.19
533.153	92.19
533.367	95.19
533.582	82.19
533.796	91.19
534.011	86.19
534.225	100.19
534.44	98.19
534.654	99.19
534.868	100.19
535.083	100.19
535.297	90.19
535.511	105.19
535.726	104.19
535.94	111.19
536.154	93.19
536.369	100.19
536.583	87.19
536.797	98.19
537.011	95.19
537.225	80.19
537.44	88.19
537.654	97.19
537.868	90.19
538.082	104.19
538.296	98.19
538.51	86.19
538.724	93.19
538.938	82.19
539.153	100.19
539.367	109.19
539.581	102.19
539.795	95.19
540.009	104.19
540.222	86.19
540.436	103.19
540.65	97.19
540.864	85.19
541.078	86.19
541.292	87.19
541.506	86.19
541.72	90.19
541.934	91.19
542.147	97.19
542.361	83.19
542.575	88.19
542.789	91.19
543.002	87.19
543.216	89.19
543.43	91.19
543.644	93.19
543.857	86.19
544.071	98.19
544.285	111.19
544.498	96.19
544.712	88.19
544.925	87.19
545.139	89.19
545.352	80.19
545.566	94.19
545.779	91.19
545.993	95.19
546.206	97.19
546.42	83.19
546.633	98.19
546.847	95.19
547.06	79.19
547.274	98.19
547.487	93.19
547.7	103.19
547.914	101.19
548.127	83.19
548.34	84.19
548.554	77.19
548.767	93.19
548.98	99.19
549.193	92.19
549.407	85.19
549.62	74.19
549.833	101.19
550.046	86.19
550.259	105.19
550.473	96.19
550.686	94.19
550.899	102.19
551.112	97.19
551.325	100.19
551.538	88.19
551.751	95.19
551.964	89.19
552.177	99.19
552.39	92.19
552.603	92.19
552.816	99.19
553.029	96.19
553.242	96.19
553.455	96.19
553.667	104.19
553.88	111.19
554.093	87.19
554.306	106.19
554.519	102.19
554.732	88.19
554.944	99.19
555.157	95.19
555.37	88.19
555.583	101.19
555.795	90.19
556.008	88.19
556.221	105.19
556.433	102.19
556.646	98.19
556.859	87.19
557.071	88.19
557.284	94.19
557.496	82.19
557.709	94.19
557.921	97.19
558.134	98.19
558.346	87.19
558.559	97.19
558.771	99.19
558.984	99.19
559.196	95.19
559.409	82.19
559.621	89.19
559.833	87.19
560.046	91.19
560.258	93.19
560.47	104.19
560.683	86.19
560.895	102.19
561.107	98.19
561.32	86.19
561.532	98.19
561.744	92.19
561.956	101.19
562.168	91.19
562.381	101.19
562.593	82.19
562.805	92.19
563.017	95.19
563.229	99.19
563.441	105.19
563.653	90.19
563.865	83.19
564.077	95.19
564.289	94.19
564.501	79.19
564.713	98.19
564.925	101.19
565.137	119.19
565.349	102.19
565.561	83.19
565.773	104.19
565.985	99.19
566.197	74.19
566.408	89.19
566.62	85.19
566.832	78.19
567.044	86.19
567.255	88.19
567.467	96.19
567.679	92.19
567.891	97.19
568.102	87.19
568.314	91.19
568.526	91.19
568.737	90.19
568.949	92.19
569.161	94.19
569.372	78.19
569.584	97.19
569.795	87.19
570.007	119.19
570.218	242.19
570.43	127.19
570.641	85.19
570.853	103.19
571.064	87.19
571.276	85.19
571.487	85.19
571.698	97.19
571.91	80.19
572.121	92.19
572.333	94.19
572.544	102.19
572.755	77.19
572.966	87.19
573.178	95.19
573.389	81.19
573.6	94.19
573.811	101.19
574.023	93.19
574.234	95.19
574.445	98.19
574.656	88.19
574.867	81.19
575.078	95.19
575.289	89.19
575.501	96.19
575.712	103.19
575.923	89.19
576.134	83.19
576.345	94.19
576.556	100.19
576.767	91.19
576.978	97.19
577.188	109.19
577.399	104.19
577.61	100.19
577.821	97.19
578.032	115.19
578.243	274.19
578.454	749.19
578.665	201.19
578.875	101.19
579.086	89.19
579.297	98.19
579.508	86.19
579.718	80.19
579.929	93.19
580.14	82.19
580.35	90.19
580.561	89.19
580.772	87.19
580.982	78.19
581.193	88.19
581.403	103.19
581.614	101.19
581.825	88.19
582.035	91.19
582.246	98.19
582.456	81.19
582.667	86.19
582.877	91.19
583.087	82.19
583.298	96.19
583.508	78.19
583.719	83.19
583.929	87.19
584.139	94.19
584.35	82.19
584.56	97.19
584.77	88.19
584.981	92.19
585.191	78.19
585.401	98.19
585.611	98.19
585.821	115.19
586.032	103.19
586.242	93.19
586.452	99.19
586.662	97.19
586.872	91.19
587.082	87.19
587.292	98.19
587.502	100.19
587.713	90.19
587.923	85.19
588.133	91.19
588.343	97.19
588.553	87.19
588.762	96.19
588.972	104.19
589.182	177.19
589.392	117.19
589.602	86.19
589.812	126.19
590.022	98.19
590.232	83.19
590.441	90.19
590.651	86.19
590.861	74.19
591.071	96.19
591.281	90.19
591.49	90.19
591.7	84.19
591.91	95.19
592.119	89.19
592.329	94.19
592.539	88.19
592.748	92.19
592.958	87.19
593.167	97.19
593.377	92.19
593.587	102.19
593.796	91.19
594.006	104.19
594.215	98.19
594.424	84.19
594.634	83.19
594.843	95.19
595.053	92.19
595.262	88.19
595.472	95.19
595.681	85.19
595.89	93.19
596.1	99.19
596.309	83.19
596.518	95.19
596.727	91.19
596.937	78.19
597.146	93.19
597.355	102.19
597.564	90.19
597.774	86.19
597.983	87.19
598.192	68.19
598.401	85.19
598.61	89.19
598.819	96.19
599.028	96.19
599.237	81.19
599.446	97.19
599.655	87.19
599.864	97.19
600.073	98.19
600.282	91.19
600.491	85.19
600.7	98.19
600.909	87.19
601.118	88.19
601.327	97.19
601.536	95.19
601.745	111.19
601.953	100.19
602.162	85.19
602.371	87.19
602.58	79.19
602.789	90.19
602.997	88.19
603.206	88.19
603.415	82.19
603.623	100.19
603.832	94.19
604.041	87.19
604.249	93.19
604.458	81.19
604.666	82.19
604.875	83.19
605.084	88.19
605.292	77.19
605.501	88.19
605.709	96.19
605.918	90.19
606.126	87.19
606.334	85.19
606.543	97.19
606.751	81.19
606.96	96.19
607.168	104.19
607.376	85.19
607.585	80.19
607.793	89.19
608.001	94.19
608.21	85.19
608.418	94.19
608.626	84.19
608.834	86.19
609.043	78.19
609.251	86.19
609.459	97.19
609.667	94.19
609.875	90.19
610.083	100.19
610.291	95.19
610.499	102.19
610.707	91.19
610.916	95.19
611.124	85.19
611.332	84.19
611.54	75.19
611.748	79.19
611.955	87.19
612.163	90.19
612.371	91.19
612.579	84.19
612.787	104.19
612.995	107.19
613.203	102.19
613.411	89.19
613.618	70.19
613.826	98.19
614.034	88.19
614.242	97.19
614.449	86.19
614.657	80.19
614.865	88.19
615.072	88.19
615.28	89.19
615.488	89.19
615.695	101.19
615.903	97.19
616.111	110.19
616.318	102.19
616.526	92.19
616.733	91.19
616.941	86.19
617.148	87.19
617.356	91.19
617.563	88.19
617.771	87.19
617.978	99.19
618.185	103.19
618.393	89.19
618.6	78.19
618.807	86.19
619.015	80.19
619.222	75.19
619.429	80.19
619.637	102.19
619.844	93.19
620.051	83.19
620.258	99.19
620.466	88.19
620.673	92.19
620.88	93.19
621.087	97.19
621.294	94.19
621.501	96.19
621.708	81.19
621.915	78.19
622.122	67.19
622.329	85.19
622.536	77.19
622.743	88.19
622.95	95.19
623.157	95.19
623.364	100.19
623.571	81.19
623.778	93.19
623.985	98.19
624.192	89.19
624.399	96.19
624.606	78.19
624.812	100.19
625.019	103.19
625.226	80.19
625.433	94.19
625.639	107.19
625.846	93.19
626.053	91.19
626.259	96.19
626.466	84.19
626.673	85.19
626.879	93.19
627.086	95.19
627.293	106.19
627.499	94.19
627.706	85.19
627.912	79.19
628.119	93.19
628.325	92.19
628.532	88.19
628.738	87.19
628.945	89.19
629.151	89.19
629.357	97.19
629.564	100.19
629.77	78.19
629.976	81.19
630.183	80.19
630.389	107.19
630.595	85.19
630.802	89.19
631.008	82.19
631.214	81.19
631.42	100.19
631.627	81.19
631.833	90.19
632.039	73.19
632.245	88.19
632.451	92.19
632.657	90.19
632.863	82.19
633.069	98.19
633.275	78.19
633.481	87.19
633.688	73.19
633.893	81.19
634.099	88.19
634.305	85.19
634.511	94.19
634.717	87.19
634.923	89.19
635.129	63.19
635.335	69.19
635.541	92.19
635.747	77.19
635.952	90.19
636.158	102.19
636.364	183.19
636.57	155.19
636.775	107.19
636.981	98.19
637.187	93.19
637.392	82.19
637.598	79.19
637.804	86.19
638.009	98.19
638.215	90.19
638.421	87.19
638.626	86.19
638.832	77.19
639.037	84.19
639.243	105.19
639.448	86.19
639.654	87.19
639.859	88.19
640.065	86.19
640.27	95.19
640.475	96.19
640.681	80.19
640.886	81.19
641.091	90.19
641.297	100.19
641.502	73.19
641.707	89.19
641.913	74.19
642.118	88.19
642.323	88.19
642.528	86.19
642.733	87.19
642.939	92.19
643.144	88.19
643.349	107.19
643.554	107.19
643.759	92.19
643.964	89.19
644.169	89.19
644.374	81.19
644.579	79.19
644.784	83.19
644.989	79.19
645.194	72.19
645.399	89.19
645.604	97.19
645.809	76.19
646.014	90.19
646.219	88.19
646.423	96.19
646.628	85.19
646.833	98.19
647.038	96.19
647.243	89.19
647.447	101.19
647.652	87.19
647.857	86.19
648.062	97.19
648.266	89.19
648.471	99.19
648.676	98.19
648.88	101.19
649.085	89.19
649.289	85.19
649.494	102.19
649.698	149.19
649.903	101.19
650.107	81.19
650.312	81.19
650.516	82.19
650.721	102.19
650.925	96.19
651.13	89.19
651.334	87.19
651.539	109.19
651.743	73.19
651.947	98.19
652.152	90.19
652.356	91.19
652.56	88.19
652.764	87.19
652.969	86.19
653.173	80.19
653.377	87.19
653.581	87.19
653.785	90.19
653.99	78.19
654.194	78.19
654.398	97.19
654.602	95.19
654.806	83.19
655.01	95.19
655.214	90.19
655.418	80.19
655.622	90.19
655.826	87.19
656.03	97.19
656.234	73.19
656.438	90.19
656.642	91.19
656.846	84.19
657.049	79.19
657.253	79.19
657.457	78.19
657.661	80.19
657.865	96.19
658.068	99.19
658.272	95.19
658.476	85.19
658.68	85.19
658.883	88.19
659.087	82.19
659.291	89.19
659.494	95.19
659.698	78.19
659.901	105.19
660.105	83.19
660.309	77.19
660.512	91.19
660.716	99.19
660.919	93.19
661.123	83.19
661.326	81.19
661.53	71.19
661.733	98.19
661.936	85.19
662.14	83.19
662.343	88.19
662.546	89.19
662.75	96.19
662.953	89.19
663.156	74.19
663.36	79.19
663.563	97.19
663.766	94.19
663.969	85.19
664.173	86.19
664.376	89.19
664.579	98.19
664.782	96.19
664.985	83.19
665.188	86.19
665.391	101.19
665.594	80.19
665.797	100.19
666	77.19
666.203	82.19
666.406	86.19
666.609	80.19
666.812	81.19
667.015	85.19
667.218	82.19
667.421	81.19
667.624	95.19
667.827	78.19
668.03	76.19
668.232	82.19
668.435	78.19
668.638	90.19
668.841	73.19
669.043	88.19
669.246	95.19
669.449	85.19
669.651	81.19
669.854	73.19
670.057	87.19
670.259	87.19
670.462	86.19
670.665	79.19
670.867	94.19
671.07	93.19
671.272	80.19
671.475	82.19
671.677	99.19
671.88	92.19
672.082	87.19
672.284	84.19
672.487	90.19
672.689	85.19
672.892	75.19
