Data from Circ_1991_H10_HRD10591_00047.txt Node
Date: Wed Jan 03 11:51:50 EST 2024
User: Yrep
Spectrometer: HR+D1059
Trigger mode: 1
Integration Time (sec): 1.000000E-1
Scans to average: 1
Electric dark correction enabled: true
Nonlinearity correction enabled: false
Boxcar width: 0
XAxis mode: Wavelengths
Number of Pixels in Spectrum: 2048
>>>>>Begin Spectral Data<<<<<
223.165	-13.25
223.4	-13.25
223.635	-13.25
223.869	-13.25
224.104	-31.25
224.338	-25.25
224.573	-13.25
224.808	-15.25
225.042	-11.25
225.277	4.75
225.511	-11.25
225.746	4.75
225.98	14.75
226.215	17.75
226.449	20.75
226.683	18.75
226.918	24.75
227.152	27.75
227.387	27.75
227.621	36.75
227.856	41.75
228.09	40.75
228.324	50.75
228.559	59.75
228.793	66.75
229.027	53.75
229.262	66.75
229.496	61.75
229.73	93.75
229.964	87.75
230.199	75.75
230.433	86.75
230.667	62.75
230.901	86.75
231.136	87.75
231.37	65.75
231.604	87.75
231.838	68.75
232.072	93.75
232.306	85.75
232.541	96.75
232.775	72.75
233.009	86.75
233.243	73.75
233.477	76.75
233.711	97.75
233.945	83.75
234.179	84.75
234.413	91.75
234.647	85.75
234.881	72.75
235.115	83.75
235.349	66.75
235.583	72.75
235.817	79.75
236.051	80.75
236.285	78.75
236.519	86.75
236.753	95.75
236.987	84.75
237.221	73.75
237.455	75.75
237.689	75.75
237.922	80.75
238.156	76.75
238.39	69.75
238.624	68.75
238.858	79.75
239.091	70.75
239.325	70.75
239.559	80.75
239.793	79.75
240.027	74.75
240.26	62.75
240.494	67.75
240.728	70.75
240.961	85.75
241.195	80.75
241.429	71.75
241.662	85.75
241.896	73.75
242.13	75.75
242.363	89.75
242.597	82.75
242.83	59.75
243.064	77.75
243.298	81.75
243.531	66.75
243.765	94.75
243.998	84.75
244.232	77.75
244.465	87.75
244.699	70.75
244.932	87.75
245.166	67.75
245.399	70.75
245.633	75.75
245.866	76.75
246.099	93.75
246.333	80.75
246.566	81.75
246.8	74.75
247.033	82.75
247.266	72.75
247.5	73.75
247.733	86.75
247.966	97.75
248.2	92.75
248.433	71.75
248.666	86.75
248.899	80.75
249.133	85.75
249.366	97.75
249.599	93.75
249.832	84.75
250.066	81.75
250.299	78.75
250.532	92.75
250.765	91.75
250.998	73.75
251.231	70.75
251.465	68.75
251.698	67.75
251.931	83.75
252.164	86.75
252.397	75.75
252.63	77.75
252.863	82.75
253.096	82.75
253.329	70.75
253.562	79.75
253.795	83.75
254.028	89.75
254.261	85.75
254.494	75.75
254.727	83.75
254.96	87.75
255.193	91.75
255.426	63.75
255.659	93.75
255.892	83.75
256.124	67.75
256.357	79.75
256.59	78.75
256.823	88.75
257.056	68.75
257.289	83.75
257.521	72.75
257.754	71.75
257.987	82.75
258.22	83.75
258.452	87.75
258.685	91.75
258.918	90.75
259.151	84.75
259.383	85.75
259.616	75.75
259.849	80.75
260.081	85.75
260.314	85.75
260.547	85.75
260.779	84.75
261.012	84.75
261.244	94.75
261.477	90.75
261.71	100.75
261.942	111.75
262.175	104.75
262.407	88.75
262.64	88.75
262.872	88.75
263.105	75.75
263.337	72.75
263.57	87.75
263.802	81.75
264.035	77.75
264.267	87.75
264.499	82.75
264.732	99.75
264.964	80.75
265.197	87.75
265.429	81.75
265.661	97.75
265.894	85.75
266.126	63.75
266.358	85.75
266.591	89.75
266.823	72.75
267.055	68.75
267.287	81.75
267.52	75.75
267.752	94.75
267.984	89.75
268.216	88.75
268.448	95.75
268.681	79.75
268.913	84.75
269.145	73.75
269.377	92.75
269.609	77.75
269.841	77.75
270.073	81.75
270.306	88.75
270.538	97.75
270.77	92.75
271.002	94.75
271.234	64.75
271.466	91.75
271.698	87.75
271.93	80.75
272.162	100.75
272.394	100.75
272.626	94.75
272.858	87.75
273.09	86.75
273.322	70.75
273.553	81.75
273.785	79.75
274.017	83.75
274.249	76.75
274.481	96.75
274.713	79.75
274.945	86.75
275.176	100.75
275.408	71.75
275.64	80.75
275.872	93.75
276.104	97.75
276.335	78.75
276.567	80.75
276.799	112.75
277.031	111.75
277.262	119.75
277.494	105.75
277.726	92.75
277.957	92.75
278.189	94.75
278.421	93.75
278.652	80.75
278.884	86.75
279.115	96.75
279.347	91.75
279.579	82.75
279.81	105.75
280.042	119.75
280.273	133.75
280.505	120.75
280.736	89.75
280.968	96.75
281.199	90.75
281.431	85.75
281.662	95.75
281.894	95.75
282.125	99.75
282.356	114.75
282.588	136.75
282.819	114.75
283.051	80.75
283.282	88.75
283.513	78.75
283.745	83.75
283.976	100.75
284.207	84.75
284.439	89.75
284.67	80.75
284.901	79.75
285.132	98.75
285.364	93.75
285.595	86.75
285.826	92.75
286.057	76.75
286.288	111.75
286.52	78.75
286.751	83.75
286.982	86.75
287.213	83.75
287.444	76.75
287.675	88.75
287.906	88.75
288.138	105.75
288.369	94.75
288.6	84.75
288.831	94.75
289.062	86.75
289.293	91.75
289.524	97.75
289.755	95.75
289.986	73.75
290.217	88.75
290.448	88.75
290.679	86.75
290.91	89.75
291.141	88.75
291.371	80.75
291.602	79.75
291.833	100.75
292.064	75.75
292.295	101.75
292.526	84.75
292.757	82.75
292.987	88.75
293.218	94.75
293.449	83.75
293.68	80.75
293.91	91.75
294.141	96.75
294.372	60.75
294.603	89.75
294.833	94.75
295.064	87.75
295.295	93.75
295.525	93.75
295.756	110.75
295.987	101.75
296.217	131.75
296.448	125.75
296.679	104.75
296.909	99.75
297.14	94.75
297.37	79.75
297.601	78.75
297.831	79.75
298.062	79.75
298.292	92.75
298.523	86.75
298.753	88.75
298.984	100.75
299.214	86.75
299.445	88.75
299.675	105.75
299.905	105.75
300.136	97.75
300.366	93.75
300.597	91.75
300.827	88.75
301.057	88.75
301.288	116.75
301.518	93.75
301.748	79.75
301.979	85.75
302.209	87.75
302.439	76.75
302.669	87.75
302.9	83.75
303.13	86.75
303.36	94.75
303.59	109.75
303.82	116.75
304.051	88.75
304.281	94.75
304.511	88.75
304.741	77.75
304.971	90.75
305.201	106.75
305.431	94.75
305.661	95.75
305.891	85.75
306.121	99.75
306.352	94.75
306.582	104.75
306.812	91.75
307.042	98.75
307.272	108.75
307.502	102.75
307.731	117.75
307.961	99.75
308.191	96.75
308.421	97.75
308.651	103.75
308.881	86.75
309.111	83.75
309.341	107.75
309.571	108.75
309.8	101.75
310.03	99.75
310.26	82.75
310.49	84.75
310.72	97.75
310.949	104.75
311.179	91.75
311.409	96.75
311.639	88.75
311.868	98.75
312.098	99.75
312.328	84.75
312.557	84.75
312.787	100.75
313.017	117.75
313.246	95.75
313.476	92.75
313.706	95.75
313.935	101.75
314.165	90.75
314.394	95.75
314.624	92.75
314.853	111.75
315.083	110.75
315.312	95.75
315.542	101.75
315.771	103.75
316.001	94.75
316.23	89.75
316.46	90.75
316.689	93.75
316.919	98.75
317.148	105.75
317.377	97.75
317.607	106.75
317.836	97.75
318.065	90.75
318.295	89.75
318.524	105.75
318.753	75.75
318.983	107.75
319.212	97.75
319.441	105.75
319.67	101.75
319.9	99.75
320.129	83.75
320.358	96.75
320.587	83.75
320.816	102.75
321.046	98.75
321.275	113.75
321.504	93.75
321.733	95.75
321.962	104.75
322.191	93.75
322.42	107.75
322.649	103.75
322.878	110.75
323.108	107.75
323.337	112.75
323.566	142.75
323.795	151.75
324.024	198.75
324.253	369.75
324.482	817.75
324.71	1752.75
324.939	2302.75
325.168	811.75
325.397	239.75
325.626	155.75
325.855	132.75
326.084	113.75
326.313	134.75
326.542	154.75
326.77	211.75
326.999	431.75
327.228	918.75
327.457	1708.75
327.686	1437.75
327.914	409.75
328.143	269.75
328.372	253.75
328.6	168.75
328.829	134.75
329.058	126.75
329.287	124.75
329.515	114.75
329.744	144.75
329.972	181.75
330.201	326.75
330.43	467.75
330.658	249.75
330.887	178.75
331.115	124.75
331.344	100.75
331.572	108.75
331.801	112.75
332.03	108.75
332.258	102.75
332.486	111.75
332.715	85.75
332.943	100.75
333.172	105.75
333.4	97.75
333.629	127.75
333.857	136.75
334.085	201.75
334.314	315.75
334.542	573.75
334.771	510.75
334.999	181.75
335.227	132.75
335.455	109.75
335.684	101.75
335.912	88.75
336.14	101.75
336.369	97.75
336.597	103.75
336.825	110.75
337.053	112.75
337.281	105.75
337.51	92.75
337.738	83.75
337.966	95.75
338.194	88.75
338.422	105.75
338.65	92.75
338.878	100.75
339.106	84.75
339.334	84.75
339.562	86.75
339.79	86.75
340.018	84.75
340.246	86.75
340.474	84.75
340.702	101.75
340.93	81.75
341.158	103.75
341.386	96.75
341.614	81.75
341.842	86.75
342.07	103.75
342.298	88.75
342.526	84.75
342.754	99.75
342.981	81.75
343.209	96.75
343.437	95.75
343.665	91.75
343.893	98.75
344.12	94.75
344.348	85.75
344.576	91.75
344.804	99.75
345.031	95.75
345.259	115.75
345.487	105.75
345.714	93.75
345.942	96.75
346.17	82.75
346.397	79.75
346.625	99.75
346.853	97.75
347.08	82.75
347.308	93.75
347.535	125.75
347.763	85.75
347.99	103.75
348.218	87.75
348.445	97.75
348.673	96.75
348.9	97.75
349.128	107.75
349.355	92.75
349.583	93.75
349.81	98.75
350.037	91.75
350.265	98.75
350.492	96.75
350.72	85.75
350.947	99.75
351.174	109.75
351.402	114.75
351.629	108.75
351.856	99.75
352.083	113.75
352.311	101.75
352.538	99.75
352.765	112.75
352.992	112.75
353.22	115.75
353.447	96.75
353.674	117.75
353.901	92.75
354.128	100.75
354.355	100.75
354.583	98.75
354.81	97.75
355.037	102.75
355.264	94.75
355.491	101.75
355.718	99.75
355.945	84.75
356.172	81.75
356.399	92.75
356.626	86.75
356.853	84.75
357.08	91.75
357.307	85.75
357.534	84.75
357.761	92.75
357.988	87.75
358.215	111.75
358.441	94.75
358.668	87.75
358.895	89.75
359.122	86.75
359.349	98.75
359.576	102.75
359.802	92.75
360.029	114.75
360.256	99.75
360.483	88.75
360.709	85.75
360.936	103.75
361.163	99.75
361.39	106.75
361.616	93.75
361.843	77.75
362.07	95.75
362.296	96.75
362.523	99.75
362.749	107.75
362.976	85.75
363.203	84.75
363.429	90.75
363.656	89.75
363.882	88.75
364.109	77.75
364.335	93.75
364.562	77.75
364.788	84.75
365.015	99.75
365.241	100.75
365.468	95.75
365.694	98.75
365.92	90.75
366.147	94.75
366.373	87.75
366.599	75.75
366.826	99.75
367.052	80.75
367.278	84.75
367.505	89.75
367.731	86.75
367.957	98.75
368.184	91.75
368.41	99.75
368.636	105.75
368.862	112.75
369.089	103.75
369.315	86.75
369.541	89.75
369.767	81.75
369.993	79.75
370.219	89.75
370.445	92.75
370.672	99.75
370.898	97.75
371.124	94.75
371.35	93.75
371.576	87.75
371.802	84.75
372.028	86.75
372.254	89.75
372.48	86.75
372.706	83.75
372.932	91.75
373.158	87.75
373.384	101.75
373.61	89.75
373.835	85.75
374.061	71.75
374.287	82.75
374.513	89.75
374.739	95.75
374.965	94.75
375.191	85.75
375.416	85.75
375.642	97.75
375.868	80.75
376.094	83.75
376.319	97.75
376.545	91.75
376.771	86.75
376.997	87.75
377.222	106.75
377.448	85.75
377.674	84.75
377.899	77.75
378.125	81.75
378.35	100.75
378.576	85.75
378.802	103.75
379.027	85.75
379.253	84.75
379.478	93.75
379.704	95.75
379.929	92.75
380.155	93.75
380.38	89.75
380.606	94.75
380.831	89.75
381.057	103.75
381.282	107.75
381.507	83.75
381.733	103.75
381.958	102.75
382.184	90.75
382.409	94.75
382.634	103.75
382.86	100.75
383.085	106.75
383.31	98.75
383.535	98.75
383.761	104.75
383.986	106.75
384.211	99.75
384.436	102.75
384.662	97.75
384.887	114.75
385.112	108.75
385.337	102.75
385.562	117.75
385.787	113.75
386.013	96.75
386.238	111.75
386.463	103.75
386.688	118.75
386.913	109.75
387.138	106.75
387.363	97.75
387.588	97.75
387.813	96.75
388.038	96.75
388.263	107.75
388.488	109.75
388.713	113.75
388.938	104.75
389.163	84.75
389.387	95.75
389.612	84.75
389.837	87.75
390.062	95.75
390.287	94.75
390.512	80.75
390.736	109.75
390.961	88.75
391.186	89.75
391.411	100.75
391.636	82.75
391.86	81.75
392.085	81.75
392.31	80.75
392.534	98.75
392.759	86.75
392.984	94.75
393.208	100.75
393.433	122.75
393.658	120.75
393.882	93.75
394.107	82.75
394.331	94.75
394.556	93.75
394.78	99.75
395.005	99.75
395.229	93.75
395.454	80.75
395.678	93.75
395.903	70.75
396.127	86.75
396.352	98.75
396.576	105.75
396.801	110.75
397.025	101.75
397.249	97.75
397.474	92.75
397.698	85.75
397.922	107.75
398.147	99.75
398.371	101.75
398.595	102.75
398.82	79.75
399.044	97.75
399.268	96.75
399.492	83.75
399.717	93.75
399.941	83.75
400.165	94.75
400.389	89.75
400.613	93.75
400.837	98.75
401.062	91.75
401.286	95.75
401.51	93.75
401.734	89.75
401.958	94.75
402.182	118.75
402.406	155.75
402.63	110.75
402.854	99.75
403.078	93.75
403.302	87.75
403.526	86.75
403.75	84.75
403.974	85.75
404.198	87.75
404.422	98.75
404.645	92.75
404.869	103.75
405.093	107.75
405.317	115.75
405.541	116.75
405.765	107.75
405.988	115.75
406.212	160.75
406.436	217.75
406.66	160.75
406.883	96.75
407.107	105.75
407.331	95.75
407.555	99.75
407.778	94.75
408.002	88.75
408.226	88.75
408.449	97.75
408.673	107.75
408.896	94.75
409.12	100.75
409.344	100.75
409.567	89.75
409.791	96.75
410.014	75.75
410.238	79.75
410.461	86.75
410.685	103.75
410.908	104.75
411.132	98.75
411.355	99.75
411.578	98.75
411.802	99.75
412.025	86.75
412.249	101.75
412.472	91.75
412.695	112.75
412.919	87.75
413.142	99.75
413.365	75.75
413.589	68.75
413.812	97.75
414.035	95.75
414.258	95.75
414.482	113.75
414.705	103.75
414.928	100.75
415.151	91.75
415.374	100.75
415.597	97.75
415.821	83.75
416.044	93.75
416.267	80.75
416.49	86.75
416.713	107.75
416.936	86.75
417.159	89.75
417.382	89.75
417.605	94.75
417.828	91.75
418.051	98.75
418.274	91.75
418.497	104.75
418.72	109.75
418.943	86.75
419.166	82.75
419.389	92.75
419.611	101.75
419.834	88.75
420.057	89.75
420.28	80.75
420.503	83.75
420.726	81.75
420.948	99.75
421.171	109.75
421.394	89.75
421.617	100.75
421.839	102.75
422.062	84.75
422.285	98.75
422.507	92.75
422.73	111.75
422.953	95.75
423.175	82.75
423.398	99.75
423.621	86.75
423.843	88.75
424.066	99.75
424.288	95.75
424.511	91.75
424.733	92.75
424.956	109.75
425.178	97.75
425.401	100.75
425.623	105.75
425.846	105.75
426.068	102.75
426.291	83.75
426.513	79.75
426.735	91.75
426.958	100.75
427.18	115.75
427.402	139.75
427.625	163.75
427.847	163.75
428.069	159.75
428.292	102.75
428.514	95.75
428.736	91.75
428.958	84.75
429.181	83.75
429.403	87.75
429.625	94.75
429.847	88.75
430.069	105.75
430.292	104.75
430.514	86.75
430.736	88.75
430.958	88.75
431.18	80.75
431.402	103.75
431.624	83.75
431.846	83.75
432.068	96.75
432.29	95.75
432.512	95.75
432.734	81.75
432.956	84.75
433.178	103.75
433.4	111.75
433.622	77.75
433.844	85.75
434.066	98.75
434.287	87.75
434.509	84.75
434.731	87.75
434.953	90.75
435.175	83.75
435.397	73.75
435.618	93.75
435.84	94.75
436.062	132.75
436.284	112.75
436.505	108.75
436.727	110.75
436.949	101.75
437.17	87.75
437.392	78.75
437.614	94.75
437.835	97.75
438.057	130.75
438.278	98.75
438.5	99.75
438.721	120.75
438.943	93.75
439.165	97.75
439.386	87.75
439.608	95.75
439.829	97.75
440.05	121.75
440.272	144.75
440.493	88.75
440.715	90.75
440.936	92.75
441.158	90.75
441.379	97.75
441.6	86.75
441.822	95.75
442.043	99.75
442.264	122.75
442.486	108.75
442.707	91.75
442.928	101.75
443.149	127.75
443.371	124.75
443.592	109.75
443.813	119.75
444.034	102.75
444.255	96.75
444.476	86.75
444.698	83.75
444.919	84.75
445.14	117.75
445.361	120.75
445.582	132.75
445.803	137.75
446.024	152.75
446.245	132.75
446.466	102.75
446.687	99.75
446.908	80.75
447.129	94.75
447.35	68.75
447.571	87.75
447.792	91.75
448.013	99.75
448.234	105.75
448.455	93.75
448.675	113.75
448.896	135.75
449.117	95.75
449.338	109.75
449.559	123.75
449.779	131.75
450	86.75
450.221	88.75
450.442	79.75
450.662	96.75
450.883	128.75
451.104	107.75
451.324	79.75
451.545	86.75
451.766	100.75
451.986	75.75
452.207	87.75
452.428	96.75
452.648	89.75
452.869	108.75
453.089	113.75
453.31	114.75
453.53	99.75
453.751	87.75
453.971	85.75
454.192	97.75
454.412	96.75
454.633	83.75
454.853	80.75
455.073	103.75
455.294	85.75
455.514	101.75
455.734	80.75
455.955	92.75
456.175	94.75
456.395	84.75
456.616	86.75
456.836	77.75
457.056	96.75
457.276	93.75
457.497	87.75
457.717	94.75
457.937	89.75
458.157	93.75
458.377	87.75
458.598	107.75
458.818	140.75
459.038	157.75
459.258	108.75
459.478	91.75
459.698	101.75
459.918	92.75
460.138	80.75
460.358	95.75
460.578	100.75
460.798	93.75
461.018	105.75
461.238	97.75
461.458	86.75
461.678	91.75
461.898	79.75
462.118	78.75
462.338	77.75
462.558	78.75
462.777	77.75
462.997	98.75
463.217	87.75
463.437	92.75
463.657	83.75
463.876	93.75
464.096	100.75
464.316	92.75
464.536	95.75
464.755	103.75
464.975	103.75
465.195	169.75
465.414	141.75
465.634	83.75
465.854	83.75
466.073	89.75
466.293	95.75
466.512	80.75
466.732	84.75
466.951	86.75
467.171	87.75
467.391	88.75
467.61	104.75
467.829	135.75
468.049	223.75
468.268	291.75
468.488	124.75
468.707	83.75
468.927	77.75
469.146	89.75
469.365	94.75
469.585	88.75
469.804	104.75
470.023	92.75
470.243	101.75
470.462	106.75
470.681	95.75
470.901	86.75
471.12	103.75
471.339	98.75
471.558	86.75
471.777	105.75
471.997	152.75
472.216	457.75
472.435	833.75
472.654	227.75
472.873	102.75
473.092	104.75
473.311	104.75
473.53	96.75
473.749	102.75
473.968	95.75
474.187	110.75
474.406	96.75
474.625	105.75
474.844	88.75
475.063	87.75
475.282	86.75
475.501	78.75
475.72	70.75
475.939	80.75
476.158	95.75
476.377	88.75
476.596	99.75
476.814	97.75
477.033	102.75
477.252	83.75
477.471	101.75
477.69	102.75
477.908	94.75
478.127	84.75
478.346	91.75
478.564	95.75
478.783	117.75
479.002	94.75
479.22	93.75
479.439	102.75
479.658	113.75
479.876	103.75
480.095	96.75
480.313	98.75
480.532	108.75
480.751	144.75
480.969	392.75
481.188	1443.75
481.406	828.75
481.624	181.75
481.843	112.75
482.061	89.75
482.28	100.75
482.498	101.75
482.717	84.75
482.935	88.75
483.153	88.75
483.372	88.75
483.59	84.75
483.808	82.75
484.027	99.75
484.245	103.75
484.463	97.75
484.681	92.75
484.9	82.75
485.118	102.75
485.336	97.75
485.554	90.75
485.772	108.75
485.99	107.75
486.209	89.75
486.427	104.75
486.645	130.75
486.863	106.75
487.081	92.75
487.299	80.75
487.517	106.75
487.735	88.75
487.953	81.75
488.171	85.75
488.389	117.75
488.607	86.75
488.825	84.75
489.043	95.75
489.261	83.75
489.479	92.75
489.696	90.75
489.914	97.75
490.132	83.75
490.35	100.75
490.568	91.75
490.786	87.75
491.003	81.75
491.221	88.75
491.439	91.75
491.657	88.75
491.874	93.75
492.092	87.75
492.31	92.75
492.527	107.75
492.745	87.75
492.963	92.75
493.18	91.75
493.398	100.75
493.615	103.75
493.833	96.75
494.05	99.75
494.268	86.75
494.485	92.75
494.703	77.75
494.92	73.75
495.138	76.75
495.355	93.75
495.573	89.75
495.79	94.75
496.008	83.75
496.225	84.75
496.442	92.75
496.66	83.75
496.877	91.75
497.094	96.75
497.312	83.75
497.529	104.75
497.746	104.75
497.963	85.75
498.181	89.75
498.398	96.75
498.615	113.75
498.832	104.75
499.049	87.75
499.267	91.75
499.484	95.75
499.701	96.75
499.918	83.75
500.135	99.75
500.352	79.75
500.569	102.75
500.786	86.75
501.003	86.75
501.22	93.75
501.437	92.75
501.654	92.75
501.871	79.75
502.088	85.75
502.305	102.75
502.522	84.75
502.739	96.75
502.956	89.75
503.172	84.75
503.389	85.75
503.606	106.75
503.823	101.75
504.04	112.75
504.256	81.75
504.473	94.75
504.69	88.75
504.907	97.75
505.123	86.75
505.34	81.75
505.557	102.75
505.773	96.75
505.99	90.75
506.207	69.75
506.423	77.75
506.64	91.75
506.856	95.75
507.073	92.75
507.289	98.75
507.506	104.75
507.722	108.75
507.939	105.75
508.155	106.75
508.372	79.75
508.588	98.75
508.805	89.75
509.021	123.75
509.238	95.75
509.454	105.75
509.67	101.75
509.887	101.75
510.103	127.75
510.319	207.75
510.536	696.75
510.752	2294.75
510.968	608.75
511.184	161.75
511.401	113.75
511.617	101.75
511.833	95.75
512.049	98.75
512.265	95.75
512.481	91.75
512.698	91.75
512.914	89.75
513.13	96.75
513.346	95.75
513.562	97.75
513.778	109.75
513.994	80.75
514.21	91.75
514.426	104.75
514.642	131.75
514.858	116.75
515.074	147.75
515.29	417.75
515.506	1379.75
515.721	508.75
515.937	145.75
516.153	112.75
516.369	95.75
516.585	111.75
516.801	98.75
517.016	99.75
517.232	88.75
517.448	99.75
517.664	83.75
517.879	97.75
518.095	95.75
518.311	102.75
518.527	102.75
518.742	94.75
518.958	98.75
519.173	107.75
519.389	91.75
519.605	93.75
519.82	83.75
520.036	86.75
520.251	107.75
520.467	117.75
520.682	91.75
520.898	96.75
521.113	116.75
521.329	132.75
521.544	189.75
521.76	541.75
521.975	2231.75
522.19	1382.75
522.406	287.75
522.621	125.75
522.836	102.75
523.052	95.75
523.267	87.75
523.482	93.75
523.698	105.75
523.913	127.75
524.128	101.75
524.343	86.75
524.559	98.75
524.774	96.75
524.989	99.75
525.204	124.75
525.419	79.75
525.634	85.75
525.849	99.75
526.064	106.75
526.28	101.75
526.495	103.75
526.71	85.75
526.925	86.75
527.14	95.75
527.355	102.75
527.57	92.75
527.785	87.75
527.999	90.75
528.214	92.75
528.429	89.75
528.644	98.75
528.859	101.75
529.074	115.75
529.289	126.75
529.503	178.75
529.718	104.75
529.933	100.75
530.148	96.75
530.363	95.75
530.577	87.75
530.792	85.75
531.007	93.75
531.221	116.75
531.436	79.75
531.651	88.75
531.865	86.75
532.08	86.75
532.295	92.75
532.509	87.75
532.724	101.75
532.938	83.75
533.153	95.75
533.367	98.75
533.582	89.75
533.796	90.75
534.011	106.75
534.225	103.75
534.44	89.75
534.654	108.75
534.868	103.75
535.083	91.75
535.297	87.75
535.511	111.75
535.726	104.75
535.94	87.75
536.154	95.75
536.369	109.75
536.583	86.75
536.797	96.75
537.011	115.75
537.225	97.75
537.44	93.75
537.654	82.75
537.868	91.75
538.082	97.75
538.296	101.75
538.51	104.75
538.724	97.75
538.938	85.75
539.153	76.75
539.367	92.75
539.581	96.75
539.795	96.75
540.009	89.75
540.222	89.75
540.436	85.75
540.65	77.75
540.864	97.75
541.078	102.75
541.292	102.75
541.506	97.75
541.72	93.75
541.934	83.75
542.147	94.75
542.361	77.75
542.575	99.75
542.789	100.75
543.002	86.75
543.216	86.75
543.43	101.75
543.644	107.75
543.857	85.75
544.071	94.75
544.285	87.75
544.498	75.75
544.712	81.75
544.925	76.75
545.139	83.75
545.352	105.75
545.566	87.75
545.779	95.75
545.993	85.75
546.206	88.75
546.42	88.75
546.633	90.75
546.847	94.75
547.06	93.75
547.274	91.75
547.487	96.75
547.7	94.75
547.914	94.75
548.127	86.75
548.34	102.75
548.554	94.75
548.767	99.75
548.98	94.75
549.193	82.75
549.407	91.75
549.62	91.75
549.833	84.75
550.046	80.75
550.259	91.75
550.473	107.75
550.686	89.75
550.899	95.75
551.112	93.75
551.325	95.75
551.538	81.75
551.751	97.75
551.964	76.75
552.177	92.75
552.39	83.75
552.603	97.75
552.816	87.75
553.029	86.75
553.242	98.75
553.455	94.75
553.667	100.75
553.88	99.75
554.093	109.75
554.306	100.75
554.519	107.75
554.732	88.75
554.944	89.75
555.157	96.75
555.37	88.75
555.583	91.75
555.795	104.75
556.008	92.75
556.221	103.75
556.433	80.75
556.646	93.75
556.859	99.75
557.071	78.75
557.284	97.75
557.496	91.75
557.709	96.75
557.921	87.75
558.134	93.75
558.346	79.75
558.559	97.75
558.771	105.75
558.984	72.75
559.196	85.75
559.409	79.75
559.621	77.75
559.833	85.75
560.046	97.75
560.258	86.75
560.47	91.75
560.683	95.75
560.895	97.75
561.107	78.75
561.32	105.75
561.532	92.75
561.744	94.75
561.956	88.75
562.168	97.75
562.381	92.75
562.593	87.75
562.805	97.75
563.017	89.75
563.229	96.75
563.441	89.75
563.653	99.75
563.865	86.75
564.077	83.75
564.289	79.75
564.501	84.75
564.713	104.75
564.925	95.75
565.137	126.75
565.349	100.75
565.561	87.75
565.773	89.75
565.985	88.75
566.197	92.75
566.408	84.75
566.62	80.75
566.832	86.75
567.044	95.75
567.255	81.75
567.467	92.75
567.679	94.75
567.891	92.75
568.102	91.75
568.314	89.75
568.526	96.75
568.737	96.75
568.949	85.75
569.161	94.75
569.372	81.75
569.584	93.75
569.795	103.75
570.007	123.75
570.218	219.75
570.43	128.75
570.641	97.75
570.853	93.75
571.064	91.75
571.276	94.75
571.487	106.75
571.698	99.75
571.91	92.75
572.121	87.75
572.333	92.75
572.544	96.75
572.755	91.75
572.966	99.75
573.178	81.75
573.389	80.75
573.6	82.75
573.811	85.75
574.023	81.75
574.234	84.75
574.445	85.75
574.656	85.75
574.867	97.75
575.078	81.75
575.289	90.75
575.501	86.75
575.712	101.75
575.923	68.75
576.134	93.75
576.345	91.75
576.556	88.75
576.767	84.75
576.978	93.75
577.188	78.75
577.399	95.75
577.61	102.75
577.821	92.75
578.032	104.75
578.243	253.75
578.454	693.75
578.665	204.75
578.875	110.75
579.086	81.75
579.297	91.75
579.508	87.75
579.718	86.75
579.929	93.75
580.14	93.75
580.35	84.75
580.561	87.75
580.772	95.75
580.982	86.75
581.193	88.75
581.403	77.75
581.614	76.75
581.825	92.75
582.035	89.75
582.246	98.75
582.456	81.75
582.667	79.75
582.877	95.75
583.087	86.75
583.298	85.75
583.508	87.75
583.719	88.75
583.929	89.75
584.139	90.75
584.35	91.75
584.56	88.75
584.77	80.75
584.981	96.75
585.191	87.75
585.401	86.75
585.611	84.75
585.821	94.75
586.032	87.75
586.242	91.75
586.452	104.75
586.662	92.75
586.872	91.75
587.082	84.75
587.292	91.75
587.502	79.75
587.713	91.75
587.923	98.75
588.133	84.75
588.343	97.75
588.553	82.75
588.762	81.75
588.972	115.75
589.182	168.75
589.392	122.75
589.602	99.75
589.812	135.75
590.022	101.75
590.232	79.75
590.441	97.75
590.651	85.75
590.861	82.75
591.071	94.75
591.281	94.75
591.49	79.75
591.7	90.75
591.91	97.75
592.119	81.75
592.329	83.75
592.539	79.75
592.748	93.75
592.958	89.75
593.167	79.75
593.377	90.75
593.587	95.75
593.796	79.75
594.006	81.75
594.215	100.75
594.424	89.75
594.634	101.75
594.843	85.75
595.053	91.75
595.262	83.75
595.472	92.75
595.681	85.75
595.89	79.75
596.1	82.75
596.309	77.75
596.518	84.75
596.727	93.75
596.937	89.75
597.146	86.75
597.355	93.75
597.564	89.75
597.774	85.75
597.983	69.75
598.192	68.75
598.401	84.75
598.61	85.75
598.819	90.75
599.028	87.75
599.237	79.75
599.446	88.75
599.655	78.75
599.864	85.75
600.073	102.75
600.282	88.75
600.491	88.75
600.7	93.75
600.909	77.75
601.118	100.75
601.327	94.75
601.536	83.75
601.745	102.75
601.953	98.75
602.162	80.75
602.371	96.75
602.58	82.75
602.789	95.75
602.997	83.75
603.206	85.75
603.415	88.75
603.623	83.75
603.832	86.75
604.041	90.75
604.249	92.75
604.458	80.75
604.666	93.75
604.875	91.75
605.084	89.75
605.292	84.75
605.501	101.75
605.709	75.75
605.918	82.75
606.126	98.75
606.334	85.75
606.543	81.75
606.751	77.75
606.96	102.75
607.168	91.75
607.376	88.75
607.585	72.75
607.793	97.75
608.001	76.75
608.21	86.75
608.418	77.75
608.626	75.75
608.834	94.75
609.043	78.75
609.251	88.75
609.459	87.75
609.667	81.75
609.875	92.75
610.083	95.75
610.291	95.75
610.499	70.75
610.707	77.75
610.916	87.75
611.124	85.75
611.332	83.75
611.54	91.75
611.748	89.75
611.955	88.75
612.163	91.75
612.371	75.75
612.579	86.75
612.787	84.75
612.995	86.75
613.203	96.75
613.411	95.75
613.618	86.75
613.826	76.75
614.034	90.75
614.242	79.75
614.449	84.75
614.657	87.75
614.865	96.75
615.072	89.75
615.28	88.75
615.488	82.75
615.695	80.75
615.903	104.75
616.111	111.75
616.318	84.75
616.526	92.75
616.733	85.75
616.941	101.75
617.148	99.75
617.356	99.75
617.563	85.75
617.771	105.75
617.978	75.75
618.185	92.75
618.393	78.75
618.6	89.75
618.807	101.75
619.015	86.75
619.222	75.75
619.429	83.75
619.637	91.75
619.844	86.75
620.051	100.75
620.258	96.75
620.466	77.75
620.673	90.75
620.88	84.75
621.087	80.75
621.294	96.75
621.501	99.75
621.708	81.75
621.915	84.75
622.122	82.75
622.329	79.75
622.536	109.75
622.743	76.75
622.95	84.75
623.157	75.75
623.364	83.75
623.571	76.75
623.778	98.75
623.985	97.75
624.192	81.75
624.399	87.75
624.606	90.75
624.812	85.75
625.019	89.75
625.226	88.75
625.433	82.75
625.639	85.75
625.846	100.75
626.053	93.75
626.259	66.75
626.466	76.75
626.673	80.75
626.879	78.75
627.086	85.75
627.293	87.75
627.499	91.75
627.706	81.75
627.912	89.75
628.119	93.75
628.325	101.75
628.532	88.75
628.738	87.75
628.945	83.75
629.151	88.75
629.357	82.75
629.564	97.75
629.77	88.75
629.976	77.75
630.183	91.75
630.389	80.75
630.595	92.75
630.802	77.75
631.008	79.75
631.214	82.75
631.42	94.75
631.627	75.75
631.833	84.75
632.039	82.75
632.245	89.75
632.451	96.75
632.657	84.75
632.863	75.75
633.069	80.75
633.275	93.75
633.481	99.75
633.688	84.75
633.893	76.75
634.099	88.75
634.305	85.75
634.511	79.75
634.717	86.75
634.923	73.75
635.129	81.75
635.335	81.75
635.541	95.75
635.747	96.75
635.952	86.75
636.158	101.75
636.364	177.75
636.57	156.75
636.775	95.75
636.981	81.75
637.187	72.75
637.392	88.75
637.598	85.75
637.804	76.75
638.009	88.75
638.215	84.75
638.421	80.75
638.626	81.75
638.832	79.75
639.037	99.75
639.243	80.75
639.448	85.75
639.654	79.75
639.859	99.75
640.065	96.75
640.27	91.75
640.475	81.75
640.681	74.75
640.886	98.75
641.091	88.75
641.297	90.75
641.502	91.75
641.707	83.75
641.913	96.75
642.118	77.75
642.323	80.75
642.528	87.75
642.733	86.75
642.939	80.75
643.144	83.75
643.349	86.75
643.554	94.75
643.759	92.75
643.964	86.75
644.169	93.75
644.374	88.75
644.579	91.75
644.784	79.75
644.989	70.75
645.194	92.75
645.399	79.75
645.604	87.75
645.809	84.75
646.014	81.75
646.219	80.75
646.423	80.75
646.628	91.75
646.833	70.75
647.038	85.75
647.243	79.75
647.447	87.75
647.652	84.75
647.857	77.75
648.062	102.75
648.266	91.75
648.471	84.75
648.676	78.75
648.88	104.75
649.085	100.75
649.289	88.75
649.494	94.75
649.698	143.75
649.903	102.75
650.107	87.75
650.312	99.75
650.516	95.75
650.721	82.75
650.925	83.75
651.13	73.75
651.334	79.75
651.539	89.75
651.743	83.75
651.947	95.75
652.152	87.75
652.356	95.75
652.56	79.75
652.764	90.75
652.969	89.75
653.173	91.75
653.377	71.75
653.581	86.75
653.785	89.75
653.99	85.75
654.194	85.75
654.398	88.75
654.602	74.75
654.806	93.75
655.01	99.75
655.214	87.75
655.418	104.75
655.622	80.75
655.826	90.75
656.03	85.75
656.234	82.75
656.438	96.75
656.642	88.75
656.846	87.75
657.049	81.75
657.253	84.75
657.457	70.75
657.661	95.75
657.865	71.75
658.068	77.75
658.272	68.75
658.476	89.75
658.68	85.75
658.883	84.75
659.087	80.75
659.291	83.75
659.494	86.75
659.698	73.75
659.901	73.75
660.105	72.75
660.309	83.75
660.512	79.75
660.716	89.75
660.919	91.75
661.123	92.75
661.326	86.75
661.53	91.75
661.733	87.75
661.936	88.75
662.14	94.75
662.343	78.75
662.546	96.75
662.75	97.75
662.953	69.75
663.156	75.75
663.36	83.75
663.563	81.75
663.766	81.75
663.969	89.75
664.173	87.75
664.376	80.75
664.579	87.75
664.782	79.75
664.985	82.75
665.188	75.75
665.391	90.75
665.594	87.75
665.797	83.75
666	79.75
666.203	74.75
666.406	85.75
666.609	91.75
666.812	79.75
667.015	71.75
667.218	77.75
667.421	63.75
667.624	75.75
667.827	78.75
668.03	77.75
668.232	87.75
668.435	92.75
668.638	76.75
668.841	85.75
669.043	74.75
669.246	83.75
669.449	95.75
669.651	89.75
669.854	91.75
670.057	91.75
670.259	72.75
670.462	84.75
670.665	81.75
670.867	68.75
671.07	81.75
671.272	99.75
671.475	73.75
671.677	95.75
671.88	66.75
672.082	82.75
672.284	88.75
672.487	86.75
672.689	88.75
672.892	76.75
