Data from Circ_1991_H10_HRD10591_00040.txt Node
Date: Wed Jan 03 11:51:49 EST 2024
User: Yrep
Spectrometer: HR+D1059
Trigger mode: 1
Integration Time (sec): 1.000000E-1
Scans to average: 1
Electric dark correction enabled: true
Nonlinearity correction enabled: false
Boxcar width: 0
XAxis mode: Wavelengths
Number of Pixels in Spectrum: 2048
>>>>>Begin Spectral Data<<<<<
223.165	-8.38
223.4	-8.38
223.635	-8.38
223.869	-30.38
224.104	-14.38
224.338	-31.38
224.573	-8.38
224.808	-9.38
225.042	-0.38
225.277	-14.38
225.511	-9.38
225.746	1.62
225.98	1.62
226.215	11.62
226.449	25.62
226.683	23.62
226.918	18.62
227.152	43.62
227.387	29.62
227.621	31.62
227.856	43.62
228.09	50.62
228.324	50.62
228.559	46.62
228.793	50.62
229.027	53.62
229.262	66.62
229.496	67.62
229.73	85.62
229.964	85.62
230.199	87.62
230.433	74.62
230.667	86.62
230.901	69.62
231.136	75.62
231.37	83.62
231.604	85.62
231.838	88.62
232.072	81.62
232.306	83.62
232.541	74.62
232.775	81.62
233.009	97.62
233.243	79.62
233.477	77.62
233.711	82.62
233.945	84.62
234.179	91.62
234.413	82.62
234.647	80.62
234.881	87.62
235.115	80.62
235.349	81.62
235.583	85.62
235.817	84.62
236.051	82.62
236.285	73.62
236.519	86.62
236.753	75.62
236.987	81.62
237.221	103.62
237.455	79.62
237.689	84.62
237.922	66.62
238.156	69.62
238.39	73.62
238.624	80.62
238.858	81.62
239.091	67.62
239.325	83.62
239.559	77.62
239.793	65.62
240.027	85.62
240.26	73.62
240.494	83.62
240.728	76.62
240.961	67.62
241.195	83.62
241.429	86.62
241.662	83.62
241.896	70.62
242.13	77.62
242.363	93.62
242.597	89.62
242.83	85.62
243.064	89.62
243.298	92.62
243.531	90.62
243.765	84.62
243.998	88.62
244.232	90.62
244.465	87.62
244.699	83.62
244.932	76.62
245.166	74.62
245.399	75.62
245.633	92.62
245.866	74.62
246.099	81.62
246.333	85.62
246.566	73.62
246.8	72.62
247.033	88.62
247.266	79.62
247.5	85.62
247.733	83.62
247.966	92.62
248.2	89.62
248.433	95.62
248.666	74.62
248.899	74.62
249.133	75.62
249.366	93.62
249.599	100.62
249.832	80.62
250.066	81.62
250.299	65.62
250.532	97.62
250.765	78.62
250.998	71.62
251.231	78.62
251.465	88.62
251.698	75.62
251.931	69.62
252.164	73.62
252.397	89.62
252.63	84.62
252.863	70.62
253.096	82.62
253.329	85.62
253.562	75.62
253.795	111.62
254.028	100.62
254.261	90.62
254.494	80.62
254.727	93.62
254.96	69.62
255.193	80.62
255.426	77.62
255.659	86.62
255.892	84.62
256.124	88.62
256.357	88.62
256.59	75.62
256.823	85.62
257.056	94.62
257.289	90.62
257.521	91.62
257.754	99.62
257.987	80.62
258.22	98.62
258.452	93.62
258.685	86.62
258.918	67.62
259.151	79.62
259.383	88.62
259.616	78.62
259.849	87.62
260.081	67.62
260.314	83.62
260.547	79.62
260.779	90.62
261.012	75.62
261.244	107.62
261.477	100.62
261.71	73.62
261.942	103.62
262.175	120.62
262.407	91.62
262.64	82.62
262.872	93.62
263.105	81.62
263.337	77.62
263.57	79.62
263.802	85.62
264.035	88.62
264.267	96.62
264.499	84.62
264.732	83.62
264.964	85.62
265.197	85.62
265.429	104.62
265.661	77.62
265.894	92.62
266.126	87.62
266.358	89.62
266.591	83.62
266.823	81.62
267.055	90.62
267.287	61.62
267.52	64.62
267.752	81.62
267.984	83.62
268.216	84.62
268.448	76.62
268.681	77.62
268.913	83.62
269.145	70.62
269.377	95.62
269.609	75.62
269.841	87.62
270.073	96.62
270.306	92.62
270.538	79.62
270.77	88.62
271.002	79.62
271.234	91.62
271.466	91.62
271.698	73.62
271.93	60.62
272.162	78.62
272.394	92.62
272.626	78.62
272.858	83.62
273.09	85.62
273.322	79.62
273.553	74.62
273.785	89.62
274.017	96.62
274.249	73.62
274.481	79.62
274.713	89.62
274.945	92.62
275.176	94.62
275.408	92.62
275.64	99.62
275.872	94.62
276.104	87.62
276.335	98.62
276.567	103.62
276.799	100.62
277.031	115.62
277.262	102.62
277.494	96.62
277.726	87.62
277.957	81.62
278.189	81.62
278.421	68.62
278.652	71.62
278.884	79.62
279.115	85.62
279.347	99.62
279.579	96.62
279.81	92.62
280.042	94.62
280.273	130.62
280.505	118.62
280.736	86.62
280.968	82.62
281.199	90.62
281.431	73.62
281.662	83.62
281.894	85.62
282.125	97.62
282.356	107.62
282.588	122.62
282.819	102.62
283.051	81.62
283.282	80.62
283.513	101.62
283.745	93.62
283.976	82.62
284.207	76.62
284.439	80.62
284.67	89.62
284.901	90.62
285.132	88.62
285.364	78.62
285.595	94.62
285.826	103.62
286.057	92.62
286.288	88.62
286.52	86.62
286.751	87.62
286.982	89.62
287.213	96.62
287.444	82.62
287.675	93.62
287.906	81.62
288.138	88.62
288.369	92.62
288.6	82.62
288.831	103.62
289.062	86.62
289.293	87.62
289.524	94.62
289.755	91.62
289.986	105.62
290.217	89.62
290.448	92.62
290.679	85.62
290.91	90.62
291.141	80.62
291.371	87.62
291.602	84.62
291.833	101.62
292.064	74.62
292.295	77.62
292.526	91.62
292.757	98.62
292.987	90.62
293.218	98.62
293.449	73.62
293.68	95.62
293.91	77.62
294.141	86.62
294.372	99.62
294.603	85.62
294.833	89.62
295.064	82.62
295.295	65.62
295.525	89.62
295.756	102.62
295.987	100.62
296.217	133.62
296.448	105.62
296.679	93.62
296.909	91.62
297.14	85.62
297.37	101.62
297.601	92.62
297.831	78.62
298.062	89.62
298.292	89.62
298.523	89.62
298.753	101.62
298.984	87.62
299.214	88.62
299.445	85.62
299.675	79.62
299.905	98.62
300.136	93.62
300.366	101.62
300.597	93.62
300.827	90.62
301.057	82.62
301.288	96.62
301.518	99.62
301.748	90.62
301.979	121.62
302.209	91.62
302.439	89.62
302.669	89.62
302.9	90.62
303.13	92.62
303.36	82.62
303.59	93.62
303.82	103.62
304.051	91.62
304.281	91.62
304.511	103.62
304.741	103.62
304.971	92.62
305.201	92.62
305.431	88.62
305.661	79.62
305.891	70.62
306.121	83.62
306.352	97.62
306.582	92.62
306.812	87.62
307.042	102.62
307.272	114.62
307.502	122.62
307.731	122.62
307.961	106.62
308.191	100.62
308.421	99.62
308.651	91.62
308.881	90.62
309.111	90.62
309.341	94.62
309.571	102.62
309.8	96.62
310.03	100.62
310.26	76.62
310.49	85.62
310.72	90.62
310.949	96.62
311.179	103.62
311.409	90.62
311.639	97.62
311.868	93.62
312.098	83.62
312.328	90.62
312.557	102.62
312.787	98.62
313.017	112.62
313.246	97.62
313.476	84.62
313.706	99.62
313.935	100.62
314.165	107.62
314.394	92.62
314.624	89.62
314.853	99.62
315.083	94.62
315.312	81.62
315.542	86.62
315.771	92.62
316.001	85.62
316.23	93.62
316.46	85.62
316.689	84.62
316.919	98.62
317.148	86.62
317.377	102.62
317.607	94.62
317.836	91.62
318.065	85.62
318.295	89.62
318.524	88.62
318.753	85.62
318.983	90.62
319.212	107.62
319.441	107.62
319.67	100.62
319.9	121.62
320.129	89.62
320.358	100.62
320.587	89.62
320.816	90.62
321.046	124.62
321.275	94.62
321.504	98.62
321.733	103.62
321.962	95.62
322.191	84.62
322.42	115.62
322.649	114.62
322.878	105.62
323.108	127.62
323.337	139.62
323.566	140.62
323.795	154.62
324.024	213.62
324.253	371.62
324.482	854.62
324.71	1809.62
324.939	2413.62
325.168	881.62
325.397	267.62
325.626	175.62
325.855	140.62
326.084	133.62
326.313	159.62
326.542	155.62
326.77	230.62
326.999	447.62
327.228	977.62
327.457	1832.62
327.686	1505.62
327.914	429.62
328.143	273.62
328.372	290.62
328.6	177.62
328.829	127.62
329.058	127.62
329.287	137.62
329.515	119.62
329.744	145.62
329.972	221.62
330.201	336.62
330.43	493.62
330.658	259.62
330.887	165.62
331.115	130.62
331.344	109.62
331.572	101.62
331.801	104.62
332.03	103.62
332.258	111.62
332.486	107.62
332.715	95.62
332.943	99.62
333.172	109.62
333.4	103.62
333.629	102.62
333.857	142.62
334.085	182.62
334.314	326.62
334.542	577.62
334.771	558.62
334.999	193.62
335.227	117.62
335.455	100.62
335.684	102.62
335.912	94.62
336.14	101.62
336.369	98.62
336.597	119.62
336.825	95.62
337.053	93.62
337.281	109.62
337.51	93.62
337.738	95.62
337.966	76.62
338.194	97.62
338.422	102.62
338.65	92.62
338.878	79.62
339.106	97.62
339.334	91.62
339.562	92.62
339.79	91.62
340.018	90.62
340.246	85.62
340.474	93.62
340.702	86.62
340.93	102.62
341.158	102.62
341.386	93.62
341.614	93.62
341.842	93.62
342.07	94.62
342.298	84.62
342.526	88.62
342.754	76.62
342.981	87.62
343.209	107.62
343.437	91.62
343.665	109.62
343.893	85.62
344.12	85.62
344.348	90.62
344.576	77.62
344.804	86.62
345.031	98.62
345.259	102.62
345.487	89.62
345.714	95.62
345.942	105.62
346.17	98.62
346.397	75.62
346.625	94.62
346.853	99.62
347.08	75.62
347.308	75.62
347.535	100.62
347.763	96.62
347.99	102.62
348.218	96.62
348.445	99.62
348.673	104.62
348.9	104.62
349.128	83.62
349.355	92.62
349.583	74.62
349.81	86.62
350.037	89.62
350.265	97.62
350.492	91.62
350.72	99.62
350.947	102.62
351.174	117.62
351.402	115.62
351.629	106.62
351.856	97.62
352.083	98.62
352.311	106.62
352.538	99.62
352.765	112.62
352.992	104.62
353.22	105.62
353.447	106.62
353.674	86.62
353.901	100.62
354.128	88.62
354.355	98.62
354.583	100.62
354.81	92.62
355.037	102.62
355.264	83.62
355.491	80.62
355.718	89.62
355.945	99.62
356.172	103.62
356.399	98.62
356.626	94.62
356.853	108.62
357.08	80.62
357.307	100.62
357.534	87.62
357.761	94.62
357.988	80.62
358.215	91.62
358.441	87.62
358.668	92.62
358.895	86.62
359.122	97.62
359.349	93.62
359.576	86.62
359.802	92.62
360.029	103.62
360.256	110.62
360.483	100.62
360.709	79.62
360.936	95.62
361.163	105.62
361.39	101.62
361.616	112.62
361.843	91.62
362.07	91.62
362.296	86.62
362.523	93.62
362.749	74.62
362.976	94.62
363.203	81.62
363.429	74.62
363.656	85.62
363.882	83.62
364.109	83.62
364.335	99.62
364.562	101.62
364.788	80.62
365.015	86.62
365.241	98.62
365.468	99.62
365.694	106.62
365.92	95.62
366.147	93.62
366.373	95.62
366.599	84.62
366.826	90.62
367.052	79.62
367.278	73.62
367.505	90.62
367.731	102.62
367.957	93.62
368.184	81.62
368.41	102.62
368.636	115.62
368.862	128.62
369.089	101.62
369.315	113.62
369.541	79.62
369.767	78.62
369.993	87.62
370.219	84.62
370.445	96.62
370.672	103.62
370.898	89.62
371.124	100.62
371.35	84.62
371.576	97.62
371.802	92.62
372.028	93.62
372.254	84.62
372.48	81.62
372.706	103.62
372.932	81.62
373.158	97.62
373.384	89.62
373.61	100.62
373.835	81.62
374.061	87.62
374.287	87.62
374.513	92.62
374.739	85.62
374.965	85.62
375.191	95.62
375.416	79.62
375.642	93.62
375.868	86.62
376.094	83.62
376.319	90.62
376.545	80.62
376.771	79.62
376.997	94.62
377.222	85.62
377.448	100.62
377.674	87.62
377.899	77.62
378.125	92.62
378.35	105.62
378.576	101.62
378.802	97.62
379.027	92.62
379.253	85.62
379.478	93.62
379.704	85.62
379.929	85.62
380.155	96.62
380.38	87.62
380.606	97.62
380.831	91.62
381.057	92.62
381.282	85.62
381.507	91.62
381.733	100.62
381.958	87.62
382.184	92.62
382.409	107.62
382.634	96.62
382.86	96.62
383.085	102.62
383.31	97.62
383.535	117.62
383.761	95.62
383.986	94.62
384.211	102.62
384.436	105.62
384.662	103.62
384.887	111.62
385.112	91.62
385.337	98.62
385.562	94.62
385.787	98.62
386.013	110.62
386.238	111.62
386.463	100.62
386.688	111.62
386.913	94.62
387.138	119.62
387.363	100.62
387.588	102.62
387.813	94.62
388.038	102.62
388.263	107.62
388.488	107.62
388.713	89.62
388.938	93.62
389.163	102.62
389.387	91.62
389.612	75.62
389.837	92.62
390.062	108.62
390.287	93.62
390.512	99.62
390.736	93.62
390.961	94.62
391.186	79.62
391.411	83.62
391.636	95.62
391.86	89.62
392.085	94.62
392.31	73.62
392.534	81.62
392.759	81.62
392.984	80.62
393.208	103.62
393.433	123.62
393.658	93.62
393.882	82.62
394.107	89.62
394.331	89.62
394.556	81.62
394.78	97.62
395.005	88.62
395.229	85.62
395.454	71.62
395.678	95.62
395.903	78.62
396.127	96.62
396.352	79.62
396.576	89.62
396.801	94.62
397.025	116.62
397.249	89.62
397.474	92.62
397.698	83.62
397.922	93.62
398.147	76.62
398.371	82.62
398.595	89.62
398.82	93.62
399.044	99.62
399.268	95.62
399.492	90.62
399.717	82.62
399.941	81.62
400.165	101.62
400.389	87.62
400.613	92.62
400.837	78.62
401.062	80.62
401.286	77.62
401.51	96.62
401.734	86.62
401.958	110.62
402.182	119.62
402.406	164.62
402.63	119.62
402.854	69.62
403.078	71.62
403.302	85.62
403.526	100.62
403.75	92.62
403.974	88.62
404.198	101.62
404.422	95.62
404.645	97.62
404.869	94.62
405.093	93.62
405.317	111.62
405.541	106.62
405.765	98.62
405.988	118.62
406.212	165.62
406.436	236.62
406.66	152.62
406.883	98.62
407.107	81.62
407.331	95.62
407.555	106.62
407.778	95.62
408.002	94.62
408.226	90.62
408.449	83.62
408.673	95.62
408.896	98.62
409.12	80.62
409.344	96.62
409.567	89.62
409.791	96.62
410.014	87.62
410.238	97.62
410.461	94.62
410.685	86.62
410.908	78.62
411.132	97.62
411.355	79.62
411.578	95.62
411.802	86.62
412.025	89.62
412.249	95.62
412.472	106.62
412.695	103.62
412.919	86.62
413.142	91.62
413.365	91.62
413.589	86.62
413.812	93.62
414.035	89.62
414.258	94.62
414.482	102.62
414.705	85.62
414.928	92.62
415.151	90.62
415.374	84.62
415.597	89.62
415.821	76.62
416.044	89.62
416.267	89.62
416.49	93.62
416.713	84.62
416.936	105.62
417.159	94.62
417.382	80.62
417.605	87.62
417.828	91.62
418.051	89.62
418.274	92.62
418.497	84.62
418.72	78.62
418.943	80.62
419.166	84.62
419.389	75.62
419.611	89.62
419.834	96.62
420.057	88.62
420.28	79.62
420.503	83.62
420.726	91.62
420.948	97.62
421.171	99.62
421.394	90.62
421.617	89.62
421.839	82.62
422.062	95.62
422.285	99.62
422.507	97.62
422.73	96.62
422.953	97.62
423.175	94.62
423.398	82.62
423.621	105.62
423.843	83.62
424.066	85.62
424.288	108.62
424.511	88.62
424.733	106.62
424.956	103.62
425.178	103.62
425.401	93.62
425.623	94.62
425.846	78.62
426.068	97.62
426.291	89.62
426.513	121.62
426.735	96.62
426.958	108.62
427.18	112.62
427.402	145.62
427.625	192.62
427.847	166.62
428.069	148.62
428.292	94.62
428.514	95.62
428.736	94.62
428.958	75.62
429.181	80.62
429.403	92.62
429.625	89.62
429.847	93.62
430.069	100.62
430.292	94.62
430.514	94.62
430.736	100.62
430.958	99.62
431.18	88.62
431.402	95.62
431.624	78.62
431.846	69.62
432.068	78.62
432.29	92.62
432.512	87.62
432.734	73.62
432.956	91.62
433.178	110.62
433.4	108.62
433.622	104.62
433.844	93.62
434.066	82.62
434.287	91.62
434.509	83.62
434.731	82.62
434.953	100.62
435.175	82.62
435.397	97.62
435.618	111.62
435.84	110.62
436.062	131.62
436.284	117.62
436.505	96.62
436.727	99.62
436.949	91.62
437.17	82.62
437.392	83.62
437.614	95.62
437.835	110.62
438.057	118.62
438.278	119.62
438.5	108.62
438.721	125.62
438.943	90.62
439.165	79.62
439.386	91.62
439.608	98.62
439.829	103.62
440.05	110.62
440.272	144.62
440.493	93.62
440.715	79.62
440.936	75.62
441.158	91.62
441.379	91.62
441.6	90.62
441.822	100.62
442.043	98.62
442.264	92.62
442.486	97.62
442.707	84.62
442.928	107.62
443.149	143.62
443.371	140.62
443.592	116.62
443.813	104.62
444.034	125.62
444.255	97.62
444.476	92.62
444.698	87.62
444.919	95.62
445.14	132.62
445.361	118.62
445.582	127.62
445.803	143.62
446.024	130.62
446.245	137.62
446.466	105.62
446.687	93.62
446.908	85.62
447.129	82.62
447.35	94.62
447.571	94.62
447.792	105.62
448.013	95.62
448.234	127.62
448.455	102.62
448.675	108.62
448.896	118.62
449.117	106.62
449.338	125.62
449.559	139.62
449.779	145.62
450	81.62
450.221	88.62
450.442	83.62
450.662	101.62
450.883	108.62
451.104	107.62
451.324	109.62
451.545	100.62
451.766	78.62
451.986	102.62
452.207	94.62
452.428	73.62
452.648	97.62
452.869	97.62
453.089	94.62
453.31	124.62
453.53	103.62
453.751	98.62
453.971	111.62
454.192	99.62
454.412	99.62
454.633	101.62
454.853	107.62
455.073	85.62
455.294	94.62
455.514	91.62
455.734	94.62
455.955	86.62
456.175	87.62
456.395	93.62
456.616	91.62
456.836	82.62
457.056	68.62
457.276	69.62
457.497	83.62
457.717	91.62
457.937	77.62
458.157	82.62
458.377	88.62
458.598	96.62
458.818	157.62
459.038	163.62
459.258	129.62
459.478	100.62
459.698	82.62
459.918	69.62
460.138	75.62
460.358	85.62
460.578	85.62
460.798	85.62
461.018	84.62
461.238	75.62
461.458	97.62
461.678	88.62
461.898	83.62
462.118	76.62
462.338	86.62
462.558	92.62
462.777	73.62
462.997	86.62
463.217	89.62
463.437	80.62
463.657	89.62
463.876	78.62
464.096	90.62
464.316	104.62
464.536	83.62
464.755	102.62
464.975	110.62
465.195	167.62
465.414	153.62
465.634	98.62
465.854	107.62
466.073	85.62
466.293	77.62
466.512	80.62
466.732	90.62
466.951	90.62
467.171	110.62
467.391	103.62
467.61	111.62
467.829	117.62
468.049	230.62
468.268	309.62
468.488	130.62
468.707	99.62
468.927	85.62
469.146	84.62
469.365	83.62
469.585	103.62
469.804	95.62
470.023	100.62
470.243	97.62
470.462	96.62
470.681	101.62
470.901	92.62
471.12	92.62
471.339	86.62
471.558	103.62
471.777	108.62
471.997	160.62
472.216	399.62
472.435	843.62
472.654	246.62
472.873	113.62
473.092	83.62
473.311	82.62
473.53	81.62
473.749	101.62
473.968	93.62
474.187	106.62
474.406	98.62
474.625	81.62
474.844	91.62
475.063	92.62
475.282	91.62
475.501	86.62
475.72	95.62
475.939	85.62
476.158	93.62
476.377	91.62
476.596	97.62
476.814	83.62
477.033	86.62
477.252	94.62
477.471	102.62
477.69	102.62
477.908	98.62
478.127	77.62
478.346	84.62
478.564	91.62
478.783	91.62
479.002	109.62
479.22	93.62
479.439	110.62
479.658	117.62
479.876	105.62
480.095	80.62
480.313	113.62
480.532	103.62
480.751	137.62
480.969	400.62
481.188	1467.62
481.406	857.62
481.624	178.62
481.843	117.62
482.061	100.62
482.28	86.62
482.498	98.62
482.717	100.62
482.935	88.62
483.153	84.62
483.372	75.62
483.59	91.62
483.808	98.62
484.027	89.62
484.245	103.62
484.463	90.62
484.681	98.62
484.9	97.62
485.118	105.62
485.336	86.62
485.554	101.62
485.772	111.62
485.99	107.62
486.209	117.62
486.427	101.62
486.645	111.62
486.863	113.62
487.081	93.62
487.299	90.62
487.517	88.62
487.735	86.62
487.953	97.62
488.171	94.62
488.389	93.62
488.607	88.62
488.825	85.62
489.043	85.62
489.261	91.62
489.479	100.62
489.696	98.62
489.914	83.62
490.132	87.62
490.35	108.62
490.568	85.62
490.786	83.62
491.003	79.62
491.221	83.62
491.439	97.62
491.657	105.62
491.874	68.62
492.092	76.62
492.31	89.62
492.527	84.62
492.745	91.62
492.963	92.62
493.18	95.62
493.398	93.62
493.615	102.62
493.833	104.62
494.05	92.62
494.268	83.62
494.485	95.62
494.703	93.62
494.92	86.62
495.138	78.62
495.355	102.62
495.573	84.62
495.79	90.62
496.008	82.62
496.225	96.62
496.442	83.62
496.66	89.62
496.877	97.62
497.094	89.62
497.312	96.62
497.529	98.62
497.746	91.62
497.963	76.62
498.181	102.62
498.398	86.62
498.615	104.62
498.832	106.62
499.049	85.62
499.267	100.62
499.484	97.62
499.701	93.62
499.918	82.62
500.135	92.62
500.352	91.62
500.569	98.62
500.786	102.62
501.003	91.62
501.22	95.62
501.437	105.62
501.654	96.62
501.871	112.62
502.088	87.62
502.305	87.62
502.522	90.62
502.739	93.62
502.956	79.62
503.172	89.62
503.389	109.62
503.606	104.62
503.823	83.62
504.04	85.62
504.256	93.62
504.473	81.62
504.69	92.62
504.907	93.62
505.123	84.62
505.34	94.62
505.557	99.62
505.773	93.62
505.99	89.62
506.207	102.62
506.423	85.62
506.64	84.62
506.856	94.62
507.073	94.62
507.289	105.62
507.506	94.62
507.722	109.62
507.939	111.62
508.155	103.62
508.372	95.62
508.588	81.62
508.805	103.62
509.021	104.62
509.238	103.62
509.454	100.62
509.67	89.62
509.887	101.62
510.103	122.62
510.319	223.62
510.536	716.62
510.752	2358.62
510.968	635.62
511.184	158.62
511.401	96.62
511.617	94.62
511.833	95.62
512.049	95.62
512.265	101.62
512.481	82.62
512.698	91.62
512.914	80.62
513.13	91.62
513.346	79.62
513.562	93.62
513.778	87.62
513.994	96.62
514.21	107.62
514.426	131.62
514.642	133.62
514.858	105.62
515.074	163.62
515.29	431.62
515.506	1445.62
515.721	553.62
515.937	172.62
516.153	105.62
516.369	89.62
516.585	99.62
516.801	92.62
517.016	93.62
517.232	96.62
517.448	82.62
517.664	97.62
517.879	95.62
518.095	103.62
518.311	99.62
518.527	103.62
518.742	105.62
518.958	90.62
519.173	102.62
519.389	100.62
519.605	92.62
519.82	98.62
520.036	113.62
520.251	103.62
520.467	100.62
520.682	107.62
520.898	94.62
521.113	108.62
521.329	133.62
521.544	204.62
521.76	549.62
521.975	2471.62
522.19	1445.62
522.406	311.62
522.621	121.62
522.836	99.62
523.052	94.62
523.267	90.62
523.482	98.62
523.698	93.62
523.913	130.62
524.128	101.62
524.343	102.62
524.559	79.62
524.774	94.62
524.989	96.62
525.204	112.62
525.419	102.62
525.634	96.62
525.849	90.62
526.064	105.62
526.28	90.62
526.495	87.62
526.71	86.62
526.925	101.62
527.14	91.62
527.355	83.62
527.57	82.62
527.785	94.62
527.999	75.62
528.214	95.62
528.429	87.62
528.644	75.62
528.859	99.62
529.074	84.62
529.289	123.62
529.503	179.62
529.718	102.62
529.933	77.62
530.148	96.62
530.363	99.62
530.577	83.62
530.792	96.62
531.007	94.62
531.221	92.62
531.436	89.62
531.651	89.62
531.865	83.62
532.08	93.62
532.295	84.62
532.509	69.62
532.724	81.62
532.938	102.62
533.153	101.62
533.367	85.62
533.582	86.62
533.796	87.62
534.011	91.62
534.225	95.62
534.44	82.62
534.654	93.62
534.868	83.62
535.083	83.62
535.297	80.62
535.511	99.62
535.726	107.62
535.94	101.62
536.154	101.62
536.369	93.62
536.583	92.62
536.797	94.62
537.011	102.62
537.225	88.62
537.44	98.62
537.654	83.62
537.868	81.62
538.082	78.62
538.296	89.62
538.51	81.62
538.724	95.62
538.938	77.62
539.153	105.62
539.367	107.62
539.581	87.62
539.795	86.62
540.009	89.62
540.222	88.62
540.436	76.62
540.65	70.62
540.864	94.62
541.078	106.62
541.292	103.62
541.506	107.62
541.72	99.62
541.934	88.62
542.147	84.62
542.361	97.62
542.575	99.62
542.789	100.62
543.002	85.62
543.216	98.62
543.43	102.62
543.644	85.62
543.857	96.62
544.071	91.62
544.285	91.62
544.498	79.62
544.712	93.62
544.925	82.62
545.139	85.62
545.352	85.62
545.566	81.62
545.779	87.62
545.993	85.62
546.206	98.62
546.42	77.62
546.633	67.62
546.847	91.62
547.06	87.62
547.274	68.62
547.487	75.62
547.7	85.62
547.914	89.62
548.127	101.62
548.34	90.62
548.554	78.62
548.767	97.62
548.98	89.62
549.193	77.62
549.407	87.62
549.62	77.62
549.833	84.62
550.046	86.62
550.259	85.62
550.473	90.62
550.686	79.62
550.899	91.62
551.112	92.62
551.325	102.62
551.538	86.62
551.751	95.62
551.964	83.62
552.177	77.62
552.39	92.62
552.603	104.62
552.816	90.62
553.029	97.62
553.242	90.62
553.455	77.62
553.667	92.62
553.88	97.62
554.093	96.62
554.306	102.62
554.519	105.62
554.732	94.62
554.944	95.62
555.157	97.62
555.37	93.62
555.583	81.62
555.795	85.62
556.008	92.62
556.221	84.62
556.433	96.62
556.646	91.62
556.859	102.62
557.071	106.62
557.284	104.62
557.496	108.62
557.709	102.62
557.921	102.62
558.134	103.62
558.346	83.62
558.559	95.62
558.771	99.62
558.984	97.62
559.196	96.62
559.409	86.62
559.621	91.62
559.833	70.62
560.046	88.62
560.258	107.62
560.47	88.62
560.683	95.62
560.895	92.62
561.107	97.62
561.32	87.62
561.532	93.62
561.744	102.62
561.956	83.62
562.168	85.62
562.381	90.62
562.593	77.62
562.805	85.62
563.017	98.62
563.229	85.62
563.441	100.62
563.653	85.62
563.865	86.62
564.077	91.62
564.289	100.62
564.501	77.62
564.713	74.62
564.925	98.62
565.137	101.62
565.349	82.62
565.561	85.62
565.773	86.62
565.985	75.62
566.197	72.62
566.408	98.62
566.62	87.62
566.832	94.62
567.044	79.62
567.255	90.62
567.467	74.62
567.679	84.62
567.891	82.62
568.102	95.62
568.314	99.62
568.526	82.62
568.737	85.62
568.949	80.62
569.161	96.62
569.372	89.62
569.584	81.62
569.795	107.62
570.007	110.62
570.218	239.62
570.43	139.62
570.641	91.62
570.853	86.62
571.064	89.62
571.276	90.62
571.487	74.62
571.698	86.62
571.91	94.62
572.121	82.62
572.333	83.62
572.544	93.62
572.755	87.62
572.966	93.62
573.178	80.62
573.389	95.62
573.6	87.62
573.811	93.62
574.023	87.62
574.234	84.62
574.445	82.62
574.656	90.62
574.867	104.62
575.078	95.62
575.289	74.62
575.501	87.62
575.712	83.62
575.923	101.62
576.134	90.62
576.345	82.62
576.556	107.62
576.767	90.62
576.978	100.62
577.188	88.62
577.399	83.62
577.61	91.62
577.821	100.62
578.032	121.62
578.243	268.62
578.454	702.62
578.665	209.62
578.875	114.62
579.086	86.62
579.297	101.62
579.508	82.62
579.718	102.62
579.929	96.62
580.14	77.62
580.35	98.62
580.561	78.62
580.772	82.62
580.982	75.62
581.193	87.62
581.403	75.62
581.614	87.62
581.825	76.62
582.035	92.62
582.246	96.62
582.456	92.62
582.667	88.62
582.877	87.62
583.087	85.62
583.298	86.62
583.508	85.62
583.719	73.62
583.929	98.62
584.139	94.62
584.35	91.62
584.56	90.62
584.77	78.62
584.981	85.62
585.191	99.62
585.401	94.62
585.611	90.62
585.821	99.62
586.032	88.62
586.242	80.62
586.452	104.62
586.662	103.62
586.872	88.62
587.082	82.62
587.292	83.62
587.502	96.62
587.713	81.62
587.923	63.62
588.133	91.62
588.343	84.62
588.553	96.62
588.762	91.62
588.972	108.62
589.182	204.62
589.392	126.62
589.602	100.62
589.812	151.62
590.022	94.62
590.232	91.62
590.441	86.62
590.651	93.62
590.861	69.62
591.071	93.62
591.281	94.62
591.49	89.62
591.7	86.62
591.91	80.62
592.119	74.62
592.329	92.62
592.539	88.62
592.748	93.62
592.958	85.62
593.167	75.62
593.377	92.62
593.587	99.62
593.796	83.62
594.006	97.62
594.215	97.62
594.424	86.62
594.634	82.62
594.843	81.62
595.053	92.62
595.262	91.62
595.472	85.62
595.681	77.62
595.89	100.62
596.1	84.62
596.309	92.62
596.518	88.62
596.727	106.62
596.937	79.62
597.146	90.62
597.355	78.62
597.564	91.62
597.774	82.62
597.983	88.62
598.192	83.62
598.401	71.62
598.61	75.62
598.819	77.62
599.028	106.62
599.237	86.62
599.446	63.62
599.655	83.62
599.864	94.62
600.073	85.62
600.282	82.62
600.491	90.62
600.7	80.62
600.909	81.62
601.118	94.62
601.327	84.62
601.536	92.62
601.745	90.62
601.953	83.62
602.162	89.62
602.371	86.62
602.58	79.62
602.789	91.62
602.997	72.62
603.206	79.62
603.415	85.62
603.623	75.62
603.832	89.62
604.041	95.62
604.249	77.62
604.458	89.62
604.666	81.62
604.875	100.62
605.084	73.62
605.292	89.62
605.501	95.62
605.709	76.62
605.918	96.62
606.126	101.62
606.334	86.62
606.543	86.62
606.751	100.62
606.96	94.62
607.168	91.62
607.376	97.62
607.585	87.62
607.793	77.62
608.001	81.62
608.21	76.62
608.418	89.62
608.626	81.62
608.834	74.62
609.043	95.62
609.251	99.62
609.459	84.62
609.667	86.62
609.875	90.62
610.083	101.62
610.291	91.62
610.499	89.62
610.707	83.62
610.916	90.62
611.124	99.62
611.332	95.62
611.54	95.62
611.748	82.62
611.955	73.62
612.163	86.62
612.371	83.62
612.579	80.62
612.787	90.62
612.995	77.62
613.203	84.62
613.411	79.62
613.618	86.62
613.826	86.62
614.034	82.62
614.242	84.62
614.449	84.62
614.657	85.62
614.865	90.62
615.072	69.62
615.28	81.62
615.488	91.62
615.695	82.62
615.903	70.62
616.111	84.62
616.318	95.62
616.526	81.62
616.733	82.62
616.941	93.62
617.148	87.62
617.356	97.62
617.563	95.62
617.771	77.62
617.978	78.62
618.185	98.62
618.393	97.62
618.6	93.62
618.807	84.62
619.015	93.62
619.222	92.62
619.429	80.62
619.637	93.62
619.844	78.62
620.051	80.62
620.258	81.62
620.466	81.62
620.673	72.62
620.88	100.62
621.087	88.62
621.294	85.62
621.501	69.62
621.708	105.62
621.915	87.62
622.122	76.62
622.329	90.62
622.536	85.62
622.743	79.62
622.95	82.62
623.157	89.62
623.364	96.62
623.571	86.62
623.778	74.62
623.985	81.62
624.192	91.62
624.399	82.62
624.606	90.62
624.812	89.62
625.019	84.62
625.226	89.62
625.433	83.62
625.639	94.62
625.846	68.62
626.053	68.62
626.259	75.62
626.466	98.62
626.673	90.62
626.879	83.62
627.086	87.62
627.293	99.62
627.499	82.62
627.706	78.62
627.912	62.62
628.119	89.62
628.325	92.62
628.532	81.62
628.738	85.62
628.945	85.62
629.151	88.62
629.357	87.62
629.564	95.62
629.77	88.62
629.976	83.62
630.183	81.62
630.389	74.62
630.595	94.62
630.802	81.62
631.008	80.62
631.214	62.62
631.42	79.62
631.627	97.62
631.833	79.62
632.039	78.62
632.245	69.62
632.451	94.62
632.657	73.62
632.863	94.62
633.069	90.62
633.275	94.62
633.481	71.62
633.688	70.62
633.893	88.62
634.099	85.62
634.305	70.62
634.511	85.62
634.717	80.62
634.923	76.62
635.129	78.62
635.335	87.62
635.541	72.62
635.747	89.62
635.952	93.62
636.158	99.62
636.364	177.62
636.57	153.62
636.775	92.62
636.981	75.62
637.187	76.62
637.392	77.62
637.598	86.62
637.804	81.62
638.009	95.62
638.215	83.62
638.421	88.62
638.626	79.62
638.832	88.62
639.037	97.62
639.243	94.62
639.448	91.62
639.654	83.62
639.859	93.62
640.065	75.62
640.27	84.62
640.475	85.62
640.681	86.62
640.886	66.62
641.091	72.62
641.297	82.62
641.502	86.62
641.707	91.62
641.913	91.62
642.118	89.62
642.323	75.62
642.528	81.62
642.733	77.62
642.939	61.62
643.144	87.62
643.349	82.62
643.554	84.62
643.759	83.62
643.964	78.62
644.169	78.62
644.374	77.62
644.579	87.62
644.784	86.62
644.989	65.62
645.194	80.62
645.399	73.62
645.604	77.62
645.809	100.62
646.014	81.62
646.219	89.62
646.423	86.62
646.628	82.62
646.833	78.62
647.038	78.62
647.243	89.62
647.447	75.62
647.652	84.62
647.857	75.62
648.062	74.62
648.266	85.62
648.471	83.62
648.676	101.62
648.88	95.62
649.085	90.62
649.289	79.62
649.494	101.62
649.698	134.62
649.903	105.62
650.107	85.62
650.312	79.62
650.516	82.62
650.721	89.62
650.925	89.62
651.13	86.62
651.334	73.62
651.539	83.62
651.743	82.62
651.947	91.62
652.152	82.62
652.356	78.62
652.56	81.62
652.764	73.62
652.969	79.62
653.173	86.62
653.377	91.62
653.581	81.62
653.785	82.62
653.99	82.62
654.194	84.62
654.398	85.62
654.602	75.62
654.806	73.62
655.01	107.62
655.214	93.62
655.418	78.62
655.622	91.62
655.826	87.62
656.03	76.62
656.234	88.62
656.438	89.62
656.642	101.62
656.846	93.62
657.049	81.62
657.253	95.62
657.457	78.62
657.661	73.62
657.865	77.62
658.068	76.62
658.272	75.62
658.476	85.62
658.68	82.62
658.883	70.62
659.087	84.62
659.291	101.62
659.494	89.62
659.698	84.62
659.901	89.62
660.105	81.62
660.309	91.62
660.512	70.62
660.716	84.62
660.919	80.62
661.123	78.62
661.326	81.62
661.53	94.62
661.733	86.62
661.936	77.62
662.14	86.62
662.343	75.62
662.546	62.62
662.75	83.62
662.953	79.62
663.156	80.62
663.36	79.62
663.563	77.62
663.766	72.62
663.969	63.62
664.173	90.62
664.376	78.62
664.579	78.62
664.782	76.62
664.985	90.62
665.188	75.62
665.391	77.62
665.594	78.62
665.797	86.62
666	85.62
666.203	75.62
666.406	92.62
666.609	86.62
666.812	83.62
667.015	67.62
667.218	73.62
667.421	87.62
667.624	91.62
667.827	84.62
668.03	81.62
668.232	68.62
668.435	69.62
668.638	81.62
668.841	86.62
669.043	81.62
669.246	94.62
669.449	79.62
669.651	81.62
669.854	78.62
670.057	85.62
670.259	81.62
670.462	64.62
670.665	84.62
670.867	86.62
671.07	80.62
671.272	76.62
671.475	83.62
671.677	88.62
671.88	85.62
672.082	79.62
672.284	82.62
672.487	79.62
672.689	66.62
672.892	89.62
