Data from Circ_1991_H10_HRD10591_00076.txt Node
Date: Wed Jan 03 11:51:56 EST 2024
User: Yrep
Spectrometer: HR+D1059
Trigger mode: 1
Integration Time (sec): 1.000000E-1
Scans to average: 1
Electric dark correction enabled: true
Nonlinearity correction enabled: false
Boxcar width: 0
XAxis mode: Wavelengths
Number of Pixels in Spectrum: 2048
>>>>>Begin Spectral Data<<<<<
223.165	-16.56
223.4	-16.56
223.635	-16.56
223.869	-18.56
224.104	-21.56
224.338	-7.56
224.573	-11.56
224.808	-9.56
225.042	-10.56
225.277	-2.56
225.511	-3.56
225.746	3.44
225.98	-6.56
226.215	12.44
226.449	-0.56
226.683	28.44
226.918	31.44
227.152	33.44
227.387	37.44
227.621	39.44
227.856	43.44
228.09	43.44
228.324	49.44
228.559	57.44
228.793	60.44
229.027	43.44
229.262	61.44
229.496	73.44
229.73	91.44
229.964	81.44
230.199	77.44
230.433	80.44
230.667	76.44
230.901	81.44
231.136	82.44
231.37	86.44
231.604	75.44
231.838	68.44
232.072	81.44
232.306	75.44
232.541	87.44
232.775	84.44
233.009	85.44
233.243	78.44
233.477	95.44
233.711	93.44
233.945	68.44
234.179	69.44
234.413	93.44
234.647	64.44
234.881	86.44
235.115	68.44
235.349	67.44
235.583	65.44
235.817	80.44
236.051	68.44
236.285	83.44
236.519	86.44
236.753	70.44
236.987	78.44
237.221	81.44
237.455	81.44
237.689	78.44
237.922	79.44
238.156	86.44
238.39	72.44
238.624	74.44
238.858	70.44
239.091	79.44
239.325	77.44
239.559	95.44
239.793	84.44
240.027	68.44
240.26	73.44
240.494	75.44
240.728	81.44
240.961	69.44
241.195	58.44
241.429	80.44
241.662	59.44
241.896	77.44
242.13	76.44
242.363	78.44
242.597	74.44
242.83	78.44
243.064	74.44
243.298	70.44
243.531	73.44
243.765	78.44
243.998	72.44
244.232	87.44
244.465	77.44
244.699	79.44
244.932	76.44
245.166	74.44
245.399	68.44
245.633	81.44
245.866	85.44
246.099	90.44
246.333	85.44
246.566	65.44
246.8	82.44
247.033	87.44
247.266	73.44
247.5	89.44
247.733	69.44
247.966	89.44
248.2	90.44
248.433	88.44
248.666	86.44
248.899	90.44
249.133	82.44
249.366	101.44
249.599	90.44
249.832	92.44
250.066	83.44
250.299	85.44
250.532	79.44
250.765	75.44
250.998	79.44
251.231	79.44
251.465	88.44
251.698	86.44
251.931	97.44
252.164	69.44
252.397	83.44
252.63	91.44
252.863	76.44
253.096	83.44
253.329	81.44
253.562	79.44
253.795	93.44
254.028	90.44
254.261	92.44
254.494	82.44
254.727	81.44
254.96	87.44
255.193	89.44
255.426	89.44
255.659	83.44
255.892	87.44
256.124	79.44
256.357	83.44
256.59	85.44
256.823	84.44
257.056	89.44
257.289	78.44
257.521	84.44
257.754	86.44
257.987	78.44
258.22	86.44
258.452	85.44
258.685	89.44
258.918	86.44
259.151	84.44
259.383	84.44
259.616	75.44
259.849	85.44
260.081	85.44
260.314	83.44
260.547	77.44
260.779	74.44
261.012	76.44
261.244	90.44
261.477	74.44
261.71	89.44
261.942	114.44
262.175	116.44
262.407	86.44
262.64	83.44
262.872	82.44
263.105	79.44
263.337	76.44
263.57	76.44
263.802	81.44
264.035	82.44
264.267	95.44
264.499	87.44
264.732	81.44
264.964	94.44
265.197	69.44
265.429	69.44
265.661	85.44
265.894	77.44
266.126	81.44
266.358	81.44
266.591	89.44
266.823	69.44
267.055	83.44
267.287	71.44
267.52	81.44
267.752	75.44
267.984	82.44
268.216	87.44
268.448	93.44
268.681	74.44
268.913	69.44
269.145	86.44
269.377	90.44
269.609	78.44
269.841	84.44
270.073	93.44
270.306	77.44
270.538	85.44
270.77	83.44
271.002	84.44
271.234	85.44
271.466	80.44
271.698	91.44
271.93	97.44
272.162	89.44
272.394	100.44
272.626	81.44
272.858	84.44
273.09	84.44
273.322	79.44
273.553	78.44
273.785	91.44
274.017	89.44
274.249	94.44
274.481	83.44
274.713	91.44
274.945	73.44
275.176	100.44
275.408	96.44
275.64	92.44
275.872	98.44
276.104	94.44
276.335	104.44
276.567	110.44
276.799	123.44
277.031	132.44
277.262	118.44
277.494	92.44
277.726	86.44
277.957	71.44
278.189	76.44
278.421	93.44
278.652	84.44
278.884	83.44
279.115	86.44
279.347	83.44
279.579	87.44
279.81	98.44
280.042	117.44
280.273	139.44
280.505	105.44
280.736	109.44
280.968	89.44
281.199	107.44
281.431	89.44
281.662	55.44
281.894	96.44
282.125	96.44
282.356	110.44
282.588	133.44
282.819	119.44
283.051	92.44
283.282	87.44
283.513	83.44
283.745	76.44
283.976	76.44
284.207	95.44
284.439	83.44
284.67	91.44
284.901	91.44
285.132	92.44
285.364	82.44
285.595	87.44
285.826	90.44
286.057	80.44
286.288	74.44
286.52	73.44
286.751	86.44
286.982	89.44
287.213	77.44
287.444	86.44
287.675	74.44
287.906	89.44
288.138	98.44
288.369	84.44
288.6	83.44
288.831	73.44
289.062	87.44
289.293	94.44
289.524	85.44
289.755	79.44
289.986	95.44
290.217	92.44
290.448	85.44
290.679	92.44
290.91	92.44
291.141	84.44
291.371	89.44
291.602	97.44
291.833	99.44
292.064	99.44
292.295	99.44
292.526	86.44
292.757	93.44
292.987	75.44
293.218	78.44
293.449	75.44
293.68	82.44
293.91	70.44
294.141	95.44
294.372	85.44
294.603	82.44
294.833	92.44
295.064	97.44
295.295	95.44
295.525	79.44
295.756	80.44
295.987	114.44
296.217	145.44
296.448	125.44
296.679	74.44
296.909	81.44
297.14	86.44
297.37	92.44
297.601	97.44
297.831	71.44
298.062	88.44
298.292	85.44
298.523	87.44
298.753	90.44
298.984	78.44
299.214	88.44
299.445	95.44
299.675	96.44
299.905	92.44
300.136	89.44
300.366	95.44
300.597	81.44
300.827	101.44
301.057	95.44
301.288	106.44
301.518	86.44
301.748	90.44
301.979	106.44
302.209	95.44
302.439	105.44
302.669	75.44
302.9	83.44
303.13	83.44
303.36	90.44
303.59	106.44
303.82	100.44
304.051	83.44
304.281	86.44
304.511	70.44
304.741	87.44
304.971	99.44
305.201	85.44
305.431	87.44
305.661	101.44
305.891	80.44
306.121	92.44
306.352	94.44
306.582	100.44
306.812	94.44
307.042	98.44
307.272	126.44
307.502	113.44
307.731	146.44
307.961	94.44
308.191	90.44
308.421	90.44
308.651	92.44
308.881	105.44
309.111	87.44
309.341	100.44
309.571	98.44
309.8	97.44
310.03	92.44
310.26	99.44
310.49	92.44
310.72	114.44
310.949	104.44
311.179	99.44
311.409	100.44
311.639	82.44
311.868	92.44
312.098	94.44
312.328	100.44
312.557	90.44
312.787	101.44
313.017	98.44
313.246	98.44
313.476	85.44
313.706	82.44
313.935	81.44
314.165	85.44
314.394	82.44
314.624	95.44
314.853	99.44
315.083	103.44
315.312	91.44
315.542	89.44
315.771	101.44
316.001	80.44
316.23	94.44
316.46	95.44
316.689	96.44
316.919	92.44
317.148	99.44
317.377	85.44
317.607	90.44
317.836	90.44
318.065	99.44
318.295	85.44
318.524	97.44
318.753	98.44
318.983	98.44
319.212	85.44
319.441	105.44
319.67	97.44
319.9	105.44
320.129	92.44
320.358	81.44
320.587	92.44
320.816	100.44
321.046	104.44
321.275	105.44
321.504	95.44
321.733	106.44
321.962	96.44
322.191	97.44
322.42	111.44
322.649	120.44
322.878	103.44
323.108	102.44
323.337	130.44
323.566	131.44
323.795	151.44
324.024	219.44
324.253	403.44
324.482	921.44
324.71	1904.44
324.939	2634.44
325.168	946.44
325.397	269.44
325.626	149.44
325.855	125.44
326.084	139.44
326.313	135.44
326.542	163.44
326.77	230.44
326.999	491.44
327.228	1025.44
327.457	2019.44
327.686	1618.44
327.914	466.44
328.143	310.44
328.372	322.44
328.6	213.44
328.829	147.44
329.058	140.44
329.287	140.44
329.515	135.44
329.744	155.44
329.972	229.44
330.201	472.44
330.43	644.44
330.658	297.44
330.887	193.44
331.115	135.44
331.344	93.44
331.572	109.44
331.801	108.44
332.03	92.44
332.258	97.44
332.486	94.44
332.715	98.44
332.943	98.44
333.172	114.44
333.4	108.44
333.629	125.44
333.857	151.44
334.085	227.44
334.314	439.44
334.542	774.44
334.771	713.44
334.999	222.44
335.227	118.44
335.455	98.44
335.684	83.44
335.912	97.44
336.14	105.44
336.369	105.44
336.597	99.44
336.825	86.44
337.053	91.44
337.281	84.44
337.51	93.44
337.738	106.44
337.966	86.44
338.194	101.44
338.422	104.44
338.65	98.44
338.878	75.44
339.106	83.44
339.334	92.44
339.562	71.44
339.79	81.44
340.018	86.44
340.246	83.44
340.474	85.44
340.702	99.44
340.93	91.44
341.158	100.44
341.386	97.44
341.614	96.44
341.842	94.44
342.07	98.44
342.298	93.44
342.526	95.44
342.754	92.44
342.981	77.44
343.209	91.44
343.437	98.44
343.665	84.44
343.893	87.44
344.12	87.44
344.348	83.44
344.576	109.44
344.804	96.44
345.031	83.44
345.259	92.44
345.487	89.44
345.714	100.44
345.942	83.44
346.17	95.44
346.397	97.44
346.625	81.44
346.853	81.44
347.08	91.44
347.308	81.44
347.535	81.44
347.763	98.44
347.99	113.44
348.218	96.44
348.445	100.44
348.673	88.44
348.9	103.44
349.128	99.44
349.355	106.44
349.583	99.44
349.81	103.44
350.037	91.44
350.265	96.44
350.492	83.44
350.72	90.44
350.947	92.44
351.174	97.44
351.402	106.44
351.629	92.44
351.856	104.44
352.083	94.44
352.311	106.44
352.538	116.44
352.765	105.44
352.992	114.44
353.22	113.44
353.447	111.44
353.674	98.44
353.901	83.44
354.128	88.44
354.355	81.44
354.583	102.44
354.81	115.44
355.037	89.44
355.264	96.44
355.491	93.44
355.718	101.44
355.945	97.44
356.172	98.44
356.399	84.44
356.626	97.44
356.853	91.44
357.08	80.44
357.307	74.44
357.534	86.44
357.761	85.44
357.988	94.44
358.215	100.44
358.441	82.44
358.668	89.44
358.895	110.44
359.122	83.44
359.349	94.44
359.576	89.44
359.802	93.44
360.029	108.44
360.256	104.44
360.483	96.44
360.709	90.44
360.936	98.44
361.163	95.44
361.39	96.44
361.616	100.44
361.843	81.44
362.07	98.44
362.296	100.44
362.523	98.44
362.749	84.44
362.976	76.44
363.203	101.44
363.429	83.44
363.656	79.44
363.882	89.44
364.109	101.44
364.335	100.44
364.562	87.44
364.788	91.44
365.015	103.44
365.241	91.44
365.468	109.44
365.694	103.44
365.92	102.44
366.147	84.44
366.373	99.44
366.599	96.44
366.826	95.44
367.052	94.44
367.278	96.44
367.505	96.44
367.731	94.44
367.957	86.44
368.184	83.44
368.41	98.44
368.636	121.44
368.862	119.44
369.089	95.44
369.315	87.44
369.541	92.44
369.767	102.44
369.993	87.44
370.219	93.44
370.445	87.44
370.672	81.44
370.898	92.44
371.124	89.44
371.35	87.44
371.576	78.44
371.802	75.44
372.028	84.44
372.254	92.44
372.48	86.44
372.706	87.44
372.932	89.44
373.158	97.44
373.384	98.44
373.61	80.44
373.835	89.44
374.061	95.44
374.287	93.44
374.513	100.44
374.739	101.44
374.965	84.44
375.191	90.44
375.416	94.44
375.642	100.44
375.868	102.44
376.094	90.44
376.319	92.44
376.545	90.44
376.771	100.44
376.997	87.44
377.222	89.44
377.448	84.44
377.674	97.44
377.899	85.44
378.125	79.44
378.35	91.44
378.576	91.44
378.802	82.44
379.027	104.44
379.253	90.44
379.478	91.44
379.704	104.44
379.929	96.44
380.155	92.44
380.38	100.44
380.606	85.44
380.831	84.44
381.057	101.44
381.282	89.44
381.507	93.44
381.733	81.44
381.958	84.44
382.184	98.44
382.409	93.44
382.634	109.44
382.86	94.44
383.085	94.44
383.31	84.44
383.535	102.44
383.761	93.44
383.986	100.44
384.211	94.44
384.436	86.44
384.662	95.44
384.887	112.44
385.112	103.44
385.337	97.44
385.562	98.44
385.787	112.44
386.013	123.44
386.238	100.44
386.463	102.44
386.688	110.44
386.913	100.44
387.138	116.44
387.363	93.44
387.588	118.44
387.813	98.44
388.038	107.44
388.263	117.44
388.488	113.44
388.713	110.44
388.938	85.44
389.163	91.44
389.387	95.44
389.612	91.44
389.837	77.44
390.062	84.44
390.287	93.44
390.512	93.44
390.736	73.44
390.961	101.44
391.186	92.44
391.411	90.44
391.636	81.44
391.86	81.44
392.085	98.44
392.31	78.44
392.534	85.44
392.759	75.44
392.984	87.44
393.208	95.44
393.433	107.44
393.658	78.44
393.882	77.44
394.107	78.44
394.331	82.44
394.556	78.44
394.78	85.44
395.005	91.44
395.229	84.44
395.454	77.44
395.678	89.44
395.903	91.44
396.127	81.44
396.352	79.44
396.576	101.44
396.801	74.44
397.025	95.44
397.249	99.44
397.474	78.44
397.698	97.44
397.922	83.44
398.147	95.44
398.371	95.44
398.595	88.44
398.82	78.44
399.044	80.44
399.268	78.44
399.492	99.44
399.717	85.44
399.941	85.44
400.165	96.44
400.389	84.44
400.613	89.44
400.837	95.44
401.062	94.44
401.286	90.44
401.51	99.44
401.734	84.44
401.958	98.44
402.182	125.44
402.406	159.44
402.63	119.44
402.854	90.44
403.078	96.44
403.302	97.44
403.526	75.44
403.75	83.44
403.974	87.44
404.198	87.44
404.422	89.44
404.645	78.44
404.869	79.44
405.093	96.44
405.317	107.44
405.541	122.44
405.765	92.44
405.988	125.44
406.212	165.44
406.436	245.44
406.66	159.44
406.883	101.44
407.107	94.44
407.331	93.44
407.555	91.44
407.778	92.44
408.002	87.44
408.226	82.44
408.449	90.44
408.673	107.44
408.896	103.44
409.12	89.44
409.344	87.44
409.567	89.44
409.791	96.44
410.014	102.44
410.238	85.44
410.461	98.44
410.685	84.44
410.908	90.44
411.132	107.44
411.355	94.44
411.578	85.44
411.802	90.44
412.025	107.44
412.249	107.44
412.472	106.44
412.695	125.44
412.919	99.44
413.142	93.44
413.365	95.44
413.589	104.44
413.812	90.44
414.035	77.44
414.258	92.44
414.482	93.44
414.705	87.44
414.928	96.44
415.151	99.44
415.374	95.44
415.597	77.44
415.821	85.44
416.044	90.44
416.267	92.44
416.49	91.44
416.713	85.44
416.936	78.44
417.159	98.44
417.382	80.44
417.605	84.44
417.828	97.44
418.051	95.44
418.274	82.44
418.497	98.44
418.72	79.44
418.943	73.44
419.166	100.44
419.389	94.44
419.611	96.44
419.834	94.44
420.057	103.44
420.28	82.44
420.503	91.44
420.726	90.44
420.948	87.44
421.171	98.44
421.394	86.44
421.617	88.44
421.839	86.44
422.062	79.44
422.285	106.44
422.507	94.44
422.73	92.44
422.953	109.44
423.175	87.44
423.398	94.44
423.621	87.44
423.843	83.44
424.066	93.44
424.288	95.44
424.511	106.44
424.733	99.44
424.956	112.44
425.178	87.44
425.401	101.44
425.623	109.44
425.846	83.44
426.068	99.44
426.291	109.44
426.513	104.44
426.735	100.44
426.958	91.44
427.18	111.44
427.402	154.44
427.625	197.44
427.847	185.44
428.069	174.44
428.292	107.44
428.514	88.44
428.736	95.44
428.958	77.44
429.181	84.44
429.403	78.44
429.625	85.44
429.847	92.44
430.069	110.44
430.292	104.44
430.514	82.44
430.736	98.44
430.958	83.44
431.18	85.44
431.402	89.44
431.624	87.44
431.846	82.44
432.068	93.44
432.29	95.44
432.512	90.44
432.734	94.44
432.956	85.44
433.178	95.44
433.4	100.44
433.622	81.44
433.844	109.44
434.066	82.44
434.287	86.44
434.509	86.44
434.731	89.44
434.953	85.44
435.175	67.44
435.397	94.44
435.618	80.44
435.84	103.44
436.062	126.44
436.284	117.44
436.505	98.44
436.727	98.44
436.949	98.44
437.17	85.44
437.392	93.44
437.614	92.44
437.835	103.44
438.057	123.44
438.278	103.44
438.5	92.44
438.721	124.44
438.943	100.44
439.165	81.44
439.386	85.44
439.608	87.44
439.829	112.44
440.05	131.44
440.272	154.44
440.493	97.44
440.715	94.44
440.936	89.44
441.158	94.44
441.379	102.44
441.6	86.44
441.822	102.44
442.043	92.44
442.264	102.44
442.486	101.44
442.707	83.44
442.928	100.44
443.149	145.44
443.371	153.44
443.592	124.44
443.813	116.44
444.034	111.44
444.255	89.44
444.476	92.44
444.698	88.44
444.919	80.44
445.14	109.44
445.361	114.44
445.582	123.44
445.803	137.44
446.024	150.44
446.245	137.44
446.466	103.44
446.687	92.44
446.908	90.44
447.129	93.44
447.35	99.44
447.571	89.44
447.792	104.44
448.013	101.44
448.234	114.44
448.455	114.44
448.675	121.44
448.896	124.44
449.117	99.44
449.338	109.44
449.559	133.44
449.779	132.44
450	90.44
450.221	87.44
450.442	99.44
450.662	90.44
450.883	108.44
451.104	100.44
451.324	82.44
451.545	100.44
451.766	102.44
451.986	92.44
452.207	93.44
452.428	78.44
452.648	100.44
452.869	123.44
453.089	124.44
453.31	116.44
453.53	89.44
453.751	93.44
453.971	93.44
454.192	109.44
454.412	85.44
454.633	77.44
454.853	89.44
455.073	88.44
455.294	94.44
455.514	91.44
455.734	101.44
455.955	87.44
456.175	93.44
456.395	86.44
456.616	87.44
456.836	79.44
457.056	73.44
457.276	82.44
457.497	84.44
457.717	107.44
457.937	93.44
458.157	93.44
458.377	92.44
458.598	110.44
458.818	162.44
459.038	182.44
459.258	131.44
459.478	93.44
459.698	91.44
459.918	70.44
460.138	87.44
460.358	79.44
460.578	99.44
460.798	92.44
461.018	88.44
461.238	82.44
461.458	81.44
461.678	83.44
461.898	78.44
462.118	85.44
462.338	99.44
462.558	96.44
462.777	87.44
462.997	97.44
463.217	97.44
463.437	93.44
463.657	82.44
463.876	110.44
464.096	84.44
464.316	89.44
464.536	98.44
464.755	108.44
464.975	115.44
465.195	179.44
465.414	164.44
465.634	96.44
465.854	109.44
466.073	98.44
466.293	87.44
466.512	89.44
466.732	97.44
466.951	73.44
467.171	94.44
467.391	102.44
467.61	106.44
467.829	144.44
468.049	299.44
468.268	397.44
468.488	146.44
468.707	95.44
468.927	97.44
469.146	97.44
469.365	79.44
469.585	108.44
469.804	103.44
470.023	95.44
470.243	107.44
470.462	112.44
470.681	115.44
470.901	81.44
471.12	95.44
471.339	101.44
471.558	102.44
471.777	119.44
471.997	182.44
472.216	548.44
472.435	1140.44
472.654	307.44
472.873	109.44
473.092	81.44
473.311	97.44
473.53	74.44
473.749	98.44
473.968	96.44
474.187	102.44
474.406	90.44
474.625	98.44
474.844	90.44
475.063	97.44
475.282	103.44
475.501	80.44
475.72	90.44
475.939	89.44
476.158	75.44
476.377	85.44
476.596	88.44
476.814	89.44
477.033	89.44
477.252	87.44
477.471	89.44
477.69	95.44
477.908	97.44
478.127	96.44
478.346	96.44
478.564	102.44
478.783	87.44
479.002	93.44
479.22	100.44
479.439	87.44
479.658	108.44
479.876	99.44
480.095	110.44
480.313	116.44
480.532	130.44
480.751	173.44
480.969	533.44
481.188	2041.44
481.406	1150.44
481.624	189.44
481.843	103.44
482.061	109.44
482.28	91.44
482.498	109.44
482.717	95.44
482.935	84.44
483.153	96.44
483.372	76.44
483.59	93.44
483.808	90.44
484.027	90.44
484.245	91.44
484.463	81.44
484.681	98.44
484.9	100.44
485.118	94.44
485.336	97.44
485.554	81.44
485.772	98.44
485.99	105.44
486.209	101.44
486.427	110.44
486.645	113.44
486.863	114.44
487.081	104.44
487.299	91.44
487.517	99.44
487.735	98.44
487.953	99.44
488.171	88.44
488.389	104.44
488.607	96.44
488.825	80.44
489.043	94.44
489.261	80.44
489.479	89.44
489.696	107.44
489.914	105.44
490.132	90.44
490.35	92.44
490.568	95.44
490.786	84.44
491.003	99.44
491.221	94.44
491.439	103.44
491.657	77.44
491.874	94.44
492.092	94.44
492.31	99.44
492.527	90.44
492.745	95.44
492.963	97.44
493.18	92.44
493.398	93.44
493.615	107.44
493.833	90.44
494.05	85.44
494.268	89.44
494.485	84.44
494.703	82.44
494.92	96.44
495.138	87.44
495.355	90.44
495.573	98.44
495.79	101.44
496.008	93.44
496.225	108.44
496.442	94.44
496.66	92.44
496.877	102.44
497.094	89.44
497.312	79.44
497.529	81.44
497.746	85.44
497.963	97.44
498.181	86.44
498.398	93.44
498.615	95.44
498.832	91.44
499.049	94.44
499.267	92.44
499.484	84.44
499.701	97.44
499.918	85.44
500.135	67.44
500.352	98.44
500.569	93.44
500.786	93.44
501.003	82.44
501.22	87.44
501.437	86.44
501.654	95.44
501.871	108.44
502.088	84.44
502.305	98.44
502.522	93.44
502.739	93.44
502.956	90.44
503.172	83.44
503.389	109.44
503.606	109.44
503.823	108.44
504.04	102.44
504.256	79.44
504.473	92.44
504.69	78.44
504.907	99.44
505.123	92.44
505.34	92.44
505.557	91.44
505.773	104.44
505.99	80.44
506.207	86.44
506.423	93.44
506.64	85.44
506.856	102.44
507.073	98.44
507.289	100.44
507.506	87.44
507.722	111.44
507.939	100.44
508.155	102.44
508.372	93.44
508.588	89.44
508.805	91.44
509.021	82.44
509.238	91.44
509.454	91.44
509.67	85.44
509.887	98.44
510.103	131.44
510.319	211.44
510.536	748.44
510.752	2421.44
510.968	669.44
511.184	163.44
511.401	98.44
511.617	107.44
511.833	92.44
512.049	111.44
512.265	89.44
512.481	100.44
512.698	93.44
512.914	110.44
513.13	90.44
513.346	106.44
513.562	86.44
513.778	97.44
513.994	90.44
514.21	99.44
514.426	113.44
514.642	150.44
514.858	126.44
515.074	179.44
515.29	465.44
515.506	1637.44
515.721	591.44
515.937	161.44
516.153	116.44
516.369	93.44
516.585	100.44
516.801	83.44
517.016	87.44
517.232	82.44
517.448	90.44
517.664	94.44
517.879	98.44
518.095	81.44
518.311	94.44
518.527	110.44
518.742	95.44
518.958	89.44
519.173	87.44
519.389	94.44
519.605	72.44
519.82	84.44
520.036	101.44
520.251	127.44
520.467	112.44
520.682	110.44
520.898	94.44
521.113	108.44
521.329	134.44
521.544	228.44
521.76	594.44
521.975	2666.44
522.19	1535.44
522.406	339.44
522.621	143.44
522.836	105.44
523.052	93.44
523.267	95.44
523.482	84.44
523.698	99.44
523.913	133.44
524.128	111.44
524.343	80.44
524.559	95.44
524.774	94.44
524.989	91.44
525.204	92.44
525.419	89.44
525.634	103.44
525.849	93.44
526.064	82.44
526.28	94.44
526.495	93.44
526.71	81.44
526.925	87.44
527.14	106.44
527.355	84.44
527.57	81.44
527.785	84.44
527.999	94.44
528.214	96.44
528.429	110.44
528.644	93.44
528.859	77.44
529.074	102.44
529.289	116.44
529.503	186.44
529.718	104.44
529.933	93.44
530.148	87.44
530.363	93.44
530.577	89.44
530.792	95.44
531.007	107.44
531.221	98.44
531.436	87.44
531.651	101.44
531.865	93.44
532.08	98.44
532.295	88.44
532.509	99.44
532.724	82.44
532.938	93.44
533.153	94.44
533.367	92.44
533.582	78.44
533.796	93.44
534.011	73.44
534.225	106.44
534.44	90.44
534.654	89.44
534.868	96.44
535.083	104.44
535.297	101.44
535.511	89.44
535.726	93.44
535.94	91.44
536.154	89.44
536.369	99.44
536.583	84.44
536.797	89.44
537.011	94.44
537.225	85.44
537.44	90.44
537.654	91.44
537.868	83.44
538.082	99.44
538.296	98.44
538.51	89.44
538.724	102.44
538.938	86.44
539.153	97.44
539.367	89.44
539.581	101.44
539.795	98.44
540.009	88.44
540.222	77.44
540.436	95.44
540.65	102.44
540.864	102.44
541.078	99.44
541.292	94.44
541.506	95.44
541.72	91.44
541.934	84.44
542.147	89.44
542.361	73.44
542.575	92.44
542.789	98.44
543.002	90.44
543.216	91.44
543.43	102.44
543.644	102.44
543.857	85.44
544.071	97.44
544.285	102.44
544.498	85.44
544.712	88.44
544.925	102.44
545.139	101.44
545.352	82.44
545.566	86.44
545.779	87.44
545.993	81.44
546.206	93.44
546.42	87.44
546.633	102.44
546.847	97.44
547.06	88.44
547.274	90.44
547.487	96.44
547.7	66.44
547.914	74.44
548.127	97.44
548.34	78.44
548.554	85.44
548.767	96.44
548.98	98.44
549.193	91.44
549.407	85.44
549.62	81.44
549.833	88.44
550.046	98.44
550.259	95.44
550.473	102.44
550.686	101.44
550.899	96.44
551.112	96.44
551.325	82.44
551.538	93.44
551.751	81.44
551.964	95.44
552.177	85.44
552.39	90.44
552.603	95.44
552.816	74.44
553.029	81.44
553.242	95.44
553.455	102.44
553.667	106.44
553.88	91.44
554.093	91.44
554.306	87.44
554.519	103.44
554.732	91.44
554.944	88.44
555.157	96.44
555.37	92.44
555.583	98.44
555.795	103.44
556.008	99.44
556.221	91.44
556.433	94.44
556.646	94.44
556.859	87.44
557.071	95.44
557.284	79.44
557.496	90.44
557.709	91.44
557.921	98.44
558.134	92.44
558.346	92.44
558.559	84.44
558.771	84.44
558.984	77.44
559.196	91.44
559.409	79.44
559.621	93.44
559.833	95.44
560.046	99.44
560.258	98.44
560.47	114.44
560.683	102.44
560.895	77.44
561.107	74.44
561.32	85.44
561.532	91.44
561.744	91.44
561.956	91.44
562.168	88.44
562.381	99.44
562.593	68.44
562.805	87.44
563.017	82.44
563.229	91.44
563.441	87.44
563.653	77.44
563.865	81.44
564.077	80.44
564.289	84.44
564.501	92.44
564.713	90.44
564.925	99.44
565.137	107.44
565.349	84.44
565.561	81.44
565.773	91.44
565.985	98.44
566.197	89.44
566.408	89.44
566.62	74.44
566.832	77.44
567.044	80.44
567.255	106.44
567.467	90.44
567.679	90.44
567.891	98.44
568.102	94.44
568.314	86.44
568.526	89.44
568.737	83.44
568.949	77.44
569.161	71.44
569.372	95.44
569.584	79.44
569.795	91.44
570.007	108.44
570.218	240.44
570.43	125.44
570.641	85.44
570.853	70.44
571.064	85.44
571.276	94.44
571.487	87.44
571.698	90.44
571.91	88.44
572.121	100.44
572.333	85.44
572.544	91.44
572.755	78.44
572.966	79.44
573.178	88.44
573.389	92.44
573.6	102.44
573.811	89.44
574.023	78.44
574.234	92.44
574.445	98.44
574.656	98.44
574.867	101.44
575.078	89.44
575.289	83.44
575.501	75.44
575.712	94.44
575.923	76.44
576.134	77.44
576.345	100.44
576.556	98.44
576.767	84.44
576.978	82.44
577.188	85.44
577.399	90.44
577.61	88.44
577.821	100.44
578.032	103.44
578.243	261.44
578.454	761.44
578.665	211.44
578.875	103.44
579.086	95.44
579.297	83.44
579.508	86.44
579.718	87.44
579.929	83.44
580.14	85.44
580.35	105.44
580.561	102.44
580.772	86.44
580.982	106.44
581.193	84.44
581.403	89.44
581.614	90.44
581.825	98.44
582.035	94.44
582.246	90.44
582.456	84.44
582.667	87.44
582.877	92.44
583.087	78.44
583.298	78.44
583.508	78.44
583.719	85.44
583.929	94.44
584.139	87.44
584.35	82.44
584.56	84.44
584.77	88.44
584.981	104.44
585.191	94.44
585.401	98.44
585.611	78.44
585.821	89.44
586.032	88.44
586.242	70.44
586.452	83.44
586.662	86.44
586.872	91.44
587.082	86.44
587.292	90.44
587.502	93.44
587.713	96.44
587.923	83.44
588.133	97.44
588.343	82.44
588.553	96.44
588.762	92.44
588.972	108.44
589.182	158.44
589.392	112.44
589.602	82.44
589.812	119.44
590.022	98.44
590.232	96.44
590.441	95.44
590.651	90.44
590.861	70.44
591.071	110.44
591.281	90.44
591.49	83.44
591.7	86.44
591.91	70.44
592.119	78.44
592.329	96.44
592.539	84.44
592.748	98.44
592.958	93.44
593.167	105.44
593.377	88.44
593.587	100.44
593.796	89.44
594.006	80.44
594.215	81.44
594.424	84.44
594.634	77.44
594.843	69.44
595.053	73.44
595.262	83.44
595.472	82.44
595.681	89.44
595.89	78.44
596.1	106.44
596.309	93.44
596.518	89.44
596.727	96.44
596.937	85.44
597.146	77.44
597.355	82.44
597.564	94.44
597.774	88.44
597.983	88.44
598.192	78.44
598.401	78.44
598.61	82.44
598.819	78.44
599.028	85.44
599.237	81.44
599.446	85.44
599.655	76.44
599.864	86.44
600.073	94.44
600.282	99.44
600.491	92.44
600.7	82.44
600.909	96.44
601.118	95.44
601.327	85.44
601.536	89.44
601.745	90.44
601.953	80.44
602.162	82.44
602.371	91.44
602.58	81.44
602.789	90.44
602.997	74.44
603.206	86.44
603.415	82.44
603.623	80.44
603.832	86.44
604.041	75.44
604.249	80.44
604.458	99.44
604.666	69.44
604.875	89.44
605.084	89.44
605.292	74.44
605.501	94.44
605.709	91.44
605.918	86.44
606.126	81.44
606.334	85.44
606.543	76.44
606.751	82.44
606.96	94.44
607.168	78.44
607.376	80.44
607.585	90.44
607.793	97.44
608.001	94.44
608.21	90.44
608.418	90.44
608.626	93.44
608.834	96.44
609.043	74.44
609.251	83.44
609.459	79.44
609.667	89.44
609.875	80.44
610.083	101.44
610.291	78.44
610.499	83.44
610.707	86.44
610.916	72.44
611.124	82.44
611.332	86.44
611.54	92.44
611.748	79.44
611.955	97.44
612.163	87.44
612.371	82.44
612.579	71.44
612.787	82.44
612.995	95.44
613.203	78.44
613.411	84.44
613.618	85.44
613.826	89.44
614.034	89.44
614.242	87.44
614.449	82.44
614.657	90.44
614.865	86.44
615.072	93.44
615.28	97.44
615.488	102.44
615.695	85.44
615.903	83.44
616.111	86.44
616.318	90.44
616.526	93.44
616.733	95.44
616.941	94.44
617.148	102.44
617.356	88.44
617.563	79.44
617.771	85.44
617.978	82.44
618.185	73.44
618.393	85.44
618.6	94.44
618.807	81.44
619.015	95.44
619.222	69.44
619.429	90.44
619.637	92.44
619.844	77.44
620.051	82.44
620.258	85.44
620.466	69.44
620.673	91.44
620.88	86.44
621.087	82.44
621.294	74.44
621.501	81.44
621.708	89.44
621.915	96.44
622.122	78.44
622.329	85.44
622.536	86.44
622.743	98.44
622.95	87.44
623.157	91.44
623.364	74.44
623.571	91.44
623.778	78.44
623.985	76.44
624.192	74.44
624.399	85.44
624.606	93.44
624.812	83.44
625.019	67.44
625.226	85.44
625.433	75.44
625.639	94.44
625.846	78.44
626.053	89.44
626.259	86.44
626.466	83.44
626.673	82.44
626.879	79.44
627.086	74.44
627.293	88.44
627.499	75.44
627.706	84.44
627.912	93.44
628.119	75.44
628.325	75.44
628.532	82.44
628.738	70.44
628.945	73.44
629.151	81.44
629.357	97.44
629.564	72.44
629.77	79.44
629.976	75.44
630.183	95.44
630.389	85.44
630.595	89.44
630.802	92.44
631.008	71.44
631.214	75.44
631.42	79.44
631.627	93.44
631.833	93.44
632.039	84.44
632.245	83.44
632.451	72.44
632.657	75.44
632.863	85.44
633.069	78.44
633.275	92.44
633.481	88.44
633.688	69.44
633.893	100.44
634.099	80.44
634.305	68.44
634.511	73.44
634.717	81.44
634.923	91.44
635.129	78.44
635.335	64.44
635.541	93.44
635.747	87.44
635.952	84.44
636.158	102.44
636.364	209.44
636.57	175.44
636.775	99.44
636.981	89.44
637.187	102.44
637.392	85.44
637.598	90.44
637.804	90.44
638.009	76.44
638.215	86.44
638.421	82.44
638.626	83.44
638.832	79.44
639.037	83.44
639.243	91.44
639.448	88.44
639.654	91.44
639.859	84.44
640.065	86.44
640.27	82.44
640.475	83.44
640.681	89.44
640.886	85.44
641.091	86.44
641.297	94.44
641.502	93.44
641.707	93.44
641.913	79.44
642.118	85.44
642.323	82.44
642.528	89.44
642.733	85.44
642.939	91.44
643.144	89.44
643.349	78.44
643.554	74.44
643.759	78.44
643.964	94.44
644.169	88.44
644.374	77.44
644.579	77.44
644.784	92.44
644.989	78.44
645.194	93.44
645.399	83.44
645.604	85.44
645.809	79.44
646.014	91.44
646.219	97.44
646.423	86.44
646.628	70.44
646.833	79.44
647.038	72.44
647.243	81.44
647.447	92.44
647.652	93.44
647.857	83.44
648.062	94.44
648.266	98.44
648.471	81.44
648.676	95.44
648.88	86.44
649.085	93.44
649.289	91.44
649.494	102.44
649.698	145.44
649.903	99.44
650.107	86.44
650.312	89.44
650.516	91.44
650.721	93.44
650.925	89.44
651.13	73.44
651.334	75.44
651.539	92.44
651.743	83.44
651.947	73.44
652.152	72.44
652.356	87.44
652.56	73.44
652.764	78.44
652.969	85.44
653.173	86.44
653.377	77.44
653.581	81.44
653.785	87.44
653.99	69.44
654.194	63.44
654.398	79.44
654.602	89.44
654.806	80.44
655.01	106.44
655.214	99.44
655.418	75.44
655.622	83.44
655.826	82.44
656.03	87.44
656.234	88.44
656.438	91.44
656.642	95.44
656.846	97.44
657.049	89.44
657.253	76.44
657.457	85.44
657.661	86.44
657.865	90.44
658.068	99.44
658.272	85.44
658.476	85.44
658.68	68.44
658.883	73.44
659.087	79.44
659.291	91.44
659.494	84.44
659.698	92.44
659.901	83.44
660.105	92.44
660.309	87.44
660.512	77.44
660.716	82.44
660.919	86.44
661.123	93.44
661.326	78.44
661.53	69.44
661.733	73.44
661.936	86.44
662.14	82.44
662.343	81.44
662.546	75.44
662.75	69.44
662.953	66.44
663.156	103.44
663.36	71.44
663.563	78.44
663.766	77.44
663.969	94.44
664.173	81.44
664.376	91.44
664.579	85.44
664.782	75.44
664.985	65.44
665.188	78.44
665.391	75.44
665.594	82.44
665.797	84.44
666	71.44
666.203	63.44
666.406	85.44
666.609	68.44
666.812	91.44
667.015	73.44
667.218	68.44
667.421	88.44
667.624	78.44
667.827	90.44
668.03	86.44
668.232	81.44
668.435	84.44
668.638	73.44
668.841	87.44
669.043	82.44
669.246	77.44
669.449	89.44
669.651	76.44
669.854	77.44
670.057	73.44
670.259	80.44
670.462	79.44
670.665	77.44
670.867	90.44
671.07	85.44
671.272	95.44
671.475	85.44
671.677	87.44
671.88	96.44
672.082	84.44
672.284	82.44
672.487	100.44
672.689	67.44
672.892	74.44
