Data from Circ_1992_H10_HRD10591_00092.txt Node
Date: Wed Jan 03 11:48:03 EST 2024
User: Yrep
Spectrometer: HR+D1059
Trigger mode: 1
Integration Time (sec): 1.000000E-1
Scans to average: 1
Electric dark correction enabled: true
Nonlinearity correction enabled: false
Boxcar width: 0
XAxis mode: Wavelengths
Number of Pixels in Spectrum: 2048
>>>>>Begin Spectral Data<<<<<
223.165	-20.5
223.4	-20.5
223.635	-20.5
223.869	-18.5
224.104	-17.5
224.338	-25.5
224.573	-10.5
224.808	-29.5
225.042	5.5
225.277	-11.5
225.511	1.5
225.746	7.5
225.98	13.5
226.215	18.5
226.449	15.5
226.683	10.5
226.918	28.5
227.152	32.5
227.387	37.5
227.621	47.5
227.856	51.5
228.09	51.5
228.324	47.5
228.559	69.5
228.793	65.5
229.027	69.5
229.262	66.5
229.496	83.5
229.73	105.5
229.964	92.5
230.199	75.5
230.433	85.5
230.667	82.5
230.901	52.5
231.136	74.5
231.37	73.5
231.604	87.5
231.838	80.5
232.072	74.5
232.306	76.5
232.541	66.5
232.775	73.5
233.009	75.5
233.243	87.5
233.477	84.5
233.711	81.5
233.945	78.5
234.179	82.5
234.413	89.5
234.647	79.5
234.881	73.5
235.115	70.5
235.349	80.5
235.583	73.5
235.817	78.5
236.051	69.5
236.285	85.5
236.519	81.5
236.753	89.5
236.987	72.5
237.221	95.5
237.455	101.5
237.689	84.5
237.922	83.5
238.156	78.5
238.39	82.5
238.624	82.5
238.858	74.5
239.091	83.5
239.325	82.5
239.559	71.5
239.793	89.5
240.027	77.5
240.26	75.5
240.494	68.5
240.728	76.5
240.961	85.5
241.195	90.5
241.429	81.5
241.662	80.5
241.896	68.5
242.13	70.5
242.363	83.5
242.597	73.5
242.83	77.5
243.064	75.5
243.298	81.5
243.531	77.5
243.765	65.5
243.998	79.5
244.232	86.5
244.465	87.5
244.699	81.5
244.932	79.5
245.166	79.5
245.399	85.5
245.633	75.5
245.866	75.5
246.099	90.5
246.333	75.5
246.566	82.5
246.8	78.5
247.033	84.5
247.266	93.5
247.5	82.5
247.733	87.5
247.966	80.5
248.2	71.5
248.433	93.5
248.666	89.5
248.899	79.5
249.133	81.5
249.366	103.5
249.599	108.5
249.832	82.5
250.066	66.5
250.299	74.5
250.532	78.5
250.765	80.5
250.998	93.5
251.231	74.5
251.465	81.5
251.698	88.5
251.931	91.5
252.164	89.5
252.397	88.5
252.63	87.5
252.863	89.5
253.096	86.5
253.329	73.5
253.562	81.5
253.795	84.5
254.028	77.5
254.261	83.5
254.494	71.5
254.727	82.5
254.96	75.5
255.193	76.5
255.426	68.5
255.659	90.5
255.892	85.5
256.124	90.5
256.357	87.5
256.59	89.5
256.823	73.5
257.056	78.5
257.289	94.5
257.521	80.5
257.754	82.5
257.987	80.5
258.22	72.5
258.452	83.5
258.685	101.5
258.918	80.5
259.151	88.5
259.383	77.5
259.616	74.5
259.849	70.5
260.081	94.5
260.314	91.5
260.547	85.5
260.779	99.5
261.012	95.5
261.244	83.5
261.477	89.5
261.71	98.5
261.942	124.5
262.175	117.5
262.407	91.5
262.64	90.5
262.872	89.5
263.105	89.5
263.337	86.5
263.57	73.5
263.802	95.5
264.035	88.5
264.267	83.5
264.499	83.5
264.732	82.5
264.964	82.5
265.197	85.5
265.429	79.5
265.661	97.5
265.894	81.5
266.126	88.5
266.358	89.5
266.591	64.5
266.823	94.5
267.055	89.5
267.287	89.5
267.52	86.5
267.752	86.5
267.984	79.5
268.216	61.5
268.448	92.5
268.681	88.5
268.913	75.5
269.145	80.5
269.377	83.5
269.609	93.5
269.841	86.5
270.073	95.5
270.306	81.5
270.538	85.5
270.77	87.5
271.002	80.5
271.234	100.5
271.466	82.5
271.698	87.5
271.93	85.5
272.162	84.5
272.394	85.5
272.626	82.5
272.858	80.5
273.09	91.5
273.322	85.5
273.553	91.5
273.785	75.5
274.017	81.5
274.249	86.5
274.481	71.5
274.713	87.5
274.945	92.5
275.176	95.5
275.408	103.5
275.64	98.5
275.872	82.5
276.104	100.5
276.335	86.5
276.567	95.5
276.799	111.5
277.031	132.5
277.262	116.5
277.494	114.5
277.726	86.5
277.957	86.5
278.189	91.5
278.421	81.5
278.652	90.5
278.884	80.5
279.115	94.5
279.347	84.5
279.579	84.5
279.81	98.5
280.042	127.5
280.273	156.5
280.505	123.5
280.736	96.5
280.968	89.5
281.199	84.5
281.431	99.5
281.662	79.5
281.894	90.5
282.125	89.5
282.356	115.5
282.588	146.5
282.819	102.5
283.051	91.5
283.282	100.5
283.513	92.5
283.745	82.5
283.976	91.5
284.207	96.5
284.439	72.5
284.67	90.5
284.901	82.5
285.132	78.5
285.364	68.5
285.595	85.5
285.826	87.5
286.057	86.5
286.288	83.5
286.52	82.5
286.751	79.5
286.982	90.5
287.213	88.5
287.444	95.5
287.675	99.5
287.906	91.5
288.138	107.5
288.369	104.5
288.6	85.5
288.831	81.5
289.062	81.5
289.293	92.5
289.524	83.5
289.755	96.5
289.986	95.5
290.217	86.5
290.448	94.5
290.679	91.5
290.91	93.5
291.141	91.5
291.371	86.5
291.602	95.5
291.833	94.5
292.064	79.5
292.295	92.5
292.526	93.5
292.757	85.5
292.987	85.5
293.218	81.5
293.449	92.5
293.68	93.5
293.91	100.5
294.141	99.5
294.372	84.5
294.603	86.5
294.833	69.5
295.064	80.5
295.295	81.5
295.525	87.5
295.756	110.5
295.987	100.5
296.217	134.5
296.448	130.5
296.679	99.5
296.909	80.5
297.14	91.5
297.37	78.5
297.601	92.5
297.831	73.5
298.062	91.5
298.292	89.5
298.523	101.5
298.753	85.5
298.984	84.5
299.214	89.5
299.445	71.5
299.675	92.5
299.905	103.5
300.136	91.5
300.366	77.5
300.597	91.5
300.827	97.5
301.057	93.5
301.288	112.5
301.518	102.5
301.748	94.5
301.979	107.5
302.209	93.5
302.439	84.5
302.669	85.5
302.9	85.5
303.13	87.5
303.36	100.5
303.59	106.5
303.82	115.5
304.051	102.5
304.281	86.5
304.511	93.5
304.741	95.5
304.971	87.5
305.201	89.5
305.431	94.5
305.661	99.5
305.891	105.5
306.121	98.5
306.352	101.5
306.582	110.5
306.812	91.5
307.042	106.5
307.272	143.5
307.502	138.5
307.731	144.5
307.961	117.5
308.191	93.5
308.421	94.5
308.651	79.5
308.881	86.5
309.111	104.5
309.341	87.5
309.571	111.5
309.8	89.5
310.03	102.5
310.26	96.5
310.49	99.5
310.72	100.5
310.949	103.5
311.179	110.5
311.409	85.5
311.639	92.5
311.868	99.5
312.098	98.5
312.328	98.5
312.557	101.5
312.787	100.5
313.017	97.5
313.246	100.5
313.476	86.5
313.706	95.5
313.935	104.5
314.165	107.5
314.394	103.5
314.624	99.5
314.853	99.5
315.083	95.5
315.312	97.5
315.542	98.5
315.771	87.5
316.001	107.5
316.23	97.5
316.46	100.5
316.689	69.5
316.919	89.5
317.148	99.5
317.377	93.5
317.607	85.5
317.836	104.5
318.065	81.5
318.295	98.5
318.524	91.5
318.753	90.5
318.983	87.5
319.212	95.5
319.441	122.5
319.67	99.5
319.9	94.5
320.129	98.5
320.358	89.5
320.587	91.5
320.816	99.5
321.046	106.5
321.275	100.5
321.504	82.5
321.733	89.5
321.962	89.5
322.191	109.5
322.42	109.5
322.649	115.5
322.878	113.5
323.108	119.5
323.337	120.5
323.566	131.5
323.795	155.5
324.024	222.5
324.253	378.5
324.482	834.5
324.71	1741.5
324.939	2301.5
325.168	839.5
325.397	249.5
325.626	130.5
325.855	146.5
326.084	121.5
326.313	141.5
326.542	154.5
326.77	214.5
326.999	446.5
327.228	955.5
327.457	1683.5
327.686	1345.5
327.914	410.5
328.143	313.5
328.372	372.5
328.6	233.5
328.829	144.5
329.058	138.5
329.287	143.5
329.515	131.5
329.744	176.5
329.972	282.5
330.201	496.5
330.43	729.5
330.658	347.5
330.887	192.5
331.115	128.5
331.344	107.5
331.572	114.5
331.801	108.5
332.03	99.5
332.258	95.5
332.486	106.5
332.715	108.5
332.943	116.5
333.172	110.5
333.4	114.5
333.629	122.5
333.857	155.5
334.085	274.5
334.314	488.5
334.542	904.5
334.771	865.5
334.999	254.5
335.227	128.5
335.455	109.5
335.684	105.5
335.912	113.5
336.14	101.5
336.369	107.5
336.597	101.5
336.825	116.5
337.053	99.5
337.281	94.5
337.51	85.5
337.738	100.5
337.966	99.5
338.194	86.5
338.422	94.5
338.65	104.5
338.878	93.5
339.106	89.5
339.334	85.5
339.562	89.5
339.79	89.5
340.018	87.5
340.246	86.5
340.474	94.5
340.702	101.5
340.93	81.5
341.158	89.5
341.386	96.5
341.614	91.5
341.842	99.5
342.07	90.5
342.298	95.5
342.526	102.5
342.754	103.5
342.981	93.5
343.209	89.5
343.437	103.5
343.665	102.5
343.893	89.5
344.12	110.5
344.348	89.5
344.576	88.5
344.804	94.5
345.031	94.5
345.259	90.5
345.487	111.5
345.714	102.5
345.942	85.5
346.17	98.5
346.397	86.5
346.625	99.5
346.853	93.5
347.08	93.5
347.308	106.5
347.535	97.5
347.763	100.5
347.99	100.5
348.218	98.5
348.445	106.5
348.673	93.5
348.9	95.5
349.128	93.5
349.355	89.5
349.583	103.5
349.81	96.5
350.037	91.5
350.265	100.5
350.492	82.5
350.72	86.5
350.947	103.5
351.174	103.5
351.402	115.5
351.629	102.5
351.856	97.5
352.083	92.5
352.311	99.5
352.538	115.5
352.765	102.5
352.992	113.5
353.22	108.5
353.447	107.5
353.674	85.5
353.901	90.5
354.128	96.5
354.355	101.5
354.583	94.5
354.81	88.5
355.037	102.5
355.264	98.5
355.491	95.5
355.718	103.5
355.945	96.5
356.172	82.5
356.399	86.5
356.626	95.5
356.853	88.5
357.08	91.5
357.307	86.5
357.534	85.5
357.761	77.5
357.988	94.5
358.215	93.5
358.441	90.5
358.668	99.5
358.895	102.5
359.122	89.5
359.349	98.5
359.576	95.5
359.802	94.5
360.029	126.5
360.256	109.5
360.483	107.5
360.709	93.5
360.936	90.5
361.163	95.5
361.39	94.5
361.616	100.5
361.843	90.5
362.07	92.5
362.296	95.5
362.523	85.5
362.749	86.5
362.976	92.5
363.203	87.5
363.429	81.5
363.656	95.5
363.882	94.5
364.109	91.5
364.335	89.5
364.562	104.5
364.788	90.5
365.015	103.5
365.241	89.5
365.468	121.5
365.694	96.5
365.92	99.5
366.147	93.5
366.373	79.5
366.599	88.5
366.826	90.5
367.052	91.5
367.278	96.5
367.505	99.5
367.731	101.5
367.957	95.5
368.184	100.5
368.41	109.5
368.636	108.5
368.862	116.5
369.089	111.5
369.315	90.5
369.541	97.5
369.767	87.5
369.993	94.5
370.219	91.5
370.445	87.5
370.672	90.5
370.898	88.5
371.124	87.5
371.35	94.5
371.576	90.5
371.802	88.5
372.028	90.5
372.254	95.5
372.48	77.5
372.706	77.5
372.932	78.5
373.158	96.5
373.384	95.5
373.61	98.5
373.835	83.5
374.061	94.5
374.287	89.5
374.513	95.5
374.739	92.5
374.965	86.5
375.191	89.5
375.416	97.5
375.642	84.5
375.868	105.5
376.094	89.5
376.319	96.5
376.545	84.5
376.771	84.5
376.997	88.5
377.222	69.5
377.448	84.5
377.674	95.5
377.899	107.5
378.125	103.5
378.35	97.5
378.576	105.5
378.802	89.5
379.027	87.5
379.253	89.5
379.478	91.5
379.704	110.5
379.929	102.5
380.155	95.5
380.38	93.5
380.606	90.5
380.831	91.5
381.057	89.5
381.282	102.5
381.507	95.5
381.733	92.5
381.958	94.5
382.184	85.5
382.409	84.5
382.634	90.5
382.86	94.5
383.085	95.5
383.31	103.5
383.535	90.5
383.761	107.5
383.986	99.5
384.211	100.5
384.436	116.5
384.662	91.5
384.887	102.5
385.112	108.5
385.337	91.5
385.562	103.5
385.787	101.5
386.013	105.5
386.238	103.5
386.463	114.5
386.688	123.5
386.913	101.5
387.138	107.5
387.363	97.5
387.588	98.5
387.813	100.5
388.038	101.5
388.263	110.5
388.488	114.5
388.713	98.5
388.938	91.5
389.163	106.5
389.387	100.5
389.612	98.5
389.837	92.5
390.062	87.5
390.287	93.5
390.512	88.5
390.736	93.5
390.961	93.5
391.186	80.5
391.411	97.5
391.636	92.5
391.86	84.5
392.085	102.5
392.31	93.5
392.534	97.5
392.759	85.5
392.984	83.5
393.208	73.5
393.433	99.5
393.658	84.5
393.882	83.5
394.107	78.5
394.331	91.5
394.556	104.5
394.78	91.5
395.005	94.5
395.229	97.5
395.454	90.5
395.678	77.5
395.903	96.5
396.127	81.5
396.352	93.5
396.576	77.5
396.801	80.5
397.025	93.5
397.249	85.5
397.474	94.5
397.698	94.5
397.922	87.5
398.147	96.5
398.371	81.5
398.595	87.5
398.82	75.5
399.044	85.5
399.268	102.5
399.492	73.5
399.717	97.5
399.941	89.5
400.165	91.5
400.389	99.5
400.613	92.5
400.837	87.5
401.062	94.5
401.286	91.5
401.51	89.5
401.734	97.5
401.958	108.5
402.182	128.5
402.406	161.5
402.63	106.5
402.854	93.5
403.078	79.5
403.302	88.5
403.526	94.5
403.75	92.5
403.974	91.5
404.198	93.5
404.422	73.5
404.645	97.5
404.869	92.5
405.093	109.5
405.317	125.5
405.541	115.5
405.765	102.5
405.988	114.5
406.212	158.5
406.436	229.5
406.66	164.5
406.883	100.5
407.107	97.5
407.331	94.5
407.555	93.5
407.778	99.5
408.002	95.5
408.226	96.5
408.449	95.5
408.673	75.5
408.896	84.5
409.12	103.5
409.344	98.5
409.567	83.5
409.791	92.5
410.014	90.5
410.238	95.5
410.461	89.5
410.685	96.5
410.908	100.5
411.132	112.5
411.355	100.5
411.578	92.5
411.802	91.5
412.025	95.5
412.249	85.5
412.472	97.5
412.695	118.5
412.919	111.5
413.142	100.5
413.365	95.5
413.589	83.5
413.812	97.5
414.035	89.5
414.258	87.5
414.482	102.5
414.705	94.5
414.928	84.5
415.151	85.5
415.374	90.5
415.597	87.5
415.821	80.5
416.044	93.5
416.267	75.5
416.49	82.5
416.713	73.5
416.936	88.5
417.159	101.5
417.382	100.5
417.605	98.5
417.828	93.5
418.051	97.5
418.274	73.5
418.497	93.5
418.72	85.5
418.943	92.5
419.166	93.5
419.389	85.5
419.611	86.5
419.834	84.5
420.057	93.5
420.28	84.5
420.503	92.5
420.726	96.5
420.948	91.5
421.171	99.5
421.394	94.5
421.617	84.5
421.839	94.5
422.062	88.5
422.285	93.5
422.507	95.5
422.73	106.5
422.953	91.5
423.175	98.5
423.398	76.5
423.621	93.5
423.843	89.5
424.066	87.5
424.288	69.5
424.511	99.5
424.733	109.5
424.956	87.5
425.178	98.5
425.401	93.5
425.623	100.5
425.846	101.5
426.068	84.5
426.291	95.5
426.513	98.5
426.735	89.5
426.958	100.5
427.18	116.5
427.402	167.5
427.625	184.5
427.847	175.5
428.069	176.5
428.292	104.5
428.514	95.5
428.736	87.5
428.958	87.5
429.181	84.5
429.403	85.5
429.625	91.5
429.847	84.5
430.069	122.5
430.292	98.5
430.514	98.5
430.736	85.5
430.958	91.5
431.18	83.5
431.402	94.5
431.624	89.5
431.846	80.5
432.068	90.5
432.29	79.5
432.512	79.5
432.734	85.5
432.956	97.5
433.178	114.5
433.4	100.5
433.622	79.5
433.844	93.5
434.066	85.5
434.287	91.5
434.509	96.5
434.731	106.5
434.953	95.5
435.175	90.5
435.397	82.5
435.618	100.5
435.84	95.5
436.062	127.5
436.284	111.5
436.505	104.5
436.727	111.5
436.949	98.5
437.17	90.5
437.392	85.5
437.614	89.5
437.835	103.5
438.057	123.5
438.278	110.5
438.5	103.5
438.721	127.5
438.943	99.5
439.165	89.5
439.386	94.5
439.608	91.5
439.829	93.5
440.05	133.5
440.272	150.5
440.493	106.5
440.715	97.5
440.936	101.5
441.158	101.5
441.379	86.5
441.6	98.5
441.822	89.5
442.043	97.5
442.264	116.5
442.486	99.5
442.707	92.5
442.928	109.5
443.149	119.5
443.371	140.5
443.592	108.5
443.813	114.5
444.034	113.5
444.255	79.5
444.476	96.5
444.698	90.5
444.919	87.5
445.14	129.5
445.361	127.5
445.582	118.5
445.803	160.5
446.024	137.5
446.245	144.5
446.466	113.5
446.687	90.5
446.908	99.5
447.129	99.5
447.35	70.5
447.571	88.5
447.792	92.5
448.013	90.5
448.234	119.5
448.455	118.5
448.675	112.5
448.896	113.5
449.117	98.5
449.338	102.5
449.559	125.5
449.779	123.5
450	99.5
450.221	89.5
450.442	92.5
450.662	99.5
450.883	102.5
451.104	125.5
451.324	95.5
451.545	87.5
451.766	90.5
451.986	89.5
452.207	87.5
452.428	94.5
452.648	89.5
452.869	113.5
453.089	111.5
453.31	119.5
453.53	95.5
453.751	96.5
453.971	99.5
454.192	110.5
454.412	94.5
454.633	85.5
454.853	77.5
455.073	81.5
455.294	82.5
455.514	97.5
455.734	97.5
455.955	81.5
456.175	83.5
456.395	86.5
456.616	93.5
456.836	68.5
457.056	69.5
457.276	89.5
457.497	89.5
457.717	68.5
457.937	82.5
458.157	92.5
458.377	103.5
458.598	102.5
458.818	131.5
459.038	175.5
459.258	117.5
459.478	90.5
459.698	94.5
459.918	81.5
460.138	86.5
460.358	90.5
460.578	87.5
460.798	90.5
461.018	86.5
461.238	81.5
461.458	88.5
461.678	85.5
461.898	72.5
462.118	78.5
462.338	89.5
462.558	99.5
462.777	82.5
462.997	97.5
463.217	89.5
463.437	100.5
463.657	79.5
463.876	105.5
464.096	77.5
464.316	88.5
464.536	86.5
464.755	82.5
464.975	119.5
465.195	158.5
465.414	150.5
465.634	99.5
465.854	103.5
466.073	96.5
466.293	93.5
466.512	96.5
466.732	78.5
466.951	89.5
467.171	95.5
467.391	91.5
467.61	89.5
467.829	140.5
468.049	295.5
468.268	446.5
468.488	150.5
468.707	100.5
468.927	77.5
469.146	91.5
469.365	82.5
469.585	114.5
469.804	91.5
470.023	106.5
470.243	93.5
470.462	106.5
470.681	108.5
470.901	91.5
471.12	81.5
471.339	87.5
471.558	99.5
471.777	108.5
471.997	199.5
472.216	589.5
472.435	1327.5
472.654	332.5
472.873	127.5
473.092	104.5
473.311	96.5
473.53	89.5
473.749	98.5
473.968	106.5
474.187	114.5
474.406	112.5
474.625	82.5
474.844	110.5
475.063	90.5
475.282	95.5
475.501	91.5
475.72	96.5
475.939	94.5
476.158	70.5
476.377	94.5
476.596	90.5
476.814	79.5
477.033	94.5
477.252	89.5
477.471	90.5
477.69	86.5
477.908	91.5
478.127	70.5
478.346	82.5
478.564	85.5
478.783	104.5
479.002	100.5
479.22	100.5
479.439	106.5
479.658	107.5
479.876	109.5
480.095	106.5
480.313	105.5
480.532	129.5
480.751	172.5
480.969	565.5
481.188	2255.5
481.406	1331.5
481.624	238.5
481.843	109.5
482.061	99.5
482.28	93.5
482.498	80.5
482.717	94.5
482.935	82.5
483.153	103.5
483.372	92.5
483.59	93.5
483.808	97.5
484.027	91.5
484.245	87.5
484.463	92.5
484.681	91.5
484.9	107.5
485.118	100.5
485.336	95.5
485.554	100.5
485.772	103.5
485.99	107.5
486.209	120.5
486.427	96.5
486.645	95.5
486.863	112.5
487.081	114.5
487.299	104.5
487.517	97.5
487.735	105.5
487.953	82.5
488.171	98.5
488.389	103.5
488.607	101.5
488.825	79.5
489.043	97.5
489.261	82.5
489.479	86.5
489.696	76.5
489.914	80.5
490.132	81.5
490.35	102.5
490.568	90.5
490.786	75.5
491.003	90.5
491.221	85.5
491.439	97.5
491.657	89.5
491.874	86.5
492.092	101.5
492.31	80.5
492.527	94.5
492.745	101.5
492.963	91.5
493.18	91.5
493.398	86.5
493.615	95.5
493.833	93.5
494.05	92.5
494.268	91.5
494.485	97.5
494.703	90.5
494.92	70.5
495.138	87.5
495.355	83.5
495.573	99.5
495.79	80.5
496.008	93.5
496.225	91.5
496.442	91.5
496.66	104.5
496.877	78.5
497.094	96.5
497.312	92.5
497.529	102.5
497.746	99.5
497.963	87.5
498.181	98.5
498.398	119.5
498.615	113.5
498.832	119.5
499.049	87.5
499.267	95.5
499.484	95.5
499.701	90.5
499.918	99.5
500.135	93.5
500.352	82.5
500.569	79.5
500.786	97.5
501.003	89.5
501.22	87.5
501.437	101.5
501.654	105.5
501.871	109.5
502.088	92.5
502.305	88.5
502.522	97.5
502.739	87.5
502.956	99.5
503.172	95.5
503.389	101.5
503.606	90.5
503.823	96.5
504.04	105.5
504.256	100.5
504.473	89.5
504.69	75.5
504.907	102.5
505.123	73.5
505.34	96.5
505.557	93.5
505.773	95.5
505.99	89.5
506.207	92.5
506.423	86.5
506.64	86.5
506.856	99.5
507.073	91.5
507.289	89.5
507.506	88.5
507.722	99.5
507.939	104.5
508.155	88.5
508.372	91.5
508.588	95.5
508.805	91.5
509.021	93.5
509.238	89.5
509.454	107.5
509.67	90.5
509.887	114.5
510.103	125.5
510.319	194.5
510.536	689.5
510.752	2210.5
510.968	633.5
511.184	153.5
511.401	102.5
511.617	96.5
511.833	77.5
512.049	97.5
512.265	86.5
512.481	68.5
512.698	81.5
512.914	81.5
513.13	112.5
513.346	81.5
513.562	97.5
513.778	110.5
513.994	94.5
514.21	109.5
514.426	134.5
514.642	134.5
514.858	111.5
515.074	159.5
515.29	444.5
515.506	1500.5
515.721	554.5
515.937	163.5
516.153	113.5
516.369	105.5
516.585	78.5
516.801	75.5
517.016	97.5
517.232	96.5
517.448	96.5
517.664	103.5
517.879	79.5
518.095	103.5
518.311	104.5
518.527	98.5
518.742	83.5
518.958	83.5
519.173	102.5
519.389	93.5
519.605	102.5
519.82	103.5
520.036	107.5
520.251	131.5
520.467	109.5
520.682	99.5
520.898	102.5
521.113	126.5
521.329	148.5
521.544	214.5
521.76	543.5
521.975	2475.5
522.19	1517.5
522.406	333.5
522.621	118.5
522.836	115.5
523.052	87.5
523.267	93.5
523.482	97.5
523.698	97.5
523.913	111.5
524.128	119.5
524.343	82.5
524.559	105.5
524.774	94.5
524.989	99.5
525.204	92.5
525.419	98.5
525.634	91.5
525.849	89.5
526.064	80.5
526.28	85.5
526.495	85.5
526.71	100.5
526.925	87.5
527.14	95.5
527.355	82.5
527.57	85.5
527.785	92.5
527.999	94.5
528.214	85.5
528.429	98.5
528.644	93.5
528.859	93.5
529.074	95.5
529.289	124.5
529.503	191.5
529.718	93.5
529.933	90.5
530.148	87.5
530.363	86.5
530.577	90.5
530.792	92.5
531.007	89.5
531.221	89.5
531.436	80.5
531.651	87.5
531.865	78.5
532.08	86.5
532.295	81.5
532.509	86.5
532.724	103.5
532.938	108.5
533.153	97.5
533.367	88.5
533.582	85.5
533.796	86.5
534.011	88.5
534.225	77.5
534.44	98.5
534.654	87.5
534.868	99.5
535.083	97.5
535.297	82.5
535.511	105.5
535.726	100.5
535.94	110.5
536.154	101.5
536.369	112.5
536.583	95.5
536.797	88.5
537.011	82.5
537.225	93.5
537.44	92.5
537.654	84.5
537.868	83.5
538.082	105.5
538.296	93.5
538.51	101.5
538.724	86.5
538.938	96.5
539.153	105.5
539.367	109.5
539.581	88.5
539.795	103.5
540.009	80.5
540.222	94.5
540.436	77.5
540.65	82.5
540.864	98.5
541.078	100.5
541.292	98.5
541.506	98.5
541.72	93.5
541.934	103.5
542.147	99.5
542.361	82.5
542.575	89.5
542.789	94.5
543.002	95.5
543.216	101.5
543.43	106.5
543.644	89.5
543.857	89.5
544.071	87.5
544.285	81.5
544.498	93.5
544.712	93.5
544.925	88.5
545.139	96.5
545.352	97.5
545.566	95.5
545.779	91.5
545.993	81.5
546.206	87.5
546.42	84.5
546.633	87.5
546.847	94.5
547.06	88.5
547.274	84.5
547.487	85.5
547.7	93.5
547.914	79.5
548.127	79.5
548.34	87.5
548.554	93.5
548.767	101.5
548.98	79.5
549.193	94.5
549.407	82.5
549.62	86.5
549.833	87.5
550.046	94.5
550.259	76.5
550.473	99.5
550.686	87.5
550.899	93.5
551.112	90.5
551.325	88.5
551.538	90.5
551.751	83.5
551.964	83.5
552.177	87.5
552.39	86.5
552.603	86.5
552.816	93.5
553.029	91.5
553.242	106.5
553.455	100.5
553.667	88.5
553.88	113.5
554.093	84.5
554.306	116.5
554.519	102.5
554.732	106.5
554.944	108.5
555.157	97.5
555.37	92.5
555.583	81.5
555.795	99.5
556.008	96.5
556.221	95.5
556.433	108.5
556.646	80.5
556.859	99.5
557.071	92.5
557.284	85.5
557.496	85.5
557.709	90.5
557.921	96.5
558.134	92.5
558.346	79.5
558.559	99.5
558.771	96.5
558.984	83.5
559.196	90.5
559.409	84.5
559.621	87.5
559.833	98.5
560.046	88.5
560.258	83.5
560.47	116.5
560.683	81.5
560.895	92.5
561.107	95.5
561.32	81.5
561.532	105.5
561.744	87.5
561.956	76.5
562.168	89.5
562.381	92.5
562.593	77.5
562.805	99.5
563.017	82.5
563.229	93.5
563.441	84.5
563.653	87.5
563.865	93.5
564.077	96.5
564.289	89.5
564.501	84.5
564.713	92.5
564.925	90.5
565.137	104.5
565.349	95.5
565.561	104.5
565.773	94.5
565.985	77.5
566.197	83.5
566.408	85.5
566.62	88.5
566.832	77.5
567.044	96.5
567.255	86.5
567.467	90.5
567.679	97.5
567.891	72.5
568.102	88.5
568.314	87.5
568.526	93.5
568.737	82.5
568.949	98.5
569.161	91.5
569.372	94.5
569.584	91.5
569.795	82.5
570.007	102.5
570.218	231.5
570.43	134.5
570.641	86.5
570.853	79.5
571.064	91.5
571.276	80.5
571.487	81.5
571.698	89.5
571.91	91.5
572.121	91.5
572.333	76.5
572.544	78.5
572.755	83.5
572.966	77.5
573.178	92.5
573.389	95.5
573.6	87.5
573.811	93.5
574.023	94.5
574.234	92.5
574.445	77.5
574.656	104.5
574.867	93.5
575.078	79.5
575.289	97.5
575.501	96.5
575.712	82.5
575.923	82.5
576.134	82.5
576.345	85.5
576.556	85.5
576.767	83.5
576.978	101.5
577.188	97.5
577.399	92.5
577.61	85.5
577.821	97.5
578.032	100.5
578.243	241.5
578.454	683.5
578.665	189.5
578.875	89.5
579.086	103.5
579.297	98.5
579.508	77.5
579.718	97.5
579.929	76.5
580.14	78.5
580.35	69.5
580.561	87.5
580.772	81.5
580.982	89.5
581.193	78.5
581.403	88.5
581.614	86.5
581.825	81.5
582.035	87.5
582.246	83.5
582.456	87.5
582.667	98.5
582.877	77.5
583.087	90.5
583.298	93.5
583.508	74.5
583.719	87.5
583.929	104.5
584.139	94.5
584.35	85.5
584.56	81.5
584.77	87.5
584.981	78.5
585.191	92.5
585.401	90.5
585.611	90.5
585.821	97.5
586.032	76.5
586.242	93.5
586.452	78.5
586.662	79.5
586.872	95.5
587.082	79.5
587.292	82.5
587.502	99.5
587.713	69.5
587.923	86.5
588.133	98.5
588.343	97.5
588.553	90.5
588.762	97.5
588.972	96.5
589.182	127.5
589.392	102.5
589.602	104.5
589.812	109.5
590.022	89.5
590.232	73.5
590.441	76.5
590.651	90.5
590.861	81.5
591.071	89.5
591.281	83.5
591.49	76.5
591.7	81.5
591.91	78.5
592.119	89.5
592.329	83.5
592.539	90.5
592.748	80.5
592.958	100.5
593.167	73.5
593.377	82.5
593.587	95.5
593.796	85.5
594.006	76.5
594.215	86.5
594.424	97.5
594.634	79.5
594.843	77.5
595.053	82.5
595.262	87.5
595.472	80.5
595.681	79.5
595.89	97.5
596.1	79.5
596.309	70.5
596.518	84.5
596.727	89.5
596.937	83.5
597.146	83.5
597.355	97.5
597.564	78.5
597.774	90.5
597.983	83.5
598.192	86.5
598.401	72.5
598.61	99.5
598.819	73.5
599.028	95.5
599.237	97.5
599.446	83.5
599.655	83.5
599.864	89.5
600.073	88.5
600.282	85.5
600.491	83.5
600.7	85.5
600.909	83.5
601.118	92.5
601.327	78.5
601.536	87.5
601.745	80.5
601.953	83.5
602.162	75.5
602.371	85.5
602.58	90.5
602.789	80.5
602.997	70.5
603.206	75.5
603.415	91.5
603.623	78.5
603.832	81.5
604.041	96.5
604.249	86.5
604.458	92.5
604.666	96.5
604.875	70.5
605.084	84.5
605.292	93.5
605.501	79.5
605.709	83.5
605.918	84.5
606.126	96.5
606.334	87.5
606.543	73.5
606.751	93.5
606.96	95.5
607.168	84.5
607.376	95.5
607.585	79.5
607.793	85.5
608.001	80.5
608.21	74.5
608.418	85.5
608.626	80.5
608.834	94.5
609.043	78.5
609.251	78.5
609.459	78.5
609.667	79.5
609.875	78.5
610.083	86.5
610.291	90.5
610.499	73.5
610.707	85.5
610.916	86.5
611.124	71.5
611.332	95.5
611.54	76.5
611.748	80.5
611.955	92.5
612.163	92.5
612.371	92.5
612.579	88.5
612.787	82.5
612.995	90.5
613.203	85.5
613.411	74.5
613.618	98.5
613.826	88.5
614.034	82.5
614.242	81.5
614.449	77.5
614.657	91.5
614.865	97.5
615.072	106.5
615.28	81.5
615.488	95.5
615.695	99.5
615.903	93.5
616.111	80.5
616.318	100.5
616.526	93.5
616.733	95.5
616.941	93.5
617.148	94.5
617.356	80.5
617.563	76.5
617.771	79.5
617.978	78.5
618.185	75.5
618.393	85.5
618.6	85.5
618.807	82.5
619.015	80.5
619.222	81.5
619.429	93.5
619.637	79.5
619.844	77.5
620.051	83.5
620.258	75.5
620.466	79.5
620.673	85.5
620.88	89.5
621.087	80.5
621.294	76.5
621.501	98.5
621.708	99.5
621.915	82.5
622.122	80.5
622.329	80.5
622.536	87.5
622.743	82.5
622.95	87.5
623.157	94.5
623.364	86.5
623.571	78.5
623.778	79.5
623.985	85.5
624.192	87.5
624.399	83.5
624.606	86.5
624.812	95.5
625.019	81.5
625.226	74.5
625.433	86.5
625.639	86.5
625.846	85.5
626.053	75.5
626.259	90.5
626.466	82.5
626.673	82.5
626.879	86.5
627.086	97.5
627.293	85.5
627.499	77.5
627.706	95.5
627.912	91.5
628.119	95.5
628.325	83.5
628.532	107.5
628.738	85.5
628.945	93.5
629.151	76.5
629.357	83.5
629.564	100.5
629.77	81.5
629.976	92.5
630.183	87.5
630.389	75.5
630.595	92.5
630.802	85.5
631.008	93.5
631.214	78.5
631.42	85.5
631.627	90.5
631.833	72.5
632.039	91.5
632.245	88.5
632.451	89.5
632.657	77.5
632.863	81.5
633.069	79.5
633.275	81.5
633.481	84.5
633.688	85.5
633.893	101.5
634.099	86.5
634.305	83.5
634.511	88.5
634.717	92.5
634.923	77.5
635.129	74.5
635.335	87.5
635.541	83.5
635.747	84.5
635.952	91.5
636.158	111.5
636.364	214.5
636.57	176.5
636.775	99.5
636.981	84.5
637.187	84.5
637.392	92.5
637.598	87.5
637.804	90.5
638.009	83.5
638.215	79.5
638.421	83.5
638.626	79.5
638.832	83.5
639.037	85.5
639.243	80.5
639.448	80.5
639.654	84.5
639.859	85.5
640.065	82.5
640.27	82.5
640.475	93.5
640.681	81.5
640.886	89.5
641.091	74.5
641.297	80.5
641.502	92.5
641.707	76.5
641.913	76.5
642.118	89.5
642.323	76.5
642.528	86.5
642.733	101.5
642.939	83.5
643.144	89.5
643.349	77.5
643.554	87.5
643.759	73.5
643.964	94.5
644.169	87.5
644.374	84.5
644.579	75.5
644.784	76.5
644.989	84.5
645.194	93.5
645.399	94.5
645.604	75.5
645.809	92.5
646.014	89.5
646.219	85.5
646.423	95.5
646.628	94.5
646.833	74.5
647.038	91.5
647.243	108.5
647.447	85.5
647.652	90.5
647.857	83.5
648.062	91.5
648.266	86.5
648.471	79.5
648.676	99.5
648.88	91.5
649.085	87.5
649.289	102.5
649.494	100.5
649.698	121.5
649.903	103.5
650.107	89.5
650.312	91.5
650.516	81.5
650.721	68.5
650.925	75.5
651.13	85.5
651.334	86.5
651.539	85.5
651.743	97.5
651.947	84.5
652.152	83.5
652.356	74.5
652.56	75.5
652.764	83.5
652.969	90.5
653.173	83.5
653.377	93.5
653.581	84.5
653.785	77.5
653.99	87.5
654.194	81.5
654.398	74.5
654.602	79.5
654.806	66.5
655.01	105.5
655.214	96.5
655.418	91.5
655.622	89.5
655.826	91.5
656.03	95.5
656.234	83.5
656.438	100.5
656.642	121.5
656.846	92.5
657.049	85.5
657.253	104.5
657.457	89.5
657.661	69.5
657.865	81.5
658.068	82.5
658.272	89.5
658.476	93.5
658.68	76.5
658.883	82.5
659.087	81.5
659.291	89.5
659.494	83.5
659.698	81.5
659.901	94.5
660.105	83.5
660.309	73.5
660.512	77.5
660.716	79.5
660.919	74.5
661.123	84.5
661.326	85.5
661.53	77.5
661.733	95.5
661.936	76.5
662.14	84.5
662.343	74.5
662.546	84.5
662.75	82.5
662.953	75.5
663.156	66.5
663.36	82.5
663.563	76.5
663.766	77.5
663.969	68.5
664.173	85.5
664.376	85.5
664.579	77.5
664.782	78.5
664.985	70.5
665.188	66.5
665.391	81.5
665.594	86.5
665.797	98.5
666	67.5
666.203	82.5
666.406	73.5
666.609	88.5
666.812	64.5
667.015	84.5
667.218	74.5
667.421	75.5
667.624	86.5
667.827	90.5
668.03	88.5
668.232	69.5
668.435	71.5
668.638	83.5
668.841	69.5
669.043	93.5
669.246	86.5
669.449	90.5
669.651	74.5
669.854	69.5
670.057	87.5
670.259	70.5
670.462	78.5
670.665	79.5
670.867	86.5
671.07	89.5
671.272	106.5
671.475	83.5
671.677	82.5
671.88	84.5
672.082	77.5
672.284	89.5
672.487	88.5
672.689	76.5
672.892	81.5
