Data from Circ_1992_H10_HRD10591_00011.txt Node
Date: Wed Jan 03 11:47:47 EST 2024
User: Yrep
Spectrometer: HR+D1059
Trigger mode: 1
Integration Time (sec): 1.000000E-1
Scans to average: 1
Electric dark correction enabled: true
Nonlinearity correction enabled: false
Boxcar width: 0
XAxis mode: Wavelengths
Number of Pixels in Spectrum: 2048
>>>>>Begin Spectral Data<<<<<
223.165	-9.31
223.4	-9.31
223.635	-9.31
223.869	-18.31
224.104	-9.31
224.338	-13.31
224.573	-4.31
224.808	-9.31
225.042	-18.31
225.277	-2.31
225.511	-10.31
225.746	-18.31
225.98	0.69
226.215	5.69
226.449	23.69
226.683	15.69
226.918	40.69
227.152	26.69
227.387	35.69
227.621	38.69
227.856	56.69
228.09	42.69
228.324	64.69
228.559	67.69
228.793	59.69
229.027	70.69
229.262	86.69
229.496	61.69
229.73	84.69
229.964	82.69
230.199	75.69
230.433	88.69
230.667	76.69
230.901	81.69
231.136	90.69
231.37	102.69
231.604	76.69
231.838	88.69
232.072	82.69
232.306	92.69
232.541	78.69
232.775	84.69
233.009	79.69
233.243	87.69
233.477	83.69
233.711	82.69
233.945	94.69
234.179	83.69
234.413	83.69
234.647	80.69
234.881	91.69
235.115	94.69
235.349	91.69
235.583	85.69
235.817	81.69
236.051	69.69
236.285	80.69
236.519	82.69
236.753	74.69
236.987	86.69
237.221	85.69
237.455	87.69
237.689	79.69
237.922	81.69
238.156	85.69
238.39	71.69
238.624	71.69
238.858	83.69
239.091	85.69
239.325	83.69
239.559	92.69
239.793	77.69
240.027	76.69
240.26	67.69
240.494	83.69
240.728	85.69
240.961	84.69
241.195	86.69
241.429	76.69
241.662	85.69
241.896	80.69
242.13	87.69
242.363	81.69
242.597	76.69
242.83	79.69
243.064	75.69
243.298	85.69
243.531	73.69
243.765	57.69
243.998	82.69
244.232	90.69
244.465	84.69
244.699	80.69
244.932	83.69
245.166	69.69
245.399	80.69
245.633	79.69
245.866	76.69
246.099	84.69
246.333	69.69
246.566	73.69
246.8	81.69
247.033	76.69
247.266	86.69
247.5	75.69
247.733	93.69
247.966	83.69
248.2	86.69
248.433	83.69
248.666	79.69
248.899	82.69
249.133	90.69
249.366	90.69
249.599	91.69
249.832	80.69
250.066	88.69
250.299	83.69
250.532	91.69
250.765	103.69
250.998	77.69
251.231	81.69
251.465	89.69
251.698	70.69
251.931	88.69
252.164	92.69
252.397	76.69
252.63	91.69
252.863	81.69
253.096	90.69
253.329	93.69
253.562	92.69
253.795	100.69
254.028	93.69
254.261	86.69
254.494	76.69
254.727	79.69
254.96	87.69
255.193	87.69
255.426	72.69
255.659	73.69
255.892	86.69
256.124	85.69
256.357	75.69
256.59	100.69
256.823	83.69
257.056	90.69
257.289	82.69
257.521	85.69
257.754	91.69
257.987	86.69
258.22	96.69
258.452	83.69
258.685	80.69
258.918	79.69
259.151	78.69
259.383	84.69
259.616	99.69
259.849	77.69
260.081	76.69
260.314	83.69
260.547	90.69
260.779	80.69
261.012	94.69
261.244	97.69
261.477	70.69
261.71	87.69
261.942	98.69
262.175	116.69
262.407	93.69
262.64	88.69
262.872	99.69
263.105	96.69
263.337	94.69
263.57	83.69
263.802	102.69
264.035	81.69
264.267	60.69
264.499	78.69
264.732	87.69
264.964	93.69
265.197	80.69
265.429	94.69
265.661	94.69
265.894	93.69
266.126	81.69
266.358	78.69
266.591	80.69
266.823	82.69
267.055	83.69
267.287	88.69
267.52	92.69
267.752	89.69
267.984	76.69
268.216	83.69
268.448	87.69
268.681	81.69
268.913	83.69
269.145	105.69
269.377	85.69
269.609	79.69
269.841	96.69
270.073	96.69
270.306	81.69
270.538	93.69
270.77	72.69
271.002	91.69
271.234	76.69
271.466	79.69
271.698	80.69
271.93	89.69
272.162	103.69
272.394	95.69
272.626	91.69
272.858	66.69
273.09	97.69
273.322	81.69
273.553	79.69
273.785	81.69
274.017	78.69
274.249	87.69
274.481	84.69
274.713	87.69
274.945	86.69
275.176	94.69
275.408	99.69
275.64	78.69
275.872	86.69
276.104	92.69
276.335	94.69
276.567	96.69
276.799	124.69
277.031	110.69
277.262	102.69
277.494	99.69
277.726	96.69
277.957	84.69
278.189	104.69
278.421	87.69
278.652	93.69
278.884	94.69
279.115	85.69
279.347	87.69
279.579	94.69
279.81	95.69
280.042	110.69
280.273	124.69
280.505	105.69
280.736	104.69
280.968	98.69
281.199	94.69
281.431	89.69
281.662	94.69
281.894	88.69
282.125	102.69
282.356	119.69
282.588	135.69
282.819	109.69
283.051	101.69
283.282	86.69
283.513	102.69
283.745	83.69
283.976	79.69
284.207	86.69
284.439	86.69
284.67	91.69
284.901	92.69
285.132	94.69
285.364	85.69
285.595	79.69
285.826	95.69
286.057	94.69
286.288	81.69
286.52	86.69
286.751	89.69
286.982	82.69
287.213	88.69
287.444	83.69
287.675	97.69
287.906	85.69
288.138	91.69
288.369	94.69
288.6	106.69
288.831	91.69
289.062	89.69
289.293	95.69
289.524	87.69
289.755	80.69
289.986	81.69
290.217	97.69
290.448	91.69
290.679	103.69
290.91	91.69
291.141	83.69
291.371	80.69
291.602	96.69
291.833	77.69
292.064	76.69
292.295	94.69
292.526	94.69
292.757	105.69
292.987	92.69
293.218	78.69
293.449	89.69
293.68	101.69
293.91	79.69
294.141	97.69
294.372	72.69
294.603	93.69
294.833	87.69
295.064	88.69
295.295	85.69
295.525	99.69
295.756	99.69
295.987	120.69
296.217	125.69
296.448	105.69
296.679	83.69
296.909	91.69
297.14	84.69
297.37	81.69
297.601	78.69
297.831	100.69
298.062	87.69
298.292	95.69
298.523	89.69
298.753	84.69
298.984	86.69
299.214	89.69
299.445	94.69
299.675	87.69
299.905	100.69
300.136	99.69
300.366	104.69
300.597	101.69
300.827	87.69
301.057	107.69
301.288	97.69
301.518	88.69
301.748	98.69
301.979	111.69
302.209	97.69
302.439	91.69
302.669	91.69
302.9	92.69
303.13	100.69
303.36	102.69
303.59	98.69
303.82	114.69
304.051	104.69
304.281	99.69
304.511	103.69
304.741	93.69
304.971	84.69
305.201	87.69
305.431	97.69
305.661	97.69
305.891	101.69
306.121	98.69
306.352	109.69
306.582	102.69
306.812	107.69
307.042	104.69
307.272	91.69
307.502	106.69
307.731	99.69
307.961	86.69
308.191	104.69
308.421	101.69
308.651	99.69
308.881	101.69
309.111	107.69
309.341	86.69
309.571	99.69
309.8	109.69
310.03	95.69
310.26	85.69
310.49	93.69
310.72	99.69
310.949	113.69
311.179	104.69
311.409	92.69
311.639	108.69
311.868	101.69
312.098	93.69
312.328	109.69
312.557	119.69
312.787	109.69
313.017	113.69
313.246	96.69
313.476	86.69
313.706	92.69
313.935	91.69
314.165	102.69
314.394	103.69
314.624	112.69
314.853	98.69
315.083	97.69
315.312	93.69
315.542	85.69
315.771	94.69
316.001	97.69
316.23	83.69
316.46	93.69
316.689	105.69
316.919	77.69
317.148	97.69
317.377	93.69
317.607	89.69
317.836	93.69
318.065	86.69
318.295	91.69
318.524	100.69
318.753	99.69
318.983	103.69
319.212	105.69
319.441	101.69
319.67	102.69
319.9	92.69
320.129	93.69
320.358	100.69
320.587	94.69
320.816	109.69
321.046	98.69
321.275	100.69
321.504	97.69
321.733	94.69
321.962	102.69
322.191	99.69
322.42	103.69
322.649	99.69
322.878	124.69
323.108	120.69
323.337	114.69
323.566	123.69
323.795	145.69
324.024	190.69
324.253	361.69
324.482	784.69
324.71	1555.69
324.939	2054.69
325.168	764.69
325.397	227.69
325.626	146.69
325.855	123.69
326.084	130.69
326.313	131.69
326.542	155.69
326.77	215.69
326.999	436.69
327.228	861.69
327.457	1567.69
327.686	1286.69
327.914	364.69
328.143	254.69
328.372	246.69
328.6	167.69
328.829	134.69
329.058	120.69
329.287	130.69
329.515	127.69
329.744	137.69
329.972	172.69
330.201	273.69
330.43	382.69
330.658	226.69
330.887	169.69
331.115	141.69
331.344	111.69
331.572	116.69
331.801	102.69
332.03	109.69
332.258	103.69
332.486	103.69
332.715	99.69
332.943	108.69
333.172	94.69
333.4	117.69
333.629	119.69
333.857	136.69
334.085	177.69
334.314	260.69
334.542	449.69
334.771	461.69
334.999	169.69
335.227	113.69
335.455	108.69
335.684	94.69
335.912	84.69
336.14	108.69
336.369	103.69
336.597	103.69
336.825	100.69
337.053	103.69
337.281	96.69
337.51	103.69
337.738	98.69
337.966	100.69
338.194	105.69
338.422	96.69
338.65	86.69
338.878	97.69
339.106	91.69
339.334	107.69
339.562	93.69
339.79	102.69
340.018	96.69
340.246	94.69
340.474	93.69
340.702	89.69
340.93	95.69
341.158	92.69
341.386	85.69
341.614	103.69
341.842	103.69
342.07	97.69
342.298	96.69
342.526	88.69
342.754	85.69
342.981	101.69
343.209	101.69
343.437	95.69
343.665	88.69
343.893	95.69
344.12	114.69
344.348	90.69
344.576	89.69
344.804	105.69
345.031	100.69
345.259	109.69
345.487	85.69
345.714	89.69
345.942	89.69
346.17	100.69
346.397	95.69
346.625	93.69
346.853	88.69
347.08	101.69
347.308	89.69
347.535	100.69
347.763	84.69
347.99	108.69
348.218	101.69
348.445	96.69
348.673	118.69
348.9	89.69
349.128	112.69
349.355	92.69
349.583	90.69
349.81	94.69
350.037	82.69
350.265	104.69
350.492	100.69
350.72	114.69
350.947	98.69
351.174	126.69
351.402	111.69
351.629	113.69
351.856	93.69
352.083	105.69
352.311	110.69
352.538	127.69
352.765	109.69
352.992	115.69
353.22	108.69
353.447	96.69
353.674	96.69
353.901	103.69
354.128	105.69
354.355	94.69
354.583	99.69
354.81	116.69
355.037	103.69
355.264	100.69
355.491	101.69
355.718	90.69
355.945	101.69
356.172	99.69
356.399	93.69
356.626	118.69
356.853	87.69
357.08	99.69
357.307	101.69
357.534	84.69
357.761	103.69
357.988	103.69
358.215	116.69
358.441	102.69
358.668	104.69
358.895	102.69
359.122	99.69
359.349	102.69
359.576	101.69
359.802	93.69
360.029	104.69
360.256	103.69
360.483	98.69
360.709	97.69
360.936	93.69
361.163	100.69
361.39	101.69
361.616	101.69
361.843	85.69
362.07	87.69
362.296	95.69
362.523	88.69
362.749	92.69
362.976	96.69
363.203	91.69
363.429	85.69
363.656	94.69
363.882	92.69
364.109	89.69
364.335	102.69
364.562	105.69
364.788	91.69
365.015	91.69
365.241	97.69
365.468	103.69
365.694	114.69
365.92	101.69
366.147	115.69
366.373	105.69
366.599	102.69
366.826	82.69
367.052	97.69
367.278	86.69
367.505	110.69
367.731	111.69
367.957	89.69
368.184	96.69
368.41	99.69
368.636	113.69
368.862	116.69
369.089	86.69
369.315	100.69
369.541	86.69
369.767	89.69
369.993	94.69
370.219	92.69
370.445	86.69
370.672	87.69
370.898	80.69
371.124	101.69
371.35	104.69
371.576	90.69
371.802	88.69
372.028	82.69
372.254	99.69
372.48	79.69
372.706	81.69
372.932	90.69
373.158	99.69
373.384	83.69
373.61	93.69
373.835	82.69
374.061	97.69
374.287	92.69
374.513	100.69
374.739	84.69
374.965	94.69
375.191	89.69
375.416	88.69
375.642	83.69
375.868	89.69
376.094	94.69
376.319	94.69
376.545	98.69
376.771	116.69
376.997	105.69
377.222	75.69
377.448	97.69
377.674	90.69
377.899	99.69
378.125	100.69
378.35	94.69
378.576	81.69
378.802	87.69
379.027	82.69
379.253	109.69
379.478	105.69
379.704	107.69
379.929	102.69
380.155	113.69
380.38	129.69
380.606	103.69
380.831	119.69
381.057	116.69
381.282	103.69
381.507	102.69
381.733	106.69
381.958	120.69
382.184	118.69
382.409	122.69
382.634	111.69
382.86	110.69
383.085	105.69
383.31	119.69
383.535	127.69
383.761	114.69
383.986	117.69
384.211	111.69
384.436	119.69
384.662	125.69
384.887	122.69
385.112	127.69
385.337	128.69
385.562	132.69
385.787	128.69
386.013	126.69
386.238	146.69
386.463	132.69
386.688	126.69
386.913	121.69
387.138	152.69
387.363	108.69
387.588	125.69
387.813	112.69
388.038	136.69
388.263	163.69
388.488	148.69
388.713	104.69
388.938	114.69
389.163	102.69
389.387	84.69
389.612	99.69
389.837	108.69
390.062	95.69
390.287	99.69
390.512	89.69
390.736	89.69
390.961	79.69
391.186	101.69
391.411	96.69
391.636	91.69
391.86	94.69
392.085	92.69
392.31	78.69
392.534	98.69
392.759	85.69
392.984	78.69
393.208	91.69
393.433	95.69
393.658	85.69
393.882	89.69
394.107	86.69
394.331	105.69
394.556	93.69
394.78	100.69
395.005	81.69
395.229	89.69
395.454	85.69
395.678	95.69
395.903	84.69
396.127	87.69
396.352	93.69
396.576	89.69
396.801	83.69
397.025	78.69
397.249	85.69
397.474	88.69
397.698	87.69
397.922	85.69
398.147	108.69
398.371	87.69
398.595	83.69
398.82	95.69
399.044	95.69
399.268	92.69
399.492	92.69
399.717	102.69
399.941	87.69
400.165	95.69
400.389	85.69
400.613	73.69
400.837	80.69
401.062	93.69
401.286	86.69
401.51	79.69
401.734	96.69
401.958	115.69
402.182	115.69
402.406	157.69
402.63	111.69
402.854	98.69
403.078	105.69
403.302	88.69
403.526	83.69
403.75	90.69
403.974	101.69
404.198	104.69
404.422	87.69
404.645	82.69
404.869	95.69
405.093	106.69
405.317	118.69
405.541	105.69
405.765	116.69
405.988	111.69
406.212	161.69
406.436	207.69
406.66	136.69
406.883	110.69
407.107	97.69
407.331	96.69
407.555	117.69
407.778	112.69
408.002	85.69
408.226	101.69
408.449	93.69
408.673	69.69
408.896	88.69
409.12	109.69
409.344	93.69
409.567	89.69
409.791	97.69
410.014	103.69
410.238	94.69
410.461	91.69
410.685	96.69
410.908	88.69
411.132	109.69
411.355	110.69
411.578	102.69
411.802	88.69
412.025	87.69
412.249	101.69
412.472	99.69
412.695	99.69
412.919	87.69
413.142	97.69
413.365	95.69
413.589	73.69
413.812	100.69
414.035	82.69
414.258	96.69
414.482	109.69
414.705	89.69
414.928	79.69
415.151	95.69
415.374	103.69
415.597	100.69
415.821	85.69
416.044	85.69
416.267	91.69
416.49	96.69
416.713	105.69
416.936	103.69
417.159	83.69
417.382	95.69
417.605	109.69
417.828	101.69
418.051	80.69
418.274	77.69
418.497	97.69
418.72	91.69
418.943	88.69
419.166	93.69
419.389	84.69
419.611	92.69
419.834	80.69
420.057	94.69
420.28	84.69
420.503	104.69
420.726	91.69
420.948	111.69
421.171	95.69
421.394	100.69
421.617	110.69
421.839	77.69
422.062	91.69
422.285	103.69
422.507	101.69
422.73	110.69
422.953	91.69
423.175	89.69
423.398	98.69
423.621	87.69
423.843	92.69
424.066	88.69
424.288	80.69
424.511	90.69
424.733	99.69
424.956	101.69
425.178	104.69
425.401	101.69
425.623	103.69
425.846	92.69
426.068	89.69
426.291	92.69
426.513	99.69
426.735	94.69
426.958	91.69
427.18	116.69
427.402	136.69
427.625	172.69
427.847	151.69
428.069	151.69
428.292	91.69
428.514	96.69
428.736	100.69
428.958	86.69
429.181	91.69
429.403	89.69
429.625	86.69
429.847	96.69
430.069	83.69
430.292	99.69
430.514	93.69
430.736	100.69
430.958	82.69
431.18	84.69
431.402	94.69
431.624	95.69
431.846	89.69
432.068	68.69
432.29	73.69
432.512	92.69
432.734	87.69
432.956	100.69
433.178	111.69
433.4	99.69
433.622	95.69
433.844	89.69
434.066	109.69
434.287	83.69
434.509	79.69
434.731	80.69
434.953	111.69
435.175	89.69
435.397	78.69
435.618	92.69
435.84	108.69
436.062	128.69
436.284	115.69
436.505	102.69
436.727	95.69
436.949	84.69
437.17	88.69
437.392	88.69
437.614	104.69
437.835	103.69
438.057	115.69
438.278	117.69
438.5	115.69
438.721	124.69
438.943	121.69
439.165	92.69
439.386	80.69
439.608	89.69
439.829	113.69
440.05	110.69
440.272	139.69
440.493	102.69
440.715	81.69
440.936	96.69
441.158	108.69
441.379	83.69
441.6	97.69
441.822	99.69
442.043	110.69
442.264	118.69
442.486	99.69
442.707	94.69
442.928	109.69
443.149	127.69
443.371	143.69
443.592	103.69
443.813	109.69
444.034	109.69
444.255	88.69
444.476	87.69
444.698	101.69
444.919	94.69
445.14	116.69
445.361	129.69
445.582	127.69
445.803	151.69
446.024	143.69
446.245	131.69
446.466	102.69
446.687	87.69
446.908	101.69
447.129	88.69
447.35	87.69
447.571	90.69
447.792	84.69
448.013	99.69
448.234	96.69
448.455	104.69
448.675	105.69
448.896	115.69
449.117	94.69
449.338	102.69
449.559	136.69
449.779	137.69
450	98.69
450.221	83.69
450.442	86.69
450.662	101.69
450.883	117.69
451.104	111.69
451.324	99.69
451.545	90.69
451.766	87.69
451.986	89.69
452.207	94.69
452.428	110.69
452.648	111.69
452.869	119.69
453.089	103.69
453.31	111.69
453.53	90.69
453.751	93.69
453.971	79.69
454.192	114.69
454.412	98.69
454.633	94.69
454.853	87.69
455.073	92.69
455.294	92.69
455.514	113.69
455.734	94.69
455.955	86.69
456.175	82.69
456.395	89.69
456.616	89.69
456.836	81.69
457.056	87.69
457.276	95.69
457.497	80.69
457.717	76.69
457.937	95.69
458.157	99.69
458.377	86.69
458.598	105.69
458.818	148.69
459.038	169.69
459.258	101.69
459.478	89.69
459.698	93.69
459.918	86.69
460.138	86.69
460.358	97.69
460.578	92.69
460.798	94.69
461.018	103.69
461.238	88.69
461.458	96.69
461.678	90.69
461.898	104.69
462.118	101.69
462.338	85.69
462.558	82.69
462.777	93.69
462.997	98.69
463.217	85.69
463.437	95.69
463.657	91.69
463.876	94.69
464.096	96.69
464.316	78.69
464.536	93.69
464.755	92.69
464.975	101.69
465.195	150.69
465.414	158.69
465.634	99.69
465.854	81.69
466.073	83.69
466.293	89.69
466.512	91.69
466.732	85.69
466.951	88.69
467.171	93.69
467.391	92.69
467.61	109.69
467.829	120.69
468.049	180.69
468.268	241.69
468.488	116.69
468.707	83.69
468.927	89.69
469.146	83.69
469.365	97.69
469.585	88.69
469.804	91.69
470.023	104.69
470.243	86.69
470.462	92.69
470.681	99.69
470.901	102.69
471.12	102.69
471.339	87.69
471.558	88.69
471.777	113.69
471.997	131.69
472.216	310.69
472.435	602.69
472.654	204.69
472.873	109.69
473.092	88.69
473.311	93.69
473.53	87.69
473.749	98.69
473.968	115.69
474.187	107.69
474.406	99.69
474.625	100.69
474.844	102.69
475.063	92.69
475.282	84.69
475.501	84.69
475.72	88.69
475.939	95.69
476.158	86.69
476.377	102.69
476.596	85.69
476.814	100.69
477.033	108.69
477.252	87.69
477.471	97.69
477.69	107.69
477.908	84.69
478.127	97.69
478.346	75.69
478.564	80.69
478.783	100.69
479.002	109.69
479.22	102.69
479.439	103.69
479.658	99.69
479.876	91.69
480.095	92.69
480.313	113.69
480.532	112.69
480.751	129.69
480.969	306.69
481.188	1032.69
481.406	648.69
481.624	160.69
481.843	92.69
482.061	85.69
482.28	93.69
482.498	85.69
482.717	79.69
482.935	79.69
483.153	97.69
483.372	90.69
483.59	96.69
483.808	89.69
484.027	97.69
484.245	100.69
484.463	90.69
484.681	105.69
484.9	97.69
485.118	101.69
485.336	94.69
485.554	87.69
485.772	96.69
485.99	100.69
486.209	101.69
486.427	103.69
486.645	107.69
486.863	126.69
487.081	108.69
487.299	93.69
487.517	78.69
487.735	84.69
487.953	97.69
488.171	90.69
488.389	97.69
488.607	104.69
488.825	97.69
489.043	93.69
489.261	94.69
489.479	95.69
489.696	94.69
489.914	93.69
490.132	87.69
490.35	101.69
490.568	88.69
490.786	101.69
491.003	87.69
491.221	86.69
491.439	84.69
491.657	100.69
491.874	96.69
492.092	87.69
492.31	105.69
492.527	84.69
492.745	91.69
492.963	97.69
493.18	85.69
493.398	94.69
493.615	91.69
493.833	86.69
494.05	75.69
494.268	95.69
494.485	89.69
494.703	92.69
494.92	93.69
495.138	97.69
495.355	102.69
495.573	88.69
495.79	92.69
496.008	95.69
496.225	93.69
496.442	84.69
496.66	90.69
496.877	94.69
497.094	84.69
497.312	91.69
497.529	99.69
497.746	88.69
497.963	92.69
498.181	93.69
498.398	97.69
498.615	109.69
498.832	105.69
499.049	87.69
499.267	87.69
499.484	91.69
499.701	90.69
499.918	100.69
500.135	91.69
500.352	91.69
500.569	103.69
500.786	88.69
501.003	87.69
501.22	98.69
501.437	84.69
501.654	102.69
501.871	102.69
502.088	96.69
502.305	70.69
502.522	100.69
502.739	98.69
502.956	84.69
503.172	88.69
503.389	99.69
503.606	98.69
503.823	91.69
504.04	97.69
504.256	89.69
504.473	99.69
504.69	105.69
504.907	95.69
505.123	70.69
505.34	73.69
505.557	77.69
505.773	92.69
505.99	78.69
506.207	94.69
506.423	88.69
506.64	103.69
506.856	90.69
507.073	76.69
507.289	99.69
507.506	88.69
507.722	115.69
507.939	106.69
508.155	93.69
508.372	99.69
508.588	87.69
508.805	97.69
509.021	103.69
509.238	92.69
509.454	99.69
509.67	95.69
509.887	110.69
510.103	143.69
510.319	198.69
510.536	679.69
510.752	2155.69
510.968	587.69
511.184	142.69
511.401	117.69
511.617	104.69
511.833	91.69
512.049	95.69
512.265	97.69
512.481	84.69
512.698	87.69
512.914	99.69
513.13	81.69
513.346	97.69
513.562	107.69
513.778	93.69
513.994	90.69
514.21	105.69
514.426	117.69
514.642	121.69
514.858	122.69
515.074	179.69
515.29	412.69
515.506	1357.69
515.721	514.69
515.937	151.69
516.153	106.69
516.369	95.69
516.585	90.69
516.801	86.69
517.016	96.69
517.232	93.69
517.448	104.69
517.664	88.69
517.879	103.69
518.095	99.69
518.311	100.69
518.527	100.69
518.742	96.69
518.958	101.69
519.173	95.69
519.389	88.69
519.605	93.69
519.82	119.69
520.036	96.69
520.251	112.69
520.467	108.69
520.682	97.69
520.898	95.69
521.113	107.69
521.329	133.69
521.544	199.69
521.76	519.69
521.975	2287.69
522.19	1381.69
522.406	291.69
522.621	117.69
522.836	119.69
523.052	108.69
523.267	105.69
523.482	93.69
523.698	109.69
523.913	117.69
524.128	103.69
524.343	95.69
524.559	92.69
524.774	103.69
524.989	97.69
525.204	98.69
525.419	115.69
525.634	85.69
525.849	95.69
526.064	94.69
526.28	106.69
526.495	84.69
526.71	81.69
526.925	88.69
527.14	103.69
527.355	86.69
527.57	80.69
527.785	86.69
527.999	89.69
528.214	93.69
528.429	99.69
528.644	104.69
528.859	109.69
529.074	89.69
529.289	131.69
529.503	167.69
529.718	96.69
529.933	83.69
530.148	81.69
530.363	81.69
530.577	97.69
530.792	73.69
531.007	98.69
531.221	92.69
531.436	99.69
531.651	79.69
531.865	112.69
532.08	96.69
532.295	86.69
532.509	94.69
532.724	95.69
532.938	109.69
533.153	104.69
533.367	103.69
533.582	103.69
533.796	87.69
534.011	91.69
534.225	108.69
534.44	84.69
534.654	97.69
534.868	93.69
535.083	88.69
535.297	95.69
535.511	93.69
535.726	99.69
535.94	94.69
536.154	79.69
536.369	95.69
536.583	108.69
536.797	89.69
537.011	99.69
537.225	103.69
537.44	105.69
537.654	92.69
537.868	101.69
538.082	92.69
538.296	95.69
538.51	87.69
538.724	97.69
538.938	99.69
539.153	88.69
539.367	97.69
539.581	93.69
539.795	107.69
540.009	84.69
540.222	86.69
540.436	95.69
540.65	102.69
540.864	83.69
541.078	100.69
541.292	79.69
541.506	91.69
541.72	100.69
541.934	88.69
542.147	85.69
542.361	95.69
542.575	99.69
542.789	91.69
543.002	68.69
543.216	84.69
543.43	99.69
543.644	116.69
543.857	83.69
544.071	91.69
544.285	85.69
544.498	97.69
544.712	88.69
544.925	104.69
545.139	102.69
545.352	81.69
545.566	99.69
545.779	84.69
545.993	84.69
546.206	87.69
546.42	86.69
546.633	97.69
546.847	87.69
547.06	93.69
547.274	96.69
547.487	97.69
547.7	90.69
547.914	97.69
548.127	85.69
548.34	86.69
548.554	93.69
548.767	85.69
548.98	88.69
549.193	91.69
549.407	95.69
549.62	83.69
549.833	90.69
550.046	100.69
550.259	93.69
550.473	107.69
550.686	87.69
550.899	92.69
551.112	93.69
551.325	100.69
551.538	96.69
551.751	96.69
551.964	96.69
552.177	77.69
552.39	97.69
552.603	105.69
552.816	92.69
553.029	80.69
553.242	99.69
553.455	99.69
553.667	114.69
553.88	108.69
554.093	92.69
554.306	101.69
554.519	98.69
554.732	76.69
554.944	109.69
555.157	99.69
555.37	88.69
555.583	102.69
555.795	89.69
556.008	87.69
556.221	94.69
556.433	88.69
556.646	81.69
556.859	108.69
557.071	97.69
557.284	84.69
557.496	94.69
557.709	94.69
557.921	88.69
558.134	88.69
558.346	86.69
558.559	89.69
558.771	94.69
558.984	95.69
559.196	102.69
559.409	93.69
559.621	91.69
559.833	70.69
560.046	91.69
560.258	83.69
560.47	100.69
560.683	104.69
560.895	92.69
561.107	91.69
561.32	96.69
561.532	95.69
561.744	89.69
561.956	92.69
562.168	91.69
562.381	94.69
562.593	101.69
562.805	81.69
563.017	77.69
563.229	86.69
563.441	103.69
563.653	92.69
563.865	86.69
564.077	80.69
564.289	108.69
564.501	95.69
564.713	99.69
564.925	94.69
565.137	92.69
565.349	105.69
565.561	102.69
565.773	76.69
565.985	96.69
566.197	91.69
566.408	85.69
566.62	88.69
566.832	89.69
567.044	92.69
567.255	79.69
567.467	88.69
567.679	96.69
567.891	77.69
568.102	84.69
568.314	95.69
568.526	98.69
568.737	86.69
568.949	93.69
569.161	94.69
569.372	85.69
569.584	101.69
569.795	87.69
570.007	122.69
570.218	206.69
570.43	124.69
570.641	96.69
570.853	93.69
571.064	88.69
571.276	88.69
571.487	99.69
571.698	95.69
571.91	94.69
572.121	92.69
572.333	87.69
572.544	91.69
572.755	89.69
572.966	94.69
573.178	87.69
573.389	97.69
573.6	85.69
573.811	99.69
574.023	78.69
574.234	81.69
574.445	89.69
574.656	89.69
574.867	88.69
575.078	94.69
575.289	90.69
575.501	87.69
575.712	99.69
575.923	84.69
576.134	91.69
576.345	93.69
576.556	85.69
576.767	104.69
576.978	92.69
577.188	92.69
577.399	85.69
577.61	102.69
577.821	92.69
578.032	117.69
578.243	241.69
578.454	659.69
578.665	191.69
578.875	110.69
579.086	82.69
579.297	89.69
579.508	87.69
579.718	88.69
579.929	87.69
580.14	92.69
580.35	91.69
580.561	96.69
580.772	96.69
580.982	101.69
581.193	102.69
581.403	97.69
581.614	88.69
581.825	86.69
582.035	103.69
582.246	98.69
582.456	100.69
582.667	91.69
582.877	91.69
583.087	88.69
583.298	104.69
583.508	86.69
583.719	78.69
583.929	99.69
584.139	90.69
584.35	72.69
584.56	91.69
584.77	95.69
584.981	105.69
585.191	86.69
585.401	87.69
585.611	87.69
585.821	78.69
586.032	92.69
586.242	81.69
586.452	80.69
586.662	85.69
586.872	102.69
587.082	92.69
587.292	90.69
587.502	83.69
587.713	88.69
587.923	81.69
588.133	94.69
588.343	80.69
588.553	101.69
588.762	103.69
588.972	144.69
589.182	353.69
589.392	183.69
589.602	129.69
589.812	252.69
590.022	133.69
590.232	109.69
590.441	91.69
590.651	89.69
590.861	85.69
591.071	103.69
591.281	88.69
591.49	95.69
591.7	103.69
591.91	95.69
592.119	84.69
592.329	100.69
592.539	96.69
592.748	92.69
592.958	88.69
593.167	89.69
593.377	86.69
593.587	71.69
593.796	95.69
594.006	95.69
594.215	97.69
594.424	94.69
594.634	82.69
594.843	89.69
595.053	95.69
595.262	90.69
595.472	84.69
595.681	83.69
595.89	87.69
596.1	91.69
596.309	89.69
596.518	88.69
596.727	93.69
596.937	81.69
597.146	85.69
597.355	104.69
597.564	80.69
597.774	92.69
597.983	93.69
598.192	83.69
598.401	77.69
598.61	92.69
598.819	75.69
599.028	91.69
599.237	87.69
599.446	89.69
599.655	99.69
599.864	93.69
600.073	94.69
600.282	102.69
600.491	92.69
600.7	95.69
600.909	88.69
601.118	97.69
601.327	95.69
601.536	82.69
601.745	101.69
601.953	94.69
602.162	87.69
602.371	94.69
602.58	89.69
602.789	81.69
602.997	91.69
603.206	88.69
603.415	82.69
603.623	77.69
603.832	93.69
604.041	90.69
604.249	93.69
604.458	94.69
604.666	87.69
604.875	85.69
605.084	85.69
605.292	89.69
605.501	83.69
605.709	98.69
605.918	85.69
606.126	84.69
606.334	75.69
606.543	86.69
606.751	86.69
606.96	95.69
607.168	81.69
607.376	84.69
607.585	91.69
607.793	87.69
608.001	82.69
608.21	94.69
608.418	97.69
608.626	92.69
608.834	87.69
609.043	69.69
609.251	96.69
609.459	88.69
609.667	104.69
609.875	88.69
610.083	79.69
610.291	93.69
610.499	62.69
610.707	98.69
610.916	91.69
611.124	90.69
611.332	93.69
611.54	99.69
611.748	94.69
611.955	97.69
612.163	89.69
612.371	95.69
612.579	109.69
612.787	81.69
612.995	80.69
613.203	85.69
613.411	86.69
613.618	76.69
613.826	88.69
614.034	94.69
614.242	102.69
614.449	95.69
614.657	82.69
614.865	85.69
615.072	83.69
615.28	86.69
615.488	96.69
615.695	89.69
615.903	99.69
616.111	106.69
616.318	111.69
616.526	100.69
616.733	81.69
616.941	85.69
617.148	94.69
617.356	91.69
617.563	103.69
617.771	89.69
617.978	96.69
618.185	79.69
618.393	99.69
618.6	84.69
618.807	85.69
619.015	82.69
619.222	86.69
619.429	96.69
619.637	75.69
619.844	81.69
620.051	87.69
620.258	105.69
620.466	92.69
620.673	87.69
620.88	91.69
621.087	80.69
621.294	90.69
621.501	77.69
621.708	92.69
621.915	98.69
622.122	82.69
622.329	70.69
622.536	83.69
622.743	83.69
622.95	89.69
623.157	93.69
623.364	93.69
623.571	83.69
623.778	72.69
623.985	76.69
624.192	85.69
624.399	96.69
624.606	76.69
624.812	95.69
625.019	98.69
625.226	96.69
625.433	100.69
625.639	82.69
625.846	93.69
626.053	91.69
626.259	87.69
626.466	104.69
626.673	91.69
626.879	82.69
627.086	82.69
627.293	96.69
627.499	86.69
627.706	82.69
627.912	79.69
628.119	87.69
628.325	91.69
628.532	97.69
628.738	75.69
628.945	88.69
629.151	79.69
629.357	92.69
629.564	107.69
629.77	82.69
629.976	73.69
630.183	83.69
630.389	102.69
630.595	95.69
630.802	88.69
631.008	96.69
631.214	81.69
631.42	92.69
631.627	85.69
631.833	89.69
632.039	96.69
632.245	90.69
632.451	98.69
632.657	82.69
632.863	69.69
633.069	83.69
633.275	87.69
633.481	86.69
633.688	99.69
633.893	86.69
634.099	88.69
634.305	91.69
634.511	103.69
634.717	88.69
634.923	76.69
635.129	79.69
635.335	83.69
635.541	93.69
635.747	91.69
635.952	100.69
636.158	93.69
636.364	133.69
636.57	136.69
636.775	98.69
636.981	81.69
637.187	93.69
637.392	80.69
637.598	81.69
637.804	87.69
638.009	99.69
638.215	84.69
638.421	80.69
638.626	71.69
638.832	87.69
639.037	92.69
639.243	79.69
639.448	79.69
639.654	86.69
639.859	83.69
640.065	82.69
640.27	80.69
640.475	93.69
640.681	91.69
640.886	95.69
641.091	105.69
641.297	103.69
641.502	90.69
641.707	91.69
641.913	79.69
642.118	91.69
642.323	79.69
642.528	88.69
642.733	94.69
642.939	87.69
643.144	93.69
643.349	94.69
643.554	85.69
643.759	92.69
643.964	97.69
644.169	79.69
644.374	91.69
644.579	84.69
644.784	88.69
644.989	68.69
645.194	84.69
645.399	81.69
645.604	87.69
645.809	91.69
646.014	97.69
646.219	81.69
646.423	85.69
646.628	88.69
646.833	84.69
647.038	96.69
647.243	98.69
647.447	79.69
647.652	90.69
647.857	78.69
648.062	87.69
648.266	85.69
648.471	89.69
648.676	80.69
648.88	97.69
649.085	105.69
649.289	94.69
649.494	113.69
649.698	122.69
649.903	99.69
650.107	85.69
650.312	90.69
650.516	77.69
650.721	84.69
650.925	85.69
651.13	87.69
651.334	85.69
651.539	89.69
651.743	94.69
651.947	88.69
652.152	95.69
652.356	81.69
652.56	86.69
652.764	86.69
652.969	93.69
653.173	87.69
653.377	92.69
653.581	76.69
653.785	95.69
653.99	84.69
654.194	91.69
654.398	85.69
654.602	80.69
654.806	93.69
655.01	105.69
655.214	84.69
655.418	83.69
655.622	89.69
655.826	92.69
656.03	88.69
656.234	86.69
656.438	96.69
656.642	90.69
656.846	88.69
657.049	81.69
657.253	84.69
657.457	84.69
657.661	83.69
657.865	87.69
658.068	89.69
658.272	91.69
658.476	97.69
658.68	84.69
658.883	75.69
659.087	85.69
659.291	92.69
659.494	57.69
659.698	68.69
659.901	74.69
660.105	76.69
660.309	76.69
660.512	86.69
660.716	91.69
660.919	88.69
661.123	83.69
661.326	75.69
661.53	95.69
661.733	86.69
661.936	91.69
662.14	83.69
662.343	80.69
662.546	90.69
662.75	83.69
662.953	88.69
663.156	73.69
663.36	82.69
663.563	83.69
663.766	72.69
663.969	95.69
664.173	96.69
664.376	65.69
664.579	80.69
664.782	93.69
664.985	80.69
665.188	86.69
665.391	77.69
665.594	83.69
665.797	95.69
666	79.69
666.203	79.69
666.406	88.69
666.609	71.69
666.812	85.69
667.015	75.69
667.218	68.69
667.421	84.69
667.624	88.69
667.827	73.69
668.03	72.69
668.232	88.69
668.435	84.69
668.638	77.69
668.841	81.69
669.043	89.69
669.246	97.69
669.449	77.69
669.651	73.69
669.854	81.69
670.057	96.69
670.259	83.69
670.462	72.69
670.665	88.69
670.867	79.69
671.07	85.69
671.272	79.69
671.475	107.69
671.677	87.69
671.88	92.69
672.082	85.69
672.284	89.69
672.487	80.69
672.689	90.69
672.892	95.69
