Data from Circ_1992_H10_HRD10591_00025.txt Node
Date: Wed Jan 03 11:47:49 EST 2024
User: Yrep
Spectrometer: HR+D1059
Trigger mode: 1
Integration Time (sec): 1.000000E-1
Scans to average: 1
Electric dark correction enabled: true
Nonlinearity correction enabled: false
Boxcar width: 0
XAxis mode: Wavelengths
Number of Pixels in Spectrum: 2048
>>>>>Begin Spectral Data<<<<<
223.165	-23.69
223.4	-23.69
223.635	-23.69
223.869	-22.69
224.104	-18.69
224.338	-17.69
224.573	-12.69
224.808	-11.69
225.042	-4.69
225.277	-10.69
225.511	9.31
225.746	10.31
225.98	7.31
226.215	19.31
226.449	10.31
226.683	24.31
226.918	18.31
227.152	23.31
227.387	44.31
227.621	36.31
227.856	33.31
228.09	41.31
228.324	57.31
228.559	51.31
228.793	67.31
229.027	63.31
229.262	62.31
229.496	68.31
229.73	84.31
229.964	85.31
230.199	72.31
230.433	64.31
230.667	69.31
230.901	69.31
231.136	75.31
231.37	82.31
231.604	94.31
231.838	77.31
232.072	82.31
232.306	72.31
232.541	57.31
232.775	79.31
233.009	82.31
233.243	69.31
233.477	69.31
233.711	65.31
233.945	75.31
234.179	90.31
234.413	77.31
234.647	88.31
234.881	73.31
235.115	61.31
235.349	70.31
235.583	83.31
235.817	85.31
236.051	72.31
236.285	71.31
236.519	64.31
236.753	75.31
236.987	88.31
237.221	94.31
237.455	81.31
237.689	79.31
237.922	74.31
238.156	82.31
238.39	88.31
238.624	67.31
238.858	77.31
239.091	83.31
239.325	89.31
239.559	93.31
239.793	79.31
240.027	81.31
240.26	80.31
240.494	79.31
240.728	64.31
240.961	73.31
241.195	95.31
241.429	75.31
241.662	70.31
241.896	83.31
242.13	66.31
242.363	83.31
242.597	75.31
242.83	88.31
243.064	85.31
243.298	82.31
243.531	71.31
243.765	63.31
243.998	77.31
244.232	75.31
244.465	91.31
244.699	96.31
244.932	76.31
245.166	89.31
245.399	79.31
245.633	80.31
245.866	92.31
246.099	69.31
246.333	73.31
246.566	81.31
246.8	78.31
247.033	77.31
247.266	71.31
247.5	84.31
247.733	80.31
247.966	82.31
248.2	96.31
248.433	80.31
248.666	56.31
248.899	88.31
249.133	95.31
249.366	97.31
249.599	115.31
249.832	89.31
250.066	88.31
250.299	81.31
250.532	81.31
250.765	81.31
250.998	92.31
251.231	86.31
251.465	80.31
251.698	69.31
251.931	94.31
252.164	70.31
252.397	75.31
252.63	90.31
252.863	66.31
253.096	62.31
253.329	69.31
253.562	82.31
253.795	64.31
254.028	68.31
254.261	87.31
254.494	89.31
254.727	80.31
254.96	72.31
255.193	64.31
255.426	90.31
255.659	76.31
255.892	72.31
256.124	79.31
256.357	81.31
256.59	82.31
256.823	72.31
257.056	72.31
257.289	94.31
257.521	83.31
257.754	78.31
257.987	74.31
258.22	72.31
258.452	64.31
258.685	75.31
258.918	66.31
259.151	96.31
259.383	78.31
259.616	75.31
259.849	86.31
260.081	76.31
260.314	93.31
260.547	80.31
260.779	87.31
261.012	82.31
261.244	91.31
261.477	92.31
261.71	96.31
261.942	114.31
262.175	117.31
262.407	95.31
262.64	96.31
262.872	84.31
263.105	88.31
263.337	93.31
263.57	78.31
263.802	75.31
264.035	84.31
264.267	78.31
264.499	72.31
264.732	78.31
264.964	74.31
265.197	88.31
265.429	93.31
265.661	80.31
265.894	78.31
266.126	92.31
266.358	73.31
266.591	80.31
266.823	79.31
267.055	81.31
267.287	80.31
267.52	77.31
267.752	92.31
267.984	82.31
268.216	88.31
268.448	79.31
268.681	76.31
268.913	88.31
269.145	83.31
269.377	90.31
269.609	89.31
269.841	95.31
270.073	81.31
270.306	76.31
270.538	71.31
270.77	82.31
271.002	73.31
271.234	81.31
271.466	88.31
271.698	84.31
271.93	77.31
272.162	96.31
272.394	84.31
272.626	73.31
272.858	93.31
273.09	74.31
273.322	87.31
273.553	95.31
273.785	85.31
274.017	83.31
274.249	89.31
274.481	93.31
274.713	80.31
274.945	103.31
275.176	83.31
275.408	89.31
275.64	88.31
275.872	99.31
276.104	85.31
276.335	90.31
276.567	100.31
276.799	116.31
277.031	102.31
277.262	114.31
277.494	94.31
277.726	80.31
277.957	95.31
278.189	88.31
278.421	86.31
278.652	93.31
278.884	89.31
279.115	86.31
279.347	82.31
279.579	89.31
279.81	82.31
280.042	99.31
280.273	129.31
280.505	104.31
280.736	105.31
280.968	88.31
281.199	89.31
281.431	92.31
281.662	100.31
281.894	99.31
282.125	93.31
282.356	112.31
282.588	126.31
282.819	112.31
283.051	85.31
283.282	89.31
283.513	68.31
283.745	73.31
283.976	93.31
284.207	84.31
284.439	83.31
284.67	82.31
284.901	80.31
285.132	81.31
285.364	92.31
285.595	81.31
285.826	83.31
286.057	89.31
286.288	87.31
286.52	90.31
286.751	89.31
286.982	86.31
287.213	111.31
287.444	93.31
287.675	93.31
287.906	87.31
288.138	87.31
288.369	72.31
288.6	89.31
288.831	76.31
289.062	81.31
289.293	91.31
289.524	91.31
289.755	93.31
289.986	82.31
290.217	89.31
290.448	75.31
290.679	82.31
290.91	88.31
291.141	74.31
291.371	75.31
291.602	93.31
291.833	78.31
292.064	83.31
292.295	83.31
292.526	96.31
292.757	100.31
292.987	93.31
293.218	84.31
293.449	89.31
293.68	99.31
293.91	87.31
294.141	79.31
294.372	83.31
294.603	100.31
294.833	92.31
295.064	92.31
295.295	96.31
295.525	85.31
295.756	88.31
295.987	125.31
296.217	143.31
296.448	125.31
296.679	86.31
296.909	89.31
297.14	94.31
297.37	90.31
297.601	87.31
297.831	85.31
298.062	87.31
298.292	88.31
298.523	87.31
298.753	86.31
298.984	104.31
299.214	91.31
299.445	89.31
299.675	91.31
299.905	105.31
300.136	96.31
300.366	83.31
300.597	98.31
300.827	106.31
301.057	97.31
301.288	105.31
301.518	89.31
301.748	88.31
301.979	101.31
302.209	101.31
302.439	90.31
302.669	91.31
302.9	87.31
303.13	76.31
303.36	92.31
303.59	91.31
303.82	126.31
304.051	93.31
304.281	98.31
304.511	86.31
304.741	92.31
304.971	86.31
305.201	90.31
305.431	82.31
305.661	90.31
305.891	88.31
306.121	91.31
306.352	106.31
306.582	100.31
306.812	89.31
307.042	86.31
307.272	110.31
307.502	119.31
307.731	113.31
307.961	96.31
308.191	85.31
308.421	101.31
308.651	99.31
308.881	99.31
309.111	89.31
309.341	91.31
309.571	105.31
309.8	92.31
310.03	107.31
310.26	87.31
310.49	95.31
310.72	105.31
310.949	119.31
311.179	104.31
311.409	108.31
311.639	92.31
311.868	97.31
312.098	84.31
312.328	98.31
312.557	110.31
312.787	102.31
313.017	99.31
313.246	94.31
313.476	94.31
313.706	106.31
313.935	103.31
314.165	84.31
314.394	101.31
314.624	94.31
314.853	87.31
315.083	96.31
315.312	95.31
315.542	107.31
315.771	97.31
316.001	99.31
316.23	82.31
316.46	93.31
316.689	89.31
316.919	90.31
317.148	89.31
317.377	80.31
317.607	80.31
317.836	85.31
318.065	97.31
318.295	85.31
318.524	93.31
318.753	105.31
318.983	107.31
319.212	88.31
319.441	103.31
319.67	96.31
319.9	99.31
320.129	97.31
320.358	86.31
320.587	93.31
320.816	106.31
321.046	99.31
321.275	93.31
321.504	91.31
321.733	97.31
321.962	89.31
322.191	83.31
322.42	102.31
322.649	122.31
322.878	111.31
323.108	117.31
323.337	116.31
323.566	127.31
323.795	147.31
324.024	221.31
324.253	381.31
324.482	789.31
324.71	1636.31
324.939	2132.31
325.168	792.31
325.397	230.31
325.626	163.31
325.855	114.31
326.084	118.31
326.313	125.31
326.542	157.31
326.77	227.31
326.999	443.31
327.228	912.31
327.457	1588.31
327.686	1316.31
327.914	417.31
328.143	279.31
328.372	329.31
328.6	195.31
328.829	119.31
329.058	142.31
329.287	145.31
329.515	122.31
329.744	136.31
329.972	221.31
330.201	394.31
330.43	555.31
330.658	283.31
330.887	189.31
331.115	142.31
331.344	115.31
331.572	105.31
331.801	116.31
332.03	108.31
332.258	102.31
332.486	96.31
332.715	93.31
332.943	101.31
333.172	105.31
333.4	92.31
333.629	119.31
333.857	147.31
334.085	229.31
334.314	396.31
334.542	696.31
334.771	658.31
334.999	221.31
335.227	118.31
335.455	96.31
335.684	112.31
335.912	105.31
336.14	95.31
336.369	91.31
336.597	109.31
336.825	94.31
337.053	81.31
337.281	82.31
337.51	80.31
337.738	91.31
337.966	93.31
338.194	113.31
338.422	109.31
338.65	95.31
338.878	91.31
339.106	79.31
339.334	87.31
339.562	84.31
339.79	98.31
340.018	97.31
340.246	83.31
340.474	77.31
340.702	89.31
340.93	102.31
341.158	84.31
341.386	112.31
341.614	96.31
341.842	88.31
342.07	94.31
342.298	98.31
342.526	91.31
342.754	82.31
342.981	91.31
343.209	82.31
343.437	102.31
343.665	81.31
343.893	85.31
344.12	90.31
344.348	92.31
344.576	86.31
344.804	94.31
345.031	99.31
345.259	109.31
345.487	94.31
345.714	94.31
345.942	92.31
346.17	90.31
346.397	90.31
346.625	91.31
346.853	84.31
347.08	93.31
347.308	86.31
347.535	105.31
347.763	108.31
347.99	99.31
348.218	92.31
348.445	112.31
348.673	97.31
348.9	105.31
349.128	98.31
349.355	89.31
349.583	89.31
349.81	92.31
350.037	104.31
350.265	85.31
350.492	85.31
350.72	92.31
350.947	95.31
351.174	95.31
351.402	98.31
351.629	118.31
351.856	104.31
352.083	99.31
352.311	103.31
352.538	92.31
352.765	114.31
352.992	117.31
353.22	126.31
353.447	111.31
353.674	115.31
353.901	108.31
354.128	92.31
354.355	94.31
354.583	114.31
354.81	110.31
355.037	92.31
355.264	91.31
355.491	97.31
355.718	81.31
355.945	92.31
356.172	93.31
356.399	98.31
356.626	80.31
356.853	101.31
357.08	90.31
357.307	88.31
357.534	108.31
357.761	100.31
357.988	83.31
358.215	82.31
358.441	96.31
358.668	84.31
358.895	80.31
359.122	75.31
359.349	83.31
359.576	95.31
359.802	102.31
360.029	130.31
360.256	114.31
360.483	100.31
360.709	89.31
360.936	97.31
361.163	99.31
361.39	106.31
361.616	93.31
361.843	98.31
362.07	74.31
362.296	106.31
362.523	82.31
362.749	101.31
362.976	79.31
363.203	100.31
363.429	93.31
363.656	92.31
363.882	85.31
364.109	92.31
364.335	87.31
364.562	90.31
364.788	95.31
365.015	100.31
365.241	92.31
365.468	111.31
365.694	97.31
365.92	95.31
366.147	95.31
366.373	88.31
366.599	76.31
366.826	90.31
367.052	86.31
367.278	107.31
367.505	84.31
367.731	95.31
367.957	85.31
368.184	102.31
368.41	91.31
368.636	109.31
368.862	113.31
369.089	115.31
369.315	96.31
369.541	99.31
369.767	92.31
369.993	80.31
370.219	84.31
370.445	80.31
370.672	90.31
370.898	83.31
371.124	73.31
371.35	100.31
371.576	74.31
371.802	85.31
372.028	96.31
372.254	77.31
372.48	79.31
372.706	79.31
372.932	77.31
373.158	95.31
373.384	94.31
373.61	87.31
373.835	80.31
374.061	95.31
374.287	96.31
374.513	96.31
374.739	83.31
374.965	92.31
375.191	86.31
375.416	95.31
375.642	79.31
375.868	98.31
376.094	102.31
376.319	102.31
376.545	87.31
376.771	89.31
376.997	89.31
377.222	83.31
377.448	96.31
377.674	73.31
377.899	87.31
378.125	92.31
378.35	91.31
378.576	71.31
378.802	93.31
379.027	95.31
379.253	91.31
379.478	97.31
379.704	92.31
379.929	101.31
380.155	108.31
380.38	88.31
380.606	91.31
380.831	99.31
381.057	87.31
381.282	104.31
381.507	96.31
381.733	90.31
381.958	95.31
382.184	100.31
382.409	97.31
382.634	94.31
382.86	97.31
383.085	85.31
383.31	102.31
383.535	109.31
383.761	113.31
383.986	105.31
384.211	103.31
384.436	98.31
384.662	101.31
384.887	92.31
385.112	113.31
385.337	99.31
385.562	99.31
385.787	109.31
386.013	120.31
386.238	130.31
386.463	103.31
386.688	106.31
386.913	113.31
387.138	115.31
387.363	110.31
387.588	106.31
387.813	116.31
388.038	122.31
388.263	116.31
388.488	116.31
388.713	92.31
388.938	86.31
389.163	84.31
389.387	90.31
389.612	86.31
389.837	100.31
390.062	79.31
390.287	85.31
390.512	93.31
390.736	93.31
390.961	104.31
391.186	95.31
391.411	105.31
391.636	87.31
391.86	72.31
392.085	93.31
392.31	66.31
392.534	86.31
392.759	92.31
392.984	75.31
393.208	92.31
393.433	82.31
393.658	76.31
393.882	83.31
394.107	81.31
394.331	93.31
394.556	87.31
394.78	91.31
395.005	66.31
395.229	73.31
395.454	97.31
395.678	81.31
395.903	90.31
396.127	71.31
396.352	79.31
396.576	92.31
396.801	77.31
397.025	81.31
397.249	87.31
397.474	89.31
397.698	93.31
397.922	90.31
398.147	73.31
398.371	81.31
398.595	80.31
398.82	96.31
399.044	96.31
399.268	83.31
399.492	81.31
399.717	94.31
399.941	77.31
400.165	89.31
400.389	92.31
400.613	77.31
400.837	87.31
401.062	96.31
401.286	72.31
401.51	88.31
401.734	81.31
401.958	88.31
402.182	129.31
402.406	169.31
402.63	129.31
402.854	93.31
403.078	85.31
403.302	80.31
403.526	84.31
403.75	96.31
403.974	82.31
404.198	84.31
404.422	83.31
404.645	86.31
404.869	101.31
405.093	94.31
405.317	110.31
405.541	127.31
405.765	107.31
405.988	113.31
406.212	178.31
406.436	260.31
406.66	164.31
406.883	105.31
407.107	98.31
407.331	94.31
407.555	105.31
407.778	101.31
408.002	100.31
408.226	92.31
408.449	91.31
408.673	95.31
408.896	92.31
409.12	89.31
409.344	106.31
409.567	104.31
409.791	89.31
410.014	77.31
410.238	99.31
410.461	86.31
410.685	77.31
410.908	97.31
411.132	101.31
411.355	105.31
411.578	89.31
411.802	80.31
412.025	88.31
412.249	100.31
412.472	99.31
412.695	111.31
412.919	99.31
413.142	87.31
413.365	104.31
413.589	84.31
413.812	93.31
414.035	77.31
414.258	90.31
414.482	90.31
414.705	86.31
414.928	100.31
415.151	91.31
415.374	84.31
415.597	98.31
415.821	80.31
416.044	96.31
416.267	96.31
416.49	84.31
416.713	92.31
416.936	85.31
417.159	90.31
417.382	92.31
417.605	84.31
417.828	87.31
418.051	89.31
418.274	88.31
418.497	84.31
418.72	83.31
418.943	103.31
419.166	100.31
419.389	77.31
419.611	79.31
419.834	106.31
420.057	79.31
420.28	89.31
420.503	90.31
420.726	90.31
420.948	94.31
421.171	108.31
421.394	85.31
421.617	93.31
421.839	97.31
422.062	89.31
422.285	81.31
422.507	96.31
422.73	99.31
422.953	81.31
423.175	90.31
423.398	81.31
423.621	91.31
423.843	89.31
424.066	80.31
424.288	74.31
424.511	97.31
424.733	87.31
424.956	90.31
425.178	100.31
425.401	101.31
425.623	96.31
425.846	90.31
426.068	96.31
426.291	93.31
426.513	89.31
426.735	78.31
426.958	99.31
427.18	107.31
427.402	151.31
427.625	192.31
427.847	166.31
428.069	147.31
428.292	84.31
428.514	70.31
428.736	93.31
428.958	88.31
429.181	87.31
429.403	77.31
429.625	83.31
429.847	97.31
430.069	109.31
430.292	80.31
430.514	86.31
430.736	109.31
430.958	92.31
431.18	77.31
431.402	80.31
431.624	73.31
431.846	75.31
432.068	80.31
432.29	66.31
432.512	78.31
432.734	96.31
432.956	93.31
433.178	100.31
433.4	85.31
433.622	77.31
433.844	90.31
434.066	101.31
434.287	100.31
434.509	96.31
434.731	88.31
434.953	92.31
435.175	83.31
435.397	87.31
435.618	89.31
435.84	108.31
436.062	126.31
436.284	125.31
436.505	120.31
436.727	101.31
436.949	103.31
437.17	81.31
437.392	84.31
437.614	99.31
437.835	104.31
438.057	122.31
438.278	122.31
438.5	94.31
438.721	119.31
438.943	104.31
439.165	97.31
439.386	92.31
439.608	85.31
439.829	101.31
440.05	141.31
440.272	170.31
440.493	99.31
440.715	96.31
440.936	90.31
441.158	90.31
441.379	93.31
441.6	100.31
441.822	110.31
442.043	107.31
442.264	106.31
442.486	103.31
442.707	90.31
442.928	114.31
443.149	143.31
443.371	152.31
443.592	111.31
443.813	122.31
444.034	115.31
444.255	90.31
444.476	100.31
444.698	89.31
444.919	95.31
445.14	122.31
445.361	108.31
445.582	110.31
445.803	152.31
446.024	160.31
446.245	125.31
446.466	114.31
446.687	98.31
446.908	93.31
447.129	89.31
447.35	81.31
447.571	109.31
447.792	111.31
448.013	109.31
448.234	116.31
448.455	101.31
448.675	115.31
448.896	121.31
449.117	99.31
449.338	109.31
449.559	120.31
449.779	131.31
450	101.31
450.221	97.31
450.442	73.31
450.662	85.31
450.883	112.31
451.104	126.31
451.324	101.31
451.545	77.31
451.766	81.31
451.986	100.31
452.207	92.31
452.428	88.31
452.648	96.31
452.869	122.31
453.089	116.31
453.31	114.31
453.53	99.31
453.751	100.31
453.971	98.31
454.192	121.31
454.412	91.31
454.633	85.31
454.853	76.31
455.073	89.31
455.294	67.31
455.514	91.31
455.734	94.31
455.955	97.31
456.175	84.31
456.395	85.31
456.616	87.31
456.836	85.31
457.056	72.31
457.276	84.31
457.497	83.31
457.717	80.31
457.937	82.31
458.157	80.31
458.377	91.31
458.598	113.31
458.818	161.31
459.038	187.31
459.258	131.31
459.478	79.31
459.698	99.31
459.918	95.31
460.138	91.31
460.358	72.31
460.578	74.31
460.798	97.31
461.018	100.31
461.238	71.31
461.458	71.31
461.678	68.31
461.898	73.31
462.118	102.31
462.338	88.31
462.558	79.31
462.777	103.31
462.997	97.31
463.217	95.31
463.437	83.31
463.657	85.31
463.876	79.31
464.096	84.31
464.316	95.31
464.536	104.31
464.755	94.31
464.975	124.31
465.195	165.31
465.414	187.31
465.634	93.31
465.854	91.31
466.073	81.31
466.293	75.31
466.512	91.31
466.732	80.31
466.951	87.31
467.171	102.31
467.391	95.31
467.61	117.31
467.829	124.31
468.049	234.31
468.268	339.31
468.488	128.31
468.707	81.31
468.927	75.31
469.146	100.31
469.365	81.31
469.585	86.31
469.804	117.31
470.023	112.31
470.243	93.31
470.462	121.31
470.681	117.31
470.901	79.31
471.12	91.31
471.339	92.31
471.558	89.31
471.777	100.31
471.997	148.31
472.216	444.31
472.435	903.31
472.654	251.31
472.873	111.31
473.092	99.31
473.311	79.31
473.53	87.31
473.749	79.31
473.968	97.31
474.187	122.31
474.406	86.31
474.625	92.31
474.844	93.31
475.063	73.31
475.282	89.31
475.501	94.31
475.72	88.31
475.939	91.31
476.158	85.31
476.377	76.31
476.596	87.31
476.814	85.31
477.033	93.31
477.252	84.31
477.471	90.31
477.69	104.31
477.908	90.31
478.127	95.31
478.346	93.31
478.564	95.31
478.783	94.31
479.002	98.31
479.22	95.31
479.439	116.31
479.658	107.31
479.876	92.31
480.095	112.31
480.313	116.31
480.532	132.31
480.751	174.31
480.969	447.31
481.188	1595.31
481.406	985.31
481.624	185.31
481.843	97.31
482.061	90.31
482.28	94.31
482.498	87.31
482.717	89.31
482.935	83.31
483.153	85.31
483.372	71.31
483.59	82.31
483.808	98.31
484.027	86.31
484.245	97.31
484.463	87.31
484.681	92.31
484.9	97.31
485.118	107.31
485.336	89.31
485.554	100.31
485.772	98.31
485.99	100.31
486.209	104.31
486.427	103.31
486.645	107.31
486.863	115.31
487.081	93.31
487.299	96.31
487.517	88.31
487.735	90.31
487.953	85.31
488.171	102.31
488.389	90.31
488.607	105.31
488.825	96.31
489.043	92.31
489.261	89.31
489.479	88.31
489.696	84.31
489.914	93.31
490.132	83.31
490.35	69.31
490.568	97.31
490.786	82.31
491.003	80.31
491.221	83.31
491.439	94.31
491.657	85.31
491.874	102.31
492.092	107.31
492.31	85.31
492.527	95.31
492.745	87.31
492.963	92.31
493.18	81.31
493.398	83.31
493.615	88.31
493.833	89.31
494.05	78.31
494.268	93.31
494.485	88.31
494.703	87.31
494.92	89.31
495.138	73.31
495.355	90.31
495.573	84.31
495.79	88.31
496.008	82.31
496.225	93.31
496.442	80.31
496.66	85.31
496.877	89.31
497.094	79.31
497.312	87.31
497.529	88.31
497.746	92.31
497.963	86.31
498.181	93.31
498.398	99.31
498.615	103.31
498.832	93.31
499.049	102.31
499.267	108.31
499.484	90.31
499.701	87.31
499.918	91.31
500.135	80.31
500.352	84.31
500.569	98.31
500.786	102.31
501.003	103.31
501.22	96.31
501.437	87.31
501.654	89.31
501.871	115.31
502.088	95.31
502.305	83.31
502.522	83.31
502.739	82.31
502.956	93.31
503.172	84.31
503.389	103.31
503.606	112.31
503.823	98.31
504.04	95.31
504.256	92.31
504.473	101.31
504.69	81.31
504.907	100.31
505.123	93.31
505.34	84.31
505.557	87.31
505.773	89.31
505.99	101.31
506.207	93.31
506.423	84.31
506.64	100.31
506.856	90.31
507.073	86.31
507.289	86.31
507.506	105.31
507.722	114.31
507.939	123.31
508.155	93.31
508.372	92.31
508.588	107.31
508.805	94.31
509.021	91.31
509.238	97.31
509.454	93.31
509.67	108.31
509.887	105.31
510.103	131.31
510.319	193.31
510.536	774.31
510.752	2593.31
510.968	701.31
511.184	162.31
511.401	113.31
511.617	99.31
511.833	97.31
512.049	95.31
512.265	99.31
512.481	82.31
512.698	98.31
512.914	96.31
513.13	94.31
513.346	85.31
513.562	105.31
513.778	99.31
513.994	101.31
514.21	93.31
514.426	107.31
514.642	124.31
514.858	138.31
515.074	185.31
515.29	503.31
515.506	1767.31
515.721	625.31
515.937	167.31
516.153	110.31
516.369	93.31
516.585	89.31
516.801	96.31
517.016	91.31
517.232	89.31
517.448	96.31
517.664	87.31
517.879	91.31
518.095	96.31
518.311	89.31
518.527	92.31
518.742	86.31
518.958	97.31
519.173	80.31
519.389	99.31
519.605	87.31
519.82	93.31
520.036	106.31
520.251	111.31
520.467	116.31
520.682	105.31
520.898	107.31
521.113	110.31
521.329	153.31
521.544	226.31
521.76	627.31
521.975	2992.31
522.19	1711.31
522.406	363.31
522.621	135.31
522.836	109.31
523.052	98.31
523.267	94.31
523.482	91.31
523.698	111.31
523.913	126.31
524.128	105.31
524.343	93.31
524.559	96.31
524.774	85.31
524.989	101.31
525.204	109.31
525.419	99.31
525.634	80.31
525.849	93.31
526.064	84.31
526.28	105.31
526.495	93.31
526.71	84.31
526.925	81.31
527.14	97.31
527.355	79.31
527.57	88.31
527.785	88.31
527.999	93.31
528.214	109.31
528.429	83.31
528.644	103.31
528.859	98.31
529.074	88.31
529.289	121.31
529.503	208.31
529.718	112.31
529.933	82.31
530.148	76.31
530.363	91.31
530.577	104.31
530.792	85.31
531.007	94.31
531.221	97.31
531.436	88.31
531.651	103.31
531.865	94.31
532.08	77.31
532.295	109.31
532.509	97.31
532.724	98.31
532.938	84.31
533.153	82.31
533.367	96.31
533.582	93.31
533.796	95.31
534.011	85.31
534.225	91.31
534.44	93.31
534.654	93.31
534.868	98.31
535.083	96.31
535.297	92.31
535.511	101.31
535.726	113.31
535.94	92.31
536.154	91.31
536.369	100.31
536.583	75.31
536.797	84.31
537.011	87.31
537.225	71.31
537.44	91.31
537.654	100.31
537.868	63.31
538.082	97.31
538.296	90.31
538.51	87.31
538.724	88.31
538.938	93.31
539.153	90.31
539.367	103.31
539.581	87.31
539.795	101.31
540.009	97.31
540.222	88.31
540.436	77.31
540.65	90.31
540.864	85.31
541.078	95.31
541.292	96.31
541.506	85.31
541.72	84.31
541.934	85.31
542.147	100.31
542.361	88.31
542.575	100.31
542.789	92.31
543.002	88.31
543.216	94.31
543.43	90.31
543.644	96.31
543.857	78.31
544.071	83.31
544.285	84.31
544.498	86.31
544.712	95.31
544.925	97.31
545.139	89.31
545.352	87.31
545.566	89.31
545.779	78.31
545.993	98.31
546.206	88.31
546.42	90.31
546.633	91.31
546.847	84.31
547.06	92.31
547.274	96.31
547.487	106.31
547.7	95.31
547.914	108.31
548.127	85.31
548.34	92.31
548.554	89.31
548.767	96.31
548.98	87.31
549.193	85.31
549.407	90.31
549.62	99.31
549.833	74.31
550.046	82.31
550.259	81.31
550.473	105.31
550.686	91.31
550.899	86.31
551.112	103.31
551.325	83.31
551.538	78.31
551.751	97.31
551.964	93.31
552.177	85.31
552.39	86.31
552.603	85.31
552.816	98.31
553.029	96.31
553.242	90.31
553.455	93.31
553.667	111.31
553.88	96.31
554.093	83.31
554.306	102.31
554.519	90.31
554.732	82.31
554.944	92.31
555.157	85.31
555.37	90.31
555.583	95.31
555.795	86.31
556.008	94.31
556.221	91.31
556.433	83.31
556.646	89.31
556.859	101.31
557.071	105.31
557.284	83.31
557.496	72.31
557.709	88.31
557.921	85.31
558.134	83.31
558.346	81.31
558.559	87.31
558.771	96.31
558.984	81.31
559.196	92.31
559.409	95.31
559.621	73.31
559.833	91.31
560.046	93.31
560.258	101.31
560.47	87.31
560.683	98.31
560.895	96.31
561.107	81.31
561.32	68.31
561.532	84.31
561.744	83.31
561.956	84.31
562.168	79.31
562.381	88.31
562.593	77.31
562.805	81.31
563.017	88.31
563.229	79.31
563.441	101.31
563.653	86.31
563.865	86.31
564.077	80.31
564.289	92.31
564.501	79.31
564.713	86.31
564.925	89.31
565.137	114.31
565.349	98.31
565.561	89.31
565.773	87.31
565.985	92.31
566.197	95.31
566.408	89.31
566.62	94.31
566.832	83.31
567.044	84.31
567.255	83.31
567.467	89.31
567.679	92.31
567.891	95.31
568.102	76.31
568.314	91.31
568.526	66.31
568.737	83.31
568.949	73.31
569.161	96.31
569.372	84.31
569.584	81.31
569.795	92.31
570.007	117.31
570.218	237.31
570.43	139.31
570.641	96.31
570.853	84.31
571.064	81.31
571.276	82.31
571.487	99.31
571.698	76.31
571.91	80.31
572.121	88.31
572.333	88.31
572.544	70.31
572.755	80.31
572.966	68.31
573.178	93.31
573.389	94.31
573.6	88.31
573.811	97.31
574.023	77.31
574.234	80.31
574.445	75.31
574.656	85.31
574.867	97.31
575.078	94.31
575.289	100.31
575.501	95.31
575.712	91.31
575.923	95.31
576.134	80.31
576.345	82.31
576.556	74.31
576.767	95.31
576.978	85.31
577.188	104.31
577.399	90.31
577.61	95.31
577.821	91.31
578.032	106.31
578.243	244.31
578.454	773.31
578.665	214.31
578.875	107.31
579.086	76.31
579.297	87.31
579.508	75.31
579.718	96.31
579.929	87.31
580.14	93.31
580.35	79.31
580.561	86.31
580.772	94.31
580.982	91.31
581.193	72.31
581.403	87.31
581.614	71.31
581.825	83.31
582.035	74.31
582.246	96.31
582.456	78.31
582.667	87.31
582.877	87.31
583.087	97.31
583.298	87.31
583.508	87.31
583.719	85.31
583.929	86.31
584.139	91.31
584.35	87.31
584.56	85.31
584.77	82.31
584.981	84.31
585.191	86.31
585.401	94.31
585.611	84.31
585.821	104.31
586.032	87.31
586.242	83.31
586.452	74.31
586.662	83.31
586.872	79.31
587.082	91.31
587.292	76.31
587.502	94.31
587.713	78.31
587.923	88.31
588.133	89.31
588.343	71.31
588.553	83.31
588.762	107.31
588.972	115.31
589.182	279.31
589.392	151.31
589.602	121.31
589.812	197.31
590.022	103.31
590.232	87.31
590.441	90.31
590.651	66.31
590.861	79.31
591.071	87.31
591.281	95.31
591.49	92.31
591.7	91.31
591.91	87.31
592.119	95.31
592.329	91.31
592.539	91.31
592.748	97.31
592.958	70.31
593.167	87.31
593.377	98.31
593.587	97.31
593.796	80.31
594.006	84.31
594.215	96.31
594.424	79.31
594.634	68.31
594.843	73.31
595.053	101.31
595.262	86.31
595.472	77.31
595.681	92.31
595.89	78.31
596.1	73.31
596.309	83.31
596.518	87.31
596.727	79.31
596.937	83.31
597.146	82.31
597.355	99.31
597.564	92.31
597.774	86.31
597.983	89.31
598.192	73.31
598.401	79.31
598.61	92.31
598.819	90.31
599.028	82.31
599.237	78.31
599.446	92.31
599.655	81.31
599.864	87.31
600.073	79.31
600.282	78.31
600.491	92.31
600.7	82.31
600.909	104.31
601.118	94.31
601.327	93.31
601.536	79.31
601.745	97.31
601.953	89.31
602.162	75.31
602.371	93.31
602.58	88.31
602.789	90.31
602.997	89.31
603.206	97.31
603.415	73.31
603.623	96.31
603.832	67.31
604.041	91.31
604.249	93.31
604.458	92.31
604.666	81.31
604.875	82.31
605.084	89.31
605.292	79.31
605.501	87.31
605.709	99.31
605.918	74.31
606.126	91.31
606.334	78.31
606.543	90.31
606.751	71.31
606.96	81.31
607.168	76.31
607.376	84.31
607.585	79.31
607.793	79.31
608.001	95.31
608.21	82.31
608.418	91.31
608.626	88.31
608.834	75.31
609.043	73.31
609.251	81.31
609.459	74.31
609.667	89.31
609.875	82.31
610.083	99.31
610.291	94.31
610.499	97.31
610.707	81.31
610.916	84.31
611.124	93.31
611.332	84.31
611.54	68.31
611.748	72.31
611.955	79.31
612.163	79.31
612.371	87.31
612.579	65.31
612.787	81.31
612.995	83.31
613.203	93.31
613.411	87.31
613.618	75.31
613.826	80.31
614.034	87.31
614.242	82.31
614.449	85.31
614.657	82.31
614.865	98.31
615.072	82.31
615.28	82.31
615.488	77.31
615.695	98.31
615.903	84.31
616.111	95.31
616.318	87.31
616.526	99.31
616.733	104.31
616.941	90.31
617.148	81.31
617.356	91.31
617.563	91.31
617.771	100.31
617.978	83.31
618.185	74.31
618.393	93.31
618.6	83.31
618.807	92.31
619.015	65.31
619.222	90.31
619.429	97.31
619.637	86.31
619.844	63.31
620.051	75.31
620.258	77.31
620.466	93.31
620.673	91.31
620.88	80.31
621.087	84.31
621.294	88.31
621.501	88.31
621.708	96.31
621.915	93.31
622.122	82.31
622.329	89.31
622.536	87.31
622.743	82.31
622.95	89.31
623.157	99.31
623.364	89.31
623.571	66.31
623.778	91.31
623.985	75.31
624.192	84.31
624.399	90.31
624.606	98.31
624.812	86.31
625.019	79.31
625.226	89.31
625.433	91.31
625.639	76.31
625.846	79.31
626.053	71.31
626.259	76.31
626.466	83.31
626.673	87.31
626.879	80.31
627.086	72.31
627.293	74.31
627.499	88.31
627.706	82.31
627.912	92.31
628.119	84.31
628.325	76.31
628.532	80.31
628.738	82.31
628.945	79.31
629.151	76.31
629.357	88.31
629.564	84.31
629.77	71.31
629.976	73.31
630.183	79.31
630.389	83.31
630.595	87.31
630.802	80.31
631.008	73.31
631.214	76.31
631.42	74.31
631.627	80.31
631.833	80.31
632.039	77.31
632.245	76.31
632.451	94.31
632.657	85.31
632.863	81.31
633.069	81.31
633.275	101.31
633.481	75.31
633.688	74.31
633.893	88.31
634.099	88.31
634.305	74.31
634.511	72.31
634.717	83.31
634.923	97.31
635.129	78.31
635.335	71.31
635.541	82.31
635.747	85.31
635.952	80.31
636.158	96.31
636.364	185.31
636.57	164.31
636.775	97.31
636.981	101.31
637.187	80.31
637.392	83.31
637.598	85.31
637.804	67.31
638.009	87.31
638.215	88.31
638.421	88.31
638.626	81.31
638.832	91.31
639.037	96.31
639.243	76.31
639.448	84.31
639.654	97.31
639.859	71.31
640.065	79.31
640.27	81.31
640.475	87.31
640.681	75.31
640.886	83.31
641.091	80.31
641.297	93.31
641.502	87.31
641.707	83.31
641.913	71.31
642.118	92.31
642.323	97.31
642.528	87.31
642.733	87.31
642.939	81.31
643.144	81.31
643.349	80.31
643.554	77.31
643.759	82.31
643.964	83.31
644.169	80.31
644.374	85.31
644.579	89.31
644.784	90.31
644.989	94.31
645.194	78.31
645.399	83.31
645.604	83.31
645.809	96.31
646.014	63.31
646.219	77.31
646.423	89.31
646.628	68.31
646.833	71.31
647.038	86.31
647.243	84.31
647.447	81.31
647.652	90.31
647.857	92.31
648.062	66.31
648.266	75.31
648.471	90.31
648.676	93.31
648.88	101.31
649.085	80.31
649.289	81.31
649.494	107.31
649.698	124.31
649.903	96.31
650.107	87.31
650.312	84.31
650.516	82.31
650.721	98.31
650.925	85.31
651.13	77.31
651.334	84.31
651.539	88.31
651.743	100.31
651.947	91.31
652.152	83.31
652.356	75.31
652.56	82.31
652.764	81.31
652.969	85.31
653.173	79.31
653.377	89.31
653.581	76.31
653.785	88.31
653.99	75.31
654.194	77.31
654.398	89.31
654.602	80.31
654.806	90.31
655.01	94.31
655.214	92.31
655.418	88.31
655.622	87.31
655.826	98.31
656.03	90.31
656.234	101.31
656.438	105.31
656.642	101.31
656.846	85.31
657.049	82.31
657.253	81.31
657.457	80.31
657.661	78.31
657.865	96.31
658.068	90.31
658.272	83.31
658.476	85.31
658.68	85.31
658.883	81.31
659.087	85.31
659.291	78.31
659.494	82.31
659.698	90.31
659.901	94.31
660.105	75.31
660.309	65.31
660.512	78.31
660.716	78.31
660.919	71.31
661.123	83.31
661.326	87.31
661.53	89.31
661.733	77.31
661.936	74.31
662.14	66.31
662.343	79.31
662.546	78.31
662.75	90.31
662.953	87.31
663.156	75.31
663.36	86.31
663.563	87.31
663.766	88.31
663.969	90.31
664.173	74.31
664.376	80.31
664.579	84.31
664.782	71.31
664.985	81.31
665.188	66.31
665.391	76.31
665.594	92.31
665.797	96.31
666	79.31
666.203	73.31
666.406	84.31
666.609	78.31
666.812	80.31
667.015	79.31
667.218	83.31
667.421	79.31
667.624	81.31
667.827	77.31
668.03	87.31
668.232	74.31
668.435	77.31
668.638	79.31
668.841	76.31
669.043	73.31
669.246	88.31
669.449	86.31
669.651	76.31
669.854	75.31
670.057	85.31
670.259	70.31
670.462	93.31
670.665	79.31
670.867	77.31
671.07	74.31
671.272	89.31
671.475	82.31
671.677	79.31
671.88	84.31
672.082	72.31
672.284	68.31
672.487	71.31
672.689	82.31
672.892	75.31
