Data from Circ_1992_H10_HRD10591_00028.txt Node
Date: Wed Jan 03 11:47:50 EST 2024
User: Yrep
Spectrometer: HR+D1059
Trigger mode: 1
Integration Time (sec): 1.000000E-1
Scans to average: 1
Electric dark correction enabled: true
Nonlinearity correction enabled: false
Boxcar width: 0
XAxis mode: Wavelengths
Number of Pixels in Spectrum: 2048
>>>>>Begin Spectral Data<<<<<
223.165	5.88
223.4	5.88
223.635	5.88
223.869	-8.12
224.104	-11.12
224.338	-39.12
224.573	-10.12
224.808	-11.12
225.042	-18.12
225.277	0.88
225.511	5.88
225.746	-6.12
225.98	17.88
226.215	16.88
226.449	9.88
226.683	21.88
226.918	11.88
227.152	12.88
227.387	27.88
227.621	30.88
227.856	53.88
228.09	49.88
228.324	60.88
228.559	50.88
228.793	53.88
229.027	67.88
229.262	54.88
229.496	62.88
229.73	80.88
229.964	87.88
230.199	84.88
230.433	75.88
230.667	69.88
230.901	96.88
231.136	71.88
231.37	63.88
231.604	84.88
231.838	99.88
232.072	83.88
232.306	65.88
232.541	74.88
232.775	81.88
233.009	77.88
233.243	78.88
233.477	84.88
233.711	81.88
233.945	91.88
234.179	76.88
234.413	72.88
234.647	72.88
234.881	81.88
235.115	75.88
235.349	72.88
235.583	86.88
235.817	71.88
236.051	94.88
236.285	69.88
236.519	88.88
236.753	82.88
236.987	71.88
237.221	73.88
237.455	81.88
237.689	79.88
237.922	74.88
238.156	71.88
238.39	73.88
238.624	65.88
238.858	84.88
239.091	68.88
239.325	75.88
239.559	62.88
239.793	79.88
240.027	82.88
240.26	72.88
240.494	76.88
240.728	68.88
240.961	74.88
241.195	64.88
241.429	72.88
241.662	92.88
241.896	80.88
242.13	79.88
242.363	79.88
242.597	59.88
242.83	64.88
243.064	77.88
243.298	83.88
243.531	77.88
243.765	84.88
243.998	83.88
244.232	83.88
244.465	72.88
244.699	92.88
244.932	64.88
245.166	75.88
245.399	84.88
245.633	75.88
245.866	63.88
246.099	63.88
246.333	73.88
246.566	63.88
246.8	67.88
247.033	52.88
247.266	65.88
247.5	67.88
247.733	89.88
247.966	71.88
248.2	101.88
248.433	64.88
248.666	73.88
248.899	77.88
249.133	73.88
249.366	82.88
249.599	99.88
249.832	69.88
250.066	87.88
250.299	75.88
250.532	83.88
250.765	67.88
250.998	72.88
251.231	72.88
251.465	85.88
251.698	74.88
251.931	84.88
252.164	85.88
252.397	88.88
252.63	77.88
252.863	78.88
253.096	71.88
253.329	68.88
253.562	83.88
253.795	82.88
254.028	82.88
254.261	74.88
254.494	79.88
254.727	74.88
254.96	77.88
255.193	79.88
255.426	71.88
255.659	68.88
255.892	87.88
256.124	87.88
256.357	63.88
256.59	76.88
256.823	79.88
257.056	75.88
257.289	80.88
257.521	71.88
257.754	89.88
257.987	79.88
258.22	91.88
258.452	68.88
258.685	89.88
258.918	86.88
259.151	51.88
259.383	85.88
259.616	86.88
259.849	98.88
260.081	82.88
260.314	93.88
260.547	98.88
260.779	80.88
261.012	100.88
261.244	82.88
261.477	90.88
261.71	98.88
261.942	96.88
262.175	111.88
262.407	69.88
262.64	80.88
262.872	89.88
263.105	80.88
263.337	80.88
263.57	79.88
263.802	92.88
264.035	84.88
264.267	83.88
264.499	88.88
264.732	76.88
264.964	89.88
265.197	83.88
265.429	85.88
265.661	83.88
265.894	78.88
266.126	61.88
266.358	68.88
266.591	77.88
266.823	81.88
267.055	79.88
267.287	98.88
267.52	76.88
267.752	75.88
267.984	83.88
268.216	83.88
268.448	80.88
268.681	91.88
268.913	70.88
269.145	90.88
269.377	81.88
269.609	89.88
269.841	82.88
270.073	68.88
270.306	84.88
270.538	80.88
270.77	82.88
271.002	73.88
271.234	96.88
271.466	79.88
271.698	83.88
271.93	85.88
272.162	77.88
272.394	90.88
272.626	82.88
272.858	90.88
273.09	77.88
273.322	86.88
273.553	90.88
273.785	97.88
274.017	92.88
274.249	83.88
274.481	90.88
274.713	87.88
274.945	89.88
275.176	88.88
275.408	82.88
275.64	80.88
275.872	91.88
276.104	100.88
276.335	95.88
276.567	101.88
276.799	105.88
277.031	121.88
277.262	93.88
277.494	103.88
277.726	75.88
277.957	84.88
278.189	84.88
278.421	88.88
278.652	83.88
278.884	81.88
279.115	84.88
279.347	93.88
279.579	80.88
279.81	99.88
280.042	105.88
280.273	127.88
280.505	100.88
280.736	94.88
280.968	84.88
281.199	80.88
281.431	87.88
281.662	74.88
281.894	68.88
282.125	97.88
282.356	117.88
282.588	120.88
282.819	114.88
283.051	83.88
283.282	90.88
283.513	91.88
283.745	77.88
283.976	75.88
284.207	82.88
284.439	92.88
284.67	74.88
284.901	87.88
285.132	94.88
285.364	92.88
285.595	78.88
285.826	105.88
286.057	78.88
286.288	90.88
286.52	75.88
286.751	92.88
286.982	85.88
287.213	81.88
287.444	83.88
287.675	100.88
287.906	80.88
288.138	90.88
288.369	93.88
288.6	89.88
288.831	87.88
289.062	105.88
289.293	95.88
289.524	69.88
289.755	90.88
289.986	69.88
290.217	82.88
290.448	83.88
290.679	81.88
290.91	67.88
291.141	75.88
291.371	83.88
291.602	84.88
291.833	83.88
292.064	84.88
292.295	82.88
292.526	76.88
292.757	76.88
292.987	90.88
293.218	68.88
293.449	93.88
293.68	81.88
293.91	65.88
294.141	88.88
294.372	81.88
294.603	87.88
294.833	89.88
295.064	82.88
295.295	91.88
295.525	67.88
295.756	75.88
295.987	113.88
296.217	135.88
296.448	117.88
296.679	96.88
296.909	94.88
297.14	100.88
297.37	85.88
297.601	85.88
297.831	75.88
298.062	97.88
298.292	81.88
298.523	83.88
298.753	82.88
298.984	99.88
299.214	91.88
299.445	87.88
299.675	95.88
299.905	110.88
300.136	84.88
300.366	88.88
300.597	103.88
300.827	82.88
301.057	78.88
301.288	99.88
301.518	95.88
301.748	91.88
301.979	89.88
302.209	76.88
302.439	75.88
302.669	106.88
302.9	91.88
303.13	87.88
303.36	89.88
303.59	104.88
303.82	108.88
304.051	91.88
304.281	95.88
304.511	89.88
304.741	88.88
304.971	93.88
305.201	93.88
305.431	86.88
305.661	98.88
305.891	98.88
306.121	90.88
306.352	101.88
306.582	91.88
306.812	94.88
307.042	91.88
307.272	107.88
307.502	107.88
307.731	107.88
307.961	101.88
308.191	88.88
308.421	93.88
308.651	89.88
308.881	82.88
309.111	87.88
309.341	83.88
309.571	97.88
309.8	102.88
310.03	96.88
310.26	80.88
310.49	94.88
310.72	89.88
310.949	112.88
311.179	99.88
311.409	79.88
311.639	75.88
311.868	86.88
312.098	97.88
312.328	98.88
312.557	96.88
312.787	101.88
313.017	109.88
313.246	85.88
313.476	80.88
313.706	93.88
313.935	101.88
314.165	82.88
314.394	102.88
314.624	96.88
314.853	94.88
315.083	86.88
315.312	86.88
315.542	80.88
315.771	87.88
316.001	95.88
316.23	87.88
316.46	80.88
316.689	105.88
316.919	90.88
317.148	96.88
317.377	93.88
317.607	87.88
317.836	97.88
318.065	82.88
318.295	80.88
318.524	88.88
318.753	101.88
318.983	79.88
319.212	100.88
319.441	104.88
319.67	106.88
319.9	101.88
320.129	87.88
320.358	95.88
320.587	89.88
320.816	95.88
321.046	99.88
321.275	82.88
321.504	96.88
321.733	84.88
321.962	84.88
322.191	105.88
322.42	91.88
322.649	99.88
322.878	114.88
323.108	117.88
323.337	126.88
323.566	132.88
323.795	144.88
324.024	211.88
324.253	391.88
324.482	816.88
324.71	1671.88
324.939	2225.88
325.168	814.88
325.397	229.88
325.626	143.88
325.855	123.88
326.084	123.88
326.313	127.88
326.542	160.88
326.77	237.88
326.999	470.88
327.228	946.88
327.457	1687.88
327.686	1391.88
327.914	412.88
328.143	259.88
328.372	281.88
328.6	188.88
328.829	127.88
329.058	140.88
329.287	137.88
329.515	137.88
329.744	159.88
329.972	200.88
330.201	358.88
330.43	485.88
330.658	269.88
330.887	169.88
331.115	127.88
331.344	102.88
331.572	125.88
331.801	109.88
332.03	84.88
332.258	97.88
332.486	94.88
332.715	89.88
332.943	103.88
333.172	94.88
333.4	107.88
333.629	115.88
333.857	121.88
334.085	203.88
334.314	347.88
334.542	616.88
334.771	585.88
334.999	183.88
335.227	122.88
335.455	98.88
335.684	104.88
335.912	99.88
336.14	99.88
336.369	89.88
336.597	95.88
336.825	98.88
337.053	93.88
337.281	77.88
337.51	90.88
337.738	87.88
337.966	93.88
338.194	105.88
338.422	90.88
338.65	106.88
338.878	99.88
339.106	92.88
339.334	108.88
339.562	91.88
339.79	76.88
340.018	82.88
340.246	90.88
340.474	101.88
340.702	93.88
340.93	96.88
341.158	85.88
341.386	96.88
341.614	94.88
341.842	86.88
342.07	87.88
342.298	78.88
342.526	95.88
342.754	94.88
342.981	104.88
343.209	101.88
343.437	105.88
343.665	84.88
343.893	81.88
344.12	93.88
344.348	79.88
344.576	94.88
344.804	89.88
345.031	94.88
345.259	97.88
345.487	98.88
345.714	97.88
345.942	100.88
346.17	82.88
346.397	90.88
346.625	81.88
346.853	101.88
347.08	86.88
347.308	99.88
347.535	92.88
347.763	95.88
347.99	97.88
348.218	89.88
348.445	86.88
348.673	108.88
348.9	89.88
349.128	100.88
349.355	82.88
349.583	89.88
349.81	85.88
350.037	90.88
350.265	75.88
350.492	96.88
350.72	97.88
350.947	93.88
351.174	103.88
351.402	113.88
351.629	91.88
351.856	88.88
352.083	93.88
352.311	104.88
352.538	95.88
352.765	103.88
352.992	106.88
353.22	108.88
353.447	98.88
353.674	88.88
353.901	85.88
354.128	103.88
354.355	89.88
354.583	98.88
354.81	99.88
355.037	91.88
355.264	92.88
355.491	88.88
355.718	94.88
355.945	104.88
356.172	91.88
356.399	95.88
356.626	95.88
356.853	78.88
357.08	91.88
357.307	95.88
357.534	83.88
357.761	109.88
357.988	98.88
358.215	82.88
358.441	94.88
358.668	89.88
358.895	97.88
359.122	85.88
359.349	85.88
359.576	94.88
359.802	104.88
360.029	114.88
360.256	103.88
360.483	95.88
360.709	91.88
360.936	85.88
361.163	95.88
361.39	92.88
361.616	95.88
361.843	78.88
362.07	88.88
362.296	90.88
362.523	101.88
362.749	87.88
362.976	89.88
363.203	86.88
363.429	85.88
363.656	99.88
363.882	87.88
364.109	90.88
364.335	80.88
364.562	88.88
364.788	71.88
365.015	102.88
365.241	93.88
365.468	91.88
365.694	101.88
365.92	87.88
366.147	89.88
366.373	89.88
366.599	90.88
366.826	93.88
367.052	98.88
367.278	75.88
367.505	88.88
367.731	95.88
367.957	89.88
368.184	87.88
368.41	98.88
368.636	92.88
368.862	116.88
369.089	97.88
369.315	109.88
369.541	98.88
369.767	76.88
369.993	85.88
370.219	86.88
370.445	77.88
370.672	78.88
370.898	84.88
371.124	97.88
371.35	90.88
371.576	81.88
371.802	92.88
372.028	78.88
372.254	88.88
372.48	87.88
372.706	99.88
372.932	92.88
373.158	93.88
373.384	91.88
373.61	89.88
373.835	97.88
374.061	101.88
374.287	96.88
374.513	90.88
374.739	82.88
374.965	80.88
375.191	101.88
375.416	92.88
375.642	84.88
375.868	104.88
376.094	91.88
376.319	84.88
376.545	85.88
376.771	95.88
376.997	82.88
377.222	93.88
377.448	95.88
377.674	81.88
377.899	87.88
378.125	86.88
378.35	85.88
378.576	77.88
378.802	91.88
379.027	92.88
379.253	98.88
379.478	82.88
379.704	88.88
379.929	106.88
380.155	96.88
380.38	90.88
380.606	92.88
380.831	102.88
381.057	81.88
381.282	88.88
381.507	96.88
381.733	98.88
381.958	97.88
382.184	97.88
382.409	100.88
382.634	101.88
382.86	85.88
383.085	88.88
383.31	102.88
383.535	99.88
383.761	103.88
383.986	101.88
384.211	93.88
384.436	94.88
384.662	122.88
384.887	105.88
385.112	95.88
385.337	106.88
385.562	122.88
385.787	113.88
386.013	111.88
386.238	120.88
386.463	96.88
386.688	117.88
386.913	108.88
387.138	119.88
387.363	108.88
387.588	113.88
387.813	110.88
388.038	109.88
388.263	121.88
388.488	121.88
388.713	107.88
388.938	91.88
389.163	91.88
389.387	83.88
389.612	75.88
389.837	91.88
390.062	76.88
390.287	90.88
390.512	97.88
390.736	88.88
390.961	90.88
391.186	101.88
391.411	96.88
391.636	93.88
391.86	85.88
392.085	83.88
392.31	100.88
392.534	68.88
392.759	87.88
392.984	82.88
393.208	76.88
393.433	81.88
393.658	81.88
393.882	92.88
394.107	84.88
394.331	84.88
394.556	97.88
394.78	71.88
395.005	93.88
395.229	93.88
395.454	98.88
395.678	91.88
395.903	97.88
396.127	95.88
396.352	96.88
396.576	89.88
396.801	90.88
397.025	77.88
397.249	88.88
397.474	88.88
397.698	80.88
397.922	84.88
398.147	91.88
398.371	90.88
398.595	96.88
398.82	80.88
399.044	89.88
399.268	85.88
399.492	87.88
399.717	75.88
399.941	89.88
400.165	93.88
400.389	98.88
400.613	88.88
400.837	103.88
401.062	88.88
401.286	71.88
401.51	84.88
401.734	87.88
401.958	106.88
402.182	111.88
402.406	157.88
402.63	115.88
402.854	105.88
403.078	83.88
403.302	88.88
403.526	77.88
403.75	87.88
403.974	83.88
404.198	81.88
404.422	80.88
404.645	82.88
404.869	75.88
405.093	109.88
405.317	109.88
405.541	125.88
405.765	103.88
405.988	99.88
406.212	162.88
406.436	223.88
406.66	138.88
406.883	101.88
407.107	97.88
407.331	111.88
407.555	80.88
407.778	89.88
408.002	89.88
408.226	91.88
408.449	90.88
408.673	103.88
408.896	87.88
409.12	102.88
409.344	95.88
409.567	95.88
409.791	89.88
410.014	100.88
410.238	95.88
410.461	92.88
410.685	98.88
410.908	96.88
411.132	105.88
411.355	102.88
411.578	97.88
411.802	79.88
412.025	95.88
412.249	98.88
412.472	111.88
412.695	122.88
412.919	102.88
413.142	97.88
413.365	95.88
413.589	83.88
413.812	90.88
414.035	85.88
414.258	87.88
414.482	85.88
414.705	84.88
414.928	72.88
415.151	82.88
415.374	78.88
415.597	84.88
415.821	96.88
416.044	90.88
416.267	96.88
416.49	81.88
416.713	73.88
416.936	109.88
417.159	71.88
417.382	89.88
417.605	101.88
417.828	102.88
418.051	89.88
418.274	98.88
418.497	88.88
418.72	82.88
418.943	84.88
419.166	85.88
419.389	91.88
419.611	93.88
419.834	75.88
420.057	85.88
420.28	95.88
420.503	87.88
420.726	76.88
420.948	64.88
421.171	102.88
421.394	80.88
421.617	89.88
421.839	82.88
422.062	75.88
422.285	92.88
422.507	108.88
422.73	89.88
422.953	87.88
423.175	100.88
423.398	95.88
423.621	90.88
423.843	77.88
424.066	81.88
424.288	105.88
424.511	85.88
424.733	89.88
424.956	96.88
425.178	98.88
425.401	105.88
425.623	119.88
425.846	96.88
426.068	103.88
426.291	92.88
426.513	91.88
426.735	100.88
426.958	95.88
427.18	114.88
427.402	162.88
427.625	203.88
427.847	175.88
428.069	170.88
428.292	101.88
428.514	87.88
428.736	82.88
428.958	81.88
429.181	97.88
429.403	94.88
429.625	95.88
429.847	89.88
430.069	93.88
430.292	85.88
430.514	88.88
430.736	83.88
430.958	86.88
431.18	85.88
431.402	77.88
431.624	88.88
431.846	93.88
432.068	89.88
432.29	80.88
432.512	87.88
432.734	77.88
432.956	90.88
433.178	96.88
433.4	109.88
433.622	107.88
433.844	99.88
434.066	91.88
434.287	96.88
434.509	83.88
434.731	75.88
434.953	84.88
435.175	93.88
435.397	89.88
435.618	79.88
435.84	96.88
436.062	125.88
436.284	114.88
436.505	112.88
436.727	91.88
436.949	97.88
437.17	75.88
437.392	83.88
437.614	90.88
437.835	119.88
438.057	119.88
438.278	112.88
438.5	114.88
438.721	130.88
438.943	95.88
439.165	78.88
439.386	84.88
439.608	93.88
439.829	97.88
440.05	122.88
440.272	145.88
440.493	111.88
440.715	90.88
440.936	81.88
441.158	94.88
441.379	86.88
441.6	97.88
441.822	100.88
442.043	97.88
442.264	114.88
442.486	96.88
442.707	97.88
442.928	114.88
443.149	145.88
443.371	135.88
443.592	106.88
443.813	117.88
444.034	104.88
444.255	76.88
444.476	83.88
444.698	75.88
444.919	107.88
445.14	127.88
445.361	117.88
445.582	139.88
445.803	127.88
446.024	147.88
446.245	137.88
446.466	112.88
446.687	92.88
446.908	89.88
447.129	89.88
447.35	86.88
447.571	86.88
447.792	89.88
448.013	93.88
448.234	105.88
448.455	105.88
448.675	114.88
448.896	121.88
449.117	105.88
449.338	105.88
449.559	145.88
449.779	128.88
450	90.88
450.221	81.88
450.442	69.88
450.662	91.88
450.883	110.88
451.104	130.88
451.324	113.88
451.545	89.88
451.766	94.88
451.986	93.88
452.207	96.88
452.428	89.88
452.648	94.88
452.869	110.88
453.089	108.88
453.31	124.88
453.53	89.88
453.751	92.88
453.971	94.88
454.192	110.88
454.412	86.88
454.633	75.88
454.853	79.88
455.073	77.88
455.294	97.88
455.514	95.88
455.734	98.88
455.955	92.88
456.175	87.88
456.395	92.88
456.616	87.88
456.836	82.88
457.056	77.88
457.276	77.88
457.497	91.88
457.717	83.88
457.937	78.88
458.157	73.88
458.377	79.88
458.598	112.88
458.818	147.88
459.038	161.88
459.258	110.88
459.478	95.88
459.698	75.88
459.918	80.88
460.138	95.88
460.358	91.88
460.578	85.88
460.798	103.88
461.018	82.88
461.238	94.88
461.458	81.88
461.678	80.88
461.898	80.88
462.118	93.88
462.338	79.88
462.558	81.88
462.777	82.88
462.997	92.88
463.217	83.88
463.437	85.88
463.657	58.88
463.876	80.88
464.096	96.88
464.316	87.88
464.536	102.88
464.755	101.88
464.975	99.88
465.195	177.88
465.414	147.88
465.634	97.88
465.854	85.88
466.073	94.88
466.293	77.88
466.512	83.88
466.732	101.88
466.951	84.88
467.171	83.88
467.391	79.88
467.61	125.88
467.829	118.88
468.049	225.88
468.268	316.88
468.488	113.88
468.707	91.88
468.927	92.88
469.146	82.88
469.365	87.88
469.585	81.88
469.804	95.88
470.023	94.88
470.243	100.88
470.462	107.88
470.681	119.88
470.901	94.88
471.12	80.88
471.339	76.88
471.558	89.88
471.777	98.88
471.997	153.88
472.216	407.88
472.435	828.88
472.654	242.88
472.873	99.88
473.092	83.88
473.311	85.88
473.53	88.88
473.749	78.88
473.968	97.88
474.187	107.88
474.406	97.88
474.625	85.88
474.844	90.88
475.063	84.88
475.282	82.88
475.501	84.88
475.72	83.88
475.939	84.88
476.158	88.88
476.377	77.88
476.596	79.88
476.814	83.88
477.033	81.88
477.252	72.88
477.471	78.88
477.69	89.88
477.908	96.88
478.127	71.88
478.346	81.88
478.564	87.88
478.783	92.88
479.002	95.88
479.22	91.88
479.439	109.88
479.658	105.88
479.876	101.88
480.095	100.88
480.313	100.88
480.532	110.88
480.751	145.88
480.969	398.88
481.188	1441.88
481.406	866.88
481.624	173.88
481.843	101.88
482.061	109.88
482.28	88.88
482.498	80.88
482.717	95.88
482.935	93.88
483.153	91.88
483.372	78.88
483.59	82.88
483.808	88.88
484.027	95.88
484.245	97.88
484.463	79.88
484.681	88.88
484.9	88.88
485.118	88.88
485.336	96.88
485.554	91.88
485.772	100.88
485.99	108.88
486.209	94.88
486.427	114.88
486.645	103.88
486.863	113.88
487.081	99.88
487.299	94.88
487.517	107.88
487.735	102.88
487.953	99.88
488.171	91.88
488.389	87.88
488.607	97.88
488.825	92.88
489.043	87.88
489.261	81.88
489.479	87.88
489.696	91.88
489.914	108.88
490.132	101.88
490.35	98.88
490.568	83.88
490.786	87.88
491.003	85.88
491.221	119.88
491.439	84.88
491.657	93.88
491.874	79.88
492.092	98.88
492.31	76.88
492.527	98.88
492.745	95.88
492.963	95.88
493.18	96.88
493.398	91.88
493.615	104.88
493.833	95.88
494.05	95.88
494.268	79.88
494.485	74.88
494.703	89.88
494.92	87.88
495.138	82.88
495.355	85.88
495.573	89.88
495.79	89.88
496.008	97.88
496.225	91.88
496.442	96.88
496.66	84.88
496.877	78.88
497.094	87.88
497.312	89.88
497.529	92.88
497.746	83.88
497.963	68.88
498.181	81.88
498.398	86.88
498.615	94.88
498.832	117.88
499.049	83.88
499.267	84.88
499.484	92.88
499.701	89.88
499.918	98.88
500.135	91.88
500.352	81.88
500.569	87.88
500.786	95.88
501.003	97.88
501.22	84.88
501.437	87.88
501.654	99.88
501.871	109.88
502.088	81.88
502.305	99.88
502.522	88.88
502.739	73.88
502.956	93.88
503.172	90.88
503.389	83.88
503.606	102.88
503.823	105.88
504.04	98.88
504.256	89.88
504.473	92.88
504.69	97.88
504.907	90.88
505.123	92.88
505.34	95.88
505.557	87.88
505.773	102.88
505.99	90.88
506.207	83.88
506.423	98.88
506.64	82.88
506.856	84.88
507.073	92.88
507.289	89.88
507.506	93.88
507.722	116.88
507.939	112.88
508.155	105.88
508.372	96.88
508.588	93.88
508.805	101.88
509.021	80.88
509.238	79.88
509.454	66.88
509.67	96.88
509.887	109.88
510.103	124.88
510.319	197.88
510.536	665.88
510.752	2105.88
510.968	596.88
511.184	153.88
511.401	100.88
511.617	110.88
511.833	95.88
512.049	102.88
512.265	93.88
512.481	75.88
512.698	94.88
512.914	101.88
513.13	90.88
513.346	96.88
513.562	95.88
513.778	96.88
513.994	95.88
514.21	104.88
514.426	105.88
514.642	116.88
514.858	137.88
515.074	163.88
515.29	406.88
515.506	1399.88
515.721	531.88
515.937	157.88
516.153	111.88
516.369	83.88
516.585	89.88
516.801	90.88
517.016	85.88
517.232	95.88
517.448	89.88
517.664	84.88
517.879	82.88
518.095	86.88
518.311	94.88
518.527	88.88
518.742	92.88
518.958	91.88
519.173	88.88
519.389	91.88
519.605	84.88
519.82	99.88
520.036	105.88
520.251	114.88
520.467	93.88
520.682	96.88
520.898	97.88
521.113	104.88
521.329	136.88
521.544	185.88
521.76	532.88
521.975	2309.88
522.19	1412.88
522.406	314.88
522.621	131.88
522.836	97.88
523.052	107.88
523.267	85.88
523.482	97.88
523.698	113.88
523.913	130.88
524.128	103.88
524.343	96.88
524.559	91.88
524.774	88.88
524.989	105.88
525.204	101.88
525.419	91.88
525.634	90.88
525.849	87.88
526.064	87.88
526.28	90.88
526.495	97.88
526.71	89.88
526.925	78.88
527.14	85.88
527.355	87.88
527.57	91.88
527.785	85.88
527.999	104.88
528.214	90.88
528.429	91.88
528.644	103.88
528.859	71.88
529.074	78.88
529.289	135.88
529.503	177.88
529.718	99.88
529.933	105.88
530.148	91.88
530.363	75.88
530.577	89.88
530.792	65.88
531.007	89.88
531.221	91.88
531.436	87.88
531.651	107.88
531.865	97.88
532.08	87.88
532.295	90.88
532.509	82.88
532.724	79.88
532.938	101.88
533.153	84.88
533.367	92.88
533.582	92.88
533.796	93.88
534.011	87.88
534.225	85.88
534.44	80.88
534.654	79.88
534.868	96.88
535.083	74.88
535.297	88.88
535.511	102.88
535.726	93.88
535.94	97.88
536.154	80.88
536.369	89.88
536.583	77.88
536.797	82.88
537.011	88.88
537.225	97.88
537.44	85.88
537.654	92.88
537.868	87.88
538.082	79.88
538.296	82.88
538.51	93.88
538.724	88.88
538.938	98.88
539.153	95.88
539.367	108.88
539.581	71.88
539.795	73.88
540.009	96.88
540.222	91.88
540.436	85.88
540.65	88.88
540.864	91.88
541.078	102.88
541.292	101.88
541.506	75.88
541.72	84.88
541.934	76.88
542.147	85.88
542.361	66.88
542.575	102.88
542.789	92.88
543.002	79.88
543.216	100.88
543.43	102.88
543.644	95.88
543.857	93.88
544.071	84.88
544.285	95.88
544.498	87.88
544.712	94.88
544.925	97.88
545.139	82.88
545.352	75.88
545.566	87.88
545.779	88.88
545.993	90.88
546.206	94.88
546.42	98.88
546.633	90.88
546.847	110.88
547.06	87.88
547.274	97.88
547.487	102.88
547.7	68.88
547.914	71.88
548.127	90.88
548.34	100.88
548.554	82.88
548.767	80.88
548.98	100.88
549.193	79.88
549.407	81.88
549.62	82.88
549.833	90.88
550.046	78.88
550.259	82.88
550.473	88.88
550.686	96.88
550.899	89.88
551.112	96.88
551.325	86.88
551.538	93.88
551.751	86.88
551.964	80.88
552.177	94.88
552.39	112.88
552.603	95.88
552.816	96.88
553.029	81.88
553.242	86.88
553.455	89.88
553.667	91.88
553.88	83.88
554.093	85.88
554.306	96.88
554.519	87.88
554.732	93.88
554.944	87.88
555.157	90.88
555.37	88.88
555.583	76.88
555.795	92.88
556.008	94.88
556.221	92.88
556.433	87.88
556.646	89.88
556.859	92.88
557.071	97.88
557.284	96.88
557.496	90.88
557.709	86.88
557.921	85.88
558.134	74.88
558.346	84.88
558.559	105.88
558.771	90.88
558.984	65.88
559.196	92.88
559.409	83.88
559.621	81.88
559.833	76.88
560.046	94.88
560.258	74.88
560.47	95.88
560.683	98.88
560.895	85.88
561.107	91.88
561.32	82.88
561.532	107.88
561.744	87.88
561.956	93.88
562.168	75.88
562.381	82.88
562.593	80.88
562.805	81.88
563.017	91.88
563.229	105.88
563.441	78.88
563.653	62.88
563.865	74.88
564.077	94.88
564.289	99.88
564.501	87.88
564.713	94.88
564.925	93.88
565.137	90.88
565.349	82.88
565.561	100.88
565.773	85.88
565.985	81.88
566.197	77.88
566.408	88.88
566.62	89.88
566.832	91.88
567.044	84.88
567.255	92.88
567.467	84.88
567.679	91.88
567.891	79.88
568.102	69.88
568.314	87.88
568.526	91.88
568.737	76.88
568.949	77.88
569.161	80.88
569.372	79.88
569.584	86.88
569.795	96.88
570.007	104.88
570.218	207.88
570.43	118.88
570.641	89.88
570.853	99.88
571.064	87.88
571.276	71.88
571.487	83.88
571.698	83.88
571.91	77.88
572.121	83.88
572.333	98.88
572.544	82.88
572.755	85.88
572.966	88.88
573.178	87.88
573.389	80.88
573.6	81.88
573.811	75.88
574.023	85.88
574.234	100.88
574.445	101.88
574.656	71.88
574.867	81.88
575.078	68.88
575.289	86.88
575.501	87.88
575.712	97.88
575.923	85.88
576.134	78.88
576.345	85.88
576.556	77.88
576.767	82.88
576.978	78.88
577.188	83.88
577.399	92.88
577.61	90.88
577.821	91.88
578.032	109.88
578.243	236.88
578.454	628.88
578.665	191.88
578.875	97.88
579.086	90.88
579.297	82.88
579.508	96.88
579.718	80.88
579.929	98.88
580.14	83.88
580.35	88.88
580.561	82.88
580.772	106.88
580.982	105.88
581.193	82.88
581.403	94.88
581.614	80.88
581.825	94.88
582.035	83.88
582.246	87.88
582.456	79.88
582.667	84.88
582.877	85.88
583.087	69.88
583.298	75.88
583.508	94.88
583.719	94.88
583.929	89.88
584.139	91.88
584.35	87.88
584.56	80.88
584.77	83.88
584.981	90.88
585.191	93.88
585.401	86.88
585.611	85.88
585.821	80.88
586.032	83.88
586.242	91.88
586.452	75.88
586.662	77.88
586.872	73.88
587.082	71.88
587.292	77.88
587.502	92.88
587.713	86.88
587.923	91.88
588.133	78.88
588.343	87.88
588.553	97.88
588.762	89.88
588.972	112.88
589.182	212.88
589.392	140.88
589.602	115.88
589.812	178.88
590.022	107.88
590.232	87.88
590.441	82.88
590.651	95.88
590.861	88.88
591.071	85.88
591.281	75.88
591.49	83.88
591.7	87.88
591.91	92.88
592.119	85.88
592.329	88.88
592.539	92.88
592.748	93.88
592.958	77.88
593.167	96.88
593.377	74.88
593.587	81.88
593.796	85.88
594.006	78.88
594.215	90.88
594.424	83.88
594.634	71.88
594.843	89.88
595.053	85.88
595.262	78.88
595.472	78.88
595.681	96.88
595.89	83.88
596.1	86.88
596.309	89.88
596.518	86.88
596.727	89.88
596.937	96.88
597.146	82.88
597.355	80.88
597.564	82.88
597.774	84.88
597.983	77.88
598.192	96.88
598.401	86.88
598.61	75.88
598.819	93.88
599.028	94.88
599.237	77.88
599.446	85.88
599.655	93.88
599.864	83.88
600.073	78.88
600.282	81.88
600.491	82.88
600.7	92.88
600.909	97.88
601.118	89.88
601.327	81.88
601.536	92.88
601.745	84.88
601.953	97.88
602.162	100.88
602.371	86.88
602.58	92.88
602.789	72.88
602.997	81.88
603.206	73.88
603.415	83.88
603.623	91.88
603.832	82.88
604.041	82.88
604.249	93.88
604.458	96.88
604.666	94.88
604.875	87.88
605.084	83.88
605.292	79.88
605.501	80.88
605.709	78.88
605.918	86.88
606.126	63.88
606.334	76.88
606.543	89.88
606.751	87.88
606.96	79.88
607.168	101.88
607.376	95.88
607.585	92.88
607.793	85.88
608.001	79.88
608.21	74.88
608.418	95.88
608.626	81.88
608.834	80.88
609.043	76.88
609.251	88.88
609.459	95.88
609.667	91.88
609.875	95.88
610.083	62.88
610.291	89.88
610.499	91.88
610.707	82.88
610.916	88.88
611.124	92.88
611.332	83.88
611.54	84.88
611.748	85.88
611.955	79.88
612.163	101.88
612.371	89.88
612.579	64.88
612.787	66.88
612.995	75.88
613.203	96.88
613.411	97.88
613.618	93.88
613.826	81.88
614.034	81.88
614.242	81.88
614.449	77.88
614.657	81.88
614.865	77.88
615.072	79.88
615.28	90.88
615.488	96.88
615.695	88.88
615.903	94.88
616.111	94.88
616.318	103.88
616.526	88.88
616.733	94.88
616.941	85.88
617.148	81.88
617.356	82.88
617.563	96.88
617.771	84.88
617.978	91.88
618.185	90.88
618.393	79.88
618.6	91.88
618.807	72.88
619.015	89.88
619.222	74.88
619.429	89.88
619.637	80.88
619.844	76.88
620.051	82.88
620.258	96.88
620.466	73.88
620.673	96.88
620.88	90.88
621.087	89.88
621.294	86.88
621.501	82.88
621.708	72.88
621.915	98.88
622.122	87.88
622.329	89.88
622.536	84.88
622.743	72.88
622.95	99.88
623.157	89.88
623.364	79.88
623.571	87.88
623.778	82.88
623.985	69.88
624.192	85.88
624.399	81.88
624.606	73.88
624.812	78.88
625.019	80.88
625.226	75.88
625.433	96.88
625.639	91.88
625.846	75.88
626.053	80.88
626.259	90.88
626.466	90.88
626.673	90.88
626.879	86.88
627.086	90.88
627.293	75.88
627.499	79.88
627.706	90.88
627.912	76.88
628.119	96.88
628.325	89.88
628.532	72.88
628.738	76.88
628.945	76.88
629.151	75.88
629.357	81.88
629.564	88.88
629.77	75.88
629.976	84.88
630.183	93.88
630.389	87.88
630.595	84.88
630.802	73.88
631.008	80.88
631.214	79.88
631.42	73.88
631.627	95.88
631.833	79.88
632.039	88.88
632.245	81.88
632.451	94.88
632.657	83.88
632.863	79.88
633.069	82.88
633.275	71.88
633.481	74.88
633.688	96.88
633.893	77.88
634.099	87.88
634.305	89.88
634.511	75.88
634.717	89.88
634.923	87.88
635.129	91.88
635.335	87.88
635.541	79.88
635.747	99.88
635.952	77.88
636.158	119.88
636.364	162.88
636.57	146.88
636.775	95.88
636.981	91.88
637.187	80.88
637.392	98.88
637.598	89.88
637.804	89.88
638.009	84.88
638.215	100.88
638.421	88.88
638.626	86.88
638.832	89.88
639.037	78.88
639.243	83.88
639.448	74.88
639.654	99.88
639.859	79.88
640.065	91.88
640.27	87.88
640.475	82.88
640.681	87.88
640.886	87.88
641.091	72.88
641.297	90.88
641.502	79.88
641.707	88.88
641.913	91.88
642.118	87.88
642.323	99.88
642.528	91.88
642.733	87.88
642.939	77.88
643.144	97.88
643.349	81.88
643.554	89.88
643.759	88.88
643.964	85.88
644.169	93.88
644.374	76.88
644.579	80.88
644.784	79.88
644.989	75.88
645.194	88.88
645.399	97.88
645.604	84.88
645.809	93.88
646.014	79.88
646.219	88.88
646.423	71.88
646.628	83.88
646.833	90.88
647.038	79.88
647.243	82.88
647.447	79.88
647.652	87.88
647.857	73.88
648.062	77.88
648.266	84.88
648.471	85.88
648.676	85.88
648.88	82.88
649.085	99.88
649.289	89.88
649.494	105.88
649.698	147.88
649.903	105.88
650.107	88.88
650.312	76.88
650.516	96.88
650.721	80.88
650.925	81.88
651.13	78.88
651.334	81.88
651.539	83.88
651.743	74.88
651.947	83.88
652.152	83.88
652.356	91.88
652.56	84.88
652.764	87.88
652.969	106.88
653.173	72.88
653.377	65.88
653.581	81.88
653.785	78.88
653.99	74.88
654.194	87.88
654.398	76.88
654.602	90.88
654.806	95.88
655.01	97.88
655.214	80.88
655.418	88.88
655.622	91.88
655.826	79.88
656.03	84.88
656.234	87.88
656.438	107.88
656.642	101.88
656.846	97.88
657.049	85.88
657.253	76.88
657.457	92.88
657.661	79.88
657.865	85.88
658.068	85.88
658.272	84.88
658.476	77.88
658.68	64.88
658.883	83.88
659.087	86.88
659.291	78.88
659.494	77.88
659.698	75.88
659.901	92.88
660.105	86.88
660.309	84.88
660.512	82.88
660.716	88.88
660.919	81.88
661.123	79.88
661.326	82.88
661.53	79.88
661.733	79.88
661.936	88.88
662.14	87.88
662.343	82.88
662.546	76.88
662.75	75.88
662.953	87.88
663.156	88.88
663.36	99.88
663.563	78.88
663.766	81.88
663.969	81.88
664.173	69.88
664.376	75.88
664.579	79.88
664.782	82.88
664.985	84.88
665.188	79.88
665.391	68.88
665.594	70.88
665.797	84.88
666	89.88
666.203	75.88
666.406	72.88
666.609	75.88
666.812	77.88
667.015	82.88
667.218	79.88
667.421	76.88
667.624	77.88
667.827	89.88
668.03	71.88
668.232	75.88
668.435	83.88
668.638	89.88
668.841	84.88
669.043	87.88
669.246	77.88
669.449	82.88
669.651	69.88
669.854	84.88
670.057	90.88
670.259	68.88
670.462	73.88
670.665	79.88
670.867	87.88
671.07	68.88
671.272	83.88
671.475	93.88
671.677	75.88
671.88	92.88
672.082	85.88
672.284	88.88
672.487	75.88
672.689	71.88
672.892	84.88
