Data from Circ_1992_H10_HRD10591_00065.txt Node
Date: Wed Jan 03 11:47:57 EST 2024
User: Yrep
Spectrometer: HR+D1059
Trigger mode: 1
Integration Time (sec): 1.000000E-1
Scans to average: 1
Electric dark correction enabled: true
Nonlinearity correction enabled: false
Boxcar width: 0
XAxis mode: Wavelengths
Number of Pixels in Spectrum: 2048
>>>>>Begin Spectral Data<<<<<
223.165	-12.44
223.4	-12.44
223.635	-12.44
223.869	-15.44
224.104	-11.44
224.338	-24.44
224.573	-26.44
224.808	-15.44
225.042	-13.44
225.277	-6.44
225.511	-0.44
225.746	10.56
225.98	6.56
226.215	13.56
226.449	18.56
226.683	22.56
226.918	27.56
227.152	26.56
227.387	32.56
227.621	46.56
227.856	38.56
228.09	48.56
228.324	46.56
228.559	57.56
228.793	56.56
229.027	53.56
229.262	53.56
229.496	63.56
229.73	67.56
229.964	84.56
230.199	73.56
230.433	70.56
230.667	80.56
230.901	81.56
231.136	69.56
231.37	90.56
231.604	80.56
231.838	72.56
232.072	87.56
232.306	84.56
232.541	72.56
232.775	84.56
233.009	78.56
233.243	75.56
233.477	80.56
233.711	82.56
233.945	77.56
234.179	81.56
234.413	73.56
234.647	58.56
234.881	66.56
235.115	68.56
235.349	79.56
235.583	66.56
235.817	80.56
236.051	83.56
236.285	84.56
236.519	82.56
236.753	87.56
236.987	87.56
237.221	80.56
237.455	69.56
237.689	101.56
237.922	69.56
238.156	68.56
238.39	73.56
238.624	70.56
238.858	74.56
239.091	77.56
239.325	81.56
239.559	76.56
239.793	83.56
240.027	74.56
240.26	65.56
240.494	85.56
240.728	82.56
240.961	69.56
241.195	91.56
241.429	71.56
241.662	80.56
241.896	69.56
242.13	66.56
242.363	72.56
242.597	75.56
242.83	80.56
243.064	78.56
243.298	74.56
243.531	90.56
243.765	80.56
243.998	79.56
244.232	69.56
244.465	75.56
244.699	76.56
244.932	68.56
245.166	82.56
245.399	85.56
245.633	83.56
245.866	75.56
246.099	83.56
246.333	73.56
246.566	72.56
246.8	68.56
247.033	89.56
247.266	71.56
247.5	76.56
247.733	85.56
247.966	75.56
248.2	90.56
248.433	74.56
248.666	82.56
248.899	78.56
249.133	88.56
249.366	90.56
249.599	91.56
249.832	81.56
250.066	84.56
250.299	90.56
250.532	88.56
250.765	74.56
250.998	75.56
251.231	83.56
251.465	81.56
251.698	89.56
251.931	67.56
252.164	81.56
252.397	75.56
252.63	87.56
252.863	65.56
253.096	65.56
253.329	78.56
253.562	79.56
253.795	89.56
254.028	84.56
254.261	73.56
254.494	87.56
254.727	80.56
254.96	84.56
255.193	63.56
255.426	87.56
255.659	79.56
255.892	80.56
256.124	102.56
256.357	77.56
256.59	74.56
256.823	87.56
257.056	77.56
257.289	82.56
257.521	70.56
257.754	73.56
257.987	85.56
258.22	87.56
258.452	99.56
258.685	90.56
258.918	73.56
259.151	82.56
259.383	76.56
259.616	81.56
259.849	84.56
260.081	93.56
260.314	91.56
260.547	85.56
260.779	85.56
261.012	84.56
261.244	85.56
261.477	93.56
261.71	79.56
261.942	107.56
262.175	108.56
262.407	89.56
262.64	93.56
262.872	82.56
263.105	74.56
263.337	65.56
263.57	93.56
263.802	70.56
264.035	77.56
264.267	87.56
264.499	76.56
264.732	88.56
264.964	83.56
265.197	83.56
265.429	80.56
265.661	83.56
265.894	80.56
266.126	80.56
266.358	79.56
266.591	101.56
266.823	85.56
267.055	91.56
267.287	74.56
267.52	76.56
267.752	92.56
267.984	89.56
268.216	92.56
268.448	81.56
268.681	86.56
268.913	79.56
269.145	79.56
269.377	88.56
269.609	80.56
269.841	75.56
270.073	77.56
270.306	89.56
270.538	82.56
270.77	81.56
271.002	85.56
271.234	91.56
271.466	91.56
271.698	88.56
271.93	80.56
272.162	81.56
272.394	99.56
272.626	85.56
272.858	82.56
273.09	92.56
273.322	92.56
273.553	82.56
273.785	92.56
274.017	82.56
274.249	88.56
274.481	98.56
274.713	90.56
274.945	66.56
275.176	92.56
275.408	97.56
275.64	85.56
275.872	97.56
276.104	78.56
276.335	81.56
276.567	101.56
276.799	104.56
277.031	93.56
277.262	96.56
277.494	105.56
277.726	84.56
277.957	95.56
278.189	94.56
278.421	72.56
278.652	101.56
278.884	88.56
279.115	85.56
279.347	90.56
279.579	88.56
279.81	98.56
280.042	117.56
280.273	138.56
280.505	100.56
280.736	86.56
280.968	102.56
281.199	83.56
281.431	76.56
281.662	87.56
281.894	82.56
282.125	89.56
282.356	99.56
282.588	129.56
282.819	107.56
283.051	96.56
283.282	89.56
283.513	94.56
283.745	76.56
283.976	97.56
284.207	78.56
284.439	95.56
284.67	89.56
284.901	82.56
285.132	102.56
285.364	78.56
285.595	85.56
285.826	102.56
286.057	83.56
286.288	75.56
286.52	90.56
286.751	96.56
286.982	75.56
287.213	80.56
287.444	99.56
287.675	89.56
287.906	93.56
288.138	88.56
288.369	92.56
288.6	87.56
288.831	77.56
289.062	81.56
289.293	87.56
289.524	84.56
289.755	84.56
289.986	91.56
290.217	82.56
290.448	85.56
290.679	89.56
290.91	98.56
291.141	95.56
291.371	106.56
291.602	89.56
291.833	85.56
292.064	90.56
292.295	85.56
292.526	84.56
292.757	87.56
292.987	83.56
293.218	92.56
293.449	94.56
293.68	95.56
293.91	85.56
294.141	79.56
294.372	75.56
294.603	79.56
294.833	79.56
295.064	68.56
295.295	97.56
295.525	81.56
295.756	88.56
295.987	126.56
296.217	129.56
296.448	118.56
296.679	85.56
296.909	73.56
297.14	95.56
297.37	85.56
297.601	78.56
297.831	88.56
298.062	82.56
298.292	76.56
298.523	98.56
298.753	82.56
298.984	115.56
299.214	84.56
299.445	85.56
299.675	97.56
299.905	93.56
300.136	81.56
300.366	81.56
300.597	83.56
300.827	88.56
301.057	97.56
301.288	113.56
301.518	90.56
301.748	90.56
301.979	112.56
302.209	88.56
302.439	93.56
302.669	94.56
302.9	88.56
303.13	99.56
303.36	97.56
303.59	101.56
303.82	101.56
304.051	85.56
304.281	82.56
304.511	94.56
304.741	93.56
304.971	82.56
305.201	84.56
305.431	87.56
305.661	85.56
305.891	82.56
306.121	101.56
306.352	98.56
306.582	98.56
306.812	92.56
307.042	97.56
307.272	113.56
307.502	123.56
307.731	123.56
307.961	105.56
308.191	91.56
308.421	95.56
308.651	93.56
308.881	82.56
309.111	84.56
309.341	81.56
309.571	114.56
309.8	94.56
310.03	95.56
310.26	94.56
310.49	105.56
310.72	85.56
310.949	85.56
311.179	106.56
311.409	80.56
311.639	78.56
311.868	106.56
312.098	81.56
312.328	100.56
312.557	95.56
312.787	96.56
313.017	93.56
313.246	99.56
313.476	88.56
313.706	84.56
313.935	91.56
314.165	94.56
314.394	97.56
314.624	96.56
314.853	113.56
315.083	93.56
315.312	93.56
315.542	93.56
315.771	89.56
316.001	86.56
316.23	91.56
316.46	84.56
316.689	84.56
316.919	94.56
317.148	90.56
317.377	91.56
317.607	98.56
317.836	96.56
318.065	90.56
318.295	96.56
318.524	93.56
318.753	82.56
318.983	100.56
319.212	97.56
319.441	97.56
319.67	95.56
319.9	101.56
320.129	92.56
320.358	91.56
320.587	83.56
320.816	97.56
321.046	115.56
321.275	95.56
321.504	100.56
321.733	99.56
321.962	82.56
322.191	93.56
322.42	87.56
322.649	104.56
322.878	106.56
323.108	108.56
323.337	116.56
323.566	142.56
323.795	141.56
324.024	196.56
324.253	385.56
324.482	823.56
324.71	1701.56
324.939	2275.56
325.168	819.56
325.397	234.56
325.626	158.56
325.855	127.56
326.084	106.56
326.313	129.56
326.542	163.56
326.77	228.56
326.999	459.56
327.228	977.56
327.457	1791.56
327.686	1393.56
327.914	406.56
328.143	262.56
328.372	286.56
328.6	177.56
328.829	136.56
329.058	121.56
329.287	139.56
329.515	127.56
329.744	150.56
329.972	213.56
330.201	369.56
330.43	524.56
330.658	256.56
330.887	152.56
331.115	120.56
331.344	102.56
331.572	94.56
331.801	106.56
332.03	103.56
332.258	97.56
332.486	91.56
332.715	92.56
332.943	97.56
333.172	102.56
333.4	101.56
333.629	109.56
333.857	124.56
334.085	201.56
334.314	364.56
334.542	641.56
334.771	581.56
334.999	216.56
335.227	116.56
335.455	100.56
335.684	97.56
335.912	104.56
336.14	98.56
336.369	89.56
336.597	100.56
336.825	92.56
337.053	96.56
337.281	96.56
337.51	105.56
337.738	94.56
337.966	101.56
338.194	89.56
338.422	96.56
338.65	85.56
338.878	96.56
339.106	93.56
339.334	93.56
339.562	81.56
339.79	83.56
340.018	95.56
340.246	104.56
340.474	93.56
340.702	77.56
340.93	100.56
341.158	98.56
341.386	85.56
341.614	95.56
341.842	94.56
342.07	91.56
342.298	82.56
342.526	94.56
342.754	83.56
342.981	91.56
343.209	89.56
343.437	81.56
343.665	96.56
343.893	91.56
344.12	92.56
344.348	78.56
344.576	89.56
344.804	94.56
345.031	88.56
345.259	98.56
345.487	90.56
345.714	96.56
345.942	100.56
346.17	81.56
346.397	82.56
346.625	91.56
346.853	89.56
347.08	88.56
347.308	94.56
347.535	90.56
347.763	87.56
347.99	96.56
348.218	76.56
348.445	94.56
348.673	99.56
348.9	94.56
349.128	82.56
349.355	84.56
349.583	102.56
349.81	81.56
350.037	89.56
350.265	72.56
350.492	86.56
350.72	103.56
350.947	94.56
351.174	94.56
351.402	112.56
351.629	96.56
351.856	106.56
352.083	98.56
352.311	100.56
352.538	100.56
352.765	103.56
352.992	105.56
353.22	100.56
353.447	96.56
353.674	94.56
353.901	99.56
354.128	101.56
354.355	89.56
354.583	108.56
354.81	95.56
355.037	90.56
355.264	96.56
355.491	101.56
355.718	86.56
355.945	89.56
356.172	87.56
356.399	93.56
356.626	97.56
356.853	107.56
357.08	86.56
357.307	85.56
357.534	96.56
357.761	91.56
357.988	100.56
358.215	101.56
358.441	88.56
358.668	90.56
358.895	95.56
359.122	95.56
359.349	86.56
359.576	84.56
359.802	91.56
360.029	108.56
360.256	80.56
360.483	95.56
360.709	81.56
360.936	93.56
361.163	99.56
361.39	93.56
361.616	92.56
361.843	90.56
362.07	81.56
362.296	74.56
362.523	95.56
362.749	89.56
362.976	88.56
363.203	93.56
363.429	80.56
363.656	86.56
363.882	89.56
364.109	85.56
364.335	86.56
364.562	88.56
364.788	86.56
365.015	89.56
365.241	92.56
365.468	108.56
365.694	94.56
365.92	78.56
366.147	75.56
366.373	76.56
366.599	81.56
366.826	83.56
367.052	97.56
367.278	94.56
367.505	92.56
367.731	81.56
367.957	92.56
368.184	92.56
368.41	102.56
368.636	97.56
368.862	101.56
369.089	97.56
369.315	102.56
369.541	93.56
369.767	93.56
369.993	88.56
370.219	80.56
370.445	94.56
370.672	93.56
370.898	75.56
371.124	91.56
371.35	88.56
371.576	85.56
371.802	97.56
372.028	85.56
372.254	86.56
372.48	76.56
372.706	80.56
372.932	77.56
373.158	90.56
373.384	96.56
373.61	82.56
373.835	91.56
374.061	83.56
374.287	97.56
374.513	89.56
374.739	86.56
374.965	101.56
375.191	89.56
375.416	92.56
375.642	96.56
375.868	97.56
376.094	84.56
376.319	92.56
376.545	70.56
376.771	77.56
376.997	92.56
377.222	81.56
377.448	85.56
377.674	84.56
377.899	92.56
378.125	104.56
378.35	97.56
378.576	85.56
378.802	94.56
379.027	90.56
379.253	93.56
379.478	83.56
379.704	94.56
379.929	83.56
380.155	74.56
380.38	83.56
380.606	98.56
380.831	93.56
381.057	97.56
381.282	88.56
381.507	99.56
381.733	90.56
381.958	94.56
382.184	88.56
382.409	99.56
382.634	99.56
382.86	105.56
383.085	95.56
383.31	88.56
383.535	88.56
383.761	94.56
383.986	83.56
384.211	110.56
384.436	94.56
384.662	104.56
384.887	97.56
385.112	103.56
385.337	98.56
385.562	106.56
385.787	88.56
386.013	105.56
386.238	110.56
386.463	108.56
386.688	108.56
386.913	97.56
387.138	94.56
387.363	100.56
387.588	85.56
387.813	99.56
388.038	113.56
388.263	112.56
388.488	107.56
388.713	90.56
388.938	87.56
389.163	91.56
389.387	93.56
389.612	83.56
389.837	102.56
390.062	96.56
390.287	84.56
390.512	104.56
390.736	92.56
390.961	88.56
391.186	92.56
391.411	85.56
391.636	87.56
391.86	95.56
392.085	81.56
392.31	97.56
392.534	90.56
392.759	84.56
392.984	70.56
393.208	101.56
393.433	77.56
393.658	88.56
393.882	79.56
394.107	97.56
394.331	96.56
394.556	90.56
394.78	87.56
395.005	88.56
395.229	93.56
395.454	89.56
395.678	82.56
395.903	77.56
396.127	85.56
396.352	87.56
396.576	81.56
396.801	95.56
397.025	86.56
397.249	82.56
397.474	86.56
397.698	89.56
397.922	91.56
398.147	85.56
398.371	69.56
398.595	85.56
398.82	95.56
399.044	90.56
399.268	81.56
399.492	77.56
399.717	79.56
399.941	94.56
400.165	94.56
400.389	84.56
400.613	81.56
400.837	92.56
401.062	93.56
401.286	92.56
401.51	94.56
401.734	97.56
401.958	106.56
402.182	123.56
402.406	144.56
402.63	107.56
402.854	79.56
403.078	83.56
403.302	85.56
403.526	74.56
403.75	74.56
403.974	99.56
404.198	88.56
404.422	89.56
404.645	82.56
404.869	93.56
405.093	93.56
405.317	103.56
405.541	113.56
405.765	88.56
405.988	107.56
406.212	145.56
406.436	189.56
406.66	133.56
406.883	99.56
407.107	98.56
407.331	76.56
407.555	89.56
407.778	86.56
408.002	89.56
408.226	90.56
408.449	80.56
408.673	78.56
408.896	92.56
409.12	86.56
409.344	95.56
409.567	89.56
409.791	90.56
410.014	80.56
410.238	78.56
410.461	92.56
410.685	110.56
410.908	85.56
411.132	101.56
411.355	84.56
411.578	69.56
411.802	87.56
412.025	90.56
412.249	91.56
412.472	108.56
412.695	122.56
412.919	100.56
413.142	92.56
413.365	86.56
413.589	98.56
413.812	94.56
414.035	89.56
414.258	102.56
414.482	90.56
414.705	92.56
414.928	83.56
415.151	95.56
415.374	98.56
415.597	93.56
415.821	73.56
416.044	88.56
416.267	75.56
416.49	88.56
416.713	72.56
416.936	79.56
417.159	94.56
417.382	78.56
417.605	79.56
417.828	84.56
418.051	96.56
418.274	83.56
418.497	91.56
418.72	87.56
418.943	93.56
419.166	97.56
419.389	102.56
419.611	78.56
419.834	106.56
420.057	96.56
420.28	89.56
420.503	93.56
420.726	83.56
420.948	81.56
421.171	100.56
421.394	88.56
421.617	89.56
421.839	93.56
422.062	80.56
422.285	86.56
422.507	103.56
422.73	87.56
422.953	92.56
423.175	80.56
423.398	79.56
423.621	78.56
423.843	93.56
424.066	94.56
424.288	97.56
424.511	91.56
424.733	90.56
424.956	88.56
425.178	97.56
425.401	97.56
425.623	101.56
425.846	94.56
426.068	109.56
426.291	88.56
426.513	100.56
426.735	93.56
426.958	102.56
427.18	120.56
427.402	136.56
427.625	161.56
427.847	157.56
428.069	166.56
428.292	102.56
428.514	81.56
428.736	87.56
428.958	74.56
429.181	89.56
429.403	94.56
429.625	83.56
429.847	106.56
430.069	104.56
430.292	90.56
430.514	83.56
430.736	67.56
430.958	75.56
431.18	88.56
431.402	81.56
431.624	88.56
431.846	76.56
432.068	82.56
432.29	99.56
432.512	95.56
432.734	87.56
432.956	97.56
433.178	83.56
433.4	109.56
433.622	99.56
433.844	92.56
434.066	82.56
434.287	93.56
434.509	87.56
434.731	92.56
434.953	76.56
435.175	79.56
435.397	85.56
435.618	89.56
435.84	93.56
436.062	122.56
436.284	123.56
436.505	88.56
436.727	93.56
436.949	96.56
437.17	85.56
437.392	89.56
437.614	95.56
437.835	106.56
438.057	109.56
438.278	95.56
438.5	100.56
438.721	114.56
438.943	94.56
439.165	77.56
439.386	79.56
439.608	90.56
439.829	90.56
440.05	129.56
440.272	133.56
440.493	107.56
440.715	100.56
440.936	87.56
441.158	102.56
441.379	85.56
441.6	96.56
441.822	92.56
442.043	75.56
442.264	107.56
442.486	99.56
442.707	90.56
442.928	99.56
443.149	120.56
443.371	133.56
443.592	106.56
443.813	109.56
444.034	99.56
444.255	96.56
444.476	88.56
444.698	89.56
444.919	86.56
445.14	125.56
445.361	120.56
445.582	100.56
445.803	122.56
446.024	132.56
446.245	132.56
446.466	96.56
446.687	85.56
446.908	92.56
447.129	93.56
447.35	98.56
447.571	82.56
447.792	94.56
448.013	84.56
448.234	100.56
448.455	79.56
448.675	121.56
448.896	112.56
449.117	100.56
449.338	93.56
449.559	113.56
449.779	129.56
450	88.56
450.221	80.56
450.442	85.56
450.662	95.56
450.883	83.56
451.104	102.56
451.324	99.56
451.545	83.56
451.766	85.56
451.986	79.56
452.207	82.56
452.428	101.56
452.648	97.56
452.869	109.56
453.089	123.56
453.31	97.56
453.53	95.56
453.751	76.56
453.971	100.56
454.192	93.56
454.412	89.56
454.633	77.56
454.853	81.56
455.073	84.56
455.294	108.56
455.514	104.56
455.734	74.56
455.955	77.56
456.175	82.56
456.395	89.56
456.616	72.56
456.836	86.56
457.056	92.56
457.276	77.56
457.497	84.56
457.717	88.56
457.937	88.56
458.157	81.56
458.377	82.56
458.598	97.56
458.818	128.56
459.038	151.56
459.258	93.56
459.478	82.56
459.698	94.56
459.918	78.56
460.138	85.56
460.358	94.56
460.578	78.56
460.798	94.56
461.018	85.56
461.238	66.56
461.458	82.56
461.678	83.56
461.898	82.56
462.118	82.56
462.338	88.56
462.558	86.56
462.777	80.56
462.997	92.56
463.217	89.56
463.437	67.56
463.657	78.56
463.876	86.56
464.096	88.56
464.316	89.56
464.536	97.56
464.755	85.56
464.975	98.56
465.195	153.56
465.414	126.56
465.634	101.56
465.854	95.56
466.073	93.56
466.293	86.56
466.512	77.56
466.732	95.56
466.951	75.56
467.171	88.56
467.391	84.56
467.61	112.56
467.829	109.56
468.049	239.56
468.268	316.56
468.488	112.56
468.707	97.56
468.927	85.56
469.146	78.56
469.365	77.56
469.585	97.56
469.804	102.56
470.023	87.56
470.243	90.56
470.462	98.56
470.681	90.56
470.901	101.56
471.12	81.56
471.339	96.56
471.558	91.56
471.777	108.56
471.997	170.56
472.216	463.56
472.435	885.56
472.654	251.56
472.873	97.56
473.092	108.56
473.311	92.56
473.53	81.56
473.749	99.56
473.968	84.56
474.187	92.56
474.406	107.56
474.625	80.56
474.844	84.56
475.063	91.56
475.282	78.56
475.501	82.56
475.72	84.56
475.939	81.56
476.158	64.56
476.377	95.56
476.596	83.56
476.814	94.56
477.033	88.56
477.252	65.56
477.471	96.56
477.69	95.56
477.908	88.56
478.127	93.56
478.346	88.56
478.564	86.56
478.783	100.56
479.002	87.56
479.22	104.56
479.439	104.56
479.658	99.56
479.876	98.56
480.095	97.56
480.313	99.56
480.532	121.56
480.751	158.56
480.969	423.56
481.188	1547.56
481.406	901.56
481.624	176.56
481.843	104.56
482.061	95.56
482.28	95.56
482.498	77.56
482.717	83.56
482.935	96.56
483.153	92.56
483.372	93.56
483.59	94.56
483.808	100.56
484.027	92.56
484.245	103.56
484.463	91.56
484.681	92.56
484.9	94.56
485.118	93.56
485.336	90.56
485.554	99.56
485.772	106.56
485.99	103.56
486.209	109.56
486.427	105.56
486.645	93.56
486.863	113.56
487.081	89.56
487.299	106.56
487.517	98.56
487.735	93.56
487.953	94.56
488.171	92.56
488.389	100.56
488.607	92.56
488.825	97.56
489.043	103.56
489.261	84.56
489.479	92.56
489.696	84.56
489.914	90.56
490.132	84.56
490.35	76.56
490.568	97.56
490.786	80.56
491.003	82.56
491.221	91.56
491.439	84.56
491.657	95.56
491.874	100.56
492.092	100.56
492.31	85.56
492.527	101.56
492.745	90.56
492.963	90.56
493.18	100.56
493.398	94.56
493.615	93.56
493.833	89.56
494.05	84.56
494.268	79.56
494.485	79.56
494.703	83.56
494.92	82.56
495.138	93.56
495.355	86.56
495.573	93.56
495.79	86.56
496.008	81.56
496.225	91.56
496.442	86.56
496.66	99.56
496.877	91.56
497.094	88.56
497.312	97.56
497.529	109.56
497.746	90.56
497.963	93.56
498.181	91.56
498.398	89.56
498.615	108.56
498.832	101.56
499.049	96.56
499.267	75.56
499.484	93.56
499.701	93.56
499.918	90.56
500.135	90.56
500.352	99.56
500.569	89.56
500.786	96.56
501.003	96.56
501.22	84.56
501.437	90.56
501.654	86.56
501.871	110.56
502.088	96.56
502.305	96.56
502.522	72.56
502.739	102.56
502.956	94.56
503.172	100.56
503.389	93.56
503.606	97.56
503.823	102.56
504.04	85.56
504.256	90.56
504.473	93.56
504.69	91.56
504.907	94.56
505.123	91.56
505.34	83.56
505.557	77.56
505.773	93.56
505.99	100.56
506.207	96.56
506.423	84.56
506.64	100.56
506.856	83.56
507.073	101.56
507.289	91.56
507.506	99.56
507.722	101.56
507.939	99.56
508.155	99.56
508.372	99.56
508.588	97.56
508.805	120.56
509.021	85.56
509.238	91.56
509.454	87.56
509.67	91.56
509.887	108.56
510.103	121.56
510.319	198.56
510.536	625.56
510.752	1944.56
510.968	563.56
511.184	146.56
511.401	121.56
511.617	101.56
511.833	86.56
512.049	88.56
512.265	98.56
512.481	94.56
512.698	91.56
512.914	86.56
513.13	87.56
513.346	94.56
513.562	90.56
513.778	105.56
513.994	102.56
514.21	104.56
514.426	108.56
514.642	143.56
514.858	126.56
515.074	144.56
515.29	368.56
515.506	1204.56
515.721	450.56
515.937	146.56
516.153	116.56
516.369	97.56
516.585	91.56
516.801	88.56
517.016	103.56
517.232	102.56
517.448	85.56
517.664	86.56
517.879	103.56
518.095	96.56
518.311	97.56
518.527	97.56
518.742	90.56
518.958	88.56
519.173	104.56
519.389	90.56
519.605	86.56
519.82	93.56
520.036	86.56
520.251	122.56
520.467	110.56
520.682	101.56
520.898	90.56
521.113	107.56
521.329	115.56
521.544	192.56
521.76	472.56
521.975	1953.56
522.19	1190.56
522.406	264.56
522.621	113.56
522.836	95.56
523.052	104.56
523.267	91.56
523.482	88.56
523.698	96.56
523.913	105.56
524.128	98.56
524.343	89.56
524.559	105.56
524.774	82.56
524.989	95.56
525.204	77.56
525.419	91.56
525.634	94.56
525.849	103.56
526.064	82.56
526.28	86.56
526.495	77.56
526.71	107.56
526.925	79.56
527.14	83.56
527.355	97.56
527.57	83.56
527.785	89.56
527.999	88.56
528.214	86.56
528.429	82.56
528.644	98.56
528.859	92.56
529.074	102.56
529.289	135.56
529.503	172.56
529.718	100.56
529.933	90.56
530.148	90.56
530.363	84.56
530.577	99.56
530.792	88.56
531.007	88.56
531.221	88.56
531.436	89.56
531.651	86.56
531.865	81.56
532.08	88.56
532.295	92.56
532.509	77.56
532.724	82.56
532.938	100.56
533.153	101.56
533.367	89.56
533.582	84.56
533.796	92.56
534.011	83.56
534.225	90.56
534.44	80.56
534.654	95.56
534.868	88.56
535.083	94.56
535.297	98.56
535.511	97.56
535.726	109.56
535.94	84.56
536.154	85.56
536.369	82.56
536.583	92.56
536.797	81.56
537.011	97.56
537.225	85.56
537.44	88.56
537.654	78.56
537.868	89.56
538.082	76.56
538.296	85.56
538.51	96.56
538.724	91.56
538.938	96.56
539.153	93.56
539.367	108.56
539.581	93.56
539.795	98.56
540.009	91.56
540.222	97.56
540.436	93.56
540.65	90.56
540.864	95.56
541.078	108.56
541.292	81.56
541.506	88.56
541.72	83.56
541.934	76.56
542.147	75.56
542.361	90.56
542.575	88.56
542.789	98.56
543.002	92.56
543.216	84.56
543.43	96.56
543.644	81.56
543.857	98.56
544.071	83.56
544.285	85.56
544.498	86.56
544.712	98.56
544.925	86.56
545.139	90.56
545.352	86.56
545.566	91.56
545.779	81.56
545.993	96.56
546.206	92.56
546.42	80.56
546.633	90.56
546.847	87.56
547.06	85.56
547.274	95.56
547.487	82.56
547.7	84.56
547.914	83.56
548.127	91.56
548.34	82.56
548.554	97.56
548.767	99.56
548.98	90.56
549.193	90.56
549.407	85.56
549.62	80.56
549.833	91.56
550.046	91.56
550.259	85.56
550.473	91.56
550.686	90.56
550.899	85.56
551.112	90.56
551.325	90.56
551.538	98.56
551.751	91.56
551.964	97.56
552.177	97.56
552.39	82.56
552.603	82.56
552.816	79.56
553.029	78.56
553.242	86.56
553.455	86.56
553.667	114.56
553.88	110.56
554.093	96.56
554.306	101.56
554.519	102.56
554.732	76.56
554.944	91.56
555.157	60.56
555.37	75.56
555.583	94.56
555.795	81.56
556.008	102.56
556.221	82.56
556.433	88.56
556.646	81.56
556.859	88.56
557.071	106.56
557.284	83.56
557.496	77.56
557.709	88.56
557.921	94.56
558.134	87.56
558.346	97.56
558.559	80.56
558.771	79.56
558.984	89.56
559.196	85.56
559.409	85.56
559.621	87.56
559.833	78.56
560.046	85.56
560.258	85.56
560.47	107.56
560.683	113.56
560.895	99.56
561.107	81.56
561.32	84.56
561.532	95.56
561.744	86.56
561.956	84.56
562.168	83.56
562.381	89.56
562.593	87.56
562.805	88.56
563.017	91.56
563.229	95.56
563.441	99.56
563.653	93.56
563.865	101.56
564.077	77.56
564.289	84.56
564.501	76.56
564.713	89.56
564.925	86.56
565.137	84.56
565.349	113.56
565.561	92.56
565.773	110.56
565.985	93.56
566.197	100.56
566.408	74.56
566.62	84.56
566.832	78.56
567.044	92.56
567.255	91.56
567.467	85.56
567.679	74.56
567.891	84.56
568.102	80.56
568.314	86.56
568.526	86.56
568.737	93.56
568.949	100.56
569.161	80.56
569.372	78.56
569.584	101.56
569.795	92.56
570.007	115.56
570.218	213.56
570.43	131.56
570.641	96.56
570.853	87.56
571.064	90.56
571.276	82.56
571.487	92.56
571.698	83.56
571.91	84.56
572.121	97.56
572.333	90.56
572.544	82.56
572.755	90.56
572.966	91.56
573.178	102.56
573.389	84.56
573.6	84.56
573.811	86.56
574.023	82.56
574.234	78.56
574.445	81.56
574.656	79.56
574.867	101.56
575.078	82.56
575.289	80.56
575.501	83.56
575.712	90.56
575.923	80.56
576.134	90.56
576.345	96.56
576.556	88.56
576.767	94.56
576.978	94.56
577.188	94.56
577.399	79.56
577.61	103.56
577.821	84.56
578.032	106.56
578.243	220.56
578.454	590.56
578.665	187.56
578.875	98.56
579.086	94.56
579.297	81.56
579.508	91.56
579.718	95.56
579.929	101.56
580.14	88.56
580.35	94.56
580.561	80.56
580.772	89.56
580.982	75.56
581.193	94.56
581.403	90.56
581.614	74.56
581.825	88.56
582.035	94.56
582.246	85.56
582.456	88.56
582.667	80.56
582.877	80.56
583.087	96.56
583.298	88.56
583.508	82.56
583.719	98.56
583.929	96.56
584.139	87.56
584.35	86.56
584.56	98.56
584.77	93.56
584.981	84.56
585.191	94.56
585.401	87.56
585.611	98.56
585.821	90.56
586.032	90.56
586.242	89.56
586.452	96.56
586.662	84.56
586.872	91.56
587.082	79.56
587.292	85.56
587.502	88.56
587.713	90.56
587.923	89.56
588.133	81.56
588.343	84.56
588.553	88.56
588.762	105.56
588.972	96.56
589.182	155.56
589.392	108.56
589.602	100.56
589.812	113.56
590.022	85.56
590.232	85.56
590.441	90.56
590.651	94.56
590.861	83.56
591.071	97.56
591.281	97.56
591.49	91.56
591.7	87.56
591.91	90.56
592.119	94.56
592.329	113.56
592.539	100.56
592.748	90.56
592.958	75.56
593.167	86.56
593.377	88.56
593.587	93.56
593.796	88.56
594.006	96.56
594.215	77.56
594.424	77.56
594.634	73.56
594.843	90.56
595.053	96.56
595.262	93.56
595.472	94.56
595.681	93.56
595.89	80.56
596.1	80.56
596.309	86.56
596.518	98.56
596.727	94.56
596.937	88.56
597.146	95.56
597.355	83.56
597.564	82.56
597.774	84.56
597.983	89.56
598.192	80.56
598.401	91.56
598.61	69.56
598.819	79.56
599.028	94.56
599.237	80.56
599.446	94.56
599.655	81.56
599.864	99.56
600.073	94.56
600.282	89.56
600.491	87.56
600.7	88.56
600.909	92.56
601.118	95.56
601.327	92.56
601.536	92.56
601.745	99.56
601.953	95.56
602.162	91.56
602.371	88.56
602.58	90.56
602.789	88.56
602.997	83.56
603.206	83.56
603.415	85.56
603.623	84.56
603.832	79.56
604.041	93.56
604.249	86.56
604.458	93.56
604.666	80.56
604.875	92.56
605.084	84.56
605.292	69.56
605.501	96.56
605.709	93.56
605.918	74.56
606.126	100.56
606.334	68.56
606.543	86.56
606.751	84.56
606.96	78.56
607.168	91.56
607.376	80.56
607.585	99.56
607.793	81.56
608.001	81.56
608.21	77.56
608.418	69.56
608.626	83.56
608.834	100.56
609.043	82.56
609.251	80.56
609.459	91.56
609.667	87.56
609.875	85.56
610.083	78.56
610.291	92.56
610.499	80.56
610.707	72.56
610.916	83.56
611.124	93.56
611.332	78.56
611.54	86.56
611.748	90.56
611.955	81.56
612.163	77.56
612.371	83.56
612.579	78.56
612.787	79.56
612.995	93.56
613.203	90.56
613.411	99.56
613.618	101.56
613.826	79.56
614.034	87.56
614.242	88.56
614.449	90.56
614.657	85.56
614.865	90.56
615.072	75.56
615.28	75.56
615.488	96.56
615.695	77.56
615.903	89.56
616.111	89.56
616.318	105.56
616.526	90.56
616.733	91.56
616.941	101.56
617.148	96.56
617.356	85.56
617.563	85.56
617.771	92.56
617.978	86.56
618.185	77.56
618.393	97.56
618.6	88.56
618.807	70.56
619.015	84.56
619.222	86.56
619.429	96.56
619.637	83.56
619.844	84.56
620.051	81.56
620.258	96.56
620.466	93.56
620.673	93.56
620.88	82.56
621.087	90.56
621.294	92.56
621.501	86.56
621.708	89.56
621.915	69.56
622.122	93.56
622.329	80.56
622.536	80.56
622.743	94.56
622.95	89.56
623.157	81.56
623.364	87.56
623.571	80.56
623.778	85.56
623.985	89.56
624.192	96.56
624.399	75.56
624.606	70.56
624.812	82.56
625.019	88.56
625.226	83.56
625.433	94.56
625.639	78.56
625.846	85.56
626.053	99.56
626.259	99.56
626.466	82.56
626.673	64.56
626.879	85.56
627.086	92.56
627.293	83.56
627.499	82.56
627.706	84.56
627.912	95.56
628.119	90.56
628.325	82.56
628.532	76.56
628.738	85.56
628.945	88.56
629.151	86.56
629.357	91.56
629.564	82.56
629.77	76.56
629.976	82.56
630.183	82.56
630.389	77.56
630.595	85.56
630.802	80.56
631.008	93.56
631.214	102.56
631.42	81.56
631.627	86.56
631.833	80.56
632.039	79.56
632.245	81.56
632.451	83.56
632.657	74.56
632.863	76.56
633.069	82.56
633.275	94.56
633.481	76.56
633.688	84.56
633.893	77.56
634.099	72.56
634.305	84.56
634.511	83.56
634.717	89.56
634.923	78.56
635.129	98.56
635.335	80.56
635.541	86.56
635.747	82.56
635.952	75.56
636.158	92.56
636.364	164.56
636.57	140.56
636.775	92.56
636.981	94.56
637.187	75.56
637.392	78.56
637.598	67.56
637.804	81.56
638.009	90.56
638.215	83.56
638.421	82.56
638.626	83.56
638.832	74.56
639.037	85.56
639.243	80.56
639.448	84.56
639.654	81.56
639.859	74.56
640.065	72.56
640.27	96.56
640.475	83.56
640.681	83.56
640.886	80.56
641.091	70.56
641.297	82.56
641.502	89.56
641.707	94.56
641.913	67.56
642.118	84.56
642.323	82.56
642.528	93.56
642.733	92.56
642.939	95.56
643.144	91.56
643.349	84.56
643.554	86.56
643.759	63.56
643.964	86.56
644.169	82.56
644.374	84.56
644.579	96.56
644.784	91.56
644.989	84.56
645.194	93.56
645.399	90.56
645.604	95.56
645.809	76.56
646.014	76.56
646.219	79.56
646.423	88.56
646.628	77.56
646.833	90.56
647.038	84.56
647.243	83.56
647.447	73.56
647.652	89.56
647.857	95.56
648.062	79.56
648.266	78.56
648.471	97.56
648.676	94.56
648.88	105.56
649.085	85.56
649.289	107.56
649.494	86.56
649.698	141.56
649.903	94.56
650.107	80.56
650.312	89.56
650.516	78.56
650.721	88.56
650.925	84.56
651.13	82.56
651.334	89.56
651.539	86.56
651.743	78.56
651.947	79.56
652.152	86.56
652.356	78.56
652.56	83.56
652.764	93.56
652.969	85.56
653.173	86.56
653.377	90.56
653.581	87.56
653.785	78.56
653.99	84.56
654.194	83.56
654.398	92.56
654.602	81.56
654.806	82.56
655.01	97.56
655.214	90.56
655.418	80.56
655.622	84.56
655.826	79.56
656.03	94.56
656.234	88.56
656.438	103.56
656.642	90.56
656.846	89.56
657.049	91.56
657.253	85.56
657.457	89.56
657.661	89.56
657.865	77.56
658.068	75.56
658.272	80.56
658.476	72.56
658.68	88.56
658.883	75.56
659.087	83.56
659.291	81.56
659.494	81.56
659.698	73.56
659.901	82.56
660.105	87.56
660.309	82.56
660.512	70.56
660.716	89.56
660.919	96.56
661.123	90.56
661.326	95.56
661.53	92.56
661.733	75.56
661.936	79.56
662.14	76.56
662.343	88.56
662.546	89.56
662.75	85.56
662.953	83.56
663.156	90.56
663.36	89.56
663.563	85.56
663.766	74.56
663.969	91.56
664.173	87.56
664.376	69.56
664.579	76.56
664.782	77.56
664.985	92.56
665.188	93.56
665.391	89.56
665.594	79.56
665.797	74.56
666	67.56
666.203	80.56
666.406	90.56
666.609	98.56
666.812	89.56
667.015	83.56
667.218	88.56
667.421	81.56
667.624	72.56
667.827	80.56
668.03	89.56
668.232	85.56
668.435	78.56
668.638	77.56
668.841	81.56
669.043	85.56
669.246	82.56
669.449	84.56
669.651	62.56
669.854	78.56
670.057	85.56
670.259	68.56
670.462	91.56
670.665	84.56
670.867	81.56
671.07	76.56
671.272	93.56
671.475	89.56
671.677	84.56
671.88	85.56
672.082	76.56
672.284	90.56
672.487	90.56
672.689	83.56
672.892	72.56
