Data from Dry_Prop_50_3_HRD10591_00016.txt Node
Date: Wed Dec 03 14:47:41 EST 2025
User: Yrep
Spectrometer: HR+D1059
Trigger mode: 1
Integration Time (sec): 1.000000E-1
Scans to average: 1
Electric dark correction enabled: true
Nonlinearity correction enabled: false
Boxcar width: 0
XAxis mode: Wavelengths
Number of Pixels in Spectrum: 2048
>>>>>Begin Spectral Data<<<<<
223.165	-16.62
223.4	-16.62
223.635	-16.62
223.869	-15.62
224.104	-28.62
224.338	-8.62
224.573	-13.62
224.808	-6.62
225.042	-15.62
225.277	-3.62
225.511	0.38
225.746	-7.62
225.98	9.38
226.215	7.38
226.449	7.38
226.683	31.38
226.918	26.38
227.152	34.38
227.387	37.38
227.621	36.38
227.856	48.38
228.09	48.38
228.324	43.38
228.559	43.38
228.793	67.38
229.027	58.38
229.262	53.38
229.496	57.38
229.73	50.38
229.964	65.38
230.199	56.38
230.433	55.38
230.667	67.38
230.901	80.38
231.136	83.38
231.37	75.38
231.604	74.38
231.838	80.38
232.072	69.38
232.306	81.38
232.541	79.38
232.775	82.38
233.009	82.38
233.243	87.38
233.477	59.38
233.711	80.38
233.945	61.38
234.179	65.38
234.413	58.38
234.647	80.38
234.881	74.38
235.115	72.38
235.349	78.38
235.583	72.38
235.817	53.38
236.051	58.38
236.285	65.38
236.519	69.38
236.753	93.38
236.987	81.38
237.221	77.38
237.455	64.38
237.689	66.38
237.922	71.38
238.156	64.38
238.39	68.38
238.624	85.38
238.858	78.38
239.091	55.38
239.325	59.38
239.559	79.38
239.793	56.38
240.027	77.38
240.26	85.38
240.494	70.38
240.728	68.38
240.961	54.38
241.195	64.38
241.429	74.38
241.662	74.38
241.896	74.38
242.13	66.38
242.363	59.38
242.597	61.38
242.83	69.38
243.064	89.38
243.298	88.38
243.531	77.38
243.765	68.38
243.998	76.38
244.232	91.38
244.465	74.38
244.699	83.38
244.932	63.38
245.166	59.38
245.399	77.38
245.633	67.38
245.866	78.38
246.099	78.38
246.333	71.38
246.566	78.38
246.8	74.38
247.033	60.38
247.266	68.38
247.5	85.38
247.733	79.38
247.966	74.38
248.2	62.38
248.433	66.38
248.666	82.38
248.899	80.38
249.133	77.38
249.366	85.38
249.599	97.38
249.832	70.38
250.066	86.38
250.299	84.38
250.532	73.38
250.765	77.38
250.998	85.38
251.231	72.38
251.465	82.38
251.698	64.38
251.931	70.38
252.164	91.38
252.397	80.38
252.63	83.38
252.863	78.38
253.096	81.38
253.329	78.38
253.562	70.38
253.795	69.38
254.028	74.38
254.261	87.38
254.494	80.38
254.727	73.38
254.96	80.38
255.193	87.38
255.426	88.38
255.659	70.38
255.892	71.38
256.124	64.38
256.357	87.38
256.59	86.38
256.823	88.38
257.056	82.38
257.289	70.38
257.521	87.38
257.754	70.38
257.987	78.38
258.22	96.38
258.452	85.38
258.685	67.38
258.918	73.38
259.151	80.38
259.383	76.38
259.616	75.38
259.849	71.38
260.081	77.38
260.314	57.38
260.547	76.38
260.779	78.38
261.012	69.38
261.244	74.38
261.477	81.38
261.71	67.38
261.942	74.38
262.175	94.38
262.407	62.38
262.64	80.38
262.872	64.38
263.105	72.38
263.337	64.38
263.57	73.38
263.802	77.38
264.035	82.38
264.267	81.38
264.499	72.38
264.732	81.38
264.964	70.38
265.197	75.38
265.429	80.38
265.661	84.38
265.894	79.38
266.126	92.38
266.358	89.38
266.591	71.38
266.823	78.38
267.055	78.38
267.287	78.38
267.52	82.38
267.752	86.38
267.984	80.38
268.216	84.38
268.448	90.38
268.681	78.38
268.913	88.38
269.145	81.38
269.377	88.38
269.609	83.38
269.841	58.38
270.073	76.38
270.306	73.38
270.538	88.38
270.77	70.38
271.002	86.38
271.234	75.38
271.466	78.38
271.698	78.38
271.93	81.38
272.162	67.38
272.394	88.38
272.626	87.38
272.858	74.38
273.09	84.38
273.322	78.38
273.553	77.38
273.785	89.38
274.017	80.38
274.249	83.38
274.481	83.38
274.713	90.38
274.945	72.38
275.176	93.38
275.408	82.38
275.64	83.38
275.872	73.38
276.104	74.38
276.335	72.38
276.567	86.38
276.799	85.38
277.031	85.38
277.262	78.38
277.494	72.38
277.726	69.38
277.957	94.38
278.189	61.38
278.421	78.38
278.652	61.38
278.884	73.38
279.115	79.38
279.347	75.38
279.579	95.38
279.81	78.38
280.042	78.38
280.273	80.38
280.505	77.38
280.736	81.38
280.968	79.38
281.199	75.38
281.431	68.38
281.662	81.38
281.894	82.38
282.125	81.38
282.356	74.38
282.588	80.38
282.819	88.38
283.051	79.38
283.282	81.38
283.513	78.38
283.745	75.38
283.976	76.38
284.207	68.38
284.439	90.38
284.67	84.38
284.901	82.38
285.132	81.38
285.364	81.38
285.595	63.38
285.826	80.38
286.057	79.38
286.288	79.38
286.52	76.38
286.751	81.38
286.982	68.38
287.213	78.38
287.444	73.38
287.675	78.38
287.906	83.38
288.138	91.38
288.369	78.38
288.6	72.38
288.831	69.38
289.062	79.38
289.293	83.38
289.524	79.38
289.755	74.38
289.986	77.38
290.217	79.38
290.448	82.38
290.679	89.38
290.91	71.38
291.141	83.38
291.371	95.38
291.602	101.38
291.833	78.38
292.064	78.38
292.295	87.38
292.526	74.38
292.757	74.38
292.987	87.38
293.218	72.38
293.449	80.38
293.68	75.38
293.91	78.38
294.141	88.38
294.372	83.38
294.603	76.38
294.833	78.38
295.064	79.38
295.295	96.38
295.525	76.38
295.756	84.38
295.987	87.38
296.217	84.38
296.448	76.38
296.679	83.38
296.909	70.38
297.14	81.38
297.37	86.38
297.601	86.38
297.831	82.38
298.062	70.38
298.292	71.38
298.523	76.38
298.753	84.38
298.984	70.38
299.214	86.38
299.445	86.38
299.675	61.38
299.905	84.38
300.136	98.38
300.366	93.38
300.597	86.38
300.827	81.38
301.057	71.38
301.288	86.38
301.518	74.38
301.748	95.38
301.979	96.38
302.209	77.38
302.439	90.38
302.669	83.38
302.9	77.38
303.13	80.38
303.36	95.38
303.59	90.38
303.82	80.38
304.051	80.38
304.281	76.38
304.511	88.38
304.741	89.38
304.971	81.38
305.201	91.38
305.431	82.38
305.661	80.38
305.891	76.38
306.121	91.38
306.352	78.38
306.582	72.38
306.812	74.38
307.042	69.38
307.272	91.38
307.502	76.38
307.731	76.38
307.961	71.38
308.191	77.38
308.421	95.38
308.651	87.38
308.881	70.38
309.111	75.38
309.341	68.38
309.571	87.38
309.8	76.38
310.03	80.38
310.26	81.38
310.49	77.38
310.72	98.38
310.949	74.38
311.179	68.38
311.409	81.38
311.639	77.38
311.868	92.38
312.098	83.38
312.328	83.38
312.557	76.38
312.787	78.38
313.017	73.38
313.246	68.38
313.476	88.38
313.706	86.38
313.935	88.38
314.165	93.38
314.394	77.38
314.624	73.38
314.853	84.38
315.083	83.38
315.312	76.38
315.542	70.38
315.771	75.38
316.001	85.38
316.23	90.38
316.46	83.38
316.689	72.38
316.919	69.38
317.148	81.38
317.377	83.38
317.607	71.38
317.836	76.38
318.065	74.38
318.295	74.38
318.524	88.38
318.753	95.38
318.983	86.38
319.212	77.38
319.441	73.38
319.67	86.38
319.9	74.38
320.129	87.38
320.358	87.38
320.587	79.38
320.816	84.38
321.046	74.38
321.275	89.38
321.504	80.38
321.733	88.38
321.962	68.38
322.191	66.38
322.42	95.38
322.649	92.38
322.878	77.38
323.108	81.38
323.337	67.38
323.566	72.38
323.795	78.38
324.024	91.38
324.253	86.38
324.482	79.38
324.71	88.38
324.939	84.38
325.168	92.38
325.397	75.38
325.626	87.38
325.855	78.38
326.084	81.38
326.313	84.38
326.542	82.38
326.77	78.38
326.999	80.38
327.228	83.38
327.457	80.38
327.686	76.38
327.914	78.38
328.143	94.38
328.372	82.38
328.6	68.38
328.829	81.38
329.058	94.38
329.287	72.38
329.515	72.38
329.744	91.38
329.972	92.38
330.201	82.38
330.43	78.38
330.658	72.38
330.887	86.38
331.115	65.38
331.344	92.38
331.572	72.38
331.801	72.38
332.03	78.38
332.258	93.38
332.486	78.38
332.715	99.38
332.943	58.38
333.172	82.38
333.4	75.38
333.629	76.38
333.857	76.38
334.085	80.38
334.314	78.38
334.542	89.38
334.771	76.38
334.999	83.38
335.227	75.38
335.455	72.38
335.684	83.38
335.912	91.38
336.14	88.38
336.369	82.38
336.597	81.38
336.825	79.38
337.053	71.38
337.281	80.38
337.51	68.38
337.738	90.38
337.966	81.38
338.194	85.38
338.422	76.38
338.65	80.38
338.878	85.38
339.106	81.38
339.334	82.38
339.562	80.38
339.79	78.38
340.018	78.38
340.246	95.38
340.474	81.38
340.702	86.38
340.93	90.38
341.158	86.38
341.386	62.38
341.614	81.38
341.842	63.38
342.07	78.38
342.298	86.38
342.526	92.38
342.754	73.38
342.981	67.38
343.209	77.38
343.437	104.38
343.665	90.38
343.893	82.38
344.12	87.38
344.348	90.38
344.576	79.38
344.804	83.38
345.031	75.38
345.259	83.38
345.487	90.38
345.714	81.38
345.942	70.38
346.17	75.38
346.397	74.38
346.625	83.38
346.853	105.38
347.08	85.38
347.308	66.38
347.535	61.38
347.763	81.38
347.99	73.38
348.218	69.38
348.445	75.38
348.673	86.38
348.9	83.38
349.128	80.38
349.355	75.38
349.583	77.38
349.81	70.38
350.037	72.38
350.265	79.38
350.492	68.38
350.72	86.38
350.947	86.38
351.174	90.38
351.402	89.38
351.629	84.38
351.856	84.38
352.083	76.38
352.311	82.38
352.538	80.38
352.765	79.38
352.992	90.38
353.22	77.38
353.447	78.38
353.674	82.38
353.901	73.38
354.128	73.38
354.355	76.38
354.583	78.38
354.81	70.38
355.037	74.38
355.264	77.38
355.491	84.38
355.718	76.38
355.945	63.38
356.172	63.38
356.399	72.38
356.626	79.38
356.853	76.38
357.08	77.38
357.307	81.38
357.534	77.38
357.761	75.38
357.988	82.38
358.215	86.38
358.441	86.38
358.668	83.38
358.895	93.38
359.122	66.38
359.349	71.38
359.576	74.38
359.802	71.38
360.029	80.38
360.256	74.38
360.483	86.38
360.709	84.38
360.936	77.38
361.163	86.38
361.39	83.38
361.616	62.38
361.843	83.38
362.07	64.38
362.296	90.38
362.523	78.38
362.749	78.38
362.976	81.38
363.203	87.38
363.429	82.38
363.656	80.38
363.882	58.38
364.109	74.38
364.335	82.38
364.562	80.38
364.788	82.38
365.015	90.38
365.241	79.38
365.468	73.38
365.694	96.38
365.92	90.38
366.147	84.38
366.373	70.38
366.599	97.38
366.826	78.38
367.052	71.38
367.278	72.38
367.505	75.38
367.731	83.38
367.957	82.38
368.184	87.38
368.41	83.38
368.636	88.38
368.862	80.38
369.089	86.38
369.315	68.38
369.541	75.38
369.767	85.38
369.993	64.38
370.219	78.38
370.445	69.38
370.672	85.38
370.898	82.38
371.124	86.38
371.35	81.38
371.576	76.38
371.802	78.38
372.028	74.38
372.254	88.38
372.48	82.38
372.706	86.38
372.932	68.38
373.158	80.38
373.384	70.38
373.61	79.38
373.835	79.38
374.061	68.38
374.287	77.38
374.513	67.38
374.739	66.38
374.965	81.38
375.191	94.38
375.416	75.38
375.642	91.38
375.868	87.38
376.094	73.38
376.319	71.38
376.545	79.38
376.771	90.38
376.997	81.38
377.222	86.38
377.448	61.38
377.674	69.38
377.899	73.38
378.125	80.38
378.35	72.38
378.576	70.38
378.802	73.38
379.027	76.38
379.253	88.38
379.478	83.38
379.704	67.38
379.929	74.38
380.155	80.38
380.38	67.38
380.606	79.38
380.831	68.38
381.057	75.38
381.282	80.38
381.507	86.38
381.733	84.38
381.958	84.38
382.184	87.38
382.409	77.38
382.634	62.38
382.86	86.38
383.085	82.38
383.31	78.38
383.535	91.38
383.761	78.38
383.986	76.38
384.211	79.38
384.436	83.38
384.662	83.38
384.887	91.38
385.112	90.38
385.337	62.38
385.562	86.38
385.787	89.38
386.013	86.38
386.238	76.38
386.463	77.38
386.688	82.38
386.913	83.38
387.138	79.38
387.363	73.38
387.588	88.38
387.813	90.38
388.038	82.38
388.263	99.38
388.488	74.38
388.713	92.38
388.938	77.38
389.163	82.38
389.387	78.38
389.612	64.38
389.837	66.38
390.062	69.38
390.287	81.38
390.512	89.38
390.736	72.38
390.961	72.38
391.186	70.38
391.411	87.38
391.636	65.38
391.86	72.38
392.085	83.38
392.31	78.38
392.534	86.38
392.759	76.38
392.984	70.38
393.208	78.38
393.433	80.38
393.658	78.38
393.882	77.38
394.107	80.38
394.331	73.38
394.556	76.38
394.78	96.38
395.005	75.38
395.229	90.38
395.454	64.38
395.678	74.38
395.903	90.38
396.127	80.38
396.352	80.38
396.576	79.38
396.801	79.38
397.025	95.38
397.249	82.38
397.474	76.38
397.698	90.38
397.922	79.38
398.147	72.38
398.371	76.38
398.595	88.38
398.82	88.38
399.044	71.38
399.268	74.38
399.492	71.38
399.717	77.38
399.941	76.38
400.165	80.38
400.389	73.38
400.613	80.38
400.837	77.38
401.062	86.38
401.286	80.38
401.51	76.38
401.734	88.38
401.958	94.38
402.182	91.38
402.406	94.38
402.63	72.38
402.854	74.38
403.078	71.38
403.302	55.38
403.526	71.38
403.75	78.38
403.974	83.38
404.198	83.38
404.422	75.38
404.645	73.38
404.869	80.38
405.093	65.38
405.317	80.38
405.541	81.38
405.765	69.38
405.988	64.38
406.212	78.38
406.436	84.38
406.66	92.38
406.883	67.38
407.107	74.38
407.331	78.38
407.555	64.38
407.778	79.38
408.002	68.38
408.226	80.38
408.449	90.38
408.673	77.38
408.896	82.38
409.12	77.38
409.344	78.38
409.567	76.38
409.791	78.38
410.014	79.38
410.238	67.38
410.461	65.38
410.685	82.38
410.908	82.38
411.132	70.38
411.355	79.38
411.578	71.38
411.802	71.38
412.025	76.38
412.249	88.38
412.472	79.38
412.695	72.38
412.919	76.38
413.142	80.38
413.365	88.38
413.589	70.38
413.812	65.38
414.035	76.38
414.258	74.38
414.482	66.38
414.705	70.38
414.928	76.38
415.151	56.38
415.374	68.38
415.597	75.38
415.821	78.38
416.044	82.38
416.267	81.38
416.49	71.38
416.713	64.38
416.936	77.38
417.159	80.38
417.382	90.38
417.605	83.38
417.828	86.38
418.051	78.38
418.274	91.38
418.497	84.38
418.72	72.38
418.943	79.38
419.166	66.38
419.389	74.38
419.611	84.38
419.834	81.38
420.057	69.38
420.28	102.38
420.503	90.38
420.726	85.38
420.948	64.38
421.171	67.38
421.394	83.38
421.617	87.38
421.839	72.38
422.062	79.38
422.285	89.38
422.507	79.38
422.73	94.38
422.953	91.38
423.175	80.38
423.398	73.38
423.621	90.38
423.843	69.38
424.066	74.38
424.288	64.38
424.511	79.38
424.733	77.38
424.956	78.38
425.178	72.38
425.401	75.38
425.623	87.38
425.846	86.38
426.068	83.38
426.291	92.38
426.513	75.38
426.735	77.38
426.958	65.38
427.18	68.38
427.402	79.38
427.625	70.38
427.847	95.38
428.069	67.38
428.292	75.38
428.514	86.38
428.736	57.38
428.958	74.38
429.181	78.38
429.403	73.38
429.625	72.38
429.847	82.38
430.069	72.38
430.292	74.38
430.514	84.38
430.736	92.38
430.958	88.38
431.18	76.38
431.402	94.38
431.624	73.38
431.846	86.38
432.068	88.38
432.29	78.38
432.512	86.38
432.734	72.38
432.956	74.38
433.178	80.38
433.4	87.38
433.622	89.38
433.844	82.38
434.066	90.38
434.287	80.38
434.509	86.38
434.731	82.38
434.953	73.38
435.175	80.38
435.397	73.38
435.618	79.38
435.84	81.38
436.062	74.38
436.284	70.38
436.505	79.38
436.727	79.38
436.949	83.38
437.17	84.38
437.392	74.38
437.614	69.38
437.835	80.38
438.057	79.38
438.278	88.38
438.5	83.38
438.721	70.38
438.943	86.38
439.165	64.38
439.386	86.38
439.608	96.38
439.829	90.38
440.05	86.38
440.272	67.38
440.493	83.38
440.715	83.38
440.936	64.38
441.158	93.38
441.379	78.38
441.6	79.38
441.822	80.38
442.043	69.38
442.264	64.38
442.486	69.38
442.707	66.38
442.928	77.38
443.149	70.38
443.371	76.38
443.592	73.38
443.813	70.38
444.034	71.38
444.255	76.38
444.476	69.38
444.698	62.38
444.919	77.38
445.14	156.38
445.361	123.38
445.582	81.38
445.803	74.38
446.024	89.38
446.245	72.38
446.466	76.38
446.687	82.38
446.908	76.38
447.129	75.38
447.35	82.38
447.571	98.38
447.792	81.38
448.013	76.38
448.234	83.38
448.455	76.38
448.675	75.38
448.896	66.38
449.117	84.38
449.338	70.38
449.559	93.38
449.779	73.38
450	76.38
450.221	67.38
450.442	84.38
450.662	88.38
450.883	75.38
451.104	84.38
451.324	83.38
451.545	73.38
451.766	83.38
451.986	73.38
452.207	73.38
452.428	82.38
452.648	72.38
452.869	73.38
453.089	78.38
453.31	64.38
453.53	71.38
453.751	81.38
453.971	91.38
454.192	83.38
454.412	74.38
454.633	77.38
454.853	84.38
455.073	71.38
455.294	84.38
455.514	86.38
455.734	83.38
455.955	88.38
456.175	74.38
456.395	87.38
456.616	82.38
456.836	78.38
457.056	91.38
457.276	82.38
457.497	83.38
457.717	70.38
457.937	78.38
458.157	74.38
458.377	88.38
458.598	73.38
458.818	79.38
459.038	67.38
459.258	75.38
459.478	66.38
459.698	62.38
459.918	70.38
460.138	73.38
460.358	83.38
460.578	70.38
460.798	74.38
461.018	73.38
461.238	86.38
461.458	76.38
461.678	79.38
461.898	89.38
462.118	74.38
462.338	66.38
462.558	78.38
462.777	87.38
462.997	86.38
463.217	76.38
463.437	86.38
463.657	76.38
463.876	79.38
464.096	75.38
464.316	78.38
464.536	86.38
464.755	78.38
464.975	72.38
465.195	92.38
465.414	73.38
465.634	73.38
465.854	77.38
466.073	79.38
466.293	71.38
466.512	77.38
466.732	77.38
466.951	67.38
467.171	74.38
467.391	70.38
467.61	77.38
467.829	75.38
468.049	69.38
468.268	81.38
468.488	72.38
468.707	79.38
468.927	70.38
469.146	74.38
469.365	90.38
469.585	67.38
469.804	81.38
470.023	90.38
470.243	83.38
470.462	82.38
470.681	70.38
470.901	74.38
471.12	67.38
471.339	81.38
471.558	74.38
471.777	90.38
471.997	74.38
472.216	92.38
472.435	77.38
472.654	80.38
472.873	78.38
473.092	71.38
473.311	81.38
473.53	72.38
473.749	74.38
473.968	82.38
474.187	85.38
474.406	86.38
474.625	78.38
474.844	84.38
475.063	70.38
475.282	77.38
475.501	78.38
475.72	59.38
475.939	79.38
476.158	79.38
476.377	60.38
476.596	87.38
476.814	74.38
477.033	77.38
477.252	79.38
477.471	81.38
477.69	70.38
477.908	80.38
478.127	90.38
478.346	64.38
478.564	78.38
478.783	79.38
479.002	77.38
479.22	85.38
479.439	64.38
479.658	63.38
479.876	78.38
480.095	77.38
480.313	86.38
480.532	90.38
480.751	74.38
480.969	84.38
481.188	83.38
481.406	79.38
481.624	75.38
481.843	79.38
482.061	82.38
482.28	82.38
482.498	70.38
482.717	78.38
482.935	70.38
483.153	72.38
483.372	79.38
483.59	81.38
483.808	76.38
484.027	66.38
484.245	73.38
484.463	73.38
484.681	82.38
484.9	82.38
485.118	91.38
485.336	82.38
485.554	68.38
485.772	82.38
485.99	86.38
486.209	81.38
486.427	72.38
486.645	71.38
486.863	74.38
487.081	90.38
487.299	101.38
487.517	85.38
487.735	92.38
487.953	83.38
488.171	78.38
488.389	83.38
488.607	69.38
488.825	76.38
489.043	72.38
489.261	67.38
489.479	94.38
489.696	87.38
489.914	78.38
490.132	80.38
490.35	81.38
490.568	74.38
490.786	87.38
491.003	70.38
491.221	75.38
491.439	67.38
491.657	90.38
491.874	76.38
492.092	75.38
492.31	66.38
492.527	78.38
492.745	69.38
492.963	68.38
493.18	84.38
493.398	74.38
493.615	87.38
493.833	77.38
494.05	72.38
494.268	81.38
494.485	83.38
494.703	77.38
494.92	73.38
495.138	78.38
495.355	74.38
495.573	75.38
495.79	90.38
496.008	90.38
496.225	85.38
496.442	80.38
496.66	99.38
496.877	82.38
497.094	81.38
497.312	90.38
497.529	88.38
497.746	91.38
497.963	87.38
498.181	77.38
498.398	78.38
498.615	95.38
498.832	92.38
499.049	75.38
499.267	74.38
499.484	78.38
499.701	85.38
499.918	77.38
500.135	82.38
500.352	64.38
500.569	74.38
500.786	83.38
501.003	76.38
501.22	88.38
501.437	96.38
501.654	83.38
501.871	76.38
502.088	72.38
502.305	75.38
502.522	82.38
502.739	78.38
502.956	87.38
503.172	90.38
503.389	79.38
503.606	83.38
503.823	91.38
504.04	83.38
504.256	72.38
504.473	78.38
504.69	69.38
504.907	82.38
505.123	71.38
505.34	78.38
505.557	87.38
505.773	91.38
505.99	82.38
506.207	72.38
506.423	72.38
506.64	72.38
506.856	80.38
507.073	78.38
507.289	84.38
507.506	74.38
507.722	67.38
507.939	78.38
508.155	80.38
508.372	89.38
508.588	84.38
508.805	78.38
509.021	85.38
509.238	92.38
509.454	97.38
509.67	84.38
509.887	70.38
510.103	73.38
510.319	82.38
510.536	78.38
510.752	75.38
510.968	92.38
511.184	77.38
511.401	86.38
511.617	78.38
511.833	66.38
512.049	71.38
512.265	90.38
512.481	78.38
512.698	67.38
512.914	81.38
513.13	78.38
513.346	79.38
513.562	80.38
513.778	81.38
513.994	83.38
514.21	76.38
514.426	81.38
514.642	74.38
514.858	86.38
515.074	79.38
515.29	76.38
515.506	90.38
515.721	68.38
515.937	84.38
516.153	78.38
516.369	84.38
516.585	84.38
516.801	87.38
517.016	72.38
517.232	77.38
517.448	76.38
517.664	82.38
517.879	71.38
518.095	79.38
518.311	79.38
518.527	94.38
518.742	80.38
518.958	88.38
519.173	79.38
519.389	86.38
519.605	84.38
519.82	77.38
520.036	64.38
520.251	63.38
520.467	77.38
520.682	74.38
520.898	75.38
521.113	74.38
521.329	70.38
521.544	84.38
521.76	80.38
521.975	82.38
522.19	74.38
522.406	83.38
522.621	90.38
522.836	83.38
523.052	78.38
523.267	66.38
523.482	76.38
523.698	64.38
523.913	78.38
524.128	75.38
524.343	79.38
524.559	72.38
524.774	72.38
524.989	76.38
525.204	94.38
525.419	82.38
525.634	92.38
525.849	88.38
526.064	78.38
526.28	86.38
526.495	79.38
526.71	78.38
526.925	74.38
527.14	77.38
527.355	74.38
527.57	83.38
527.785	77.38
527.999	68.38
528.214	84.38
528.429	94.38
528.644	78.38
528.859	67.38
529.074	67.38
529.289	77.38
529.503	81.38
529.718	76.38
529.933	77.38
530.148	82.38
530.363	67.38
530.577	74.38
530.792	74.38
531.007	84.38
531.221	79.38
531.436	68.38
531.651	93.38
531.865	88.38
532.08	90.38
532.295	81.38
532.509	86.38
532.724	66.38
532.938	74.38
533.153	99.38
533.367	85.38
533.582	92.38
533.796	74.38
534.011	99.38
534.225	95.38
534.44	83.38
534.654	74.38
534.868	82.38
535.083	76.38
535.297	83.38
535.511	77.38
535.726	87.38
535.94	86.38
536.154	88.38
536.369	75.38
536.583	67.38
536.797	71.38
537.011	73.38
537.225	82.38
537.44	79.38
537.654	91.38
537.868	78.38
538.082	88.38
538.296	81.38
538.51	90.38
538.724	83.38
538.938	77.38
539.153	72.38
539.367	84.38
539.581	80.38
539.795	81.38
540.009	76.38
540.222	74.38
540.436	82.38
540.65	67.38
540.864	74.38
541.078	74.38
541.292	82.38
541.506	84.38
541.72	104.38
541.934	93.38
542.147	74.38
542.361	92.38
542.575	75.38
542.789	72.38
543.002	83.38
543.216	78.38
543.43	87.38
543.644	72.38
543.857	83.38
544.071	78.38
544.285	75.38
544.498	82.38
544.712	74.38
544.925	66.38
545.139	79.38
545.352	68.38
545.566	101.38
545.779	83.38
545.993	80.38
546.206	87.38
546.42	80.38
546.633	87.38
546.847	78.38
547.06	76.38
547.274	88.38
547.487	70.38
547.7	75.38
547.914	83.38
548.127	81.38
548.34	79.38
548.554	97.38
548.767	86.38
548.98	89.38
549.193	71.38
549.407	90.38
549.62	85.38
549.833	98.38
550.046	95.38
550.259	82.38
550.473	78.38
550.686	79.38
550.899	89.38
551.112	72.38
551.325	72.38
551.538	68.38
551.751	79.38
551.964	75.38
552.177	59.38
552.39	72.38
552.603	87.38
552.816	96.38
553.029	70.38
553.242	79.38
553.455	86.38
553.667	99.38
553.88	77.38
554.093	80.38
554.306	84.38
554.519	70.38
554.732	79.38
554.944	80.38
555.157	92.38
555.37	68.38
555.583	78.38
555.795	90.38
556.008	72.38
556.221	74.38
556.433	102.38
556.646	86.38
556.859	75.38
557.071	80.38
557.284	75.38
557.496	75.38
557.709	75.38
557.921	72.38
558.134	94.38
558.346	99.38
558.559	78.38
558.771	78.38
558.984	84.38
559.196	81.38
559.409	69.38
559.621	80.38
559.833	89.38
560.046	77.38
560.258	71.38
560.47	80.38
560.683	76.38
560.895	77.38
561.107	76.38
561.32	70.38
561.532	79.38
561.744	95.38
561.956	79.38
562.168	88.38
562.381	83.38
562.593	77.38
562.805	88.38
563.017	87.38
563.229	82.38
563.441	78.38
563.653	87.38
563.865	86.38
564.077	74.38
564.289	81.38
564.501	94.38
564.713	77.38
564.925	91.38
565.137	81.38
565.349	75.38
565.561	79.38
565.773	79.38
565.985	82.38
566.197	83.38
566.408	80.38
566.62	90.38
566.832	95.38
567.044	83.38
567.255	89.38
567.467	78.38
567.679	87.38
567.891	87.38
568.102	73.38
568.314	80.38
568.526	79.38
568.737	84.38
568.949	91.38
569.161	89.38
569.372	67.38
569.584	88.38
569.795	86.38
570.007	75.38
570.218	76.38
570.43	72.38
570.641	74.38
570.853	91.38
571.064	76.38
571.276	72.38
571.487	81.38
571.698	90.38
571.91	78.38
572.121	70.38
572.333	78.38
572.544	83.38
572.755	72.38
572.966	79.38
573.178	83.38
573.389	87.38
573.6	81.38
573.811	82.38
574.023	79.38
574.234	78.38
574.445	87.38
574.656	94.38
574.867	79.38
575.078	87.38
575.289	88.38
575.501	70.38
575.712	67.38
575.923	73.38
576.134	92.38
576.345	72.38
576.556	88.38
576.767	74.38
576.978	82.38
577.188	84.38
577.399	62.38
577.61	75.38
577.821	86.38
578.032	78.38
578.243	79.38
578.454	83.38
578.665	68.38
578.875	73.38
579.086	71.38
579.297	78.38
579.508	76.38
579.718	76.38
579.929	71.38
580.14	71.38
580.35	81.38
580.561	81.38
580.772	82.38
580.982	87.38
581.193	79.38
581.403	67.38
581.614	94.38
581.825	86.38
582.035	72.38
582.246	90.38
582.456	73.38
582.667	82.38
582.877	84.38
583.087	74.38
583.298	70.38
583.508	65.38
583.719	78.38
583.929	80.38
584.139	92.38
584.35	89.38
584.56	76.38
584.77	86.38
584.981	78.38
585.191	90.38
585.401	81.38
585.611	82.38
585.821	96.38
586.032	78.38
586.242	90.38
586.452	94.38
586.662	90.38
586.872	81.38
587.082	73.38
587.292	92.38
587.502	75.38
587.713	75.38
587.923	79.38
588.133	83.38
588.343	79.38
588.553	88.38
588.762	102.38
588.972	132.38
589.182	288.38
589.392	180.38
589.602	162.38
589.812	244.38
590.022	126.38
590.232	95.38
590.441	88.38
590.651	78.38
590.861	70.38
591.071	81.38
591.281	74.38
591.49	74.38
591.7	87.38
591.91	83.38
592.119	58.38
592.329	88.38
592.539	76.38
592.748	79.38
592.958	83.38
593.167	89.38
593.377	86.38
593.587	106.38
593.796	87.38
594.006	78.38
594.215	83.38
594.424	72.38
594.634	91.38
594.843	79.38
595.053	84.38
595.262	82.38
595.472	77.38
595.681	70.38
595.89	76.38
596.1	74.38
596.309	68.38
596.518	74.38
596.727	71.38
596.937	91.38
597.146	80.38
597.355	81.38
597.564	77.38
597.774	93.38
597.983	81.38
598.192	81.38
598.401	75.38
598.61	87.38
598.819	82.38
599.028	77.38
599.237	76.38
599.446	81.38
599.655	82.38
599.864	89.38
600.073	74.38
600.282	88.38
600.491	92.38
600.7	81.38
600.909	86.38
601.118	92.38
601.327	78.38
601.536	90.38
601.745	96.38
601.953	86.38
602.162	80.38
602.371	88.38
602.58	94.38
602.789	91.38
602.997	96.38
603.206	93.38
603.415	94.38
603.623	90.38
603.832	72.38
604.041	93.38
604.249	91.38
604.458	76.38
604.666	94.38
604.875	87.38
605.084	79.38
605.292	62.38
605.501	88.38
605.709	69.38
605.918	87.38
606.126	81.38
606.334	83.38
606.543	64.38
606.751	80.38
606.96	79.38
607.168	86.38
607.376	98.38
607.585	89.38
607.793	81.38
608.001	83.38
608.21	76.38
608.418	81.38
608.626	84.38
608.834	79.38
609.043	81.38
609.251	77.38
609.459	79.38
609.667	99.38
609.875	75.38
610.083	83.38
610.291	82.38
610.499	80.38
610.707	90.38
610.916	73.38
611.124	92.38
611.332	74.38
611.54	74.38
611.748	76.38
611.955	77.38
612.163	90.38
612.371	90.38
612.579	78.38
612.787	60.38
612.995	77.38
613.203	88.38
613.411	83.38
613.618	80.38
613.826	78.38
614.034	73.38
614.242	74.38
614.449	81.38
614.657	87.38
614.865	94.38
615.072	97.38
615.28	89.38
615.488	92.38
615.695	84.38
615.903	76.38
616.111	90.38
616.318	88.38
616.526	71.38
616.733	83.38
616.941	78.38
617.148	94.38
617.356	77.38
617.563	83.38
617.771	83.38
617.978	79.38
618.185	83.38
618.393	72.38
618.6	83.38
618.807	84.38
619.015	75.38
619.222	79.38
619.429	94.38
619.637	83.38
619.844	86.38
620.051	83.38
620.258	90.38
620.466	78.38
620.673	75.38
620.88	81.38
621.087	91.38
621.294	72.38
621.501	83.38
621.708	86.38
621.915	83.38
622.122	78.38
622.329	79.38
622.536	74.38
622.743	76.38
622.95	65.38
623.157	92.38
623.364	90.38
623.571	83.38
623.778	83.38
623.985	93.38
624.192	80.38
624.399	85.38
624.606	96.38
624.812	80.38
625.019	76.38
625.226	87.38
625.433	86.38
625.639	76.38
625.846	83.38
626.053	66.38
626.259	78.38
626.466	78.38
626.673	82.38
626.879	95.38
627.086	74.38
627.293	90.38
627.499	88.38
627.706	71.38
627.912	89.38
628.119	86.38
628.325	83.38
628.532	68.38
628.738	94.38
628.945	71.38
629.151	80.38
629.357	86.38
629.564	78.38
629.77	88.38
629.976	76.38
630.183	95.38
630.389	83.38
630.595	84.38
630.802	89.38
631.008	78.38
631.214	74.38
631.42	90.38
631.627	76.38
631.833	92.38
632.039	82.38
632.245	76.38
632.451	91.38
632.657	82.38
632.863	78.38
633.069	91.38
633.275	96.38
633.481	75.38
633.688	82.38
633.893	92.38
634.099	83.38
634.305	75.38
634.511	74.38
634.717	81.38
634.923	75.38
635.129	82.38
635.335	66.38
635.541	72.38
635.747	92.38
635.952	83.38
636.158	86.38
636.364	81.38
636.57	72.38
636.775	77.38
636.981	76.38
637.187	82.38
637.392	78.38
637.598	82.38
637.804	76.38
638.009	74.38
638.215	95.38
638.421	88.38
638.626	80.38
638.832	89.38
639.037	82.38
639.243	87.38
639.448	83.38
639.654	73.38
639.859	86.38
640.065	78.38
640.27	94.38
640.475	72.38
640.681	80.38
640.886	59.38
641.091	69.38
641.297	63.38
641.502	82.38
641.707	83.38
641.913	78.38
642.118	65.38
642.323	80.38
642.528	81.38
642.733	68.38
642.939	67.38
643.144	79.38
643.349	79.38
643.554	69.38
643.759	66.38
643.964	71.38
644.169	77.38
644.374	87.38
644.579	92.38
644.784	99.38
644.989	88.38
645.194	74.38
645.399	86.38
645.604	78.38
645.809	79.38
646.014	67.38
646.219	66.38
646.423	65.38
646.628	94.38
646.833	98.38
647.038	90.38
647.243	68.38
647.447	84.38
647.652	83.38
647.857	75.38
648.062	80.38
648.266	73.38
648.471	72.38
648.676	92.38
648.88	73.38
649.085	71.38
649.289	78.38
649.494	84.38
649.698	82.38
649.903	73.38
650.107	82.38
650.312	81.38
650.516	85.38
650.721	76.38
650.925	90.38
651.13	73.38
651.334	74.38
651.539	79.38
651.743	81.38
651.947	83.38
652.152	75.38
652.356	68.38
652.56	76.38
652.764	80.38
652.969	93.38
653.173	66.38
653.377	87.38
653.581	81.38
653.785	86.38
653.99	88.38
654.194	70.38
654.398	82.38
654.602	83.38
654.806	62.38
655.01	78.38
655.214	75.38
655.418	88.38
655.622	84.38
655.826	76.38
656.03	83.38
656.234	80.38
656.438	71.38
656.642	71.38
656.846	76.38
657.049	89.38
657.253	86.38
657.457	103.38
657.661	89.38
657.865	83.38
658.068	76.38
658.272	80.38
658.476	78.38
658.68	82.38
658.883	81.38
659.087	92.38
659.291	90.38
659.494	94.38
659.698	65.38
659.901	68.38
660.105	68.38
660.309	66.38
660.512	71.38
660.716	86.38
660.919	83.38
661.123	95.38
661.326	76.38
661.53	73.38
661.733	96.38
661.936	96.38
662.14	81.38
662.343	86.38
662.546	68.38
662.75	74.38
662.953	79.38
663.156	92.38
663.36	86.38
663.563	76.38
663.766	82.38
663.969	79.38
664.173	91.38
664.376	78.38
664.579	86.38
664.782	85.38
664.985	86.38
665.188	87.38
665.391	74.38
665.594	65.38
665.797	86.38
666	73.38
666.203	88.38
666.406	79.38
666.609	89.38
666.812	68.38
667.015	68.38
667.218	71.38
667.421	75.38
667.624	72.38
667.827	82.38
668.03	86.38
668.232	77.38
668.435	71.38
668.638	74.38
668.841	72.38
669.043	88.38
669.246	81.38
669.449	85.38
669.651	78.38
669.854	73.38
670.057	80.38
670.259	83.38
670.462	89.38
670.665	67.38
670.867	79.38
671.07	74.38
671.272	78.38
671.475	77.38
671.677	71.38
671.88	81.38
672.082	78.38
672.284	89.38
672.487	84.38
672.689	76.38
672.892	67.38
