Data from Circ_1996_H10_HRD10591_00017.txt Node
Date: Wed Jan 03 11:33:09 EST 2024
User: Yrep
Spectrometer: HR+D1059
Trigger mode: 1
Integration Time (sec): 1.000000E-1
Scans to average: 1
Electric dark correction enabled: true
Nonlinearity correction enabled: false
Boxcar width: 0
XAxis mode: Wavelengths
Number of Pixels in Spectrum: 2048
>>>>>Begin Spectral Data<<<<<
223.165	-4.56
223.4	-4.56
223.635	-4.56
223.869	-17.56
224.104	-17.56
224.338	-9.56
224.573	-21.56
224.808	-1.56
225.042	-8.56
225.277	-5.56
225.511	-10.56
225.746	-0.56
225.98	2.44
226.215	17.44
226.449	29.44
226.683	13.44
226.918	29.44
227.152	5.44
227.387	38.44
227.621	36.44
227.856	37.44
228.09	56.44
228.324	37.44
228.559	53.44
228.793	68.44
229.027	55.44
229.262	68.44
229.496	68.44
229.73	77.44
229.964	85.44
230.199	68.44
230.433	79.44
230.667	80.44
230.901	83.44
231.136	81.44
231.37	71.44
231.604	81.44
231.838	87.44
232.072	69.44
232.306	79.44
232.541	78.44
232.775	86.44
233.009	78.44
233.243	83.44
233.477	70.44
233.711	83.44
233.945	82.44
234.179	72.44
234.413	86.44
234.647	82.44
234.881	67.44
235.115	68.44
235.349	77.44
235.583	77.44
235.817	81.44
236.051	73.44
236.285	72.44
236.519	84.44
236.753	94.44
236.987	80.44
237.221	75.44
237.455	76.44
237.689	77.44
237.922	72.44
238.156	74.44
238.39	70.44
238.624	77.44
238.858	75.44
239.091	82.44
239.325	56.44
239.559	91.44
239.793	82.44
240.027	78.44
240.26	73.44
240.494	72.44
240.728	77.44
240.961	77.44
241.195	79.44
241.429	87.44
241.662	66.44
241.896	76.44
242.13	81.44
242.363	74.44
242.597	65.44
242.83	77.44
243.064	80.44
243.298	72.44
243.531	81.44
243.765	75.44
243.998	68.44
244.232	75.44
244.465	57.44
244.699	68.44
244.932	64.44
245.166	85.44
245.399	80.44
245.633	66.44
245.866	81.44
246.099	78.44
246.333	66.44
246.566	78.44
246.8	70.44
247.033	69.44
247.266	83.44
247.5	73.44
247.733	86.44
247.966	77.44
248.2	72.44
248.433	83.44
248.666	75.44
248.899	89.44
249.133	88.44
249.366	101.44
249.599	93.44
249.832	87.44
250.066	77.44
250.299	69.44
250.532	76.44
250.765	97.44
250.998	88.44
251.231	69.44
251.465	82.44
251.698	84.44
251.931	74.44
252.164	73.44
252.397	83.44
252.63	69.44
252.863	71.44
253.096	84.44
253.329	83.44
253.562	74.44
253.795	65.44
254.028	81.44
254.261	73.44
254.494	72.44
254.727	84.44
254.96	76.44
255.193	84.44
255.426	72.44
255.659	65.44
255.892	78.44
256.124	72.44
256.357	80.44
256.59	85.44
256.823	83.44
257.056	72.44
257.289	95.44
257.521	70.44
257.754	86.44
257.987	86.44
258.22	86.44
258.452	76.44
258.685	76.44
258.918	75.44
259.151	82.44
259.383	85.44
259.616	82.44
259.849	78.44
260.081	75.44
260.314	81.44
260.547	83.44
260.779	91.44
261.012	65.44
261.244	64.44
261.477	88.44
261.71	76.44
261.942	94.44
262.175	113.44
262.407	83.44
262.64	64.44
262.872	85.44
263.105	74.44
263.337	77.44
263.57	54.44
263.802	86.44
264.035	78.44
264.267	83.44
264.499	74.44
264.732	83.44
264.964	72.44
265.197	66.44
265.429	76.44
265.661	69.44
265.894	70.44
266.126	94.44
266.358	84.44
266.591	82.44
266.823	81.44
267.055	83.44
267.287	80.44
267.52	84.44
267.752	81.44
267.984	87.44
268.216	76.44
268.448	97.44
268.681	86.44
268.913	87.44
269.145	72.44
269.377	91.44
269.609	69.44
269.841	87.44
270.073	93.44
270.306	77.44
270.538	85.44
270.77	75.44
271.002	84.44
271.234	81.44
271.466	78.44
271.698	90.44
271.93	82.44
272.162	89.44
272.394	87.44
272.626	86.44
272.858	77.44
273.09	70.44
273.322	75.44
273.553	76.44
273.785	96.44
274.017	96.44
274.249	77.44
274.481	84.44
274.713	84.44
274.945	90.44
275.176	71.44
275.408	73.44
275.64	81.44
275.872	85.44
276.104	87.44
276.335	99.44
276.567	109.44
276.799	110.44
277.031	88.44
277.262	94.44
277.494	87.44
277.726	87.44
277.957	80.44
278.189	73.44
278.421	81.44
278.652	66.44
278.884	82.44
279.115	81.44
279.347	84.44
279.579	71.44
279.81	96.44
280.042	76.44
280.273	79.44
280.505	85.44
280.736	80.44
280.968	70.44
281.199	80.44
281.431	81.44
281.662	92.44
281.894	93.44
282.125	92.44
282.356	111.44
282.588	120.44
282.819	117.44
283.051	75.44
283.282	85.44
283.513	85.44
283.745	85.44
283.976	72.44
284.207	79.44
284.439	84.44
284.67	93.44
284.901	100.44
285.132	90.44
285.364	84.44
285.595	85.44
285.826	82.44
286.057	89.44
286.288	86.44
286.52	96.44
286.751	75.44
286.982	85.44
287.213	92.44
287.444	85.44
287.675	87.44
287.906	84.44
288.138	97.44
288.369	80.44
288.6	93.44
288.831	89.44
289.062	88.44
289.293	98.44
289.524	80.44
289.755	88.44
289.986	81.44
290.217	95.44
290.448	81.44
290.679	83.44
290.91	105.44
291.141	100.44
291.371	81.44
291.602	72.44
291.833	98.44
292.064	76.44
292.295	94.44
292.526	96.44
292.757	87.44
292.987	93.44
293.218	88.44
293.449	70.44
293.68	84.44
293.91	84.44
294.141	86.44
294.372	81.44
294.603	81.44
294.833	79.44
295.064	81.44
295.295	90.44
295.525	92.44
295.756	94.44
295.987	108.44
296.217	121.44
296.448	103.44
296.679	95.44
296.909	105.44
297.14	90.44
297.37	82.44
297.601	91.44
297.831	76.44
298.062	88.44
298.292	95.44
298.523	88.44
298.753	93.44
298.984	81.44
299.214	73.44
299.445	89.44
299.675	87.44
299.905	103.44
300.136	94.44
300.366	88.44
300.597	85.44
300.827	93.44
301.057	87.44
301.288	94.44
301.518	87.44
301.748	83.44
301.979	111.44
302.209	93.44
302.439	83.44
302.669	86.44
302.9	87.44
303.13	82.44
303.36	98.44
303.59	107.44
303.82	86.44
304.051	84.44
304.281	80.44
304.511	86.44
304.741	83.44
304.971	87.44
305.201	84.44
305.431	81.44
305.661	78.44
305.891	99.44
306.121	86.44
306.352	109.44
306.582	97.44
306.812	92.44
307.042	85.44
307.272	97.44
307.502	90.44
307.731	105.44
307.961	95.44
308.191	100.44
308.421	80.44
308.651	97.44
308.881	102.44
309.111	95.44
309.341	92.44
309.571	99.44
309.8	96.44
310.03	94.44
310.26	92.44
310.49	96.44
310.72	93.44
310.949	100.44
311.179	97.44
311.409	93.44
311.639	85.44
311.868	83.44
312.098	92.44
312.328	92.44
312.557	98.44
312.787	109.44
313.017	107.44
313.246	102.44
313.476	90.44
313.706	89.44
313.935	86.44
314.165	88.44
314.394	98.44
314.624	94.44
314.853	87.44
315.083	100.44
315.312	88.44
315.542	93.44
315.771	91.44
316.001	80.44
316.23	88.44
316.46	94.44
316.689	93.44
316.919	88.44
317.148	83.44
317.377	87.44
317.607	89.44
317.836	83.44
318.065	79.44
318.295	81.44
318.524	87.44
318.753	84.44
318.983	86.44
319.212	90.44
319.441	100.44
319.67	94.44
319.9	88.44
320.129	92.44
320.358	92.44
320.587	84.44
320.816	90.44
321.046	87.44
321.275	109.44
321.504	79.44
321.733	97.44
321.962	84.44
322.191	98.44
322.42	101.44
322.649	89.44
322.878	96.44
323.108	94.44
323.337	104.44
323.566	114.44
323.795	128.44
324.024	158.44
324.253	280.44
324.482	568.44
324.71	1068.44
324.939	1416.44
325.168	558.44
325.397	186.44
325.626	122.44
325.855	126.44
326.084	107.44
326.313	120.44
326.542	121.44
326.77	181.44
326.999	305.44
327.228	616.44
327.457	1036.44
327.686	828.44
327.914	273.44
328.143	166.44
328.372	169.44
328.6	119.44
328.829	111.44
329.058	105.44
329.287	132.44
329.515	108.44
329.744	98.44
329.972	98.44
330.201	153.44
330.43	176.44
330.658	143.44
330.887	119.44
331.115	116.44
331.344	88.44
331.572	90.44
331.801	86.44
332.03	105.44
332.258	102.44
332.486	84.44
332.715	88.44
332.943	93.44
333.172	90.44
333.4	90.44
333.629	105.44
333.857	108.44
334.085	111.44
334.314	162.44
334.542	189.44
334.771	189.44
334.999	105.44
335.227	90.44
335.455	78.44
335.684	92.44
335.912	106.44
336.14	97.44
336.369	105.44
336.597	94.44
336.825	92.44
337.053	89.44
337.281	91.44
337.51	93.44
337.738	90.44
337.966	103.44
338.194	99.44
338.422	92.44
338.65	93.44
338.878	88.44
339.106	82.44
339.334	89.44
339.562	77.44
339.79	80.44
340.018	89.44
340.246	87.44
340.474	86.44
340.702	96.44
340.93	76.44
341.158	86.44
341.386	98.44
341.614	94.44
341.842	94.44
342.07	106.44
342.298	76.44
342.526	93.44
342.754	79.44
342.981	106.44
343.209	100.44
343.437	101.44
343.665	86.44
343.893	89.44
344.12	97.44
344.348	90.44
344.576	75.44
344.804	89.44
345.031	82.44
345.259	99.44
345.487	97.44
345.714	80.44
345.942	95.44
346.17	89.44
346.397	103.44
346.625	86.44
346.853	91.44
347.08	88.44
347.308	96.44
347.535	79.44
347.763	99.44
347.99	86.44
348.218	95.44
348.445	99.44
348.673	84.44
348.9	91.44
349.128	87.44
349.355	87.44
349.583	93.44
349.81	87.44
350.037	86.44
350.265	86.44
350.492	109.44
350.72	88.44
350.947	100.44
351.174	107.44
351.402	97.44
351.629	82.44
351.856	102.44
352.083	80.44
352.311	101.44
352.538	120.44
352.765	112.44
352.992	106.44
353.22	110.44
353.447	98.44
353.674	95.44
353.901	91.44
354.128	102.44
354.355	115.44
354.583	101.44
354.81	106.44
355.037	109.44
355.264	94.44
355.491	94.44
355.718	106.44
355.945	94.44
356.172	83.44
356.399	97.44
356.626	105.44
356.853	109.44
357.08	89.44
357.307	104.44
357.534	92.44
357.761	101.44
357.988	98.44
358.215	114.44
358.441	96.44
358.668	92.44
358.895	82.44
359.122	95.44
359.349	86.44
359.576	100.44
359.802	85.44
360.029	106.44
360.256	85.44
360.483	72.44
360.709	74.44
360.936	87.44
361.163	81.44
361.39	100.44
361.616	95.44
361.843	89.44
362.07	87.44
362.296	98.44
362.523	83.44
362.749	98.44
362.976	79.44
363.203	82.44
363.429	90.44
363.656	80.44
363.882	84.44
364.109	88.44
364.335	93.44
364.562	94.44
364.788	77.44
365.015	96.44
365.241	89.44
365.468	93.44
365.694	90.44
365.92	83.44
366.147	111.44
366.373	89.44
366.599	83.44
366.826	82.44
367.052	77.44
367.278	88.44
367.505	100.44
367.731	76.44
367.957	86.44
368.184	84.44
368.41	93.44
368.636	117.44
368.862	123.44
369.089	104.44
369.315	93.44
369.541	79.44
369.767	85.44
369.993	93.44
370.219	74.44
370.445	86.44
370.672	95.44
370.898	66.44
371.124	84.44
371.35	75.44
371.576	92.44
371.802	78.44
372.028	94.44
372.254	94.44
372.48	89.44
372.706	83.44
372.932	78.44
373.158	82.44
373.384	68.44
373.61	84.44
373.835	89.44
374.061	79.44
374.287	89.44
374.513	82.44
374.739	91.44
374.965	95.44
375.191	102.44
375.416	103.44
375.642	107.44
375.868	90.44
376.094	99.44
376.319	87.44
376.545	100.44
376.771	81.44
376.997	88.44
377.222	90.44
377.448	97.44
377.674	96.44
377.899	97.44
378.125	84.44
378.35	102.44
378.576	80.44
378.802	74.44
379.027	84.44
379.253	99.44
379.478	86.44
379.704	89.44
379.929	112.44
380.155	109.44
380.38	88.44
380.606	104.44
380.831	97.44
381.057	104.44
381.282	96.44
381.507	94.44
381.733	92.44
381.958	86.44
382.184	85.44
382.409	96.44
382.634	109.44
382.86	92.44
383.085	104.44
383.31	116.44
383.535	109.44
383.761	110.44
383.986	88.44
384.211	104.44
384.436	102.44
384.662	94.44
384.887	108.44
385.112	96.44
385.337	95.44
385.562	102.44
385.787	105.44
386.013	114.44
386.238	113.44
386.463	110.44
386.688	105.44
386.913	102.44
387.138	102.44
387.363	115.44
387.588	104.44
387.813	92.44
388.038	124.44
388.263	125.44
388.488	129.44
388.713	106.44
388.938	85.44
389.163	92.44
389.387	88.44
389.612	91.44
389.837	81.44
390.062	93.44
390.287	92.44
390.512	86.44
390.736	91.44
390.961	96.44
391.186	88.44
391.411	94.44
391.636	93.44
391.86	78.44
392.085	80.44
392.31	75.44
392.534	79.44
392.759	85.44
392.984	90.44
393.208	83.44
393.433	116.44
393.658	92.44
393.882	74.44
394.107	75.44
394.331	78.44
394.556	79.44
394.78	91.44
395.005	84.44
395.229	82.44
395.454	94.44
395.678	66.44
395.903	72.44
396.127	73.44
396.352	69.44
396.576	91.44
396.801	97.44
397.025	104.44
397.249	99.44
397.474	79.44
397.698	93.44
397.922	87.44
398.147	84.44
398.371	75.44
398.595	85.44
398.82	73.44
399.044	90.44
399.268	89.44
399.492	85.44
399.717	73.44
399.941	92.44
400.165	79.44
400.389	96.44
400.613	88.44
400.837	85.44
401.062	91.44
401.286	97.44
401.51	75.44
401.734	83.44
401.958	101.44
402.182	112.44
402.406	134.44
402.63	106.44
402.854	87.44
403.078	84.44
403.302	95.44
403.526	83.44
403.75	94.44
403.974	94.44
404.198	81.44
404.422	89.44
404.645	84.44
404.869	81.44
405.093	79.44
405.317	80.44
405.541	86.44
405.765	97.44
405.988	112.44
406.212	136.44
406.436	189.44
406.66	126.44
406.883	95.44
407.107	97.44
407.331	94.44
407.555	85.44
407.778	91.44
408.002	89.44
408.226	91.44
408.449	57.44
408.673	80.44
408.896	84.44
409.12	92.44
409.344	80.44
409.567	95.44
409.791	98.44
410.014	96.44
410.238	85.44
410.461	89.44
410.685	86.44
410.908	86.44
411.132	101.44
411.355	90.44
411.578	91.44
411.802	99.44
412.025	87.44
412.249	98.44
412.472	88.44
412.695	81.44
412.919	79.44
413.142	77.44
413.365	101.44
413.589	88.44
413.812	86.44
414.035	86.44
414.258	89.44
414.482	82.44
414.705	69.44
414.928	88.44
415.151	92.44
415.374	80.44
415.597	82.44
415.821	84.44
416.044	82.44
416.267	91.44
416.49	96.44
416.713	86.44
416.936	85.44
417.159	91.44
417.382	78.44
417.605	91.44
417.828	74.44
418.051	87.44
418.274	78.44
418.497	68.44
418.72	74.44
418.943	84.44
419.166	88.44
419.389	84.44
419.611	84.44
419.834	79.44
420.057	91.44
420.28	83.44
420.503	75.44
420.726	68.44
420.948	76.44
421.171	79.44
421.394	95.44
421.617	96.44
421.839	73.44
422.062	85.44
422.285	99.44
422.507	77.44
422.73	92.44
422.953	102.44
423.175	95.44
423.398	79.44
423.621	90.44
423.843	68.44
424.066	84.44
424.288	90.44
424.511	82.44
424.733	82.44
424.956	93.44
425.178	84.44
425.401	95.44
425.623	82.44
425.846	81.44
426.068	84.44
426.291	77.44
426.513	86.44
426.735	88.44
426.958	96.44
427.18	94.44
427.402	108.44
427.625	137.44
427.847	102.44
428.069	92.44
428.292	97.44
428.514	80.44
428.736	93.44
428.958	90.44
429.181	95.44
429.403	73.44
429.625	87.44
429.847	98.44
430.069	94.44
430.292	93.44
430.514	91.44
430.736	89.44
430.958	76.44
431.18	80.44
431.402	97.44
431.624	77.44
431.846	84.44
432.068	80.44
432.29	86.44
432.512	93.44
432.734	84.44
432.956	71.44
433.178	88.44
433.4	88.44
433.622	88.44
433.844	100.44
434.066	86.44
434.287	88.44
434.509	88.44
434.731	91.44
434.953	83.44
435.175	79.44
435.397	93.44
435.618	76.44
435.84	92.44
436.062	109.44
436.284	88.44
436.505	93.44
436.727	87.44
436.949	80.44
437.17	92.44
437.392	80.44
437.614	81.44
437.835	96.44
438.057	92.44
438.278	108.44
438.5	91.44
438.721	108.44
438.943	83.44
439.165	82.44
439.386	86.44
439.608	84.44
439.829	80.44
440.05	102.44
440.272	125.44
440.493	87.44
440.715	86.44
440.936	78.44
441.158	77.44
441.379	86.44
441.6	88.44
441.822	91.44
442.043	91.44
442.264	104.44
442.486	83.44
442.707	86.44
442.928	101.44
443.149	98.44
443.371	101.44
443.592	89.44
443.813	89.44
444.034	92.44
444.255	90.44
444.476	81.44
444.698	86.44
444.919	78.44
445.14	119.44
445.361	110.44
445.582	95.44
445.803	110.44
446.024	113.44
446.245	93.44
446.466	92.44
446.687	89.44
446.908	87.44
447.129	81.44
447.35	88.44
447.571	93.44
447.792	72.44
448.013	96.44
448.234	97.44
448.455	84.44
448.675	104.44
448.896	96.44
449.117	84.44
449.338	84.44
449.559	117.44
449.779	108.44
450	78.44
450.221	68.44
450.442	83.44
450.662	79.44
450.883	105.44
451.104	105.44
451.324	92.44
451.545	74.44
451.766	75.44
451.986	94.44
452.207	70.44
452.428	87.44
452.648	93.44
452.869	92.44
453.089	107.44
453.31	98.44
453.53	91.44
453.751	81.44
453.971	96.44
454.192	108.44
454.412	93.44
454.633	92.44
454.853	71.44
455.073	82.44
455.294	88.44
455.514	83.44
455.734	82.44
455.955	81.44
456.175	95.44
456.395	77.44
456.616	95.44
456.836	90.44
457.056	78.44
457.276	73.44
457.497	86.44
457.717	81.44
457.937	80.44
458.157	73.44
458.377	85.44
458.598	91.44
458.818	132.44
459.038	144.44
459.258	102.44
459.478	86.44
459.698	90.44
459.918	91.44
460.138	88.44
460.358	82.44
460.578	81.44
460.798	85.44
461.018	84.44
461.238	78.44
461.458	81.44
461.678	76.44
461.898	90.44
462.118	89.44
462.338	87.44
462.558	77.44
462.777	91.44
462.997	80.44
463.217	76.44
463.437	95.44
463.657	84.44
463.876	93.44
464.096	89.44
464.316	105.44
464.536	102.44
464.755	101.44
464.975	87.44
465.195	152.44
465.414	136.44
465.634	88.44
465.854	87.44
466.073	84.44
466.293	82.44
466.512	80.44
466.732	66.44
466.951	62.44
467.171	62.44
467.391	72.44
467.61	92.44
467.829	97.44
468.049	112.44
468.268	132.44
468.488	95.44
468.707	87.44
468.927	94.44
469.146	87.44
469.365	92.44
469.585	76.44
469.804	88.44
470.023	82.44
470.243	93.44
470.462	84.44
470.681	102.44
470.901	87.44
471.12	84.44
471.339	86.44
471.558	92.44
471.777	101.44
471.997	91.44
472.216	148.44
472.435	254.44
472.654	115.44
472.873	86.44
473.092	87.44
473.311	85.44
473.53	88.44
473.749	84.44
473.968	94.44
474.187	95.44
474.406	90.44
474.625	91.44
474.844	94.44
475.063	71.44
475.282	82.44
475.501	88.44
475.72	90.44
475.939	91.44
476.158	98.44
476.377	90.44
476.596	95.44
476.814	91.44
477.033	94.44
477.252	89.44
477.471	84.44
477.69	93.44
477.908	94.44
478.127	85.44
478.346	104.44
478.564	84.44
478.783	78.44
479.002	86.44
479.22	92.44
479.439	91.44
479.658	92.44
479.876	89.44
480.095	92.44
480.313	97.44
480.532	87.44
480.751	101.44
480.969	162.44
481.188	380.44
481.406	242.44
481.624	108.44
481.843	94.44
482.061	80.44
482.28	79.44
482.498	74.44
482.717	101.44
482.935	88.44
483.153	100.44
483.372	93.44
483.59	80.44
483.808	76.44
484.027	80.44
484.245	88.44
484.463	101.44
484.681	108.44
484.9	95.44
485.118	88.44
485.336	87.44
485.554	89.44
485.772	105.44
485.99	94.44
486.209	108.44
486.427	92.44
486.645	98.44
486.863	112.44
487.081	96.44
487.299	82.44
487.517	76.44
487.735	98.44
487.953	93.44
488.171	89.44
488.389	90.44
488.607	90.44
488.825	96.44
489.043	91.44
489.261	95.44
489.479	95.44
489.696	75.44
489.914	85.44
490.132	92.44
490.35	92.44
490.568	81.44
490.786	101.44
491.003	84.44
491.221	84.44
491.439	90.44
491.657	87.44
491.874	89.44
492.092	75.44
492.31	93.44
492.527	77.44
492.745	85.44
492.963	84.44
493.18	96.44
493.398	83.44
493.615	94.44
493.833	90.44
494.05	79.44
494.268	92.44
494.485	77.44
494.703	92.44
494.92	82.44
495.138	86.44
495.355	92.44
495.573	88.44
495.79	84.44
496.008	94.44
496.225	98.44
496.442	92.44
496.66	88.44
496.877	85.44
497.094	93.44
497.312	85.44
497.529	89.44
497.746	84.44
497.963	77.44
498.181	81.44
498.398	80.44
498.615	95.44
498.832	102.44
499.049	81.44
499.267	87.44
499.484	84.44
499.701	82.44
499.918	89.44
500.135	84.44
500.352	87.44
500.569	84.44
500.786	93.44
501.003	84.44
501.22	80.44
501.437	102.44
501.654	100.44
501.871	94.44
502.088	98.44
502.305	92.44
502.522	88.44
502.739	85.44
502.956	94.44
503.172	86.44
503.389	103.44
503.606	88.44
503.823	87.44
504.04	88.44
504.256	85.44
504.473	86.44
504.69	80.44
504.907	87.44
505.123	86.44
505.34	85.44
505.557	79.44
505.773	98.44
505.99	87.44
506.207	81.44
506.423	78.44
506.64	77.44
506.856	87.44
507.073	95.44
507.289	100.44
507.506	92.44
507.722	99.44
507.939	110.44
508.155	95.44
508.372	92.44
508.588	84.44
508.805	87.44
509.021	105.44
509.238	101.44
509.454	86.44
509.67	81.44
509.887	101.44
510.103	110.44
510.319	196.44
510.536	677.44
510.752	2124.44
510.968	572.44
511.184	159.44
511.401	106.44
511.617	97.44
511.833	84.44
512.049	95.44
512.265	85.44
512.481	84.44
512.698	96.44
512.914	88.44
513.13	88.44
513.346	79.44
513.562	91.44
513.778	94.44
513.994	96.44
514.21	85.44
514.426	96.44
514.642	129.44
514.858	105.44
515.074	133.44
515.29	358.44
515.506	1138.44
515.721	425.44
515.937	140.44
516.153	94.44
516.369	96.44
516.585	104.44
516.801	79.44
517.016	96.44
517.232	101.44
517.448	86.44
517.664	96.44
517.879	98.44
518.095	73.44
518.311	96.44
518.527	82.44
518.742	93.44
518.958	95.44
519.173	91.44
519.389	96.44
519.605	92.44
519.82	84.44
520.036	102.44
520.251	114.44
520.467	96.44
520.682	82.44
520.898	96.44
521.113	98.44
521.329	140.44
521.544	172.44
521.76	441.44
521.975	1913.44
522.19	1178.44
522.406	262.44
522.621	105.44
522.836	101.44
523.052	92.44
523.267	91.44
523.482	102.44
523.698	76.44
523.913	109.44
524.128	90.44
524.343	101.44
524.559	94.44
524.774	89.44
524.989	83.44
525.204	101.44
525.419	94.44
525.634	81.44
525.849	93.44
526.064	79.44
526.28	95.44
526.495	88.44
526.71	89.44
526.925	91.44
527.14	69.44
527.355	84.44
527.57	96.44
527.785	79.44
527.999	87.44
528.214	87.44
528.429	85.44
528.644	96.44
528.859	88.44
529.074	94.44
529.289	111.44
529.503	170.44
529.718	101.44
529.933	96.44
530.148	76.44
530.363	102.44
530.577	94.44
530.792	82.44
531.007	94.44
531.221	91.44
531.436	86.44
531.651	88.44
531.865	98.44
532.08	89.44
532.295	100.44
532.509	93.44
532.724	89.44
532.938	93.44
533.153	89.44
533.367	108.44
533.582	90.44
533.796	78.44
534.011	92.44
534.225	96.44
534.44	87.44
534.654	74.44
534.868	96.44
535.083	86.44
535.297	107.44
535.511	88.44
535.726	96.44
535.94	91.44
536.154	87.44
536.369	94.44
536.583	88.44
536.797	90.44
537.011	89.44
537.225	89.44
537.44	96.44
537.654	88.44
537.868	78.44
538.082	92.44
538.296	81.44
538.51	86.44
538.724	83.44
538.938	92.44
539.153	82.44
539.367	111.44
539.581	90.44
539.795	87.44
540.009	95.44
540.222	83.44
540.436	77.44
540.65	97.44
540.864	94.44
541.078	96.44
541.292	82.44
541.506	103.44
541.72	92.44
541.934	81.44
542.147	80.44
542.361	79.44
542.575	87.44
542.789	94.44
543.002	92.44
543.216	99.44
543.43	88.44
543.644	97.44
543.857	88.44
544.071	90.44
544.285	82.44
544.498	75.44
544.712	88.44
544.925	78.44
545.139	81.44
545.352	90.44
545.566	84.44
545.779	85.44
545.993	75.44
546.206	79.44
546.42	92.44
546.633	100.44
546.847	102.44
547.06	93.44
547.274	79.44
547.487	77.44
547.7	88.44
547.914	78.44
548.127	66.44
548.34	81.44
548.554	96.44
548.767	95.44
548.98	98.44
549.193	78.44
549.407	78.44
549.62	77.44
549.833	77.44
550.046	93.44
550.259	94.44
550.473	90.44
550.686	88.44
550.899	101.44
551.112	89.44
551.325	80.44
551.538	77.44
551.751	108.44
551.964	88.44
552.177	84.44
552.39	83.44
552.603	101.44
552.816	87.44
553.029	85.44
553.242	73.44
553.455	80.44
553.667	104.44
553.88	90.44
554.093	87.44
554.306	89.44
554.519	96.44
554.732	87.44
554.944	82.44
555.157	86.44
555.37	101.44
555.583	82.44
555.795	108.44
556.008	82.44
556.221	85.44
556.433	89.44
556.646	95.44
556.859	101.44
557.071	78.44
557.284	86.44
557.496	85.44
557.709	85.44
557.921	83.44
558.134	75.44
558.346	96.44
558.559	78.44
558.771	96.44
558.984	80.44
559.196	99.44
559.409	89.44
559.621	74.44
559.833	89.44
560.046	84.44
560.258	95.44
560.47	90.44
560.683	77.44
560.895	86.44
561.107	86.44
561.32	88.44
561.532	77.44
561.744	88.44
561.956	93.44
562.168	93.44
562.381	89.44
562.593	81.44
562.805	94.44
563.017	95.44
563.229	105.44
563.441	86.44
563.653	76.44
563.865	91.44
564.077	97.44
564.289	71.44
564.501	90.44
564.713	86.44
564.925	83.44
565.137	95.44
565.349	94.44
565.561	98.44
565.773	89.44
565.985	85.44
566.197	87.44
566.408	87.44
566.62	86.44
566.832	78.44
567.044	75.44
567.255	72.44
567.467	87.44
567.679	77.44
567.891	85.44
568.102	84.44
568.314	92.44
568.526	70.44
568.737	86.44
568.949	87.44
569.161	85.44
569.372	79.44
569.584	88.44
569.795	86.44
570.007	108.44
570.218	187.44
570.43	118.44
570.641	89.44
570.853	97.44
571.064	90.44
571.276	86.44
571.487	84.44
571.698	83.44
571.91	85.44
572.121	76.44
572.333	78.44
572.544	90.44
572.755	93.44
572.966	79.44
573.178	65.44
573.389	98.44
573.6	90.44
573.811	84.44
574.023	76.44
574.234	84.44
574.445	96.44
574.656	71.44
574.867	70.44
575.078	92.44
575.289	91.44
575.501	88.44
575.712	87.44
575.923	70.44
576.134	87.44
576.345	94.44
576.556	88.44
576.767	96.44
576.978	95.44
577.188	93.44
577.399	80.44
577.61	93.44
577.821	92.44
578.032	108.44
578.243	228.44
578.454	637.44
578.665	186.44
578.875	99.44
579.086	80.44
579.297	86.44
579.508	83.44
579.718	73.44
579.929	90.44
580.14	91.44
580.35	91.44
580.561	82.44
580.772	98.44
580.982	92.44
581.193	78.44
581.403	89.44
581.614	90.44
581.825	86.44
582.035	92.44
582.246	95.44
582.456	92.44
582.667	90.44
582.877	86.44
583.087	64.44
583.298	86.44
583.508	92.44
583.719	91.44
583.929	95.44
584.139	86.44
584.35	77.44
584.56	88.44
584.77	97.44
584.981	77.44
585.191	84.44
585.401	87.44
585.611	101.44
585.821	74.44
586.032	88.44
586.242	87.44
586.452	77.44
586.662	88.44
586.872	76.44
587.082	81.44
587.292	71.44
587.502	78.44
587.713	74.44
587.923	98.44
588.133	83.44
588.343	82.44
588.553	79.44
588.762	90.44
588.972	121.44
589.182	291.44
589.392	154.44
589.602	110.44
589.812	218.44
590.022	125.44
590.232	90.44
590.441	91.44
590.651	84.44
590.861	83.44
591.071	86.44
591.281	85.44
591.49	86.44
591.7	88.44
591.91	81.44
592.119	77.44
592.329	92.44
592.539	91.44
592.748	85.44
592.958	85.44
593.167	88.44
593.377	78.44
593.587	87.44
593.796	85.44
594.006	86.44
594.215	86.44
594.424	91.44
594.634	80.44
594.843	78.44
595.053	85.44
595.262	92.44
595.472	77.44
595.681	76.44
595.89	81.44
596.1	74.44
596.309	72.44
596.518	75.44
596.727	90.44
596.937	84.44
597.146	89.44
597.355	84.44
597.564	78.44
597.774	85.44
597.983	94.44
598.192	84.44
598.401	89.44
598.61	88.44
598.819	79.44
599.028	73.44
599.237	78.44
599.446	91.44
599.655	93.44
599.864	94.44
600.073	72.44
600.282	91.44
600.491	84.44
600.7	76.44
600.909	72.44
601.118	88.44
601.327	93.44
601.536	81.44
601.745	88.44
601.953	79.44
602.162	78.44
602.371	84.44
602.58	73.44
602.789	86.44
602.997	73.44
603.206	82.44
603.415	79.44
603.623	71.44
603.832	63.44
604.041	87.44
604.249	88.44
604.458	83.44
604.666	77.44
604.875	80.44
605.084	90.44
605.292	76.44
605.501	91.44
605.709	83.44
605.918	85.44
606.126	72.44
606.334	99.44
606.543	90.44
606.751	87.44
606.96	75.44
607.168	78.44
607.376	88.44
607.585	84.44
607.793	94.44
608.001	89.44
608.21	79.44
608.418	81.44
608.626	73.44
608.834	78.44
609.043	76.44
609.251	89.44
609.459	105.44
609.667	88.44
609.875	91.44
610.083	80.44
610.291	90.44
610.499	63.44
610.707	84.44
610.916	86.44
611.124	66.44
611.332	82.44
611.54	94.44
611.748	79.44
611.955	90.44
612.163	82.44
612.371	75.44
612.579	86.44
612.787	89.44
612.995	78.44
613.203	79.44
613.411	68.44
613.618	77.44
613.826	79.44
614.034	96.44
614.242	73.44
614.449	77.44
614.657	84.44
614.865	88.44
615.072	82.44
615.28	85.44
615.488	90.44
615.695	98.44
615.903	88.44
616.111	89.44
616.318	103.44
616.526	88.44
616.733	89.44
616.941	84.44
617.148	97.44
617.356	73.44
617.563	84.44
617.771	89.44
617.978	97.44
618.185	72.44
618.393	91.44
618.6	75.44
618.807	89.44
619.015	94.44
619.222	81.44
619.429	96.44
619.637	92.44
619.844	79.44
620.051	92.44
620.258	84.44
620.466	87.44
620.673	89.44
620.88	81.44
621.087	76.44
621.294	84.44
621.501	81.44
621.708	85.44
621.915	82.44
622.122	89.44
622.329	82.44
622.536	87.44
622.743	65.44
622.95	83.44
623.157	73.44
623.364	71.44
623.571	94.44
623.778	86.44
623.985	88.44
624.192	84.44
624.399	80.44
624.606	86.44
624.812	96.44
625.019	81.44
625.226	90.44
625.433	77.44
625.639	87.44
625.846	85.44
626.053	82.44
626.259	85.44
626.466	90.44
626.673	83.44
626.879	88.44
627.086	80.44
627.293	91.44
627.499	97.44
627.706	78.44
627.912	85.44
628.119	60.44
628.325	87.44
628.532	102.44
628.738	89.44
628.945	88.44
629.151	72.44
629.357	74.44
629.564	80.44
629.77	85.44
629.976	77.44
630.183	84.44
630.389	85.44
630.595	78.44
630.802	76.44
631.008	80.44
631.214	96.44
631.42	94.44
631.627	89.44
631.833	100.44
632.039	87.44
632.245	91.44
632.451	82.44
632.657	84.44
632.863	85.44
633.069	77.44
633.275	73.44
633.481	88.44
633.688	74.44
633.893	84.44
634.099	84.44
634.305	78.44
634.511	77.44
634.717	100.44
634.923	84.44
635.129	87.44
635.335	87.44
635.541	87.44
635.747	92.44
635.952	88.44
636.158	92.44
636.364	111.44
636.57	97.44
636.775	88.44
636.981	84.44
637.187	79.44
637.392	86.44
637.598	89.44
637.804	89.44
638.009	70.44
638.215	77.44
638.421	72.44
638.626	90.44
638.832	75.44
639.037	93.44
639.243	108.44
639.448	94.44
639.654	108.44
639.859	68.44
640.065	82.44
640.27	80.44
640.475	88.44
640.681	85.44
640.886	86.44
641.091	76.44
641.297	91.44
641.502	74.44
641.707	88.44
641.913	82.44
642.118	76.44
642.323	82.44
642.528	80.44
642.733	72.44
642.939	81.44
643.144	76.44
643.349	79.44
643.554	88.44
643.759	80.44
643.964	79.44
644.169	85.44
644.374	84.44
644.579	84.44
644.784	76.44
644.989	79.44
645.194	84.44
645.399	88.44
645.604	78.44
645.809	84.44
646.014	82.44
646.219	88.44
646.423	78.44
646.628	88.44
646.833	73.44
647.038	88.44
647.243	75.44
647.447	79.44
647.652	81.44
647.857	63.44
648.062	85.44
648.266	81.44
648.471	88.44
648.676	97.44
648.88	78.44
649.085	77.44
649.289	79.44
649.494	90.44
649.698	103.44
649.903	84.44
650.107	76.44
650.312	83.44
650.516	88.44
650.721	78.44
650.925	78.44
651.13	69.44
651.334	65.44
651.539	78.44
651.743	80.44
651.947	84.44
652.152	79.44
652.356	84.44
652.56	82.44
652.764	75.44
652.969	84.44
653.173	74.44
653.377	85.44
653.581	63.44
653.785	79.44
653.99	82.44
654.194	78.44
654.398	84.44
654.602	68.44
654.806	102.44
655.01	92.44
655.214	79.44
655.418	80.44
655.622	85.44
655.826	98.44
656.03	79.44
656.234	86.44
656.438	83.44
656.642	95.44
656.846	92.44
657.049	93.44
657.253	74.44
657.457	78.44
657.661	89.44
657.865	84.44
658.068	81.44
658.272	76.44
658.476	88.44
658.68	92.44
658.883	85.44
659.087	107.44
659.291	92.44
659.494	92.44
659.698	80.44
659.901	77.44
660.105	74.44
660.309	86.44
660.512	85.44
660.716	84.44
660.919	65.44
661.123	90.44
661.326	79.44
661.53	74.44
661.733	90.44
661.936	78.44
662.14	84.44
662.343	75.44
662.546	69.44
662.75	87.44
662.953	79.44
663.156	78.44
663.36	76.44
663.563	97.44
663.766	66.44
663.969	80.44
664.173	79.44
664.376	88.44
664.579	84.44
664.782	88.44
664.985	79.44
665.188	79.44
665.391	80.44
665.594	80.44
665.797	68.44
666	88.44
666.203	80.44
666.406	79.44
666.609	73.44
666.812	76.44
667.015	88.44
667.218	86.44
667.421	71.44
667.624	73.44
667.827	78.44
668.03	88.44
668.232	75.44
668.435	92.44
668.638	84.44
668.841	78.44
669.043	87.44
669.246	88.44
669.449	81.44
669.651	78.44
669.854	81.44
670.057	71.44
670.259	92.44
670.462	72.44
670.665	81.44
670.867	74.44
671.07	73.44
671.272	89.44
671.475	80.44
671.677	63.44
671.88	83.44
672.082	84.44
672.284	87.44
672.487	85.44
672.689	78.44
672.892	78.44
