Data from Circ_1996_H10_HRD10591_00060.txt Node
Date: Wed Jan 03 11:33:18 EST 2024
User: Yrep
Spectrometer: HR+D1059
Trigger mode: 1
Integration Time (sec): 1.000000E-1
Scans to average: 1
Electric dark correction enabled: true
Nonlinearity correction enabled: false
Boxcar width: 0
XAxis mode: Wavelengths
Number of Pixels in Spectrum: 2048
>>>>>Begin Spectral Data<<<<<
223.165	-7.62
223.4	-7.62
223.635	-7.62
223.869	-3.62
224.104	-10.62
224.338	-14.62
224.573	-20.62
224.808	-7.62
225.042	-14.62
225.277	-11.62
225.511	-8.62
225.746	2.38
225.98	12.38
226.215	13.38
226.449	9.38
226.683	7.38
226.918	30.38
227.152	24.38
227.387	31.38
227.621	35.38
227.856	49.38
228.09	35.38
228.324	52.38
228.559	57.38
228.793	64.38
229.027	64.38
229.262	69.38
229.496	66.38
229.73	89.38
229.964	93.38
230.199	65.38
230.433	77.38
230.667	81.38
230.901	79.38
231.136	65.38
231.37	79.38
231.604	86.38
231.838	90.38
232.072	86.38
232.306	80.38
232.541	94.38
232.775	87.38
233.009	66.38
233.243	73.38
233.477	77.38
233.711	98.38
233.945	94.38
234.179	83.38
234.413	86.38
234.647	75.38
234.881	81.38
235.115	77.38
235.349	82.38
235.583	70.38
235.817	68.38
236.051	82.38
236.285	78.38
236.519	78.38
236.753	86.38
236.987	81.38
237.221	74.38
237.455	89.38
237.689	83.38
237.922	77.38
238.156	80.38
238.39	81.38
238.624	77.38
238.858	84.38
239.091	83.38
239.325	89.38
239.559	86.38
239.793	84.38
240.027	90.38
240.26	84.38
240.494	85.38
240.728	66.38
240.961	78.38
241.195	78.38
241.429	84.38
241.662	60.38
241.896	73.38
242.13	86.38
242.363	77.38
242.597	83.38
242.83	79.38
243.064	76.38
243.298	81.38
243.531	81.38
243.765	94.38
243.998	87.38
244.232	83.38
244.465	96.38
244.699	67.38
244.932	80.38
245.166	83.38
245.399	75.38
245.633	79.38
245.866	82.38
246.099	78.38
246.333	65.38
246.566	65.38
246.8	68.38
247.033	80.38
247.266	76.38
247.5	77.38
247.733	84.38
247.966	85.38
248.2	84.38
248.433	82.38
248.666	75.38
248.899	81.38
249.133	89.38
249.366	107.38
249.599	93.38
249.832	82.38
250.066	79.38
250.299	89.38
250.532	90.38
250.765	68.38
250.998	92.38
251.231	89.38
251.465	67.38
251.698	69.38
251.931	100.38
252.164	87.38
252.397	72.38
252.63	71.38
252.863	83.38
253.096	107.38
253.329	86.38
253.562	78.38
253.795	85.38
254.028	86.38
254.261	75.38
254.494	90.38
254.727	81.38
254.96	78.38
255.193	88.38
255.426	67.38
255.659	70.38
255.892	69.38
256.124	76.38
256.357	74.38
256.59	85.38
256.823	90.38
257.056	77.38
257.289	79.38
257.521	73.38
257.754	79.38
257.987	70.38
258.22	84.38
258.452	88.38
258.685	83.38
258.918	91.38
259.151	97.38
259.383	75.38
259.616	84.38
259.849	70.38
260.081	89.38
260.314	90.38
260.547	88.38
260.779	86.38
261.012	78.38
261.244	81.38
261.477	84.38
261.71	85.38
261.942	105.38
262.175	111.38
262.407	103.38
262.64	97.38
262.872	104.38
263.105	86.38
263.337	83.38
263.57	79.38
263.802	85.38
264.035	89.38
264.267	90.38
264.499	88.38
264.732	87.38
264.964	85.38
265.197	78.38
265.429	86.38
265.661	93.38
265.894	80.38
266.126	90.38
266.358	80.38
266.591	89.38
266.823	99.38
267.055	89.38
267.287	91.38
267.52	89.38
267.752	90.38
267.984	85.38
268.216	70.38
268.448	70.38
268.681	88.38
268.913	96.38
269.145	98.38
269.377	84.38
269.609	95.38
269.841	86.38
270.073	95.38
270.306	91.38
270.538	82.38
270.77	86.38
271.002	86.38
271.234	78.38
271.466	93.38
271.698	77.38
271.93	85.38
272.162	99.38
272.394	83.38
272.626	76.38
272.858	86.38
273.09	87.38
273.322	86.38
273.553	98.38
273.785	95.38
274.017	86.38
274.249	86.38
274.481	97.38
274.713	93.38
274.945	84.38
275.176	103.38
275.408	93.38
275.64	85.38
275.872	74.38
276.104	82.38
276.335	87.38
276.567	99.38
276.799	113.38
277.031	109.38
277.262	102.38
277.494	76.38
277.726	85.38
277.957	93.38
278.189	80.38
278.421	87.38
278.652	92.38
278.884	87.38
279.115	84.38
279.347	88.38
279.579	89.38
279.81	76.38
280.042	94.38
280.273	102.38
280.505	86.38
280.736	82.38
280.968	89.38
281.199	97.38
281.431	86.38
281.662	83.38
281.894	81.38
282.125	99.38
282.356	119.38
282.588	132.38
282.819	109.38
283.051	84.38
283.282	85.38
283.513	88.38
283.745	88.38
283.976	83.38
284.207	85.38
284.439	78.38
284.67	82.38
284.901	91.38
285.132	92.38
285.364	92.38
285.595	76.38
285.826	94.38
286.057	89.38
286.288	97.38
286.52	83.38
286.751	90.38
286.982	90.38
287.213	76.38
287.444	100.38
287.675	88.38
287.906	85.38
288.138	92.38
288.369	87.38
288.6	83.38
288.831	103.38
289.062	100.38
289.293	92.38
289.524	95.38
289.755	81.38
289.986	89.38
290.217	87.38
290.448	89.38
290.679	75.38
290.91	88.38
291.141	82.38
291.371	88.38
291.602	91.38
291.833	77.38
292.064	100.38
292.295	84.38
292.526	99.38
292.757	95.38
292.987	99.38
293.218	96.38
293.449	95.38
293.68	95.38
293.91	87.38
294.141	92.38
294.372	83.38
294.603	95.38
294.833	96.38
295.064	82.38
295.295	91.38
295.525	91.38
295.756	107.38
295.987	112.38
296.217	141.38
296.448	127.38
296.679	93.38
296.909	89.38
297.14	89.38
297.37	106.38
297.601	100.38
297.831	90.38
298.062	65.38
298.292	93.38
298.523	93.38
298.753	99.38
298.984	108.38
299.214	93.38
299.445	91.38
299.675	95.38
299.905	106.38
300.136	83.38
300.366	81.38
300.597	81.38
300.827	88.38
301.057	97.38
301.288	107.38
301.518	89.38
301.748	88.38
301.979	116.38
302.209	95.38
302.439	81.38
302.669	95.38
302.9	98.38
303.13	99.38
303.36	100.38
303.59	107.38
303.82	97.38
304.051	101.38
304.281	86.38
304.511	84.38
304.741	89.38
304.971	97.38
305.201	98.38
305.431	94.38
305.661	85.38
305.891	99.38
306.121	91.38
306.352	101.38
306.582	103.38
306.812	89.38
307.042	98.38
307.272	91.38
307.502	111.38
307.731	100.38
307.961	101.38
308.191	88.38
308.421	100.38
308.651	78.38
308.881	94.38
309.111	106.38
309.341	109.38
309.571	81.38
309.8	89.38
310.03	96.38
310.26	100.38
310.49	86.38
310.72	115.38
310.949	104.38
311.179	110.38
311.409	94.38
311.639	102.38
311.868	112.38
312.098	100.38
312.328	94.38
312.557	95.38
312.787	104.38
313.017	99.38
313.246	97.38
313.476	88.38
313.706	91.38
313.935	103.38
314.165	107.38
314.394	103.38
314.624	88.38
314.853	92.38
315.083	90.38
315.312	92.38
315.542	90.38
315.771	86.38
316.001	103.38
316.23	86.38
316.46	87.38
316.689	98.38
316.919	91.38
317.148	94.38
317.377	101.38
317.607	83.38
317.836	104.38
318.065	91.38
318.295	92.38
318.524	87.38
318.753	109.38
318.983	81.38
319.212	97.38
319.441	99.38
319.67	101.38
319.9	86.38
320.129	97.38
320.358	93.38
320.587	86.38
320.816	104.38
321.046	107.38
321.275	109.38
321.504	102.38
321.733	105.38
321.962	100.38
322.191	96.38
322.42	93.38
322.649	107.38
322.878	90.38
323.108	125.38
323.337	118.38
323.566	118.38
323.795	130.38
324.024	169.38
324.253	301.38
324.482	629.38
324.71	1205.38
324.939	1593.38
325.168	620.38
325.397	207.38
325.626	138.38
325.855	114.38
326.084	105.38
326.313	110.38
326.542	132.38
326.77	180.38
326.999	339.38
327.228	665.38
327.457	1139.38
327.686	945.38
327.914	281.38
328.143	185.38
328.372	168.38
328.6	129.38
328.829	110.38
329.058	117.38
329.287	117.38
329.515	109.38
329.744	109.38
329.972	114.38
330.201	169.38
330.43	177.38
330.658	142.38
330.887	136.38
331.115	102.38
331.344	106.38
331.572	101.38
331.801	112.38
332.03	110.38
332.258	102.38
332.486	92.38
332.715	100.38
332.943	103.38
333.172	104.38
333.4	105.38
333.629	114.38
333.857	123.38
334.085	133.38
334.314	163.38
334.542	221.38
334.771	213.38
334.999	112.38
335.227	98.38
335.455	94.38
335.684	107.38
335.912	91.38
336.14	99.38
336.369	94.38
336.597	99.38
336.825	98.38
337.053	104.38
337.281	97.38
337.51	113.38
337.738	93.38
337.966	102.38
338.194	102.38
338.422	96.38
338.65	84.38
338.878	101.38
339.106	97.38
339.334	89.38
339.562	110.38
339.79	85.38
340.018	92.38
340.246	95.38
340.474	83.38
340.702	94.38
340.93	95.38
341.158	83.38
341.386	84.38
341.614	98.38
341.842	85.38
342.07	82.38
342.298	95.38
342.526	109.38
342.754	102.38
342.981	92.38
343.209	83.38
343.437	100.38
343.665	91.38
343.893	100.38
344.12	103.38
344.348	86.38
344.576	106.38
344.804	89.38
345.031	96.38
345.259	105.38
345.487	88.38
345.714	86.38
345.942	82.38
346.17	86.38
346.397	110.38
346.625	96.38
346.853	93.38
347.08	86.38
347.308	89.38
347.535	100.38
347.763	98.38
347.99	103.38
348.218	104.38
348.445	94.38
348.673	91.38
348.9	97.38
349.128	99.38
349.355	100.38
349.583	93.38
349.81	104.38
350.037	94.38
350.265	101.38
350.492	97.38
350.72	86.38
350.947	102.38
351.174	108.38
351.402	114.38
351.629	103.38
351.856	100.38
352.083	111.38
352.311	103.38
352.538	104.38
352.765	97.38
352.992	117.38
353.22	131.38
353.447	104.38
353.674	94.38
353.901	104.38
354.128	95.38
354.355	103.38
354.583	103.38
354.81	109.38
355.037	101.38
355.264	96.38
355.491	100.38
355.718	82.38
355.945	103.38
356.172	103.38
356.399	90.38
356.626	102.38
356.853	79.38
357.08	77.38
357.307	101.38
357.534	97.38
357.761	93.38
357.988	77.38
358.215	95.38
358.441	92.38
358.668	79.38
358.895	92.38
359.122	89.38
359.349	100.38
359.576	94.38
359.802	96.38
360.029	121.38
360.256	119.38
360.483	113.38
360.709	93.38
360.936	106.38
361.163	101.38
361.39	95.38
361.616	92.38
361.843	109.38
362.07	110.38
362.296	94.38
362.523	92.38
362.749	87.38
362.976	98.38
363.203	107.38
363.429	94.38
363.656	87.38
363.882	97.38
364.109	90.38
364.335	82.38
364.562	83.38
364.788	96.38
365.015	96.38
365.241	95.38
365.468	114.38
365.694	103.38
365.92	99.38
366.147	89.38
366.373	85.38
366.599	93.38
366.826	79.38
367.052	93.38
367.278	89.38
367.505	94.38
367.731	93.38
367.957	102.38
368.184	95.38
368.41	93.38
368.636	116.38
368.862	122.38
369.089	114.38
369.315	92.38
369.541	94.38
369.767	94.38
369.993	87.38
370.219	94.38
370.445	89.38
370.672	93.38
370.898	91.38
371.124	87.38
371.35	91.38
371.576	97.38
371.802	86.38
372.028	89.38
372.254	93.38
372.48	82.38
372.706	86.38
372.932	91.38
373.158	86.38
373.384	92.38
373.61	82.38
373.835	86.38
374.061	87.38
374.287	105.38
374.513	85.38
374.739	88.38
374.965	89.38
375.191	87.38
375.416	91.38
375.642	87.38
375.868	93.38
376.094	98.38
376.319	87.38
376.545	100.38
376.771	97.38
376.997	88.38
377.222	86.38
377.448	88.38
377.674	103.38
377.899	95.38
378.125	81.38
378.35	100.38
378.576	97.38
378.802	91.38
379.027	82.38
379.253	86.38
379.478	78.38
379.704	89.38
379.929	99.38
380.155	95.38
380.38	102.38
380.606	95.38
380.831	96.38
381.057	108.38
381.282	84.38
381.507	94.38
381.733	100.38
381.958	91.38
382.184	95.38
382.409	103.38
382.634	113.38
382.86	110.38
383.085	97.38
383.31	98.38
383.535	104.38
383.761	113.38
383.986	97.38
384.211	105.38
384.436	114.38
384.662	97.38
384.887	118.38
385.112	113.38
385.337	97.38
385.562	90.38
385.787	127.38
386.013	116.38
386.238	114.38
386.463	112.38
386.688	119.38
386.913	89.38
387.138	102.38
387.363	89.38
387.588	86.38
387.813	104.38
388.038	114.38
388.263	110.38
388.488	103.38
388.713	99.38
388.938	90.38
389.163	105.38
389.387	98.38
389.612	92.38
389.837	94.38
390.062	96.38
390.287	92.38
390.512	101.38
390.736	92.38
390.961	84.38
391.186	90.38
391.411	97.38
391.636	81.38
391.86	90.38
392.085	89.38
392.31	86.38
392.534	85.38
392.759	83.38
392.984	86.38
393.208	97.38
393.433	90.38
393.658	102.38
393.882	99.38
394.107	90.38
394.331	98.38
394.556	90.38
394.78	95.38
395.005	91.38
395.229	83.38
395.454	85.38
395.678	87.38
395.903	76.38
396.127	90.38
396.352	103.38
396.576	90.38
396.801	98.38
397.025	99.38
397.249	87.38
397.474	100.38
397.698	90.38
397.922	92.38
398.147	90.38
398.371	77.38
398.595	91.38
398.82	93.38
399.044	90.38
399.268	87.38
399.492	87.38
399.717	89.38
399.941	95.38
400.165	89.38
400.389	86.38
400.613	84.38
400.837	90.38
401.062	99.38
401.286	91.38
401.51	99.38
401.734	85.38
401.958	92.38
402.182	122.38
402.406	155.38
402.63	111.38
402.854	101.38
403.078	94.38
403.302	78.38
403.526	85.38
403.75	95.38
403.974	86.38
404.198	84.38
404.422	97.38
404.645	94.38
404.869	97.38
405.093	98.38
405.317	107.38
405.541	88.38
405.765	108.38
405.988	126.38
406.212	157.38
406.436	221.38
406.66	140.38
406.883	103.38
407.107	97.38
407.331	97.38
407.555	101.38
407.778	90.38
408.002	97.38
408.226	92.38
408.449	99.38
408.673	94.38
408.896	97.38
409.12	102.38
409.344	83.38
409.567	87.38
409.791	93.38
410.014	110.38
410.238	94.38
410.461	113.38
410.685	87.38
410.908	94.38
411.132	115.38
411.355	101.38
411.578	88.38
411.802	83.38
412.025	97.38
412.249	97.38
412.472	109.38
412.695	94.38
412.919	79.38
413.142	91.38
413.365	81.38
413.589	91.38
413.812	100.38
414.035	96.38
414.258	114.38
414.482	95.38
414.705	91.38
414.928	91.38
415.151	87.38
415.374	96.38
415.597	86.38
415.821	81.38
416.044	82.38
416.267	78.38
416.49	92.38
416.713	90.38
416.936	83.38
417.159	79.38
417.382	87.38
417.605	90.38
417.828	106.38
418.051	108.38
418.274	92.38
418.497	86.38
418.72	89.38
418.943	91.38
419.166	98.38
419.389	92.38
419.611	91.38
419.834	99.38
420.057	99.38
420.28	87.38
420.503	93.38
420.726	99.38
420.948	94.38
421.171	88.38
421.394	99.38
421.617	95.38
421.839	82.38
422.062	101.38
422.285	84.38
422.507	96.38
422.73	102.38
422.953	102.38
423.175	93.38
423.398	96.38
423.621	88.38
423.843	84.38
424.066	82.38
424.288	86.38
424.511	92.38
424.733	89.38
424.956	91.38
425.178	90.38
425.401	97.38
425.623	99.38
425.846	103.38
426.068	95.38
426.291	91.38
426.513	97.38
426.735	96.38
426.958	90.38
427.18	103.38
427.402	120.38
427.625	158.38
427.847	118.38
428.069	109.38
428.292	92.38
428.514	96.38
428.736	86.38
428.958	88.38
429.181	99.38
429.403	90.38
429.625	95.38
429.847	91.38
430.069	94.38
430.292	99.38
430.514	80.38
430.736	79.38
430.958	98.38
431.18	93.38
431.402	77.38
431.624	85.38
431.846	81.38
432.068	91.38
432.29	84.38
432.512	91.38
432.734	79.38
432.956	100.38
433.178	94.38
433.4	92.38
433.622	96.38
433.844	89.38
434.066	100.38
434.287	96.38
434.509	98.38
434.731	92.38
434.953	94.38
435.175	85.38
435.397	94.38
435.618	94.38
435.84	96.38
436.062	114.38
436.284	104.38
436.505	91.38
436.727	85.38
436.949	94.38
437.17	89.38
437.392	87.38
437.614	81.38
437.835	92.38
438.057	106.38
438.278	105.38
438.5	94.38
438.721	108.38
438.943	81.38
439.165	86.38
439.386	92.38
439.608	85.38
439.829	87.38
440.05	104.38
440.272	123.38
440.493	87.38
440.715	85.38
440.936	91.38
441.158	91.38
441.379	87.38
441.6	96.38
441.822	109.38
442.043	97.38
442.264	101.38
442.486	93.38
442.707	85.38
442.928	112.38
443.149	130.38
443.371	114.38
443.592	109.38
443.813	100.38
444.034	99.38
444.255	88.38
444.476	89.38
444.698	85.38
444.919	95.38
445.14	138.38
445.361	107.38
445.582	97.38
445.803	130.38
446.024	120.38
446.245	110.38
446.466	111.38
446.687	94.38
446.908	100.38
447.129	82.38
447.35	101.38
447.571	95.38
447.792	94.38
448.013	103.38
448.234	92.38
448.455	86.38
448.675	108.38
448.896	113.38
449.117	103.38
449.338	96.38
449.559	124.38
449.779	121.38
450	95.38
450.221	87.38
450.442	86.38
450.662	100.38
450.883	101.38
451.104	95.38
451.324	100.38
451.545	96.38
451.766	97.38
451.986	92.38
452.207	86.38
452.428	82.38
452.648	104.38
452.869	108.38
453.089	110.38
453.31	113.38
453.53	92.38
453.751	105.38
453.971	85.38
454.192	101.38
454.412	79.38
454.633	93.38
454.853	86.38
455.073	89.38
455.294	87.38
455.514	89.38
455.734	87.38
455.955	85.38
456.175	94.38
456.395	107.38
456.616	100.38
456.836	84.38
457.056	98.38
457.276	102.38
457.497	92.38
457.717	90.38
457.937	100.38
458.157	100.38
458.377	101.38
458.598	101.38
458.818	140.38
459.038	161.38
459.258	113.38
459.478	91.38
459.698	99.38
459.918	100.38
460.138	89.38
460.358	77.38
460.578	96.38
460.798	92.38
461.018	83.38
461.238	87.38
461.458	85.38
461.678	82.38
461.898	98.38
462.118	82.38
462.338	86.38
462.558	87.38
462.777	94.38
462.997	81.38
463.217	101.38
463.437	86.38
463.657	97.38
463.876	85.38
464.096	95.38
464.316	98.38
464.536	89.38
464.755	103.38
464.975	103.38
465.195	163.38
465.414	140.38
465.634	89.38
465.854	91.38
466.073	100.38
466.293	81.38
466.512	102.38
466.732	96.38
466.951	104.38
467.171	93.38
467.391	86.38
467.61	100.38
467.829	113.38
468.049	121.38
468.268	121.38
468.488	104.38
468.707	95.38
468.927	84.38
469.146	82.38
469.365	82.38
469.585	77.38
469.804	94.38
470.023	93.38
470.243	89.38
470.462	99.38
470.681	97.38
470.901	95.38
471.12	81.38
471.339	95.38
471.558	99.38
471.777	90.38
471.997	108.38
472.216	163.38
472.435	264.38
472.654	136.38
472.873	89.38
473.092	93.38
473.311	95.38
473.53	96.38
473.749	110.38
473.968	97.38
474.187	91.38
474.406	105.38
474.625	87.38
474.844	78.38
475.063	70.38
475.282	93.38
475.501	89.38
475.72	91.38
475.939	77.38
476.158	91.38
476.377	93.38
476.596	93.38
476.814	78.38
477.033	91.38
477.252	81.38
477.471	99.38
477.69	94.38
477.908	92.38
478.127	94.38
478.346	82.38
478.564	86.38
478.783	92.38
479.002	81.38
479.22	94.38
479.439	95.38
479.658	111.38
479.876	92.38
480.095	95.38
480.313	84.38
480.532	92.38
480.751	99.38
480.969	163.38
481.188	432.38
481.406	269.38
481.624	109.38
481.843	87.38
482.061	74.38
482.28	81.38
482.498	101.38
482.717	94.38
482.935	94.38
483.153	101.38
483.372	96.38
483.59	100.38
483.808	88.38
484.027	90.38
484.245	99.38
484.463	112.38
484.681	119.38
484.9	90.38
485.118	95.38
485.336	86.38
485.554	95.38
485.772	110.38
485.99	105.38
486.209	103.38
486.427	106.38
486.645	107.38
486.863	117.38
487.081	109.38
487.299	99.38
487.517	98.38
487.735	94.38
487.953	89.38
488.171	91.38
488.389	103.38
488.607	102.38
488.825	95.38
489.043	85.38
489.261	98.38
489.479	91.38
489.696	104.38
489.914	94.38
490.132	81.38
490.35	81.38
490.568	93.38
490.786	84.38
491.003	90.38
491.221	96.38
491.439	95.38
491.657	81.38
491.874	94.38
492.092	80.38
492.31	77.38
492.527	83.38
492.745	106.38
492.963	100.38
493.18	100.38
493.398	88.38
493.615	93.38
493.833	100.38
494.05	85.38
494.268	91.38
494.485	86.38
494.703	85.38
494.92	102.38
495.138	93.38
495.355	109.38
495.573	100.38
495.79	92.38
496.008	99.38
496.225	87.38
496.442	95.38
496.66	85.38
496.877	84.38
497.094	101.38
497.312	91.38
497.529	91.38
497.746	81.38
497.963	94.38
498.181	91.38
498.398	80.38
498.615	95.38
498.832	120.38
499.049	110.38
499.267	91.38
499.484	86.38
499.701	95.38
499.918	87.38
500.135	98.38
500.352	99.38
500.569	95.38
500.786	96.38
501.003	92.38
501.22	90.38
501.437	98.38
501.654	97.38
501.871	97.38
502.088	99.38
502.305	77.38
502.522	77.38
502.739	84.38
502.956	95.38
503.172	94.38
503.389	99.38
503.606	93.38
503.823	100.38
504.04	86.38
504.256	106.38
504.473	90.38
504.69	99.38
504.907	86.38
505.123	95.38
505.34	85.38
505.557	98.38
505.773	75.38
505.99	95.38
506.207	89.38
506.423	89.38
506.64	95.38
506.856	91.38
507.073	80.38
507.289	86.38
507.506	106.38
507.722	106.38
507.939	103.38
508.155	95.38
508.372	100.38
508.588	95.38
508.805	94.38
509.021	102.38
509.238	97.38
509.454	90.38
509.67	93.38
509.887	120.38
510.103	122.38
510.319	212.38
510.536	779.38
510.752	2535.38
510.968	694.38
511.184	155.38
511.401	123.38
511.617	98.38
511.833	100.38
512.049	93.38
512.265	93.38
512.481	95.38
512.698	100.38
512.914	114.38
513.13	104.38
513.346	86.38
513.562	97.38
513.778	92.38
513.994	107.38
514.21	101.38
514.426	123.38
514.642	134.38
514.858	130.38
515.074	158.38
515.29	397.38
515.506	1433.38
515.721	524.38
515.937	132.38
516.153	104.38
516.369	104.38
516.585	94.38
516.801	102.38
517.016	95.38
517.232	91.38
517.448	89.38
517.664	88.38
517.879	114.38
518.095	107.38
518.311	89.38
518.527	85.38
518.742	84.38
518.958	83.38
519.173	98.38
519.389	105.38
519.605	92.38
519.82	113.38
520.036	99.38
520.251	118.38
520.467	107.38
520.682	93.38
520.898	96.38
521.113	117.38
521.329	153.38
521.544	191.38
521.76	542.38
521.975	2391.38
522.19	1404.38
522.406	286.38
522.621	123.38
522.836	100.38
523.052	100.38
523.267	103.38
523.482	95.38
523.698	111.38
523.913	131.38
524.128	110.38
524.343	84.38
524.559	97.38
524.774	92.38
524.989	107.38
525.204	99.38
525.419	90.38
525.634	101.38
525.849	87.38
526.064	99.38
526.28	91.38
526.495	91.38
526.71	87.38
526.925	75.38
527.14	84.38
527.355	88.38
527.57	87.38
527.785	102.38
527.999	94.38
528.214	90.38
528.429	90.38
528.644	95.38
528.859	98.38
529.074	96.38
529.289	123.38
529.503	173.38
529.718	112.38
529.933	85.38
530.148	78.38
530.363	90.38
530.577	79.38
530.792	85.38
531.007	81.38
531.221	101.38
531.436	100.38
531.651	99.38
531.865	87.38
532.08	89.38
532.295	94.38
532.509	86.38
532.724	89.38
532.938	87.38
533.153	88.38
533.367	98.38
533.582	97.38
533.796	92.38
534.011	94.38
534.225	91.38
534.44	94.38
534.654	98.38
534.868	95.38
535.083	99.38
535.297	86.38
535.511	92.38
535.726	114.38
535.94	103.38
536.154	100.38
536.369	100.38
536.583	66.38
536.797	93.38
537.011	79.38
537.225	96.38
537.44	98.38
537.654	92.38
537.868	91.38
538.082	103.38
538.296	97.38
538.51	94.38
538.724	95.38
538.938	95.38
539.153	85.38
539.367	95.38
539.581	85.38
539.795	75.38
540.009	103.38
540.222	84.38
540.436	98.38
540.65	101.38
540.864	93.38
541.078	93.38
541.292	79.38
541.506	89.38
541.72	97.38
541.934	101.38
542.147	91.38
542.361	94.38
542.575	83.38
542.789	99.38
543.002	90.38
543.216	85.38
543.43	87.38
543.644	102.38
543.857	101.38
544.071	85.38
544.285	97.38
544.498	90.38
544.712	80.38
544.925	98.38
545.139	86.38
545.352	103.38
545.566	97.38
545.779	97.38
545.993	97.38
546.206	99.38
546.42	86.38
546.633	98.38
546.847	103.38
547.06	88.38
547.274	94.38
547.487	94.38
547.7	98.38
547.914	99.38
548.127	101.38
548.34	94.38
548.554	88.38
548.767	93.38
548.98	98.38
549.193	81.38
549.407	97.38
549.62	89.38
549.833	80.38
550.046	87.38
550.259	98.38
550.473	97.38
550.686	90.38
550.899	83.38
551.112	81.38
551.325	79.38
551.538	95.38
551.751	99.38
551.964	93.38
552.177	83.38
552.39	82.38
552.603	81.38
552.816	103.38
553.029	86.38
553.242	97.38
553.455	105.38
553.667	94.38
553.88	92.38
554.093	85.38
554.306	99.38
554.519	87.38
554.732	87.38
554.944	87.38
555.157	81.38
555.37	114.38
555.583	84.38
555.795	102.38
556.008	90.38
556.221	100.38
556.433	83.38
556.646	87.38
556.859	96.38
557.071	105.38
557.284	104.38
557.496	83.38
557.709	91.38
557.921	98.38
558.134	85.38
558.346	76.38
558.559	87.38
558.771	83.38
558.984	94.38
559.196	98.38
559.409	91.38
559.621	77.38
559.833	87.38
560.046	79.38
560.258	99.38
560.47	93.38
560.683	103.38
560.895	95.38
561.107	95.38
561.32	93.38
561.532	80.38
561.744	103.38
561.956	83.38
562.168	85.38
562.381	82.38
562.593	96.38
562.805	102.38
563.017	107.38
563.229	77.38
563.441	80.38
563.653	89.38
563.865	94.38
564.077	93.38
564.289	93.38
564.501	95.38
564.713	95.38
564.925	97.38
565.137	98.38
565.349	89.38
565.561	86.38
565.773	79.38
565.985	94.38
566.197	90.38
566.408	93.38
566.62	83.38
566.832	92.38
567.044	91.38
567.255	85.38
567.467	89.38
567.679	92.38
567.891	91.38
568.102	93.38
568.314	93.38
568.526	103.38
568.737	90.38
568.949	89.38
569.161	87.38
569.372	86.38
569.584	94.38
569.795	89.38
570.007	110.38
570.218	245.38
570.43	131.38
570.641	82.38
570.853	85.38
571.064	81.38
571.276	85.38
571.487	93.38
571.698	86.38
571.91	86.38
572.121	90.38
572.333	77.38
572.544	82.38
572.755	78.38
572.966	80.38
573.178	85.38
573.389	94.38
573.6	90.38
573.811	92.38
574.023	68.38
574.234	88.38
574.445	90.38
574.656	77.38
574.867	83.38
575.078	89.38
575.289	88.38
575.501	94.38
575.712	94.38
575.923	90.38
576.134	90.38
576.345	85.38
576.556	93.38
576.767	95.38
576.978	91.38
577.188	92.38
577.399	80.38
577.61	96.38
577.821	105.38
578.032	119.38
578.243	267.38
578.454	759.38
578.665	212.38
578.875	109.38
579.086	97.38
579.297	89.38
579.508	96.38
579.718	81.38
579.929	83.38
580.14	91.38
580.35	90.38
580.561	81.38
580.772	85.38
580.982	68.38
581.193	97.38
581.403	86.38
581.614	88.38
581.825	97.38
582.035	83.38
582.246	89.38
582.456	92.38
582.667	82.38
582.877	91.38
583.087	102.38
583.298	101.38
583.508	93.38
583.719	83.38
583.929	97.38
584.139	98.38
584.35	95.38
584.56	102.38
584.77	77.38
584.981	75.38
585.191	98.38
585.401	79.38
585.611	109.38
585.821	105.38
586.032	87.38
586.242	84.38
586.452	77.38
586.662	90.38
586.872	90.38
587.082	83.38
587.292	80.38
587.502	79.38
587.713	75.38
587.923	102.38
588.133	103.38
588.343	87.38
588.553	72.38
588.762	87.38
588.972	108.38
589.182	167.38
589.392	123.38
589.602	101.38
589.812	133.38
590.022	111.38
590.232	97.38
590.441	102.38
590.651	87.38
590.861	89.38
591.071	77.38
591.281	96.38
591.49	98.38
591.7	73.38
591.91	86.38
592.119	101.38
592.329	93.38
592.539	98.38
592.748	108.38
592.958	86.38
593.167	99.38
593.377	83.38
593.587	94.38
593.796	81.38
594.006	89.38
594.215	92.38
594.424	82.38
594.634	103.38
594.843	78.38
595.053	86.38
595.262	98.38
595.472	96.38
595.681	82.38
595.89	82.38
596.1	89.38
596.309	85.38
596.518	90.38
596.727	79.38
596.937	107.38
597.146	86.38
597.355	85.38
597.564	77.38
597.774	86.38
597.983	97.38
598.192	83.38
598.401	90.38
598.61	97.38
598.819	84.38
599.028	94.38
599.237	94.38
599.446	92.38
599.655	106.38
599.864	89.38
600.073	85.38
600.282	94.38
600.491	86.38
600.7	79.38
600.909	91.38
601.118	90.38
601.327	82.38
601.536	100.38
601.745	97.38
601.953	93.38
602.162	96.38
602.371	89.38
602.58	82.38
602.789	83.38
602.997	89.38
603.206	94.38
603.415	98.38
603.623	87.38
603.832	77.38
604.041	102.38
604.249	105.38
604.458	91.38
604.666	92.38
604.875	89.38
605.084	82.38
605.292	73.38
605.501	101.38
605.709	83.38
605.918	86.38
606.126	80.38
606.334	85.38
606.543	91.38
606.751	80.38
606.96	92.38
607.168	85.38
607.376	81.38
607.585	75.38
607.793	86.38
608.001	92.38
608.21	94.38
608.418	81.38
608.626	84.38
608.834	84.38
609.043	93.38
609.251	86.38
609.459	78.38
609.667	88.38
609.875	85.38
610.083	84.38
610.291	96.38
610.499	102.38
610.707	93.38
610.916	79.38
611.124	93.38
611.332	102.38
611.54	89.38
611.748	81.38
611.955	97.38
612.163	86.38
612.371	92.38
612.579	92.38
612.787	97.38
612.995	89.38
613.203	101.38
613.411	92.38
613.618	89.38
613.826	85.38
614.034	77.38
614.242	82.38
614.449	83.38
614.657	102.38
614.865	85.38
615.072	86.38
615.28	89.38
615.488	95.38
615.695	94.38
615.903	93.38
616.111	101.38
616.318	95.38
616.526	91.38
616.733	99.38
616.941	81.38
617.148	89.38
617.356	91.38
617.563	102.38
617.771	99.38
617.978	89.38
618.185	79.38
618.393	81.38
618.6	74.38
618.807	93.38
619.015	86.38
619.222	101.38
619.429	80.38
619.637	69.38
619.844	85.38
620.051	84.38
620.258	86.38
620.466	91.38
620.673	75.38
620.88	78.38
621.087	89.38
621.294	87.38
621.501	73.38
621.708	95.38
621.915	89.38
622.122	75.38
622.329	87.38
622.536	89.38
622.743	85.38
622.95	76.38
623.157	85.38
623.364	85.38
623.571	82.38
623.778	76.38
623.985	76.38
624.192	98.38
624.399	79.38
624.606	81.38
624.812	86.38
625.019	84.38
625.226	73.38
625.433	77.38
625.639	86.38
625.846	101.38
626.053	105.38
626.259	92.38
626.466	97.38
626.673	72.38
626.879	92.38
627.086	92.38
627.293	76.38
627.499	96.38
627.706	89.38
627.912	75.38
628.119	73.38
628.325	90.38
628.532	91.38
628.738	97.38
628.945	76.38
629.151	91.38
629.357	95.38
629.564	97.38
629.77	93.38
629.976	87.38
630.183	95.38
630.389	79.38
630.595	90.38
630.802	80.38
631.008	77.38
631.214	79.38
631.42	98.38
631.627	73.38
631.833	82.38
632.039	88.38
632.245	82.38
632.451	93.38
632.657	83.38
632.863	83.38
633.069	83.38
633.275	70.38
633.481	84.38
633.688	99.38
633.893	85.38
634.099	79.38
634.305	94.38
634.511	74.38
634.717	84.38
634.923	77.38
635.129	86.38
635.335	73.38
635.541	92.38
635.747	89.38
635.952	71.38
636.158	89.38
636.364	105.38
636.57	90.38
636.775	92.38
636.981	73.38
637.187	92.38
637.392	84.38
637.598	92.38
637.804	89.38
638.009	88.38
638.215	101.38
638.421	85.38
638.626	94.38
638.832	83.38
639.037	83.38
639.243	81.38
639.448	80.38
639.654	80.38
639.859	92.38
640.065	85.38
640.27	86.38
640.475	91.38
640.681	79.38
640.886	89.38
641.091	90.38
641.297	97.38
641.502	73.38
641.707	87.38
641.913	98.38
642.118	83.38
642.323	89.38
642.528	83.38
642.733	77.38
642.939	82.38
643.144	85.38
643.349	83.38
643.554	97.38
643.759	85.38
643.964	85.38
644.169	77.38
644.374	92.38
644.579	85.38
644.784	92.38
644.989	93.38
645.194	94.38
645.399	83.38
645.604	89.38
645.809	98.38
646.014	85.38
646.219	84.38
646.423	84.38
646.628	85.38
646.833	91.38
647.038	83.38
647.243	76.38
647.447	85.38
647.652	97.38
647.857	91.38
648.062	93.38
648.266	73.38
648.471	80.38
648.676	78.38
648.88	88.38
649.085	87.38
649.289	99.38
649.494	81.38
649.698	113.38
649.903	97.38
650.107	79.38
650.312	94.38
650.516	86.38
650.721	85.38
650.925	77.38
651.13	65.38
651.334	90.38
651.539	86.38
651.743	88.38
651.947	99.38
652.152	89.38
652.356	78.38
652.56	93.38
652.764	77.38
652.969	91.38
653.173	82.38
653.377	89.38
653.581	73.38
653.785	86.38
653.99	92.38
654.194	75.38
654.398	76.38
654.602	97.38
654.806	107.38
655.01	90.38
655.214	104.38
655.418	78.38
655.622	91.38
655.826	89.38
656.03	87.38
656.234	88.38
656.438	100.38
656.642	99.38
656.846	96.38
657.049	83.38
657.253	95.38
657.457	90.38
657.661	88.38
657.865	85.38
658.068	102.38
658.272	87.38
658.476	93.38
658.68	81.38
658.883	93.38
659.087	94.38
659.291	88.38
659.494	84.38
659.698	93.38
659.901	80.38
660.105	81.38
660.309	83.38
660.512	87.38
660.716	78.38
660.919	64.38
661.123	93.38
661.326	97.38
661.53	82.38
661.733	98.38
661.936	86.38
662.14	97.38
662.343	81.38
662.546	73.38
662.75	74.38
662.953	71.38
663.156	91.38
663.36	101.38
663.563	79.38
663.766	82.38
663.969	90.38
664.173	68.38
664.376	78.38
664.579	73.38
664.782	70.38
664.985	84.38
665.188	80.38
665.391	98.38
665.594	69.38
665.797	80.38
666	84.38
666.203	75.38
666.406	68.38
666.609	77.38
666.812	96.38
667.015	92.38
667.218	83.38
667.421	87.38
667.624	84.38
667.827	81.38
668.03	71.38
668.232	90.38
668.435	79.38
668.638	73.38
668.841	90.38
669.043	87.38
669.246	80.38
669.449	81.38
669.651	87.38
669.854	86.38
670.057	86.38
670.259	76.38
670.462	99.38
670.665	83.38
670.867	87.38
671.07	77.38
671.272	90.38
671.475	78.38
671.677	81.38
671.88	86.38
672.082	102.38
672.284	66.38
672.487	81.38
672.689	73.38
672.892	94.38
