Data from Circ_1996_H10_HRD10591_00034.txt Node
Date: Wed Jan 03 11:33:12 EST 2024
User: Yrep
Spectrometer: HR+D1059
Trigger mode: 1
Integration Time (sec): 1.000000E-1
Scans to average: 1
Electric dark correction enabled: true
Nonlinearity correction enabled: false
Boxcar width: 0
XAxis mode: Wavelengths
Number of Pixels in Spectrum: 2048
>>>>>Begin Spectral Data<<<<<
223.165	-14.81
223.4	-14.81
223.635	-14.81
223.869	-17.81
224.104	-16.81
224.338	-14.81
224.573	-15.81
224.808	-17.81
225.042	-1.81
225.277	-3.81
225.511	6.19
225.746	10.19
225.98	-8.81
226.215	22.19
226.449	10.19
226.683	10.19
226.918	27.19
227.152	26.19
227.387	35.19
227.621	47.19
227.856	42.19
228.09	44.19
228.324	51.19
228.559	42.19
228.793	54.19
229.027	68.19
229.262	62.19
229.496	75.19
229.73	84.19
229.964	86.19
230.199	73.19
230.433	70.19
230.667	80.19
230.901	88.19
231.136	71.19
231.37	78.19
231.604	70.19
231.838	88.19
232.072	78.19
232.306	76.19
232.541	78.19
232.775	82.19
233.009	77.19
233.243	74.19
233.477	78.19
233.711	84.19
233.945	87.19
234.179	80.19
234.413	92.19
234.647	74.19
234.881	66.19
235.115	80.19
235.349	70.19
235.583	65.19
235.817	70.19
236.051	81.19
236.285	72.19
236.519	64.19
236.753	67.19
236.987	74.19
237.221	79.19
237.455	90.19
237.689	85.19
237.922	71.19
238.156	84.19
238.39	84.19
238.624	74.19
238.858	81.19
239.091	74.19
239.325	83.19
239.559	72.19
239.793	66.19
240.027	65.19
240.26	84.19
240.494	75.19
240.728	71.19
240.961	66.19
241.195	70.19
241.429	76.19
241.662	83.19
241.896	68.19
242.13	81.19
242.363	74.19
242.597	82.19
242.83	81.19
243.064	70.19
243.298	57.19
243.531	81.19
243.765	68.19
243.998	85.19
244.232	84.19
244.465	84.19
244.699	89.19
244.932	77.19
245.166	83.19
245.399	76.19
245.633	90.19
245.866	65.19
246.099	86.19
246.333	74.19
246.566	73.19
246.8	78.19
247.033	75.19
247.266	78.19
247.5	71.19
247.733	75.19
247.966	86.19
248.2	82.19
248.433	71.19
248.666	87.19
248.899	87.19
249.133	85.19
249.366	99.19
249.599	86.19
249.832	74.19
250.066	94.19
250.299	89.19
250.532	76.19
250.765	84.19
250.998	88.19
251.231	80.19
251.465	66.19
251.698	81.19
251.931	86.19
252.164	91.19
252.397	78.19
252.63	87.19
252.863	77.19
253.096	88.19
253.329	95.19
253.562	70.19
253.795	83.19
254.028	81.19
254.261	79.19
254.494	80.19
254.727	80.19
254.96	82.19
255.193	82.19
255.426	89.19
255.659	81.19
255.892	80.19
256.124	87.19
256.357	97.19
256.59	86.19
256.823	88.19
257.056	83.19
257.289	87.19
257.521	88.19
257.754	86.19
257.987	83.19
258.22	90.19
258.452	82.19
258.685	93.19
258.918	77.19
259.151	88.19
259.383	81.19
259.616	94.19
259.849	83.19
260.081	81.19
260.314	86.19
260.547	90.19
260.779	82.19
261.012	86.19
261.244	73.19
261.477	70.19
261.71	86.19
261.942	95.19
262.175	122.19
262.407	95.19
262.64	76.19
262.872	66.19
263.105	95.19
263.337	93.19
263.57	89.19
263.802	85.19
264.035	97.19
264.267	87.19
264.499	93.19
264.732	84.19
264.964	74.19
265.197	100.19
265.429	90.19
265.661	77.19
265.894	87.19
266.126	97.19
266.358	79.19
266.591	94.19
266.823	93.19
267.055	73.19
267.287	86.19
267.52	104.19
267.752	74.19
267.984	83.19
268.216	78.19
268.448	78.19
268.681	93.19
268.913	92.19
269.145	82.19
269.377	79.19
269.609	78.19
269.841	92.19
270.073	90.19
270.306	82.19
270.538	95.19
270.77	80.19
271.002	82.19
271.234	86.19
271.466	81.19
271.698	86.19
271.93	82.19
272.162	92.19
272.394	106.19
272.626	79.19
272.858	88.19
273.09	80.19
273.322	78.19
273.553	91.19
273.785	92.19
274.017	77.19
274.249	72.19
274.481	82.19
274.713	86.19
274.945	87.19
275.176	90.19
275.408	83.19
275.64	86.19
275.872	81.19
276.104	82.19
276.335	91.19
276.567	102.19
276.799	101.19
277.031	94.19
277.262	89.19
277.494	94.19
277.726	83.19
277.957	78.19
278.189	91.19
278.421	78.19
278.652	91.19
278.884	92.19
279.115	99.19
279.347	84.19
279.579	63.19
279.81	98.19
280.042	93.19
280.273	85.19
280.505	104.19
280.736	83.19
280.968	88.19
281.199	83.19
281.431	75.19
281.662	89.19
281.894	93.19
282.125	92.19
282.356	125.19
282.588	150.19
282.819	121.19
283.051	102.19
283.282	90.19
283.513	83.19
283.745	78.19
283.976	83.19
284.207	94.19
284.439	81.19
284.67	96.19
284.901	101.19
285.132	88.19
285.364	86.19
285.595	91.19
285.826	92.19
286.057	84.19
286.288	80.19
286.52	64.19
286.751	81.19
286.982	87.19
287.213	77.19
287.444	83.19
287.675	93.19
287.906	89.19
288.138	92.19
288.369	87.19
288.6	85.19
288.831	87.19
289.062	84.19
289.293	86.19
289.524	94.19
289.755	106.19
289.986	78.19
290.217	87.19
290.448	75.19
290.679	100.19
290.91	94.19
291.141	81.19
291.371	92.19
291.602	80.19
291.833	99.19
292.064	87.19
292.295	106.19
292.526	79.19
292.757	87.19
292.987	88.19
293.218	84.19
293.449	89.19
293.68	64.19
293.91	90.19
294.141	92.19
294.372	79.19
294.603	89.19
294.833	90.19
295.064	88.19
295.295	98.19
295.525	95.19
295.756	88.19
295.987	129.19
296.217	144.19
296.448	136.19
296.679	93.19
296.909	89.19
297.14	99.19
297.37	96.19
297.601	98.19
297.831	88.19
298.062	99.19
298.292	87.19
298.523	83.19
298.753	96.19
298.984	89.19
299.214	106.19
299.445	75.19
299.675	79.19
299.905	110.19
300.136	91.19
300.366	86.19
300.597	90.19
300.827	85.19
301.057	97.19
301.288	115.19
301.518	99.19
301.748	96.19
301.979	92.19
302.209	90.19
302.439	93.19
302.669	104.19
302.9	83.19
303.13	96.19
303.36	91.19
303.59	91.19
303.82	100.19
304.051	99.19
304.281	99.19
304.511	92.19
304.741	73.19
304.971	86.19
305.201	86.19
305.431	92.19
305.661	87.19
305.891	96.19
306.121	87.19
306.352	99.19
306.582	112.19
306.812	104.19
307.042	96.19
307.272	94.19
307.502	100.19
307.731	97.19
307.961	106.19
308.191	88.19
308.421	93.19
308.651	98.19
308.881	90.19
309.111	98.19
309.341	75.19
309.571	105.19
309.8	92.19
310.03	99.19
310.26	95.19
310.49	84.19
310.72	102.19
310.949	101.19
311.179	93.19
311.409	92.19
311.639	95.19
311.868	99.19
312.098	97.19
312.328	93.19
312.557	107.19
312.787	111.19
313.017	108.19
313.246	86.19
313.476	78.19
313.706	91.19
313.935	94.19
314.165	107.19
314.394	93.19
314.624	88.19
314.853	94.19
315.083	102.19
315.312	91.19
315.542	92.19
315.771	87.19
316.001	93.19
316.23	96.19
316.46	95.19
316.689	93.19
316.919	87.19
317.148	99.19
317.377	92.19
317.607	97.19
317.836	84.19
318.065	86.19
318.295	85.19
318.524	99.19
318.753	91.19
318.983	97.19
319.212	99.19
319.441	96.19
319.67	113.19
319.9	102.19
320.129	95.19
320.358	83.19
320.587	93.19
320.816	104.19
321.046	111.19
321.275	104.19
321.504	103.19
321.733	88.19
321.962	97.19
322.191	94.19
322.42	98.19
322.649	118.19
322.878	99.19
323.108	98.19
323.337	109.19
323.566	120.19
323.795	135.19
324.024	170.19
324.253	307.19
324.482	622.19
324.71	1251.19
324.939	1592.19
325.168	640.19
325.397	215.19
325.626	145.19
325.855	106.19
326.084	110.19
326.313	127.19
326.542	136.19
326.77	186.19
326.999	336.19
327.228	641.19
327.457	1150.19
327.686	920.19
327.914	301.19
328.143	178.19
328.372	158.19
328.6	130.19
328.829	98.19
329.058	119.19
329.287	128.19
329.515	105.19
329.744	127.19
329.972	131.19
330.201	155.19
330.43	191.19
330.658	147.19
330.887	142.19
331.115	116.19
331.344	100.19
331.572	96.19
331.801	104.19
332.03	99.19
332.258	95.19
332.486	96.19
332.715	100.19
332.943	83.19
333.172	107.19
333.4	99.19
333.629	114.19
333.857	115.19
334.085	132.19
334.314	150.19
334.542	221.19
334.771	185.19
334.999	111.19
335.227	98.19
335.455	92.19
335.684	92.19
335.912	98.19
336.14	114.19
336.369	106.19
336.597	89.19
336.825	103.19
337.053	90.19
337.281	92.19
337.51	88.19
337.738	75.19
337.966	99.19
338.194	105.19
338.422	105.19
338.65	94.19
338.878	85.19
339.106	117.19
339.334	82.19
339.562	82.19
339.79	78.19
340.018	84.19
340.246	87.19
340.474	85.19
340.702	90.19
340.93	104.19
341.158	93.19
341.386	92.19
341.614	94.19
341.842	104.19
342.07	79.19
342.298	89.19
342.526	93.19
342.754	99.19
342.981	102.19
343.209	89.19
343.437	97.19
343.665	90.19
343.893	103.19
344.12	90.19
344.348	89.19
344.576	83.19
344.804	95.19
345.031	99.19
345.259	95.19
345.487	88.19
345.714	80.19
345.942	80.19
346.17	92.19
346.397	89.19
346.625	91.19
346.853	77.19
347.08	96.19
347.308	89.19
347.535	90.19
347.763	106.19
347.99	109.19
348.218	91.19
348.445	116.19
348.673	95.19
348.9	97.19
349.128	96.19
349.355	81.19
349.583	98.19
349.81	100.19
350.037	93.19
350.265	107.19
350.492	94.19
350.72	86.19
350.947	91.19
351.174	103.19
351.402	116.19
351.629	103.19
351.856	108.19
352.083	106.19
352.311	111.19
352.538	100.19
352.765	105.19
352.992	110.19
353.22	106.19
353.447	115.19
353.674	91.19
353.901	88.19
354.128	98.19
354.355	96.19
354.583	87.19
354.81	94.19
355.037	98.19
355.264	92.19
355.491	99.19
355.718	100.19
355.945	108.19
356.172	104.19
356.399	95.19
356.626	84.19
356.853	81.19
357.08	92.19
357.307	94.19
357.534	99.19
357.761	93.19
357.988	76.19
358.215	106.19
358.441	88.19
358.668	85.19
358.895	94.19
359.122	90.19
359.349	79.19
359.576	83.19
359.802	96.19
360.029	103.19
360.256	103.19
360.483	96.19
360.709	83.19
360.936	86.19
361.163	97.19
361.39	84.19
361.616	90.19
361.843	82.19
362.07	100.19
362.296	96.19
362.523	102.19
362.749	88.19
362.976	103.19
363.203	92.19
363.429	81.19
363.656	80.19
363.882	88.19
364.109	95.19
364.335	79.19
364.562	107.19
364.788	77.19
365.015	81.19
365.241	94.19
365.468	110.19
365.694	90.19
365.92	105.19
366.147	91.19
366.373	82.19
366.599	86.19
366.826	87.19
367.052	94.19
367.278	86.19
367.505	85.19
367.731	88.19
367.957	90.19
368.184	89.19
368.41	88.19
368.636	107.19
368.862	120.19
369.089	104.19
369.315	91.19
369.541	78.19
369.767	86.19
369.993	92.19
370.219	78.19
370.445	88.19
370.672	105.19
370.898	88.19
371.124	89.19
371.35	83.19
371.576	71.19
371.802	96.19
372.028	85.19
372.254	104.19
372.48	87.19
372.706	84.19
372.932	75.19
373.158	90.19
373.384	98.19
373.61	67.19
373.835	92.19
374.061	84.19
374.287	94.19
374.513	76.19
374.739	95.19
374.965	80.19
375.191	101.19
375.416	82.19
375.642	70.19
375.868	86.19
376.094	87.19
376.319	87.19
376.545	81.19
376.771	78.19
376.997	86.19
377.222	74.19
377.448	99.19
377.674	89.19
377.899	75.19
378.125	91.19
378.35	81.19
378.576	89.19
378.802	100.19
379.027	76.19
379.253	99.19
379.478	95.19
379.704	88.19
379.929	76.19
380.155	92.19
380.38	96.19
380.606	97.19
380.831	92.19
381.057	100.19
381.282	93.19
381.507	102.19
381.733	100.19
381.958	93.19
382.184	79.19
382.409	107.19
382.634	105.19
382.86	99.19
383.085	105.19
383.31	92.19
383.535	104.19
383.761	88.19
383.986	91.19
384.211	96.19
384.436	113.19
384.662	87.19
384.887	106.19
385.112	111.19
385.337	96.19
385.562	97.19
385.787	98.19
386.013	114.19
386.238	113.19
386.463	111.19
386.688	107.19
386.913	104.19
387.138	100.19
387.363	109.19
387.588	112.19
387.813	100.19
388.038	109.19
388.263	102.19
388.488	105.19
388.713	89.19
388.938	84.19
389.163	99.19
389.387	105.19
389.612	102.19
389.837	97.19
390.062	95.19
390.287	84.19
390.512	90.19
390.736	97.19
390.961	89.19
391.186	102.19
391.411	89.19
391.636	84.19
391.86	92.19
392.085	78.19
392.31	88.19
392.534	86.19
392.759	82.19
392.984	88.19
393.208	89.19
393.433	120.19
393.658	108.19
393.882	92.19
394.107	83.19
394.331	87.19
394.556	88.19
394.78	82.19
395.005	79.19
395.229	88.19
395.454	75.19
395.678	78.19
395.903	87.19
396.127	79.19
396.352	88.19
396.576	82.19
396.801	98.19
397.025	91.19
397.249	79.19
397.474	82.19
397.698	74.19
397.922	80.19
398.147	80.19
398.371	85.19
398.595	87.19
398.82	98.19
399.044	74.19
399.268	83.19
399.492	87.19
399.717	87.19
399.941	84.19
400.165	88.19
400.389	87.19
400.613	82.19
400.837	83.19
401.062	66.19
401.286	89.19
401.51	90.19
401.734	94.19
401.958	84.19
402.182	123.19
402.406	156.19
402.63	105.19
402.854	97.19
403.078	92.19
403.302	86.19
403.526	88.19
403.75	89.19
403.974	89.19
404.198	83.19
404.422	75.19
404.645	79.19
404.869	87.19
405.093	82.19
405.317	92.19
405.541	97.19
405.765	106.19
405.988	102.19
406.212	159.19
406.436	234.19
406.66	141.19
406.883	105.19
407.107	82.19
407.331	89.19
407.555	91.19
407.778	96.19
408.002	96.19
408.226	90.19
408.449	87.19
408.673	86.19
408.896	92.19
409.12	83.19
409.344	97.19
409.567	101.19
409.791	92.19
410.014	103.19
410.238	68.19
410.461	100.19
410.685	87.19
410.908	87.19
411.132	96.19
411.355	111.19
411.578	99.19
411.802	92.19
412.025	87.19
412.249	91.19
412.472	84.19
412.695	82.19
412.919	90.19
413.142	92.19
413.365	82.19
413.589	88.19
413.812	89.19
414.035	90.19
414.258	82.19
414.482	85.19
414.705	93.19
414.928	90.19
415.151	106.19
415.374	106.19
415.597	98.19
415.821	88.19
416.044	84.19
416.267	83.19
416.49	86.19
416.713	62.19
416.936	74.19
417.159	94.19
417.382	94.19
417.605	85.19
417.828	99.19
418.051	95.19
418.274	92.19
418.497	93.19
418.72	97.19
418.943	97.19
419.166	84.19
419.389	90.19
419.611	82.19
419.834	90.19
420.057	91.19
420.28	81.19
420.503	90.19
420.726	88.19
420.948	100.19
421.171	76.19
421.394	97.19
421.617	92.19
421.839	89.19
422.062	91.19
422.285	81.19
422.507	105.19
422.73	105.19
422.953	97.19
423.175	93.19
423.398	68.19
423.621	84.19
423.843	91.19
424.066	82.19
424.288	93.19
424.511	88.19
424.733	70.19
424.956	95.19
425.178	91.19
425.401	93.19
425.623	88.19
425.846	94.19
426.068	92.19
426.291	95.19
426.513	106.19
426.735	86.19
426.958	95.19
427.18	108.19
427.402	127.19
427.625	144.19
427.847	132.19
428.069	115.19
428.292	97.19
428.514	76.19
428.736	74.19
428.958	89.19
429.181	94.19
429.403	76.19
429.625	86.19
429.847	83.19
430.069	87.19
430.292	72.19
430.514	79.19
430.736	74.19
430.958	93.19
431.18	83.19
431.402	96.19
431.624	100.19
431.846	79.19
432.068	89.19
432.29	78.19
432.512	90.19
432.734	76.19
432.956	83.19
433.178	91.19
433.4	91.19
433.622	78.19
433.844	84.19
434.066	99.19
434.287	91.19
434.509	73.19
434.731	78.19
434.953	80.19
435.175	80.19
435.397	94.19
435.618	92.19
435.84	99.19
436.062	106.19
436.284	94.19
436.505	91.19
436.727	84.19
436.949	86.19
437.17	86.19
437.392	91.19
437.614	87.19
437.835	101.19
438.057	104.19
438.278	104.19
438.5	91.19
438.721	113.19
438.943	94.19
439.165	76.19
439.386	88.19
439.608	83.19
439.829	99.19
440.05	99.19
440.272	131.19
440.493	90.19
440.715	92.19
440.936	93.19
441.158	80.19
441.379	72.19
441.6	90.19
441.822	91.19
442.043	92.19
442.264	92.19
442.486	91.19
442.707	90.19
442.928	87.19
443.149	124.19
443.371	122.19
443.592	108.19
443.813	97.19
444.034	89.19
444.255	102.19
444.476	86.19
444.698	102.19
444.919	92.19
445.14	124.19
445.361	118.19
445.582	100.19
445.803	114.19
446.024	123.19
446.245	117.19
446.466	103.19
446.687	91.19
446.908	79.19
447.129	104.19
447.35	86.19
447.571	87.19
447.792	77.19
448.013	98.19
448.234	96.19
448.455	96.19
448.675	98.19
448.896	101.19
449.117	92.19
449.338	88.19
449.559	121.19
449.779	111.19
450	98.19
450.221	96.19
450.442	105.19
450.662	87.19
450.883	98.19
451.104	94.19
451.324	94.19
451.545	80.19
451.766	76.19
451.986	73.19
452.207	81.19
452.428	88.19
452.648	99.19
452.869	117.19
453.089	105.19
453.31	112.19
453.53	103.19
453.751	100.19
453.971	111.19
454.192	99.19
454.412	86.19
454.633	86.19
454.853	93.19
455.073	95.19
455.294	91.19
455.514	76.19
455.734	80.19
455.955	78.19
456.175	90.19
456.395	97.19
456.616	83.19
456.836	95.19
457.056	77.19
457.276	102.19
457.497	81.19
457.717	59.19
457.937	83.19
458.157	86.19
458.377	92.19
458.598	103.19
458.818	134.19
459.038	150.19
459.258	103.19
459.478	88.19
459.698	83.19
459.918	92.19
460.138	74.19
460.358	83.19
460.578	88.19
460.798	79.19
461.018	81.19
461.238	78.19
461.458	74.19
461.678	78.19
461.898	84.19
462.118	74.19
462.338	90.19
462.558	80.19
462.777	87.19
462.997	72.19
463.217	76.19
463.437	71.19
463.657	89.19
463.876	80.19
464.096	87.19
464.316	72.19
464.536	92.19
464.755	93.19
464.975	94.19
465.195	160.19
465.414	140.19
465.634	101.19
465.854	99.19
466.073	91.19
466.293	79.19
466.512	81.19
466.732	87.19
466.951	82.19
467.171	86.19
467.391	78.19
467.61	102.19
467.829	97.19
468.049	116.19
468.268	139.19
468.488	87.19
468.707	80.19
468.927	85.19
469.146	84.19
469.365	83.19
469.585	79.19
469.804	97.19
470.023	96.19
470.243	102.19
470.462	107.19
470.681	104.19
470.901	92.19
471.12	83.19
471.339	86.19
471.558	90.19
471.777	85.19
471.997	107.19
472.216	190.19
472.435	260.19
472.654	119.19
472.873	85.19
473.092	85.19
473.311	96.19
473.53	72.19
473.749	85.19
473.968	96.19
474.187	102.19
474.406	103.19
474.625	68.19
474.844	78.19
475.063	78.19
475.282	85.19
475.501	86.19
475.72	82.19
475.939	91.19
476.158	93.19
476.377	83.19
476.596	86.19
476.814	91.19
477.033	90.19
477.252	92.19
477.471	77.19
477.69	95.19
477.908	86.19
478.127	90.19
478.346	97.19
478.564	81.19
478.783	92.19
479.002	84.19
479.22	80.19
479.439	83.19
479.658	106.19
479.876	82.19
480.095	77.19
480.313	79.19
480.532	91.19
480.751	98.19
480.969	164.19
481.188	421.19
481.406	262.19
481.624	99.19
481.843	92.19
482.061	88.19
482.28	81.19
482.498	84.19
482.717	83.19
482.935	82.19
483.153	90.19
483.372	94.19
483.59	81.19
483.808	97.19
484.027	74.19
484.245	92.19
484.463	78.19
484.681	95.19
484.9	89.19
485.118	93.19
485.336	90.19
485.554	99.19
485.772	107.19
485.99	96.19
486.209	116.19
486.427	112.19
486.645	102.19
486.863	118.19
487.081	110.19
487.299	84.19
487.517	96.19
487.735	95.19
487.953	82.19
488.171	90.19
488.389	83.19
488.607	102.19
488.825	73.19
489.043	88.19
489.261	87.19
489.479	75.19
489.696	98.19
489.914	84.19
490.132	82.19
490.35	80.19
490.568	97.19
490.786	84.19
491.003	94.19
491.221	97.19
491.439	102.19
491.657	92.19
491.874	98.19
492.092	87.19
492.31	94.19
492.527	92.19
492.745	105.19
492.963	87.19
493.18	93.19
493.398	98.19
493.615	98.19
493.833	106.19
494.05	85.19
494.268	110.19
494.485	97.19
494.703	85.19
494.92	81.19
495.138	78.19
495.355	76.19
495.573	91.19
495.79	86.19
496.008	76.19
496.225	88.19
496.442	84.19
496.66	103.19
496.877	88.19
497.094	94.19
497.312	89.19
497.529	82.19
497.746	85.19
497.963	100.19
498.181	99.19
498.398	91.19
498.615	96.19
498.832	97.19
499.049	83.19
499.267	77.19
499.484	93.19
499.701	84.19
499.918	90.19
500.135	83.19
500.352	99.19
500.569	75.19
500.786	87.19
501.003	97.19
501.22	87.19
501.437	90.19
501.654	97.19
501.871	101.19
502.088	96.19
502.305	94.19
502.522	78.19
502.739	98.19
502.956	99.19
503.172	89.19
503.389	91.19
503.606	90.19
503.823	93.19
504.04	80.19
504.256	93.19
504.473	84.19
504.69	90.19
504.907	97.19
505.123	78.19
505.34	85.19
505.557	105.19
505.773	81.19
505.99	94.19
506.207	110.19
506.423	88.19
506.64	93.19
506.856	92.19
507.073	91.19
507.289	95.19
507.506	103.19
507.722	96.19
507.939	96.19
508.155	94.19
508.372	92.19
508.588	93.19
508.805	76.19
509.021	94.19
509.238	90.19
509.454	99.19
509.67	99.19
509.887	116.19
510.103	132.19
510.319	220.19
510.536	769.19
510.752	2664.19
510.968	723.19
511.184	143.19
511.401	106.19
511.617	106.19
511.833	83.19
512.049	105.19
512.265	95.19
512.481	98.19
512.698	106.19
512.914	91.19
513.13	87.19
513.346	106.19
513.562	88.19
513.778	98.19
513.994	86.19
514.21	111.19
514.426	116.19
514.642	141.19
514.858	99.19
515.074	156.19
515.29	442.19
515.506	1475.19
515.721	538.19
515.937	158.19
516.153	97.19
516.369	100.19
516.585	80.19
516.801	103.19
517.016	106.19
517.232	89.19
517.448	88.19
517.664	89.19
517.879	103.19
518.095	88.19
518.311	98.19
518.527	92.19
518.742	80.19
518.958	104.19
519.173	99.19
519.389	98.19
519.605	96.19
519.82	99.19
520.036	105.19
520.251	115.19
520.467	109.19
520.682	94.19
520.898	103.19
521.113	104.19
521.329	141.19
521.544	191.19
521.76	530.19
521.975	2407.19
522.19	1458.19
522.406	300.19
522.621	114.19
522.836	89.19
523.052	104.19
523.267	107.19
523.482	83.19
523.698	91.19
523.913	123.19
524.128	97.19
524.343	100.19
524.559	90.19
524.774	80.19
524.989	89.19
525.204	110.19
525.419	119.19
525.634	91.19
525.849	97.19
526.064	85.19
526.28	89.19
526.495	79.19
526.71	98.19
526.925	87.19
527.14	91.19
527.355	94.19
527.57	84.19
527.785	86.19
527.999	77.19
528.214	87.19
528.429	92.19
528.644	87.19
528.859	103.19
529.074	89.19
529.289	138.19
529.503	159.19
529.718	93.19
529.933	85.19
530.148	77.19
530.363	85.19
530.577	96.19
530.792	100.19
531.007	91.19
531.221	86.19
531.436	92.19
531.651	86.19
531.865	94.19
532.08	103.19
532.295	88.19
532.509	81.19
532.724	107.19
532.938	105.19
533.153	99.19
533.367	84.19
533.582	94.19
533.796	100.19
534.011	97.19
534.225	98.19
534.44	82.19
534.654	82.19
534.868	67.19
535.083	99.19
535.297	98.19
535.511	95.19
535.726	98.19
535.94	105.19
536.154	92.19
536.369	98.19
536.583	94.19
536.797	78.19
537.011	86.19
537.225	92.19
537.44	90.19
537.654	105.19
537.868	90.19
538.082	82.19
538.296	100.19
538.51	84.19
538.724	88.19
538.938	88.19
539.153	91.19
539.367	94.19
539.581	89.19
539.795	97.19
540.009	76.19
540.222	95.19
540.436	95.19
540.65	81.19
540.864	97.19
541.078	102.19
541.292	92.19
541.506	91.19
541.72	76.19
541.934	77.19
542.147	89.19
542.361	87.19
542.575	81.19
542.789	84.19
543.002	86.19
543.216	87.19
543.43	102.19
543.644	89.19
543.857	104.19
544.071	91.19
544.285	90.19
544.498	86.19
544.712	96.19
544.925	89.19
545.139	95.19
545.352	86.19
545.566	81.19
545.779	95.19
545.993	82.19
546.206	88.19
546.42	93.19
546.633	99.19
546.847	84.19
547.06	98.19
547.274	91.19
547.487	94.19
547.7	86.19
547.914	70.19
548.127	89.19
548.34	80.19
548.554	82.19
548.767	88.19
548.98	94.19
549.193	95.19
549.407	92.19
549.62	87.19
549.833	82.19
550.046	91.19
550.259	77.19
550.473	78.19
550.686	93.19
550.899	95.19
551.112	79.19
551.325	89.19
551.538	83.19
551.751	99.19
551.964	93.19
552.177	83.19
552.39	87.19
552.603	91.19
552.816	96.19
553.029	88.19
553.242	84.19
553.455	94.19
553.667	93.19
553.88	94.19
554.093	83.19
554.306	83.19
554.519	86.19
554.732	86.19
554.944	89.19
555.157	92.19
555.37	79.19
555.583	97.19
555.795	98.19
556.008	87.19
556.221	87.19
556.433	92.19
556.646	84.19
556.859	100.19
557.071	93.19
557.284	92.19
557.496	81.19
557.709	93.19
557.921	83.19
558.134	88.19
558.346	80.19
558.559	81.19
558.771	89.19
558.984	85.19
559.196	96.19
559.409	91.19
559.621	91.19
559.833	86.19
560.046	84.19
560.258	97.19
560.47	97.19
560.683	83.19
560.895	81.19
561.107	78.19
561.32	78.19
561.532	93.19
561.744	88.19
561.956	86.19
562.168	100.19
562.381	92.19
562.593	89.19
562.805	91.19
563.017	90.19
563.229	70.19
563.441	99.19
563.653	95.19
563.865	107.19
564.077	82.19
564.289	87.19
564.501	98.19
564.713	94.19
564.925	86.19
565.137	100.19
565.349	74.19
565.561	87.19
565.773	87.19
565.985	93.19
566.197	80.19
566.408	84.19
566.62	83.19
566.832	85.19
567.044	83.19
567.255	86.19
567.467	86.19
567.679	85.19
567.891	102.19
568.102	93.19
568.314	95.19
568.526	88.19
568.737	77.19
568.949	91.19
569.161	87.19
569.372	92.19
569.584	79.19
569.795	106.19
570.007	124.19
570.218	234.19
570.43	138.19
570.641	100.19
570.853	72.19
571.064	89.19
571.276	94.19
571.487	84.19
571.698	92.19
571.91	100.19
572.121	80.19
572.333	81.19
572.544	74.19
572.755	89.19
572.966	100.19
573.178	81.19
573.389	91.19
573.6	104.19
573.811	105.19
574.023	99.19
574.234	99.19
574.445	98.19
574.656	88.19
574.867	85.19
575.078	86.19
575.289	81.19
575.501	82.19
575.712	79.19
575.923	95.19
576.134	75.19
576.345	72.19
576.556	90.19
576.767	99.19
576.978	106.19
577.188	90.19
577.399	89.19
577.61	92.19
577.821	97.19
578.032	105.19
578.243	285.19
578.454	767.19
578.665	213.19
578.875	121.19
579.086	95.19
579.297	96.19
579.508	87.19
579.718	91.19
579.929	86.19
580.14	85.19
580.35	85.19
580.561	78.19
580.772	97.19
580.982	91.19
581.193	93.19
581.403	99.19
581.614	90.19
581.825	75.19
582.035	82.19
582.246	83.19
582.456	82.19
582.667	88.19
582.877	74.19
583.087	85.19
583.298	89.19
583.508	88.19
583.719	88.19
583.929	98.19
584.139	80.19
584.35	80.19
584.56	79.19
584.77	92.19
584.981	86.19
585.191	72.19
585.401	87.19
585.611	88.19
585.821	88.19
586.032	95.19
586.242	94.19
586.452	98.19
586.662	86.19
586.872	97.19
587.082	90.19
587.292	73.19
587.502	67.19
587.713	97.19
587.923	91.19
588.133	79.19
588.343	93.19
588.553	87.19
588.762	86.19
588.972	102.19
589.182	236.19
589.392	151.19
589.602	126.19
589.812	178.19
590.022	111.19
590.232	90.19
590.441	86.19
590.651	75.19
590.861	74.19
591.071	95.19
591.281	97.19
591.49	86.19
591.7	104.19
591.91	107.19
592.119	81.19
592.329	98.19
592.539	94.19
592.748	83.19
592.958	92.19
593.167	83.19
593.377	75.19
593.587	91.19
593.796	76.19
594.006	82.19
594.215	77.19
594.424	88.19
594.634	82.19
594.843	83.19
595.053	81.19
595.262	91.19
595.472	95.19
595.681	86.19
595.89	80.19
596.1	84.19
596.309	91.19
596.518	79.19
596.727	80.19
596.937	86.19
597.146	85.19
597.355	89.19
597.564	86.19
597.774	73.19
597.983	87.19
598.192	83.19
598.401	83.19
598.61	92.19
598.819	95.19
599.028	76.19
599.237	79.19
599.446	82.19
599.655	86.19
599.864	84.19
600.073	78.19
600.282	83.19
600.491	88.19
600.7	93.19
600.909	94.19
601.118	78.19
601.327	88.19
601.536	106.19
601.745	98.19
601.953	99.19
602.162	87.19
602.371	92.19
602.58	88.19
602.789	97.19
602.997	86.19
603.206	88.19
603.415	78.19
603.623	65.19
603.832	89.19
604.041	88.19
604.249	97.19
604.458	97.19
604.666	100.19
604.875	96.19
605.084	95.19
605.292	81.19
605.501	83.19
605.709	85.19
605.918	86.19
606.126	83.19
606.334	78.19
606.543	80.19
606.751	88.19
606.96	78.19
607.168	86.19
607.376	95.19
607.585	92.19
607.793	95.19
608.001	74.19
608.21	87.19
608.418	103.19
608.626	83.19
608.834	89.19
609.043	87.19
609.251	82.19
609.459	94.19
609.667	87.19
609.875	90.19
610.083	84.19
610.291	83.19
610.499	83.19
610.707	65.19
610.916	77.19
611.124	79.19
611.332	95.19
611.54	87.19
611.748	88.19
611.955	94.19
612.163	74.19
612.371	84.19
612.579	74.19
612.787	84.19
612.995	87.19
613.203	86.19
613.411	77.19
613.618	90.19
613.826	79.19
614.034	94.19
614.242	85.19
614.449	94.19
614.657	91.19
614.865	88.19
615.072	73.19
615.28	80.19
615.488	86.19
615.695	104.19
615.903	100.19
616.111	99.19
616.318	99.19
616.526	93.19
616.733	96.19
616.941	90.19
617.148	84.19
617.356	78.19
617.563	81.19
617.771	89.19
617.978	81.19
618.185	85.19
618.393	84.19
618.6	84.19
618.807	81.19
619.015	97.19
619.222	83.19
619.429	78.19
619.637	92.19
619.844	78.19
620.051	91.19
620.258	74.19
620.466	75.19
620.673	82.19
620.88	91.19
621.087	80.19
621.294	79.19
621.501	92.19
621.708	90.19
621.915	81.19
622.122	83.19
622.329	85.19
622.536	87.19
622.743	81.19
622.95	84.19
623.157	85.19
623.364	101.19
623.571	96.19
623.778	91.19
623.985	90.19
624.192	80.19
624.399	84.19
624.606	93.19
624.812	83.19
625.019	79.19
625.226	61.19
625.433	92.19
625.639	76.19
625.846	86.19
626.053	73.19
626.259	77.19
626.466	90.19
626.673	82.19
626.879	87.19
627.086	88.19
627.293	98.19
627.499	86.19
627.706	83.19
627.912	83.19
628.119	92.19
628.325	91.19
628.532	95.19
628.738	86.19
628.945	94.19
629.151	87.19
629.357	71.19
629.564	88.19
629.77	93.19
629.976	94.19
630.183	71.19
630.389	77.19
630.595	77.19
630.802	89.19
631.008	93.19
631.214	82.19
631.42	75.19
631.627	89.19
631.833	84.19
632.039	94.19
632.245	78.19
632.451	91.19
632.657	73.19
632.863	65.19
633.069	84.19
633.275	79.19
633.481	79.19
633.688	87.19
633.893	84.19
634.099	63.19
634.305	88.19
634.511	81.19
634.717	85.19
634.923	85.19
635.129	74.19
635.335	83.19
635.541	70.19
635.747	92.19
635.952	86.19
636.158	83.19
636.364	104.19
636.57	99.19
636.775	93.19
636.981	82.19
637.187	83.19
637.392	87.19
637.598	78.19
637.804	86.19
638.009	74.19
638.215	90.19
638.421	77.19
638.626	80.19
638.832	86.19
639.037	84.19
639.243	86.19
639.448	78.19
639.654	73.19
639.859	95.19
640.065	82.19
640.27	98.19
640.475	92.19
640.681	85.19
640.886	90.19
641.091	72.19
641.297	78.19
641.502	75.19
641.707	90.19
641.913	84.19
642.118	92.19
642.323	87.19
642.528	87.19
642.733	80.19
642.939	86.19
643.144	84.19
643.349	85.19
643.554	83.19
643.759	82.19
643.964	81.19
644.169	91.19
644.374	94.19
644.579	83.19
644.784	94.19
644.989	77.19
645.194	67.19
645.399	93.19
645.604	89.19
645.809	85.19
646.014	79.19
646.219	76.19
646.423	96.19
646.628	83.19
646.833	85.19
647.038	77.19
647.243	92.19
647.447	93.19
647.652	84.19
647.857	83.19
648.062	90.19
648.266	81.19
648.471	86.19
648.676	97.19
648.88	92.19
649.085	90.19
649.289	80.19
649.494	112.19
649.698	112.19
649.903	118.19
650.107	90.19
650.312	74.19
650.516	90.19
650.721	80.19
650.925	87.19
651.13	80.19
651.334	75.19
651.539	90.19
651.743	89.19
651.947	87.19
652.152	87.19
652.356	82.19
652.56	86.19
652.764	87.19
652.969	87.19
653.173	95.19
653.377	73.19
653.581	83.19
653.785	80.19
653.99	86.19
654.194	84.19
654.398	75.19
654.602	82.19
654.806	92.19
655.01	99.19
655.214	75.19
655.418	96.19
655.622	93.19
655.826	83.19
656.03	83.19
656.234	88.19
656.438	83.19
656.642	103.19
656.846	94.19
657.049	100.19
657.253	92.19
657.457	75.19
657.661	74.19
657.865	80.19
658.068	74.19
658.272	73.19
658.476	71.19
658.68	90.19
658.883	82.19
659.087	78.19
659.291	97.19
659.494	87.19
659.698	90.19
659.901	78.19
660.105	84.19
660.309	86.19
660.512	91.19
660.716	86.19
660.919	72.19
661.123	88.19
661.326	78.19
661.53	74.19
661.733	82.19
661.936	89.19
662.14	88.19
662.343	80.19
662.546	68.19
662.75	83.19
662.953	65.19
663.156	68.19
663.36	89.19
663.563	80.19
663.766	82.19
663.969	96.19
664.173	79.19
664.376	80.19
664.579	78.19
664.782	90.19
664.985	65.19
665.188	76.19
665.391	82.19
665.594	76.19
665.797	75.19
666	64.19
666.203	71.19
666.406	74.19
666.609	80.19
666.812	75.19
667.015	78.19
667.218	82.19
667.421	84.19
667.624	77.19
667.827	80.19
668.03	75.19
668.232	78.19
668.435	83.19
668.638	77.19
668.841	90.19
669.043	86.19
669.246	93.19
669.449	92.19
669.651	92.19
669.854	79.19
670.057	64.19
670.259	74.19
670.462	64.19
670.665	72.19
670.867	85.19
671.07	82.19
671.272	77.19
671.475	70.19
671.677	88.19
671.88	73.19
672.082	90.19
672.284	81.19
672.487	68.19
672.689	75.19
672.892	88.19
