Data from Circ_1996_H10_HRD10591_00002.txt Node
Date: Wed Jan 03 11:33:06 EST 2024
User: Yrep
Spectrometer: HR+D1059
Trigger mode: 1
Integration Time (sec): 1.000000E-1
Scans to average: 1
Electric dark correction enabled: true
Nonlinearity correction enabled: false
Boxcar width: 0
XAxis mode: Wavelengths
Number of Pixels in Spectrum: 2048
>>>>>Begin Spectral Data<<<<<
223.165	-20.25
223.4	-20.25
223.635	-20.25
223.869	-17.25
224.104	-21.25
224.338	-17.25
224.573	-23.25
224.808	1.75
225.042	-8.25
225.277	1.75
225.511	-4.25
225.746	6.75
225.98	3.75
226.215	13.75
226.449	10.75
226.683	16.75
226.918	22.75
227.152	33.75
227.387	38.75
227.621	37.75
227.856	45.75
228.09	44.75
228.324	44.75
228.559	48.75
228.793	65.75
229.027	73.75
229.262	62.75
229.496	73.75
229.73	88.75
229.964	79.75
230.199	76.75
230.433	77.75
230.667	76.75
230.901	76.75
231.136	86.75
231.37	69.75
231.604	95.75
231.838	73.75
232.072	87.75
232.306	70.75
232.541	100.75
232.775	93.75
233.009	82.75
233.243	94.75
233.477	91.75
233.711	84.75
233.945	82.75
234.179	105.75
234.413	83.75
234.647	78.75
234.881	92.75
235.115	102.75
235.349	82.75
235.583	88.75
235.817	92.75
236.051	87.75
236.285	66.75
236.519	77.75
236.753	94.75
236.987	82.75
237.221	75.75
237.455	81.75
237.689	86.75
237.922	84.75
238.156	88.75
238.39	85.75
238.624	58.75
238.858	72.75
239.091	78.75
239.325	90.75
239.559	69.75
239.793	73.75
240.027	81.75
240.26	78.75
240.494	79.75
240.728	77.75
240.961	68.75
241.195	84.75
241.429	80.75
241.662	63.75
241.896	79.75
242.13	85.75
242.363	87.75
242.597	73.75
242.83	76.75
243.064	75.75
243.298	73.75
243.531	84.75
243.765	78.75
243.998	81.75
244.232	78.75
244.465	94.75
244.699	83.75
244.932	79.75
245.166	90.75
245.399	77.75
245.633	69.75
245.866	84.75
246.099	79.75
246.333	80.75
246.566	73.75
246.8	72.75
247.033	91.75
247.266	86.75
247.5	82.75
247.733	82.75
247.966	101.75
248.2	77.75
248.433	83.75
248.666	89.75
248.899	78.75
249.133	82.75
249.366	88.75
249.599	91.75
249.832	96.75
250.066	80.75
250.299	83.75
250.532	86.75
250.765	81.75
250.998	83.75
251.231	89.75
251.465	83.75
251.698	89.75
251.931	80.75
252.164	74.75
252.397	85.75
252.63	76.75
252.863	85.75
253.096	65.75
253.329	75.75
253.562	89.75
253.795	85.75
254.028	77.75
254.261	86.75
254.494	69.75
254.727	77.75
254.96	85.75
255.193	80.75
255.426	73.75
255.659	81.75
255.892	87.75
256.124	75.75
256.357	90.75
256.59	81.75
256.823	59.75
257.056	92.75
257.289	85.75
257.521	86.75
257.754	74.75
257.987	84.75
258.22	81.75
258.452	89.75
258.685	73.75
258.918	72.75
259.151	60.75
259.383	87.75
259.616	75.75
259.849	73.75
260.081	75.75
260.314	89.75
260.547	80.75
260.779	95.75
261.012	82.75
261.244	94.75
261.477	93.75
261.71	80.75
261.942	105.75
262.175	117.75
262.407	92.75
262.64	90.75
262.872	85.75
263.105	83.75
263.337	84.75
263.57	78.75
263.802	80.75
264.035	79.75
264.267	90.75
264.499	96.75
264.732	89.75
264.964	86.75
265.197	89.75
265.429	84.75
265.661	77.75
265.894	74.75
266.126	92.75
266.358	97.75
266.591	86.75
266.823	83.75
267.055	80.75
267.287	90.75
267.52	81.75
267.752	77.75
267.984	78.75
268.216	74.75
268.448	85.75
268.681	85.75
268.913	100.75
269.145	94.75
269.377	70.75
269.609	85.75
269.841	87.75
270.073	98.75
270.306	90.75
270.538	74.75
270.77	94.75
271.002	61.75
271.234	66.75
271.466	87.75
271.698	93.75
271.93	87.75
272.162	88.75
272.394	89.75
272.626	89.75
272.858	87.75
273.09	68.75
273.322	85.75
273.553	98.75
273.785	84.75
274.017	81.75
274.249	68.75
274.481	97.75
274.713	82.75
274.945	88.75
275.176	90.75
275.408	80.75
275.64	82.75
275.872	88.75
276.104	95.75
276.335	91.75
276.567	100.75
276.799	97.75
277.031	103.75
277.262	100.75
277.494	89.75
277.726	103.75
277.957	79.75
278.189	94.75
278.421	93.75
278.652	84.75
278.884	79.75
279.115	86.75
279.347	85.75
279.579	90.75
279.81	94.75
280.042	103.75
280.273	98.75
280.505	93.75
280.736	83.75
280.968	94.75
281.199	82.75
281.431	90.75
281.662	84.75
281.894	87.75
282.125	98.75
282.356	107.75
282.588	129.75
282.819	114.75
283.051	84.75
283.282	78.75
283.513	84.75
283.745	82.75
283.976	91.75
284.207	102.75
284.439	96.75
284.67	90.75
284.901	82.75
285.132	81.75
285.364	84.75
285.595	87.75
285.826	82.75
286.057	103.75
286.288	90.75
286.52	81.75
286.751	102.75
286.982	80.75
287.213	76.75
287.444	89.75
287.675	98.75
287.906	93.75
288.138	87.75
288.369	88.75
288.6	88.75
288.831	106.75
289.062	84.75
289.293	75.75
289.524	93.75
289.755	101.75
289.986	74.75
290.217	99.75
290.448	86.75
290.679	105.75
290.91	87.75
291.141	98.75
291.371	92.75
291.602	81.75
291.833	105.75
292.064	87.75
292.295	93.75
292.526	85.75
292.757	87.75
292.987	86.75
293.218	100.75
293.449	100.75
293.68	97.75
293.91	89.75
294.141	83.75
294.372	83.75
294.603	94.75
294.833	83.75
295.064	78.75
295.295	86.75
295.525	89.75
295.756	103.75
295.987	115.75
296.217	134.75
296.448	110.75
296.679	92.75
296.909	78.75
297.14	93.75
297.37	90.75
297.601	99.75
297.831	92.75
298.062	93.75
298.292	80.75
298.523	87.75
298.753	83.75
298.984	98.75
299.214	75.75
299.445	94.75
299.675	101.75
299.905	89.75
300.136	101.75
300.366	91.75
300.597	86.75
300.827	98.75
301.057	105.75
301.288	101.75
301.518	84.75
301.748	79.75
301.979	83.75
302.209	89.75
302.439	95.75
302.669	101.75
302.9	96.75
303.13	81.75
303.36	94.75
303.59	108.75
303.82	114.75
304.051	105.75
304.281	91.75
304.511	98.75
304.741	94.75
304.971	85.75
305.201	87.75
305.431	91.75
305.661	100.75
305.891	89.75
306.121	107.75
306.352	95.75
306.582	107.75
306.812	103.75
307.042	97.75
307.272	98.75
307.502	91.75
307.731	102.75
307.961	106.75
308.191	97.75
308.421	98.75
308.651	87.75
308.881	98.75
309.111	85.75
309.341	100.75
309.571	98.75
309.8	91.75
310.03	95.75
310.26	101.75
310.49	83.75
310.72	110.75
310.949	108.75
311.179	101.75
311.409	89.75
311.639	97.75
311.868	99.75
312.098	87.75
312.328	85.75
312.557	96.75
312.787	107.75
313.017	97.75
313.246	101.75
313.476	100.75
313.706	92.75
313.935	105.75
314.165	98.75
314.394	98.75
314.624	84.75
314.853	100.75
315.083	94.75
315.312	103.75
315.542	98.75
315.771	96.75
316.001	86.75
316.23	85.75
316.46	96.75
316.689	113.75
316.919	94.75
317.148	92.75
317.377	108.75
317.607	91.75
317.836	102.75
318.065	90.75
318.295	90.75
318.524	91.75
318.753	95.75
318.983	95.75
319.212	97.75
319.441	107.75
319.67	108.75
319.9	102.75
320.129	101.75
320.358	103.75
320.587	97.75
320.816	103.75
321.046	114.75
321.275	106.75
321.504	98.75
321.733	109.75
321.962	91.75
322.191	101.75
322.42	121.75
322.649	114.75
322.878	100.75
323.108	122.75
323.337	113.75
323.566	108.75
323.795	111.75
324.024	158.75
324.253	293.75
324.482	548.75
324.71	1090.75
324.939	1402.75
325.168	549.75
325.397	195.75
325.626	130.75
325.855	121.75
326.084	109.75
326.313	109.75
326.542	136.75
326.77	183.75
326.999	308.75
327.228	618.75
327.457	1058.75
327.686	845.75
327.914	276.75
328.143	166.75
328.372	157.75
328.6	124.75
328.829	121.75
329.058	116.75
329.287	126.75
329.515	102.75
329.744	132.75
329.972	125.75
330.201	169.75
330.43	201.75
330.658	141.75
330.887	125.75
331.115	116.75
331.344	110.75
331.572	103.75
331.801	99.75
332.03	101.75
332.258	92.75
332.486	100.75
332.715	107.75
332.943	97.75
333.172	101.75
333.4	96.75
333.629	91.75
333.857	103.75
334.085	140.75
334.314	186.75
334.542	252.75
334.771	224.75
334.999	124.75
335.227	102.75
335.455	98.75
335.684	92.75
335.912	96.75
336.14	123.75
336.369	95.75
336.597	119.75
336.825	108.75
337.053	89.75
337.281	91.75
337.51	88.75
337.738	108.75
337.966	97.75
338.194	100.75
338.422	94.75
338.65	110.75
338.878	104.75
339.106	86.75
339.334	87.75
339.562	79.75
339.79	90.75
340.018	95.75
340.246	93.75
340.474	97.75
340.702	97.75
340.93	93.75
341.158	92.75
341.386	89.75
341.614	92.75
341.842	98.75
342.07	94.75
342.298	89.75
342.526	91.75
342.754	80.75
342.981	89.75
343.209	75.75
343.437	100.75
343.665	77.75
343.893	107.75
344.12	102.75
344.348	96.75
344.576	85.75
344.804	85.75
345.031	101.75
345.259	99.75
345.487	110.75
345.714	100.75
345.942	91.75
346.17	93.75
346.397	104.75
346.625	96.75
346.853	105.75
347.08	94.75
347.308	99.75
347.535	90.75
347.763	97.75
347.99	105.75
348.218	101.75
348.445	108.75
348.673	90.75
348.9	99.75
349.128	105.75
349.355	90.75
349.583	103.75
349.81	96.75
350.037	102.75
350.265	97.75
350.492	92.75
350.72	85.75
350.947	102.75
351.174	102.75
351.402	102.75
351.629	110.75
351.856	87.75
352.083	102.75
352.311	110.75
352.538	103.75
352.765	116.75
352.992	111.75
353.22	109.75
353.447	108.75
353.674	99.75
353.901	103.75
354.128	113.75
354.355	111.75
354.583	95.75
354.81	112.75
355.037	98.75
355.264	106.75
355.491	98.75
355.718	95.75
355.945	101.75
356.172	106.75
356.399	102.75
356.626	103.75
356.853	95.75
357.08	107.75
357.307	102.75
357.534	93.75
357.761	96.75
357.988	109.75
358.215	105.75
358.441	108.75
358.668	110.75
358.895	109.75
359.122	107.75
359.349	87.75
359.576	102.75
359.802	82.75
360.029	102.75
360.256	110.75
360.483	101.75
360.709	101.75
360.936	97.75
361.163	104.75
361.39	100.75
361.616	81.75
361.843	89.75
362.07	100.75
362.296	84.75
362.523	90.75
362.749	95.75
362.976	106.75
363.203	95.75
363.429	99.75
363.656	93.75
363.882	106.75
364.109	89.75
364.335	94.75
364.562	86.75
364.788	93.75
365.015	97.75
365.241	96.75
365.468	102.75
365.694	86.75
365.92	93.75
366.147	87.75
366.373	91.75
366.599	97.75
366.826	94.75
367.052	97.75
367.278	83.75
367.505	95.75
367.731	100.75
367.957	91.75
368.184	97.75
368.41	107.75
368.636	113.75
368.862	118.75
369.089	104.75
369.315	82.75
369.541	105.75
369.767	86.75
369.993	75.75
370.219	92.75
370.445	106.75
370.672	101.75
370.898	93.75
371.124	103.75
371.35	102.75
371.576	86.75
371.802	93.75
372.028	84.75
372.254	87.75
372.48	98.75
372.706	94.75
372.932	99.75
373.158	89.75
373.384	87.75
373.61	96.75
373.835	89.75
374.061	89.75
374.287	98.75
374.513	105.75
374.739	94.75
374.965	93.75
375.191	93.75
375.416	96.75
375.642	98.75
375.868	87.75
376.094	92.75
376.319	94.75
376.545	106.75
376.771	90.75
376.997	91.75
377.222	105.75
377.448	101.75
377.674	103.75
377.899	91.75
378.125	93.75
378.35	95.75
378.576	100.75
378.802	91.75
379.027	90.75
379.253	100.75
379.478	107.75
379.704	108.75
379.929	114.75
380.155	106.75
380.38	106.75
380.606	96.75
380.831	113.75
381.057	112.75
381.282	107.75
381.507	109.75
381.733	106.75
381.958	111.75
382.184	110.75
382.409	117.75
382.634	118.75
382.86	111.75
383.085	123.75
383.31	114.75
383.535	120.75
383.761	113.75
383.986	107.75
384.211	90.75
384.436	109.75
384.662	117.75
384.887	120.75
385.112	127.75
385.337	135.75
385.562	143.75
385.787	143.75
386.013	123.75
386.238	131.75
386.463	123.75
386.688	128.75
386.913	129.75
387.138	126.75
387.363	130.75
387.588	110.75
387.813	110.75
388.038	123.75
388.263	154.75
388.488	155.75
388.713	111.75
388.938	105.75
389.163	108.75
389.387	100.75
389.612	107.75
389.837	104.75
390.062	100.75
390.287	95.75
390.512	89.75
390.736	90.75
390.961	91.75
391.186	82.75
391.411	93.75
391.636	100.75
391.86	96.75
392.085	85.75
392.31	82.75
392.534	97.75
392.759	96.75
392.984	81.75
393.208	101.75
393.433	136.75
393.658	130.75
393.882	94.75
394.107	91.75
394.331	90.75
394.556	103.75
394.78	97.75
395.005	98.75
395.229	92.75
395.454	94.75
395.678	94.75
395.903	96.75
396.127	89.75
396.352	105.75
396.576	91.75
396.801	107.75
397.025	119.75
397.249	98.75
397.474	94.75
397.698	90.75
397.922	93.75
398.147	93.75
398.371	94.75
398.595	84.75
398.82	77.75
399.044	76.75
399.268	86.75
399.492	98.75
399.717	95.75
399.941	101.75
400.165	96.75
400.389	93.75
400.613	82.75
400.837	106.75
401.062	83.75
401.286	85.75
401.51	99.75
401.734	96.75
401.958	101.75
402.182	118.75
402.406	150.75
402.63	110.75
402.854	97.75
403.078	85.75
403.302	94.75
403.526	96.75
403.75	89.75
403.974	86.75
404.198	89.75
404.422	79.75
404.645	94.75
404.869	90.75
405.093	91.75
405.317	101.75
405.541	83.75
405.765	84.75
405.988	117.75
406.212	170.75
406.436	199.75
406.66	118.75
406.883	92.75
407.107	88.75
407.331	99.75
407.555	106.75
407.778	97.75
408.002	87.75
408.226	86.75
408.449	94.75
408.673	90.75
408.896	95.75
409.12	90.75
409.344	94.75
409.567	95.75
409.791	93.75
410.014	107.75
410.238	96.75
410.461	94.75
410.685	105.75
410.908	102.75
411.132	93.75
411.355	101.75
411.578	101.75
411.802	92.75
412.025	86.75
412.249	110.75
412.472	81.75
412.695	109.75
412.919	88.75
413.142	85.75
413.365	87.75
413.589	78.75
413.812	85.75
414.035	91.75
414.258	88.75
414.482	91.75
414.705	88.75
414.928	104.75
415.151	101.75
415.374	110.75
415.597	91.75
415.821	95.75
416.044	103.75
416.267	98.75
416.49	94.75
416.713	95.75
416.936	84.75
417.159	96.75
417.382	100.75
417.605	102.75
417.828	105.75
418.051	86.75
418.274	93.75
418.497	80.75
418.72	81.75
418.943	81.75
419.166	101.75
419.389	98.75
419.611	93.75
419.834	90.75
420.057	97.75
420.28	79.75
420.503	97.75
420.726	95.75
420.948	97.75
421.171	85.75
421.394	82.75
421.617	102.75
421.839	77.75
422.062	86.75
422.285	93.75
422.507	95.75
422.73	99.75
422.953	107.75
423.175	94.75
423.398	99.75
423.621	85.75
423.843	91.75
424.066	87.75
424.288	85.75
424.511	96.75
424.733	100.75
424.956	97.75
425.178	97.75
425.401	112.75
425.623	113.75
425.846	92.75
426.068	95.75
426.291	101.75
426.513	91.75
426.735	102.75
426.958	87.75
427.18	100.75
427.402	120.75
427.625	128.75
427.847	123.75
428.069	127.75
428.292	95.75
428.514	92.75
428.736	88.75
428.958	91.75
429.181	92.75
429.403	100.75
429.625	87.75
429.847	79.75
430.069	83.75
430.292	95.75
430.514	91.75
430.736	87.75
430.958	82.75
431.18	89.75
431.402	91.75
431.624	73.75
431.846	92.75
432.068	91.75
432.29	90.75
432.512	89.75
432.734	81.75
432.956	86.75
433.178	87.75
433.4	81.75
433.622	93.75
433.844	81.75
434.066	88.75
434.287	81.75
434.509	80.75
434.731	86.75
434.953	83.75
435.175	81.75
435.397	88.75
435.618	83.75
435.84	101.75
436.062	123.75
436.284	89.75
436.505	88.75
436.727	92.75
436.949	81.75
437.17	84.75
437.392	95.75
437.614	78.75
437.835	99.75
438.057	101.75
438.278	101.75
438.5	92.75
438.721	104.75
438.943	103.75
439.165	95.75
439.386	85.75
439.608	92.75
439.829	99.75
440.05	107.75
440.272	128.75
440.493	89.75
440.715	85.75
440.936	89.75
441.158	80.75
441.379	83.75
441.6	95.75
441.822	83.75
442.043	99.75
442.264	95.75
442.486	103.75
442.707	94.75
442.928	107.75
443.149	114.75
443.371	117.75
443.592	109.75
443.813	97.75
444.034	89.75
444.255	100.75
444.476	84.75
444.698	93.75
444.919	87.75
445.14	134.75
445.361	117.75
445.582	98.75
445.803	133.75
446.024	119.75
446.245	104.75
446.466	96.75
446.687	85.75
446.908	85.75
447.129	93.75
447.35	88.75
447.571	96.75
447.792	97.75
448.013	84.75
448.234	109.75
448.455	85.75
448.675	103.75
448.896	109.75
449.117	102.75
449.338	105.75
449.559	98.75
449.779	117.75
450	102.75
450.221	86.75
450.442	87.75
450.662	94.75
450.883	102.75
451.104	105.75
451.324	89.75
451.545	76.75
451.766	90.75
451.986	93.75
452.207	84.75
452.428	92.75
452.648	102.75
452.869	109.75
453.089	108.75
453.31	123.75
453.53	93.75
453.751	82.75
453.971	93.75
454.192	91.75
454.412	91.75
454.633	89.75
454.853	85.75
455.073	90.75
455.294	98.75
455.514	78.75
455.734	90.75
455.955	80.75
456.175	80.75
456.395	86.75
456.616	90.75
456.836	78.75
457.056	70.75
457.276	84.75
457.497	82.75
457.717	83.75
457.937	89.75
458.157	93.75
458.377	86.75
458.598	99.75
458.818	122.75
459.038	142.75
459.258	101.75
459.478	88.75
459.698	87.75
459.918	85.75
460.138	95.75
460.358	81.75
460.578	85.75
460.798	96.75
461.018	83.75
461.238	89.75
461.458	77.75
461.678	90.75
461.898	95.75
462.118	91.75
462.338	83.75
462.558	99.75
462.777	81.75
462.997	89.75
463.217	95.75
463.437	86.75
463.657	93.75
463.876	87.75
464.096	99.75
464.316	93.75
464.536	95.75
464.755	89.75
464.975	96.75
465.195	129.75
465.414	133.75
465.634	83.75
465.854	91.75
466.073	101.75
466.293	85.75
466.512	83.75
466.732	71.75
466.951	78.75
467.171	79.75
467.391	90.75
467.61	94.75
467.829	102.75
468.049	137.75
468.268	153.75
468.488	89.75
468.707	90.75
468.927	87.75
469.146	86.75
469.365	78.75
469.585	94.75
469.804	100.75
470.023	93.75
470.243	87.75
470.462	86.75
470.681	107.75
470.901	85.75
471.12	90.75
471.339	91.75
471.558	106.75
471.777	95.75
471.997	115.75
472.216	191.75
472.435	300.75
472.654	126.75
472.873	96.75
473.092	82.75
473.311	91.75
473.53	94.75
473.749	91.75
473.968	87.75
474.187	113.75
474.406	71.75
474.625	94.75
474.844	81.75
475.063	91.75
475.282	86.75
475.501	78.75
475.72	86.75
475.939	86.75
476.158	102.75
476.377	84.75
476.596	87.75
476.814	97.75
477.033	82.75
477.252	87.75
477.471	87.75
477.69	83.75
477.908	94.75
478.127	95.75
478.346	82.75
478.564	95.75
478.783	92.75
479.002	89.75
479.22	100.75
479.439	93.75
479.658	101.75
479.876	110.75
480.095	97.75
480.313	101.75
480.532	80.75
480.751	131.75
480.969	198.75
481.188	508.75
481.406	307.75
481.624	115.75
481.843	92.75
482.061	96.75
482.28	86.75
482.498	88.75
482.717	87.75
482.935	82.75
483.153	97.75
483.372	92.75
483.59	89.75
483.808	93.75
484.027	94.75
484.245	91.75
484.463	92.75
484.681	119.75
484.9	79.75
485.118	99.75
485.336	112.75
485.554	101.75
485.772	110.75
485.99	121.75
486.209	120.75
486.427	110.75
486.645	100.75
486.863	125.75
487.081	93.75
487.299	105.75
487.517	95.75
487.735	91.75
487.953	94.75
488.171	96.75
488.389	91.75
488.607	98.75
488.825	91.75
489.043	84.75
489.261	88.75
489.479	88.75
489.696	90.75
489.914	89.75
490.132	93.75
490.35	81.75
490.568	84.75
490.786	79.75
491.003	91.75
491.221	85.75
491.439	85.75
491.657	91.75
491.874	100.75
492.092	94.75
492.31	87.75
492.527	82.75
492.745	82.75
492.963	93.75
493.18	92.75
493.398	96.75
493.615	107.75
493.833	98.75
494.05	102.75
494.268	92.75
494.485	74.75
494.703	95.75
494.92	82.75
495.138	85.75
495.355	100.75
495.573	96.75
495.79	97.75
496.008	96.75
496.225	116.75
496.442	97.75
496.66	83.75
496.877	85.75
497.094	101.75
497.312	94.75
497.529	89.75
497.746	97.75
497.963	93.75
498.181	90.75
498.398	95.75
498.615	120.75
498.832	102.75
499.049	90.75
499.267	97.75
499.484	90.75
499.701	91.75
499.918	101.75
500.135	89.75
500.352	93.75
500.569	97.75
500.786	93.75
501.003	95.75
501.22	97.75
501.437	93.75
501.654	83.75
501.871	106.75
502.088	93.75
502.305	107.75
502.522	85.75
502.739	96.75
502.956	93.75
503.172	85.75
503.389	101.75
503.606	106.75
503.823	85.75
504.04	110.75
504.256	97.75
504.473	93.75
504.69	85.75
504.907	85.75
505.123	81.75
505.34	84.75
505.557	86.75
505.773	91.75
505.99	94.75
506.207	90.75
506.423	92.75
506.64	84.75
506.856	84.75
507.073	86.75
507.289	97.75
507.506	99.75
507.722	100.75
507.939	103.75
508.155	99.75
508.372	102.75
508.588	94.75
508.805	90.75
509.021	94.75
509.238	93.75
509.454	90.75
509.67	92.75
509.887	116.75
510.103	113.75
510.319	203.75
510.536	646.75
510.752	2052.75
510.968	577.75
511.184	142.75
511.401	103.75
511.617	106.75
511.833	100.75
512.049	91.75
512.265	86.75
512.481	93.75
512.698	84.75
512.914	93.75
513.13	95.75
513.346	88.75
513.562	87.75
513.778	106.75
513.994	84.75
514.21	91.75
514.426	100.75
514.642	107.75
514.858	130.75
515.074	140.75
515.29	360.75
515.506	1140.75
515.721	422.75
515.937	123.75
516.153	114.75
516.369	98.75
516.585	95.75
516.801	97.75
517.016	100.75
517.232	92.75
517.448	89.75
517.664	86.75
517.879	98.75
518.095	89.75
518.311	108.75
518.527	100.75
518.742	99.75
518.958	98.75
519.173	96.75
519.389	85.75
519.605	94.75
519.82	95.75
520.036	99.75
520.251	111.75
520.467	115.75
520.682	113.75
520.898	85.75
521.113	102.75
521.329	128.75
521.544	173.75
521.76	449.75
521.975	1922.75
522.19	1155.75
522.406	271.75
522.621	114.75
522.836	87.75
523.052	105.75
523.267	101.75
523.482	88.75
523.698	102.75
523.913	110.75
524.128	96.75
524.343	92.75
524.559	103.75
524.774	90.75
524.989	89.75
525.204	103.75
525.419	109.75
525.634	91.75
525.849	90.75
526.064	91.75
526.28	86.75
526.495	86.75
526.71	91.75
526.925	91.75
527.14	96.75
527.355	90.75
527.57	91.75
527.785	103.75
527.999	106.75
528.214	101.75
528.429	92.75
528.644	99.75
528.859	94.75
529.074	94.75
529.289	118.75
529.503	155.75
529.718	86.75
529.933	94.75
530.148	89.75
530.363	92.75
530.577	117.75
530.792	89.75
531.007	92.75
531.221	92.75
531.436	89.75
531.651	95.75
531.865	103.75
532.08	96.75
532.295	106.75
532.509	83.75
532.724	96.75
532.938	85.75
533.153	93.75
533.367	101.75
533.582	107.75
533.796	99.75
534.011	91.75
534.225	90.75
534.44	89.75
534.654	95.75
534.868	95.75
535.083	100.75
535.297	99.75
535.511	106.75
535.726	102.75
535.94	101.75
536.154	86.75
536.369	99.75
536.583	86.75
536.797	84.75
537.011	90.75
537.225	83.75
537.44	98.75
537.654	95.75
537.868	79.75
538.082	89.75
538.296	83.75
538.51	98.75
538.724	89.75
538.938	89.75
539.153	101.75
539.367	90.75
539.581	89.75
539.795	88.75
540.009	97.75
540.222	93.75
540.436	95.75
540.65	94.75
540.864	94.75
541.078	91.75
541.292	94.75
541.506	102.75
541.72	92.75
541.934	99.75
542.147	92.75
542.361	97.75
542.575	85.75
542.789	96.75
543.002	91.75
543.216	106.75
543.43	92.75
543.644	80.75
543.857	94.75
544.071	90.75
544.285	86.75
544.498	77.75
544.712	85.75
544.925	94.75
545.139	95.75
545.352	84.75
545.566	84.75
545.779	87.75
545.993	82.75
546.206	92.75
546.42	101.75
546.633	110.75
546.847	97.75
547.06	93.75
547.274	85.75
547.487	100.75
547.7	85.75
547.914	92.75
548.127	85.75
548.34	83.75
548.554	87.75
548.767	101.75
548.98	102.75
549.193	78.75
549.407	87.75
549.62	87.75
549.833	98.75
550.046	92.75
550.259	89.75
550.473	84.75
550.686	107.75
550.899	98.75
551.112	78.75
551.325	98.75
551.538	99.75
551.751	100.75
551.964	86.75
552.177	92.75
552.39	90.75
552.603	99.75
552.816	79.75
553.029	96.75
553.242	94.75
553.455	97.75
553.667	105.75
553.88	103.75
554.093	107.75
554.306	101.75
554.519	93.75
554.732	99.75
554.944	98.75
555.157	95.75
555.37	107.75
555.583	113.75
555.795	81.75
556.008	90.75
556.221	87.75
556.433	102.75
556.646	93.75
556.859	88.75
557.071	79.75
557.284	85.75
557.496	87.75
557.709	93.75
557.921	81.75
558.134	87.75
558.346	91.75
558.559	93.75
558.771	90.75
558.984	87.75
559.196	97.75
559.409	83.75
559.621	89.75
559.833	91.75
560.046	101.75
560.258	96.75
560.47	85.75
560.683	102.75
560.895	82.75
561.107	95.75
561.32	95.75
561.532	97.75
561.744	106.75
561.956	97.75
562.168	102.75
562.381	83.75
562.593	82.75
562.805	88.75
563.017	88.75
563.229	96.75
563.441	79.75
563.653	91.75
563.865	89.75
564.077	83.75
564.289	103.75
564.501	94.75
564.713	100.75
564.925	86.75
565.137	102.75
565.349	87.75
565.561	93.75
565.773	95.75
565.985	95.75
566.197	82.75
566.408	88.75
566.62	88.75
566.832	102.75
567.044	74.75
567.255	98.75
567.467	87.75
567.679	98.75
567.891	90.75
568.102	92.75
568.314	90.75
568.526	95.75
568.737	70.75
568.949	87.75
569.161	98.75
569.372	83.75
569.584	92.75
569.795	86.75
570.007	104.75
570.218	217.75
570.43	139.75
570.641	101.75
570.853	90.75
571.064	95.75
571.276	84.75
571.487	87.75
571.698	102.75
571.91	95.75
572.121	84.75
572.333	86.75
572.544	99.75
572.755	89.75
572.966	85.75
573.178	87.75
573.389	94.75
573.6	100.75
573.811	91.75
574.023	84.75
574.234	87.75
574.445	89.75
574.656	79.75
574.867	95.75
575.078	90.75
575.289	82.75
575.501	87.75
575.712	95.75
575.923	93.75
576.134	92.75
576.345	83.75
576.556	91.75
576.767	90.75
576.978	90.75
577.188	108.75
577.399	102.75
577.61	103.75
577.821	94.75
578.032	119.75
578.243	234.75
578.454	609.75
578.665	194.75
578.875	101.75
579.086	97.75
579.297	83.75
579.508	98.75
579.718	83.75
579.929	81.75
580.14	80.75
580.35	82.75
580.561	107.75
580.772	96.75
580.982	90.75
581.193	101.75
581.403	93.75
581.614	77.75
581.825	93.75
582.035	103.75
582.246	89.75
582.456	89.75
582.667	101.75
582.877	93.75
583.087	70.75
583.298	100.75
583.508	81.75
583.719	84.75
583.929	91.75
584.139	90.75
584.35	98.75
584.56	92.75
584.77	95.75
584.981	81.75
585.191	89.75
585.401	101.75
585.611	98.75
585.821	95.75
586.032	94.75
586.242	86.75
586.452	107.75
586.662	99.75
586.872	75.75
587.082	95.75
587.292	83.75
587.502	100.75
587.713	101.75
587.923	94.75
588.133	94.75
588.343	87.75
588.553	85.75
588.762	106.75
588.972	173.75
589.182	438.75
589.392	225.75
589.602	162.75
589.812	317.75
590.022	141.75
590.232	87.75
590.441	93.75
590.651	81.75
590.861	95.75
591.071	93.75
591.281	91.75
591.49	86.75
591.7	82.75
591.91	83.75
592.119	99.75
592.329	92.75
592.539	96.75
592.748	90.75
592.958	89.75
593.167	90.75
593.377	90.75
593.587	90.75
593.796	101.75
594.006	90.75
594.215	98.75
594.424	86.75
594.634	101.75
594.843	96.75
595.053	99.75
595.262	86.75
595.472	86.75
595.681	103.75
595.89	95.75
596.1	91.75
596.309	109.75
596.518	77.75
596.727	86.75
596.937	87.75
597.146	90.75
597.355	88.75
597.564	88.75
597.774	91.75
597.983	86.75
598.192	66.75
598.401	93.75
598.61	86.75
598.819	83.75
599.028	95.75
599.237	91.75
599.446	89.75
599.655	88.75
599.864	85.75
600.073	104.75
600.282	93.75
600.491	78.75
600.7	79.75
600.909	87.75
601.118	93.75
601.327	98.75
601.536	86.75
601.745	95.75
601.953	95.75
602.162	79.75
602.371	91.75
602.58	84.75
602.789	94.75
602.997	84.75
603.206	92.75
603.415	95.75
603.623	80.75
603.832	96.75
604.041	88.75
604.249	89.75
604.458	101.75
604.666	74.75
604.875	85.75
605.084	76.75
605.292	99.75
605.501	81.75
605.709	77.75
605.918	80.75
606.126	94.75
606.334	93.75
606.543	100.75
606.751	90.75
606.96	87.75
607.168	84.75
607.376	86.75
607.585	75.75
607.793	100.75
608.001	95.75
608.21	96.75
608.418	95.75
608.626	87.75
608.834	83.75
609.043	90.75
609.251	93.75
609.459	83.75
609.667	83.75
609.875	80.75
610.083	94.75
610.291	96.75
610.499	84.75
610.707	94.75
610.916	81.75
611.124	98.75
611.332	75.75
611.54	96.75
611.748	100.75
611.955	93.75
612.163	77.75
612.371	100.75
612.579	94.75
612.787	81.75
612.995	100.75
613.203	97.75
613.411	97.75
613.618	99.75
613.826	85.75
614.034	91.75
614.242	98.75
614.449	98.75
614.657	86.75
614.865	94.75
615.072	90.75
615.28	88.75
615.488	83.75
615.695	98.75
615.903	90.75
616.111	93.75
616.318	89.75
616.526	101.75
616.733	97.75
616.941	91.75
617.148	99.75
617.356	85.75
617.563	91.75
617.771	83.75
617.978	91.75
618.185	85.75
618.393	96.75
618.6	91.75
618.807	95.75
619.015	84.75
619.222	97.75
619.429	103.75
619.637	94.75
619.844	82.75
620.051	83.75
620.258	84.75
620.466	90.75
620.673	83.75
620.88	85.75
621.087	80.75
621.294	83.75
621.501	85.75
621.708	89.75
621.915	78.75
622.122	97.75
622.329	82.75
622.536	83.75
622.743	88.75
622.95	77.75
623.157	81.75
623.364	88.75
623.571	103.75
623.778	83.75
623.985	89.75
624.192	91.75
624.399	103.75
624.606	95.75
624.812	69.75
625.019	80.75
625.226	89.75
625.433	97.75
625.639	86.75
625.846	98.75
626.053	77.75
626.259	95.75
626.466	92.75
626.673	86.75
626.879	90.75
627.086	84.75
627.293	87.75
627.499	77.75
627.706	99.75
627.912	79.75
628.119	89.75
628.325	96.75
628.532	96.75
628.738	92.75
628.945	86.75
629.151	80.75
629.357	92.75
629.564	94.75
629.77	91.75
629.976	76.75
630.183	83.75
630.389	77.75
630.595	85.75
630.802	88.75
631.008	100.75
631.214	97.75
631.42	89.75
631.627	80.75
631.833	87.75
632.039	78.75
632.245	87.75
632.451	66.75
632.657	68.75
632.863	104.75
633.069	95.75
633.275	105.75
633.481	84.75
633.688	79.75
633.893	90.75
634.099	82.75
634.305	82.75
634.511	87.75
634.717	81.75
634.923	77.75
635.129	84.75
635.335	88.75
635.541	95.75
635.747	93.75
635.952	81.75
636.158	80.75
636.364	107.75
636.57	97.75
636.775	91.75
636.981	87.75
637.187	85.75
637.392	88.75
637.598	87.75
637.804	74.75
638.009	88.75
638.215	78.75
638.421	87.75
638.626	92.75
638.832	86.75
639.037	95.75
639.243	82.75
639.448	86.75
639.654	86.75
639.859	86.75
640.065	78.75
640.27	78.75
640.475	91.75
640.681	79.75
640.886	80.75
641.091	82.75
641.297	85.75
641.502	97.75
641.707	95.75
641.913	72.75
642.118	91.75
642.323	92.75
642.528	89.75
642.733	100.75
642.939	96.75
643.144	98.75
643.349	88.75
643.554	94.75
643.759	85.75
643.964	82.75
644.169	92.75
644.374	95.75
644.579	79.75
644.784	79.75
644.989	65.75
645.194	82.75
645.399	100.75
645.604	95.75
645.809	89.75
646.014	93.75
646.219	89.75
646.423	91.75
646.628	94.75
646.833	92.75
647.038	90.75
647.243	91.75
647.447	79.75
647.652	70.75
647.857	85.75
648.062	95.75
648.266	86.75
648.471	91.75
648.676	87.75
648.88	103.75
649.085	91.75
649.289	85.75
649.494	105.75
649.698	106.75
649.903	92.75
650.107	94.75
650.312	87.75
650.516	93.75
650.721	96.75
650.925	92.75
651.13	68.75
651.334	80.75
651.539	93.75
651.743	77.75
651.947	83.75
652.152	78.75
652.356	84.75
652.56	98.75
652.764	89.75
652.969	75.75
653.173	81.75
653.377	89.75
653.581	78.75
653.785	76.75
653.99	89.75
654.194	91.75
654.398	79.75
654.602	87.75
654.806	80.75
655.01	97.75
655.214	82.75
655.418	92.75
655.622	88.75
655.826	79.75
656.03	99.75
656.234	89.75
656.438	107.75
656.642	95.75
656.846	82.75
657.049	99.75
657.253	91.75
657.457	81.75
657.661	81.75
657.865	81.75
658.068	82.75
658.272	85.75
658.476	70.75
658.68	84.75
658.883	82.75
659.087	89.75
659.291	88.75
659.494	85.75
659.698	94.75
659.901	81.75
660.105	84.75
660.309	77.75
660.512	83.75
660.716	98.75
660.919	82.75
661.123	78.75
661.326	97.75
661.53	86.75
661.733	94.75
661.936	83.75
662.14	81.75
662.343	80.75
662.546	88.75
662.75	76.75
662.953	91.75
663.156	73.75
663.36	100.75
663.563	86.75
663.766	84.75
663.969	98.75
664.173	94.75
664.376	89.75
664.579	78.75
664.782	72.75
664.985	67.75
665.188	75.75
665.391	82.75
665.594	96.75
665.797	81.75
666	85.75
666.203	80.75
666.406	98.75
666.609	81.75
666.812	73.75
667.015	83.75
667.218	81.75
667.421	91.75
667.624	86.75
667.827	87.75
668.03	86.75
668.232	84.75
668.435	70.75
668.638	84.75
668.841	87.75
669.043	82.75
669.246	91.75
669.449	84.75
669.651	94.75
669.854	74.75
670.057	79.75
670.259	73.75
670.462	68.75
670.665	79.75
670.867	74.75
671.07	88.75
671.272	92.75
671.475	93.75
671.677	84.75
671.88	79.75
672.082	73.75
672.284	98.75
672.487	93.75
672.689	86.75
672.892	97.75
