Data from Foil_2_HRD10591_00010.txt Node
Date: Wed Nov 05 16:17:26 EST 2025
User: Yrep
Spectrometer: HR+D1059
Trigger mode: 1
Integration Time (sec): 1.000000E-1
Scans to average: 1
Electric dark correction enabled: true
Nonlinearity correction enabled: false
Boxcar width: 0
XAxis mode: Wavelengths
Number of Pixels in Spectrum: 2048
>>>>>Begin Spectral Data<<<<<
223.165	-18.38
223.4	-18.38
223.635	-18.38
223.869	-27.38
224.104	-20.38
224.338	-22.38
224.573	-13.38
224.808	-14.38
225.042	-0.38
225.277	1.62
225.511	3.62
225.746	12.62
225.98	-1.38
226.215	1.62
226.449	14.62
226.683	30.62
226.918	27.62
227.152	25.62
227.387	32.62
227.621	32.62
227.856	41.62
228.09	46.62
228.324	45.62
228.559	47.62
228.793	60.62
229.027	68.62
229.262	64.62
229.496	66.62
229.73	64.62
229.964	65.62
230.199	79.62
230.433	70.62
230.667	74.62
230.901	79.62
231.136	78.62
231.37	79.62
231.604	80.62
231.838	83.62
232.072	83.62
232.306	94.62
232.541	94.62
232.775	71.62
233.009	78.62
233.243	83.62
233.477	79.62
233.711	87.62
233.945	76.62
234.179	86.62
234.413	79.62
234.647	80.62
234.881	63.62
235.115	73.62
235.349	83.62
235.583	71.62
235.817	76.62
236.051	81.62
236.285	82.62
236.519	70.62
236.753	66.62
236.987	89.62
237.221	69.62
237.455	77.62
237.689	80.62
237.922	74.62
238.156	83.62
238.39	73.62
238.624	75.62
238.858	74.62
239.091	77.62
239.325	70.62
239.559	74.62
239.793	73.62
240.027	84.62
240.26	82.62
240.494	84.62
240.728	79.62
240.961	74.62
241.195	76.62
241.429	72.62
241.662	70.62
241.896	71.62
242.13	94.62
242.363	93.62
242.597	79.62
242.83	84.62
243.064	78.62
243.298	84.62
243.531	73.62
243.765	92.62
243.998	68.62
244.232	88.62
244.465	91.62
244.699	82.62
244.932	83.62
245.166	85.62
245.399	82.62
245.633	78.62
245.866	71.62
246.099	74.62
246.333	81.62
246.566	72.62
246.8	70.62
247.033	72.62
247.266	83.62
247.5	78.62
247.733	77.62
247.966	101.62
248.2	74.62
248.433	83.62
248.666	72.62
248.899	74.62
249.133	71.62
249.366	78.62
249.599	81.62
249.832	83.62
250.066	74.62
250.299	83.62
250.532	83.62
250.765	87.62
250.998	71.62
251.231	83.62
251.465	80.62
251.698	79.62
251.931	67.62
252.164	79.62
252.397	87.62
252.63	88.62
252.863	69.62
253.096	84.62
253.329	79.62
253.562	68.62
253.795	79.62
254.028	67.62
254.261	80.62
254.494	85.62
254.727	76.62
254.96	81.62
255.193	72.62
255.426	85.62
255.659	74.62
255.892	79.62
256.124	82.62
256.357	75.62
256.59	77.62
256.823	83.62
257.056	83.62
257.289	68.62
257.521	90.62
257.754	77.62
257.987	69.62
258.22	79.62
258.452	94.62
258.685	91.62
258.918	81.62
259.151	78.62
259.383	81.62
259.616	91.62
259.849	66.62
260.081	81.62
260.314	83.62
260.547	79.62
260.779	76.62
261.012	72.62
261.244	59.62
261.477	89.62
261.71	86.62
261.942	90.62
262.175	77.62
262.407	83.62
262.64	80.62
262.872	83.62
263.105	93.62
263.337	73.62
263.57	77.62
263.802	82.62
264.035	88.62
264.267	83.62
264.499	81.62
264.732	84.62
264.964	82.62
265.197	78.62
265.429	89.62
265.661	86.62
265.894	85.62
266.126	85.62
266.358	80.62
266.591	65.62
266.823	64.62
267.055	89.62
267.287	96.62
267.52	68.62
267.752	82.62
267.984	79.62
268.216	94.62
268.448	90.62
268.681	99.62
268.913	91.62
269.145	89.62
269.377	84.62
269.609	74.62
269.841	89.62
270.073	94.62
270.306	66.62
270.538	81.62
270.77	90.62
271.002	90.62
271.234	76.62
271.466	95.62
271.698	79.62
271.93	84.62
272.162	83.62
272.394	75.62
272.626	82.62
272.858	87.62
273.09	93.62
273.322	88.62
273.553	85.62
273.785	84.62
274.017	85.62
274.249	76.62
274.481	68.62
274.713	73.62
274.945	88.62
275.176	88.62
275.408	84.62
275.64	73.62
275.872	70.62
276.104	85.62
276.335	91.62
276.567	78.62
276.799	72.62
277.031	83.62
277.262	92.62
277.494	78.62
277.726	78.62
277.957	73.62
278.189	88.62
278.421	76.62
278.652	85.62
278.884	75.62
279.115	88.62
279.347	74.62
279.579	95.62
279.81	76.62
280.042	74.62
280.273	94.62
280.505	84.62
280.736	85.62
280.968	86.62
281.199	83.62
281.431	80.62
281.662	103.62
281.894	80.62
282.125	85.62
282.356	76.62
282.588	82.62
282.819	84.62
283.051	90.62
283.282	86.62
283.513	80.62
283.745	88.62
283.976	81.62
284.207	78.62
284.439	82.62
284.67	80.62
284.901	92.62
285.132	73.62
285.364	96.62
285.595	90.62
285.826	74.62
286.057	86.62
286.288	81.62
286.52	88.62
286.751	89.62
286.982	88.62
287.213	80.62
287.444	71.62
287.675	93.62
287.906	83.62
288.138	77.62
288.369	101.62
288.6	86.62
288.831	91.62
289.062	68.62
289.293	91.62
289.524	84.62
289.755	78.62
289.986	85.62
290.217	81.62
290.448	83.62
290.679	67.62
290.91	62.62
291.141	84.62
291.371	76.62
291.602	85.62
291.833	80.62
292.064	75.62
292.295	81.62
292.526	84.62
292.757	76.62
292.987	70.62
293.218	92.62
293.449	80.62
293.68	90.62
293.91	91.62
294.141	85.62
294.372	72.62
294.603	85.62
294.833	77.62
295.064	83.62
295.295	83.62
295.525	88.62
295.756	85.62
295.987	93.62
296.217	92.62
296.448	102.62
296.679	78.62
296.909	87.62
297.14	77.62
297.37	93.62
297.601	89.62
297.831	87.62
298.062	88.62
298.292	88.62
298.523	95.62
298.753	91.62
298.984	90.62
299.214	83.62
299.445	75.62
299.675	100.62
299.905	82.62
300.136	90.62
300.366	75.62
300.597	63.62
300.827	85.62
301.057	96.62
301.288	97.62
301.518	84.62
301.748	78.62
301.979	94.62
302.209	89.62
302.439	79.62
302.669	94.62
302.9	85.62
303.13	87.62
303.36	87.62
303.59	75.62
303.82	88.62
304.051	92.62
304.281	94.62
304.511	85.62
304.741	81.62
304.971	95.62
305.201	88.62
305.431	83.62
305.661	91.62
305.891	89.62
306.121	83.62
306.352	84.62
306.582	104.62
306.812	106.62
307.042	90.62
307.272	87.62
307.502	67.62
307.731	95.62
307.961	94.62
308.191	114.62
308.421	100.62
308.651	105.62
308.881	88.62
309.111	112.62
309.341	109.62
309.571	108.62
309.8	86.62
310.03	84.62
310.26	113.62
310.49	98.62
310.72	91.62
310.949	85.62
311.179	76.62
311.409	88.62
311.639	83.62
311.868	78.62
312.098	68.62
312.328	69.62
312.557	94.62
312.787	85.62
313.017	88.62
313.246	88.62
313.476	91.62
313.706	92.62
313.935	85.62
314.165	75.62
314.394	90.62
314.624	88.62
314.853	82.62
315.083	93.62
315.312	86.62
315.542	78.62
315.771	90.62
316.001	71.62
316.23	76.62
316.46	97.62
316.689	82.62
316.919	82.62
317.148	87.62
317.377	97.62
317.607	88.62
317.836	79.62
318.065	90.62
318.295	80.62
318.524	75.62
318.753	88.62
318.983	78.62
319.212	80.62
319.441	75.62
319.67	80.62
319.9	76.62
320.129	95.62
320.358	94.62
320.587	98.62
320.816	77.62
321.046	88.62
321.275	90.62
321.504	88.62
321.733	94.62
321.962	81.62
322.191	74.62
322.42	73.62
322.649	101.62
322.878	91.62
323.108	98.62
323.337	78.62
323.566	92.62
323.795	94.62
324.024	81.62
324.253	77.62
324.482	65.62
324.71	94.62
324.939	86.62
325.168	90.62
325.397	81.62
325.626	76.62
325.855	90.62
326.084	79.62
326.313	86.62
326.542	74.62
326.77	83.62
326.999	91.62
327.228	100.62
327.457	92.62
327.686	93.62
327.914	74.62
328.143	100.62
328.372	82.62
328.6	78.62
328.829	94.62
329.058	80.62
329.287	85.62
329.515	84.62
329.744	92.62
329.972	82.62
330.201	82.62
330.43	95.62
330.658	73.62
330.887	93.62
331.115	83.62
331.344	96.62
331.572	104.62
331.801	83.62
332.03	81.62
332.258	85.62
332.486	82.62
332.715	88.62
332.943	90.62
333.172	98.62
333.4	79.62
333.629	90.62
333.857	93.62
334.085	92.62
334.314	76.62
334.542	81.62
334.771	82.62
334.999	86.62
335.227	90.62
335.455	81.62
335.684	74.62
335.912	95.62
336.14	86.62
336.369	78.62
336.597	82.62
336.825	98.62
337.053	87.62
337.281	88.62
337.51	89.62
337.738	88.62
337.966	95.62
338.194	84.62
338.422	94.62
338.65	94.62
338.878	79.62
339.106	90.62
339.334	86.62
339.562	94.62
339.79	91.62
340.018	92.62
340.246	90.62
340.474	82.62
340.702	82.62
340.93	76.62
341.158	83.62
341.386	95.62
341.614	88.62
341.842	76.62
342.07	75.62
342.298	88.62
342.526	97.62
342.754	91.62
342.981	84.62
343.209	79.62
343.437	91.62
343.665	80.62
343.893	80.62
344.12	89.62
344.348	79.62
344.576	94.62
344.804	92.62
345.031	91.62
345.259	94.62
345.487	94.62
345.714	77.62
345.942	88.62
346.17	85.62
346.397	91.62
346.625	90.62
346.853	87.62
347.08	79.62
347.308	80.62
347.535	82.62
347.763	96.62
347.99	84.62
348.218	100.62
348.445	85.62
348.673	88.62
348.9	79.62
349.128	70.62
349.355	84.62
349.583	82.62
349.81	108.62
350.037	95.62
350.265	80.62
350.492	78.62
350.72	83.62
350.947	92.62
351.174	74.62
351.402	80.62
351.629	93.62
351.856	86.62
352.083	90.62
352.311	91.62
352.538	92.62
352.765	88.62
352.992	86.62
353.22	78.62
353.447	90.62
353.674	86.62
353.901	95.62
354.128	87.62
354.355	90.62
354.583	88.62
354.81	94.62
355.037	88.62
355.264	101.62
355.491	100.62
355.718	88.62
355.945	80.62
356.172	77.62
356.399	78.62
356.626	91.62
356.853	92.62
357.08	89.62
357.307	94.62
357.534	98.62
357.761	93.62
357.988	90.62
358.215	88.62
358.441	81.62
358.668	92.62
358.895	87.62
359.122	98.62
359.349	82.62
359.576	84.62
359.802	88.62
360.029	90.62
360.256	77.62
360.483	86.62
360.709	82.62
360.936	75.62
361.163	95.62
361.39	73.62
361.616	82.62
361.843	84.62
362.07	80.62
362.296	83.62
362.523	79.62
362.749	100.62
362.976	84.62
363.203	84.62
363.429	111.62
363.656	89.62
363.882	92.62
364.109	79.62
364.335	82.62
364.562	79.62
364.788	64.62
365.015	75.62
365.241	98.62
365.468	86.62
365.694	93.62
365.92	99.62
366.147	84.62
366.373	79.62
366.599	95.62
366.826	82.62
367.052	72.62
367.278	77.62
367.505	91.62
367.731	88.62
367.957	81.62
368.184	86.62
368.41	74.62
368.636	79.62
368.862	91.62
369.089	75.62
369.315	85.62
369.541	85.62
369.767	89.62
369.993	66.62
370.219	87.62
370.445	87.62
370.672	87.62
370.898	73.62
371.124	82.62
371.35	104.62
371.576	89.62
371.802	79.62
372.028	90.62
372.254	78.62
372.48	88.62
372.706	99.62
372.932	97.62
373.158	84.62
373.384	102.62
373.61	88.62
373.835	92.62
374.061	79.62
374.287	88.62
374.513	86.62
374.739	82.62
374.965	72.62
375.191	92.62
375.416	79.62
375.642	93.62
375.868	83.62
376.094	90.62
376.319	79.62
376.545	81.62
376.771	82.62
376.997	86.62
377.222	80.62
377.448	101.62
377.674	90.62
377.899	93.62
378.125	83.62
378.35	82.62
378.576	81.62
378.802	100.62
379.027	88.62
379.253	101.62
379.478	93.62
379.704	95.62
379.929	98.62
380.155	96.62
380.38	97.62
380.606	86.62
380.831	91.62
381.057	96.62
381.282	96.62
381.507	99.62
381.733	90.62
381.958	96.62
382.184	89.62
382.409	99.62
382.634	98.62
382.86	88.62
383.085	106.62
383.31	97.62
383.535	91.62
383.761	96.62
383.986	95.62
384.211	92.62
384.436	87.62
384.662	85.62
384.887	82.62
385.112	87.62
385.337	84.62
385.562	97.62
385.787	110.62
386.013	76.62
386.238	97.62
386.463	88.62
386.688	91.62
386.913	97.62
387.138	93.62
387.363	113.62
387.588	92.62
387.813	96.62
388.038	97.62
388.263	91.62
388.488	79.62
388.713	84.62
388.938	81.62
389.163	83.62
389.387	104.62
389.612	98.62
389.837	90.62
390.062	109.62
390.287	91.62
390.512	90.62
390.736	97.62
390.961	93.62
391.186	98.62
391.411	94.62
391.636	84.62
391.86	90.62
392.085	94.62
392.31	100.62
392.534	110.62
392.759	105.62
392.984	86.62
393.208	96.62
393.433	101.62
393.658	100.62
393.882	98.62
394.107	127.62
394.331	152.62
394.556	160.62
394.78	121.62
395.005	120.62
395.229	112.62
395.454	107.62
395.678	104.62
395.903	144.62
396.127	201.62
396.352	200.62
396.576	118.62
396.801	96.62
397.025	93.62
397.249	106.62
397.474	104.62
397.698	99.62
397.922	99.62
398.147	99.62
398.371	98.62
398.595	91.62
398.82	84.62
399.044	97.62
399.268	100.62
399.492	114.62
399.717	91.62
399.941	107.62
400.165	109.62
400.389	82.62
400.613	94.62
400.837	93.62
401.062	92.62
401.286	100.62
401.51	90.62
401.734	89.62
401.958	98.62
402.182	93.62
402.406	110.62
402.63	104.62
402.854	115.62
403.078	86.62
403.302	90.62
403.526	102.62
403.75	96.62
403.974	97.62
404.198	88.62
404.422	110.62
404.645	104.62
404.869	86.62
405.093	104.62
405.317	96.62
405.541	122.62
405.765	92.62
405.988	99.62
406.212	93.62
406.436	105.62
406.66	107.62
406.883	112.62
407.107	109.62
407.331	98.62
407.555	98.62
407.778	98.62
408.002	108.62
408.226	109.62
408.449	115.62
408.673	110.62
408.896	93.62
409.12	85.62
409.344	98.62
409.567	105.62
409.791	105.62
410.014	102.62
410.238	99.62
410.461	112.62
410.685	100.62
410.908	100.62
411.132	102.62
411.355	93.62
411.578	108.62
411.802	110.62
412.025	102.62
412.249	114.62
412.472	118.62
412.695	93.62
412.919	92.62
413.142	97.62
413.365	91.62
413.589	106.62
413.812	100.62
414.035	106.62
414.258	104.62
414.482	105.62
414.705	111.62
414.928	112.62
415.151	106.62
415.374	89.62
415.597	110.62
415.821	121.62
416.044	103.62
416.267	112.62
416.49	95.62
416.713	94.62
416.936	105.62
417.159	103.62
417.382	101.62
417.605	113.62
417.828	104.62
418.051	108.62
418.274	108.62
418.497	109.62
418.72	92.62
418.943	98.62
419.166	109.62
419.389	113.62
419.611	99.62
419.834	108.62
420.057	121.62
420.28	106.62
420.503	102.62
420.726	91.62
420.948	98.62
421.171	113.62
421.394	80.62
421.617	98.62
421.839	104.62
422.062	104.62
422.285	110.62
422.507	108.62
422.73	111.62
422.953	88.62
423.175	102.62
423.398	89.62
423.621	113.62
423.843	91.62
424.066	108.62
424.288	100.62
424.511	98.62
424.733	109.62
424.956	109.62
425.178	106.62
425.401	116.62
425.623	96.62
425.846	98.62
426.068	114.62
426.291	103.62
426.513	102.62
426.735	126.62
426.958	91.62
427.18	104.62
427.402	112.62
427.625	103.62
427.847	110.62
428.069	110.62
428.292	124.62
428.514	105.62
428.736	112.62
428.958	104.62
429.181	118.62
429.403	91.62
429.625	99.62
429.847	113.62
430.069	108.62
430.292	108.62
430.514	98.62
430.736	111.62
430.958	114.62
431.18	102.62
431.402	98.62
431.624	94.62
431.846	104.62
432.068	88.62
432.29	83.62
432.512	94.62
432.734	92.62
432.956	108.62
433.178	102.62
433.4	110.62
433.622	91.62
433.844	91.62
434.066	80.62
434.287	95.62
434.509	93.62
434.731	104.62
434.953	99.62
435.175	94.62
435.397	93.62
435.618	102.62
435.84	103.62
436.062	114.62
436.284	107.62
436.505	102.62
436.727	103.62
436.949	102.62
437.17	94.62
437.392	111.62
437.614	96.62
437.835	96.62
438.057	97.62
438.278	113.62
438.5	107.62
438.721	119.62
438.943	108.62
439.165	114.62
439.386	108.62
439.608	113.62
439.829	114.62
440.05	115.62
440.272	119.62
440.493	114.62
440.715	86.62
440.936	120.62
441.158	122.62
441.379	98.62
441.6	95.62
441.822	101.62
442.043	113.62
442.264	101.62
442.486	110.62
442.707	110.62
442.928	119.62
443.149	108.62
443.371	89.62
443.592	98.62
443.813	100.62
444.034	135.62
444.255	106.62
444.476	109.62
444.698	98.62
444.919	110.62
445.14	171.62
445.361	142.62
445.582	101.62
445.803	117.62
446.024	110.62
446.245	122.62
446.466	111.62
446.687	108.62
446.908	122.62
447.129	121.62
447.35	111.62
447.571	102.62
447.792	106.62
448.013	106.62
448.234	114.62
448.455	113.62
448.675	108.62
448.896	123.62
449.117	104.62
449.338	104.62
449.559	103.62
449.779	98.62
450	120.62
450.221	127.62
450.442	115.62
450.662	113.62
450.883	118.62
451.104	110.62
451.324	101.62
451.545	96.62
451.766	107.62
451.986	94.62
452.207	105.62
452.428	101.62
452.648	101.62
452.869	100.62
453.089	112.62
453.31	110.62
453.53	91.62
453.751	74.62
453.971	94.62
454.192	88.62
454.412	90.62
454.633	84.62
454.853	101.62
455.073	98.62
455.294	97.62
455.514	102.62
455.734	93.62
455.955	76.62
456.175	97.62
456.395	104.62
456.616	84.62
456.836	99.62
457.056	88.62
457.276	96.62
457.497	85.62
457.717	112.62
457.937	99.62
458.157	91.62
458.377	85.62
458.598	76.62
458.818	72.62
459.038	89.62
459.258	83.62
459.478	82.62
459.698	75.62
459.918	77.62
460.138	89.62
460.358	72.62
460.578	88.62
460.798	98.62
461.018	84.62
461.238	107.62
461.458	105.62
461.678	91.62
461.898	82.62
462.118	92.62
462.338	102.62
462.558	98.62
462.777	93.62
462.997	90.62
463.217	100.62
463.437	91.62
463.657	94.62
463.876	103.62
464.096	87.62
464.316	91.62
464.536	92.62
464.755	95.62
464.975	108.62
465.195	93.62
465.414	89.62
465.634	84.62
465.854	105.62
466.073	94.62
466.293	107.62
466.512	111.62
466.732	104.62
466.951	130.62
467.171	131.62
467.391	132.62
467.61	133.62
467.829	121.62
468.049	128.62
468.268	104.62
468.488	123.62
468.707	114.62
468.927	112.62
469.146	113.62
469.365	137.62
469.585	119.62
469.804	128.62
470.023	116.62
470.243	112.62
470.462	113.62
470.681	119.62
470.901	102.62
471.12	100.62
471.339	110.62
471.558	115.62
471.777	115.62
471.997	123.62
472.216	94.62
472.435	106.62
472.654	97.62
472.873	105.62
473.092	83.62
473.311	112.62
473.53	112.62
473.749	114.62
473.968	103.62
474.187	94.62
474.406	99.62
474.625	124.62
474.844	111.62
475.063	122.62
475.282	96.62
475.501	109.62
475.72	115.62
475.939	76.62
476.158	90.62
476.377	97.62
476.596	96.62
476.814	103.62
477.033	101.62
477.252	98.62
477.471	96.62
477.69	98.62
477.908	103.62
478.127	104.62
478.346	97.62
478.564	98.62
478.783	105.62
479.002	94.62
479.22	94.62
479.439	107.62
479.658	114.62
479.876	96.62
480.095	96.62
480.313	95.62
480.532	89.62
480.751	84.62
480.969	89.62
481.188	70.62
481.406	90.62
481.624	88.62
481.843	88.62
482.061	90.62
482.28	99.62
482.498	83.62
482.717	89.62
482.935	99.62
483.153	112.62
483.372	115.62
483.59	95.62
483.808	91.62
484.027	94.62
484.245	111.62
484.463	89.62
484.681	115.62
484.9	95.62
485.118	95.62
485.336	95.62
485.554	81.62
485.772	90.62
485.99	106.62
486.209	99.62
486.427	92.62
486.645	110.62
486.863	104.62
487.081	108.62
487.299	101.62
487.517	113.62
487.735	123.62
487.953	115.62
488.171	134.62
488.389	92.62
488.607	111.62
488.825	102.62
489.043	98.62
489.261	103.62
489.479	108.62
489.696	115.62
489.914	113.62
490.132	120.62
490.35	123.62
490.568	116.62
490.786	126.62
491.003	118.62
491.221	137.62
491.439	146.62
491.657	134.62
491.874	140.62
492.092	155.62
492.31	154.62
492.527	151.62
492.745	141.62
492.963	146.62
493.18	152.62
493.398	138.62
493.615	128.62
493.833	118.62
494.05	144.62
494.268	123.62
494.485	123.62
494.703	143.62
494.92	146.62
495.138	143.62
495.355	136.62
495.573	127.62
495.79	137.62
496.008	124.62
496.225	138.62
496.442	127.62
496.66	142.62
496.877	124.62
497.094	122.62
497.312	121.62
497.529	121.62
497.746	108.62
497.963	105.62
498.181	98.62
498.398	106.62
498.615	92.62
498.832	96.62
499.049	97.62
499.267	94.62
499.484	95.62
499.701	95.62
499.918	106.62
500.135	97.62
500.352	97.62
500.569	107.62
500.786	116.62
501.003	109.62
501.22	116.62
501.437	109.62
501.654	99.62
501.871	112.62
502.088	106.62
502.305	113.62
502.522	102.62
502.739	107.62
502.956	102.62
503.172	100.62
503.389	85.62
503.606	89.62
503.823	99.62
504.04	79.62
504.256	106.62
504.473	107.62
504.69	88.62
504.907	96.62
505.123	114.62
505.34	89.62
505.557	103.62
505.773	88.62
505.99	101.62
506.207	103.62
506.423	113.62
506.64	112.62
506.856	109.62
507.073	92.62
507.289	95.62
507.506	98.62
507.722	87.62
507.939	92.62
508.155	92.62
508.372	96.62
508.588	92.62
508.805	107.62
509.021	84.62
509.238	98.62
509.454	80.62
509.67	99.62
509.887	70.62
510.103	83.62
510.319	87.62
510.536	90.62
510.752	93.62
510.968	74.62
511.184	94.62
511.401	89.62
511.617	88.62
511.833	78.62
512.049	82.62
512.265	82.62
512.481	98.62
512.698	95.62
512.914	104.62
513.13	90.62
513.346	92.62
513.562	86.62
513.778	88.62
513.994	85.62
514.21	86.62
514.426	77.62
514.642	90.62
514.858	95.62
515.074	80.62
515.29	94.62
515.506	72.62
515.721	78.62
515.937	78.62
516.153	72.62
516.369	82.62
516.585	94.62
516.801	89.62
517.016	82.62
517.232	96.62
517.448	100.62
517.664	98.62
517.879	81.62
518.095	94.62
518.311	77.62
518.527	89.62
518.742	94.62
518.958	86.62
519.173	80.62
519.389	88.62
519.605	92.62
519.82	90.62
520.036	88.62
520.251	80.62
520.467	88.62
520.682	83.62
520.898	91.62
521.113	85.62
521.329	99.62
521.544	79.62
521.76	78.62
521.975	95.62
522.19	92.62
522.406	83.62
522.621	106.62
522.836	92.62
523.052	90.62
523.267	90.62
523.482	107.62
523.698	84.62
523.913	90.62
524.128	83.62
524.343	98.62
524.559	107.62
524.774	94.62
524.989	97.62
525.204	85.62
525.419	97.62
525.634	84.62
525.849	98.62
526.064	92.62
526.28	92.62
526.495	85.62
526.71	82.62
526.925	63.62
527.14	88.62
527.355	81.62
527.57	78.62
527.785	66.62
527.999	85.62
528.214	93.62
528.429	104.62
528.644	102.62
528.859	89.62
529.074	93.62
529.289	102.62
529.503	92.62
529.718	81.62
529.933	89.62
530.148	81.62
530.363	91.62
530.577	80.62
530.792	84.62
531.007	81.62
531.221	87.62
531.436	85.62
531.651	84.62
531.865	88.62
532.08	98.62
532.295	82.62
532.509	85.62
532.724	82.62
532.938	90.62
533.153	87.62
533.367	89.62
533.582	93.62
533.796	103.62
534.011	90.62
534.225	95.62
534.44	92.62
534.654	82.62
534.868	83.62
535.083	98.62
535.297	95.62
535.511	98.62
535.726	91.62
535.94	104.62
536.154	96.62
536.369	87.62
536.583	88.62
536.797	91.62
537.011	83.62
537.225	76.62
537.44	89.62
537.654	86.62
537.868	90.62
538.082	83.62
538.296	82.62
538.51	105.62
538.724	94.62
538.938	117.62
539.153	114.62
539.367	91.62
539.581	99.62
539.795	97.62
540.009	90.62
540.222	84.62
540.436	98.62
540.65	97.62
540.864	107.62
541.078	111.62
541.292	110.62
541.506	127.62
541.72	116.62
541.934	113.62
542.147	113.62
542.361	110.62
542.575	122.62
542.789	109.62
543.002	104.62
543.216	99.62
543.43	98.62
543.644	120.62
543.857	106.62
544.071	111.62
544.285	125.62
544.498	120.62
544.712	120.62
544.925	132.62
545.139	136.62
545.352	118.62
545.566	132.62
545.779	126.62
545.993	132.62
546.206	130.62
546.42	121.62
546.633	137.62
546.847	117.62
547.06	131.62
547.274	131.62
547.487	121.62
547.7	127.62
547.914	132.62
548.127	126.62
548.34	135.62
548.554	126.62
548.767	139.62
548.98	135.62
549.193	124.62
549.407	120.62
549.62	124.62
549.833	130.62
550.046	139.62
550.259	125.62
550.473	127.62
550.686	120.62
550.899	128.62
551.112	124.62
551.325	127.62
551.538	118.62
551.751	101.62
551.964	106.62
552.177	113.62
552.39	107.62
552.603	125.62
552.816	122.62
553.029	142.62
553.242	125.62
553.455	134.62
553.667	131.62
553.88	138.62
554.093	134.62
554.306	138.62
554.519	123.62
554.732	134.62
554.944	126.62
555.157	125.62
555.37	124.62
555.583	131.62
555.795	113.62
556.008	127.62
556.221	134.62
556.433	120.62
556.646	124.62
556.859	122.62
557.071	130.62
557.284	123.62
557.496	111.62
557.709	118.62
557.921	137.62
558.134	137.62
558.346	104.62
558.559	118.62
558.771	115.62
558.984	107.62
559.196	125.62
559.409	119.62
559.621	116.62
559.833	106.62
560.046	105.62
560.258	99.62
560.47	111.62
560.683	106.62
560.895	124.62
561.107	120.62
561.32	101.62
561.532	116.62
561.744	111.62
561.956	114.62
562.168	123.62
562.381	105.62
562.593	110.62
562.805	121.62
563.017	106.62
563.229	104.62
563.441	102.62
563.653	119.62
563.865	110.62
564.077	96.62
564.289	110.62
564.501	108.62
564.713	103.62
564.925	97.62
565.137	121.62
565.349	99.62
565.561	98.62
565.773	101.62
565.985	102.62
566.197	87.62
566.408	103.62
566.62	100.62
566.832	99.62
567.044	97.62
567.255	95.62
567.467	91.62
567.679	97.62
567.891	82.62
568.102	92.62
568.314	85.62
568.526	80.62
568.737	80.62
568.949	71.62
569.161	98.62
569.372	79.62
569.584	83.62
569.795	84.62
570.007	77.62
570.218	76.62
570.43	78.62
570.641	96.62
570.853	70.62
571.064	97.62
571.276	95.62
571.487	96.62
571.698	96.62
571.91	95.62
572.121	106.62
572.333	86.62
572.544	97.62
572.755	92.62
572.966	88.62
573.178	84.62
573.389	80.62
573.6	79.62
573.811	91.62
574.023	85.62
574.234	78.62
574.445	87.62
574.656	90.62
574.867	96.62
575.078	98.62
575.289	80.62
575.501	98.62
575.712	91.62
575.923	78.62
576.134	98.62
576.345	95.62
576.556	84.62
576.767	90.62
576.978	84.62
577.188	95.62
577.399	87.62
577.61	91.62
577.821	84.62
578.032	86.62
578.243	72.62
578.454	93.62
578.665	105.62
578.875	88.62
579.086	93.62
579.297	90.62
579.508	86.62
579.718	84.62
579.929	100.62
580.14	89.62
580.35	93.62
580.561	89.62
580.772	80.62
580.982	86.62
581.193	82.62
581.403	72.62
581.614	98.62
581.825	89.62
582.035	92.62
582.246	79.62
582.456	82.62
582.667	88.62
582.877	86.62
583.087	92.62
583.298	83.62
583.508	60.62
583.719	66.62
583.929	79.62
584.139	85.62
584.35	84.62
584.56	94.62
584.77	90.62
584.981	78.62
585.191	102.62
585.401	97.62
585.611	89.62
585.821	87.62
586.032	90.62
586.242	75.62
586.452	98.62
586.662	83.62
586.872	94.62
587.082	95.62
587.292	81.62
587.502	90.62
587.713	85.62
587.923	82.62
588.133	75.62
588.343	92.62
588.553	63.62
588.762	106.62
588.972	82.62
589.182	95.62
589.392	89.62
589.602	88.62
589.812	80.62
590.022	86.62
590.232	79.62
590.441	73.62
590.651	81.62
590.861	85.62
591.071	67.62
591.281	79.62
591.49	88.62
591.7	79.62
591.91	77.62
592.119	77.62
592.329	79.62
592.539	79.62
592.748	95.62
592.958	89.62
593.167	93.62
593.377	96.62
593.587	93.62
593.796	86.62
594.006	72.62
594.215	93.62
594.424	83.62
594.634	96.62
594.843	84.62
595.053	100.62
595.262	85.62
595.472	94.62
595.681	80.62
595.89	95.62
596.1	83.62
596.309	81.62
596.518	84.62
596.727	94.62
596.937	94.62
597.146	79.62
597.355	93.62
597.564	81.62
597.774	100.62
597.983	85.62
598.192	98.62
598.401	74.62
598.61	76.62
598.819	94.62
599.028	90.62
599.237	91.62
599.446	84.62
599.655	81.62
599.864	89.62
600.073	81.62
600.282	90.62
600.491	86.62
600.7	81.62
600.909	74.62
601.118	102.62
601.327	100.62
601.536	103.62
601.745	104.62
601.953	107.62
602.162	92.62
602.371	103.62
602.58	104.62
602.789	101.62
602.997	103.62
603.206	100.62
603.415	95.62
603.623	91.62
603.832	113.62
604.041	96.62
604.249	103.62
604.458	106.62
604.666	82.62
604.875	86.62
605.084	91.62
605.292	90.62
605.501	96.62
605.709	103.62
605.918	92.62
606.126	89.62
606.334	96.62
606.543	105.62
606.751	92.62
606.96	105.62
607.168	99.62
607.376	102.62
607.585	93.62
607.793	107.62
608.001	101.62
608.21	102.62
608.418	87.62
608.626	90.62
608.834	102.62
609.043	96.62
609.251	92.62
609.459	102.62
609.667	100.62
609.875	102.62
610.083	104.62
610.291	91.62
610.499	97.62
610.707	115.62
610.916	107.62
611.124	108.62
611.332	99.62
611.54	106.62
611.748	104.62
611.955	105.62
612.163	106.62
612.371	101.62
612.579	102.62
612.787	104.62
612.995	96.62
613.203	102.62
613.411	89.62
613.618	104.62
613.826	94.62
614.034	108.62
614.242	95.62
614.449	97.62
614.657	104.62
614.865	103.62
615.072	100.62
615.28	103.62
615.488	85.62
615.695	96.62
615.903	110.62
616.111	120.62
616.318	118.62
616.526	106.62
616.733	110.62
616.941	111.62
617.148	106.62
617.356	113.62
617.563	105.62
617.771	102.62
617.978	96.62
618.185	104.62
618.393	103.62
618.6	90.62
618.807	121.62
619.015	102.62
619.222	108.62
619.429	92.62
619.637	97.62
619.844	86.62
620.051	102.62
620.258	104.62
620.466	115.62
620.673	105.62
620.88	91.62
621.087	98.62
621.294	97.62
621.501	84.62
621.708	93.62
621.915	101.62
622.122	113.62
622.329	100.62
622.536	99.62
622.743	92.62
622.95	98.62
623.157	99.62
623.364	97.62
623.571	107.62
623.778	105.62
623.985	103.62
624.192	95.62
624.399	107.62
624.606	99.62
624.812	95.62
625.019	89.62
625.226	97.62
625.433	95.62
625.639	93.62
625.846	93.62
626.053	97.62
626.259	97.62
626.466	95.62
626.673	91.62
626.879	104.62
627.086	84.62
627.293	86.62
627.499	82.62
627.706	78.62
627.912	99.62
628.119	88.62
628.325	100.62
628.532	113.62
628.738	92.62
628.945	90.62
629.151	92.62
629.357	94.62
629.564	86.62
629.77	92.62
629.976	100.62
630.183	100.62
630.389	99.62
630.595	95.62
630.802	79.62
631.008	87.62
631.214	98.62
631.42	90.62
631.627	89.62
631.833	95.62
632.039	75.62
632.245	96.62
632.451	109.62
632.657	84.62
632.863	100.62
633.069	94.62
633.275	95.62
633.481	108.62
633.688	90.62
633.893	100.62
634.099	78.62
634.305	101.62
634.511	97.62
634.717	95.62
634.923	98.62
635.129	92.62
635.335	94.62
635.541	83.62
635.747	87.62
635.952	90.62
636.158	105.62
636.364	102.62
636.57	100.62
636.775	98.62
636.981	98.62
637.187	102.62
637.392	105.62
637.598	89.62
637.804	105.62
638.009	85.62
638.215	94.62
638.421	86.62
638.626	89.62
638.832	100.62
639.037	95.62
639.243	90.62
639.448	86.62
639.654	98.62
639.859	93.62
640.065	104.62
640.27	116.62
640.475	99.62
640.681	92.62
640.886	91.62
641.091	88.62
641.297	105.62
641.502	95.62
641.707	91.62
641.913	102.62
642.118	96.62
642.323	78.62
642.528	99.62
642.733	89.62
642.939	90.62
643.144	95.62
643.349	90.62
643.554	112.62
643.759	89.62
643.964	98.62
644.169	88.62
644.374	88.62
644.579	89.62
644.784	93.62
644.989	90.62
645.194	98.62
645.399	91.62
645.604	103.62
645.809	104.62
646.014	106.62
646.219	73.62
646.423	79.62
646.628	90.62
646.833	106.62
647.038	97.62
647.243	91.62
647.447	97.62
647.652	112.62
647.857	98.62
648.062	98.62
648.266	82.62
648.471	100.62
648.676	88.62
648.88	101.62
649.085	96.62
649.289	114.62
649.494	95.62
649.698	99.62
649.903	107.62
650.107	109.62
650.312	95.62
650.516	90.62
650.721	94.62
650.925	88.62
651.13	85.62
651.334	98.62
651.539	72.62
651.743	86.62
651.947	92.62
652.152	86.62
652.356	101.62
652.56	92.62
652.764	88.62
652.969	99.62
653.173	81.62
653.377	88.62
653.581	89.62
653.785	80.62
653.99	88.62
654.194	87.62
654.398	89.62
654.602	99.62
654.806	99.62
655.01	85.62
655.214	83.62
655.418	95.62
655.622	71.62
655.826	93.62
656.03	76.62
656.234	98.62
656.438	89.62
656.642	89.62
656.846	89.62
657.049	93.62
657.253	84.62
657.457	92.62
657.661	99.62
657.865	102.62
658.068	88.62
658.272	103.62
658.476	88.62
658.68	80.62
658.883	88.62
659.087	79.62
659.291	82.62
659.494	84.62
659.698	81.62
659.901	88.62
660.105	82.62
660.309	80.62
660.512	87.62
660.716	86.62
660.919	79.62
661.123	99.62
661.326	77.62
661.53	92.62
661.733	86.62
661.936	80.62
662.14	92.62
662.343	90.62
662.546	79.62
662.75	90.62
662.953	79.62
663.156	69.62
663.36	87.62
663.563	84.62
663.766	84.62
663.969	88.62
664.173	78.62
664.376	90.62
664.579	70.62
664.782	93.62
664.985	79.62
665.188	72.62
665.391	78.62
665.594	82.62
665.797	87.62
666	66.62
666.203	72.62
666.406	73.62
666.609	81.62
666.812	94.62
667.015	76.62
667.218	71.62
667.421	91.62
667.624	89.62
667.827	76.62
668.03	75.62
668.232	67.62
668.435	81.62
668.638	84.62
668.841	93.62
669.043	72.62
669.246	79.62
669.449	79.62
669.651	81.62
669.854	88.62
670.057	86.62
670.259	84.62
670.462	86.62
670.665	94.62
670.867	79.62
671.07	90.62
671.272	78.62
671.475	83.62
671.677	74.62
671.88	80.62
672.082	89.62
672.284	80.62
672.487	78.62
672.689	80.62
672.892	93.62
