Data from Foil_2_HRD10591_00006.txt Node
Date: Wed Nov 05 16:17:24 EST 2025
User: Yrep
Spectrometer: HR+D1059
Trigger mode: 1
Integration Time (sec): 1.000000E-1
Scans to average: 1
Electric dark correction enabled: true
Nonlinearity correction enabled: false
Boxcar width: 0
XAxis mode: Wavelengths
Number of Pixels in Spectrum: 2048
>>>>>Begin Spectral Data<<<<<
223.165	-22.06
223.4	-22.06
223.635	-22.06
223.869	-6.06
224.104	-29.06
224.338	3.94
224.573	-15.06
224.808	-6.06
225.042	-0.06
225.277	-15.06
225.511	-0.06
225.746	7.94
225.98	-16.06
226.215	7.94
226.449	18.94
226.683	16.94
226.918	28.94
227.152	24.94
227.387	25.94
227.621	29.94
227.856	38.94
228.09	47.94
228.324	43.94
228.559	56.94
228.793	46.94
229.027	55.94
229.262	64.94
229.496	56.94
229.73	84.94
229.964	75.94
230.199	71.94
230.433	79.94
230.667	77.94
230.901	89.94
231.136	83.94
231.37	89.94
231.604	84.94
231.838	73.94
232.072	89.94
232.306	93.94
232.541	81.94
232.775	79.94
233.009	93.94
233.243	85.94
233.477	79.94
233.711	78.94
233.945	88.94
234.179	81.94
234.413	78.94
234.647	87.94
234.881	81.94
235.115	81.94
235.349	85.94
235.583	93.94
235.817	72.94
236.051	79.94
236.285	77.94
236.519	79.94
236.753	71.94
236.987	72.94
237.221	77.94
237.455	81.94
237.689	81.94
237.922	88.94
238.156	82.94
238.39	77.94
238.624	67.94
238.858	84.94
239.091	74.94
239.325	67.94
239.559	77.94
239.793	79.94
240.027	82.94
240.26	75.94
240.494	87.94
240.728	69.94
240.961	79.94
241.195	67.94
241.429	67.94
241.662	75.94
241.896	71.94
242.13	83.94
242.363	95.94
242.597	80.94
242.83	79.94
243.064	79.94
243.298	82.94
243.531	69.94
243.765	82.94
243.998	79.94
244.232	65.94
244.465	74.94
244.699	70.94
244.932	67.94
245.166	78.94
245.399	83.94
245.633	86.94
245.866	81.94
246.099	73.94
246.333	90.94
246.566	79.94
246.8	72.94
247.033	78.94
247.266	82.94
247.5	71.94
247.733	88.94
247.966	67.94
248.2	77.94
248.433	57.94
248.666	82.94
248.899	82.94
249.133	82.94
249.366	88.94
249.599	85.94
249.832	73.94
250.066	90.94
250.299	77.94
250.532	76.94
250.765	86.94
250.998	69.94
251.231	77.94
251.465	90.94
251.698	82.94
251.931	92.94
252.164	71.94
252.397	76.94
252.63	59.94
252.863	82.94
253.096	81.94
253.329	80.94
253.562	76.94
253.795	88.94
254.028	73.94
254.261	83.94
254.494	76.94
254.727	76.94
254.96	86.94
255.193	75.94
255.426	78.94
255.659	80.94
255.892	85.94
256.124	68.94
256.357	99.94
256.59	79.94
256.823	71.94
257.056	82.94
257.289	73.94
257.521	84.94
257.754	89.94
257.987	75.94
258.22	80.94
258.452	87.94
258.685	73.94
258.918	76.94
259.151	79.94
259.383	69.94
259.616	81.94
259.849	81.94
260.081	79.94
260.314	85.94
260.547	78.94
260.779	90.94
261.012	81.94
261.244	76.94
261.477	78.94
261.71	72.94
261.942	81.94
262.175	91.94
262.407	79.94
262.64	72.94
262.872	104.94
263.105	67.94
263.337	79.94
263.57	87.94
263.802	84.94
264.035	69.94
264.267	76.94
264.499	76.94
264.732	94.94
264.964	81.94
265.197	81.94
265.429	76.94
265.661	82.94
265.894	84.94
266.126	75.94
266.358	94.94
266.591	80.94
266.823	78.94
267.055	88.94
267.287	72.94
267.52	80.94
267.752	79.94
267.984	76.94
268.216	81.94
268.448	88.94
268.681	83.94
268.913	94.94
269.145	91.94
269.377	80.94
269.609	72.94
269.841	76.94
270.073	79.94
270.306	87.94
270.538	96.94
270.77	91.94
271.002	73.94
271.234	76.94
271.466	93.94
271.698	86.94
271.93	77.94
272.162	93.94
272.394	93.94
272.626	69.94
272.858	81.94
273.09	81.94
273.322	76.94
273.553	73.94
273.785	75.94
274.017	79.94
274.249	78.94
274.481	82.94
274.713	69.94
274.945	74.94
275.176	87.94
275.408	71.94
275.64	83.94
275.872	73.94
276.104	84.94
276.335	77.94
276.567	75.94
276.799	79.94
277.031	87.94
277.262	65.94
277.494	89.94
277.726	82.94
277.957	77.94
278.189	83.94
278.421	80.94
278.652	85.94
278.884	76.94
279.115	87.94
279.347	83.94
279.579	86.94
279.81	89.94
280.042	89.94
280.273	78.94
280.505	75.94
280.736	85.94
280.968	80.94
281.199	97.94
281.431	88.94
281.662	88.94
281.894	92.94
282.125	84.94
282.356	71.94
282.588	87.94
282.819	81.94
283.051	79.94
283.282	77.94
283.513	89.94
283.745	83.94
283.976	87.94
284.207	71.94
284.439	76.94
284.67	85.94
284.901	79.94
285.132	78.94
285.364	75.94
285.595	89.94
285.826	76.94
286.057	85.94
286.288	70.94
286.52	81.94
286.751	71.94
286.982	83.94
287.213	68.94
287.444	93.94
287.675	69.94
287.906	90.94
288.138	82.94
288.369	89.94
288.6	82.94
288.831	91.94
289.062	78.94
289.293	89.94
289.524	83.94
289.755	89.94
289.986	85.94
290.217	87.94
290.448	72.94
290.679	79.94
290.91	79.94
291.141	80.94
291.371	93.94
291.602	89.94
291.833	80.94
292.064	74.94
292.295	96.94
292.526	79.94
292.757	79.94
292.987	101.94
293.218	67.94
293.449	81.94
293.68	79.94
293.91	88.94
294.141	85.94
294.372	87.94
294.603	89.94
294.833	71.94
295.064	83.94
295.295	85.94
295.525	78.94
295.756	90.94
295.987	80.94
296.217	79.94
296.448	81.94
296.679	72.94
296.909	78.94
297.14	69.94
297.37	103.94
297.601	76.94
297.831	84.94
298.062	85.94
298.292	90.94
298.523	80.94
298.753	83.94
298.984	87.94
299.214	65.94
299.445	88.94
299.675	76.94
299.905	83.94
300.136	77.94
300.366	86.94
300.597	96.94
300.827	88.94
301.057	78.94
301.288	71.94
301.518	74.94
301.748	97.94
301.979	81.94
302.209	85.94
302.439	81.94
302.669	79.94
302.9	92.94
303.13	75.94
303.36	93.94
303.59	72.94
303.82	81.94
304.051	92.94
304.281	77.94
304.511	88.94
304.741	75.94
304.971	79.94
305.201	84.94
305.431	79.94
305.661	69.94
305.891	94.94
306.121	93.94
306.352	81.94
306.582	92.94
306.812	103.94
307.042	85.94
307.272	101.94
307.502	88.94
307.731	86.94
307.961	95.94
308.191	102.94
308.421	96.94
308.651	94.94
308.881	100.94
309.111	105.94
309.341	115.94
309.571	93.94
309.8	84.94
310.03	76.94
310.26	77.94
310.49	87.94
310.72	73.94
310.949	77.94
311.179	88.94
311.409	85.94
311.639	80.94
311.868	83.94
312.098	87.94
312.328	88.94
312.557	92.94
312.787	83.94
313.017	88.94
313.246	69.94
313.476	79.94
313.706	86.94
313.935	76.94
314.165	84.94
314.394	80.94
314.624	91.94
314.853	89.94
315.083	93.94
315.312	78.94
315.542	83.94
315.771	72.94
316.001	81.94
316.23	85.94
316.46	80.94
316.689	94.94
316.919	77.94
317.148	73.94
317.377	91.94
317.607	96.94
317.836	85.94
318.065	82.94
318.295	80.94
318.524	81.94
318.753	82.94
318.983	91.94
319.212	85.94
319.441	88.94
319.67	85.94
319.9	85.94
320.129	77.94
320.358	83.94
320.587	79.94
320.816	73.94
321.046	91.94
321.275	90.94
321.504	83.94
321.733	90.94
321.962	85.94
322.191	74.94
322.42	91.94
322.649	73.94
322.878	83.94
323.108	84.94
323.337	83.94
323.566	86.94
323.795	77.94
324.024	88.94
324.253	73.94
324.482	84.94
324.71	75.94
324.939	88.94
325.168	79.94
325.397	93.94
325.626	85.94
325.855	80.94
326.084	94.94
326.313	74.94
326.542	73.94
326.77	82.94
326.999	86.94
327.228	89.94
327.457	92.94
327.686	102.94
327.914	93.94
328.143	75.94
328.372	77.94
328.6	89.94
328.829	77.94
329.058	80.94
329.287	63.94
329.515	83.94
329.744	81.94
329.972	81.94
330.201	86.94
330.43	80.94
330.658	78.94
330.887	93.94
331.115	82.94
331.344	77.94
331.572	92.94
331.801	84.94
332.03	84.94
332.258	79.94
332.486	82.94
332.715	90.94
332.943	84.94
333.172	80.94
333.4	80.94
333.629	95.94
333.857	80.94
334.085	71.94
334.314	76.94
334.542	67.94
334.771	71.94
334.999	88.94
335.227	91.94
335.455	87.94
335.684	81.94
335.912	82.94
336.14	87.94
336.369	76.94
336.597	87.94
336.825	79.94
337.053	85.94
337.281	82.94
337.51	80.94
337.738	79.94
337.966	81.94
338.194	79.94
338.422	88.94
338.65	81.94
338.878	92.94
339.106	78.94
339.334	82.94
339.562	61.94
339.79	91.94
340.018	76.94
340.246	83.94
340.474	77.94
340.702	81.94
340.93	78.94
341.158	84.94
341.386	76.94
341.614	79.94
341.842	103.94
342.07	88.94
342.298	93.94
342.526	77.94
342.754	77.94
342.981	76.94
343.209	75.94
343.437	101.94
343.665	74.94
343.893	92.94
344.12	87.94
344.348	80.94
344.576	74.94
344.804	84.94
345.031	93.94
345.259	95.94
345.487	78.94
345.714	88.94
345.942	80.94
346.17	76.94
346.397	68.94
346.625	89.94
346.853	73.94
347.08	85.94
347.308	73.94
347.535	73.94
347.763	78.94
347.99	82.94
348.218	85.94
348.445	81.94
348.673	87.94
348.9	83.94
349.128	85.94
349.355	91.94
349.583	90.94
349.81	64.94
350.037	73.94
350.265	92.94
350.492	72.94
350.72	83.94
350.947	81.94
351.174	77.94
351.402	85.94
351.629	88.94
351.856	75.94
352.083	98.94
352.311	93.94
352.538	75.94
352.765	77.94
352.992	80.94
353.22	79.94
353.447	76.94
353.674	92.94
353.901	84.94
354.128	88.94
354.355	86.94
354.583	100.94
354.81	91.94
355.037	86.94
355.264	89.94
355.491	86.94
355.718	79.94
355.945	71.94
356.172	82.94
356.399	90.94
356.626	85.94
356.853	68.94
357.08	75.94
357.307	60.94
357.534	76.94
357.761	89.94
357.988	92.94
358.215	83.94
358.441	68.94
358.668	75.94
358.895	85.94
359.122	86.94
359.349	77.94
359.576	70.94
359.802	71.94
360.029	79.94
360.256	74.94
360.483	74.94
360.709	86.94
360.936	86.94
361.163	86.94
361.39	97.94
361.616	90.94
361.843	73.94
362.07	77.94
362.296	81.94
362.523	79.94
362.749	76.94
362.976	81.94
363.203	91.94
363.429	80.94
363.656	85.94
363.882	87.94
364.109	80.94
364.335	83.94
364.562	73.94
364.788	79.94
365.015	79.94
365.241	91.94
365.468	80.94
365.694	91.94
365.92	76.94
366.147	89.94
366.373	74.94
366.599	81.94
366.826	94.94
367.052	75.94
367.278	97.94
367.505	87.94
367.731	104.94
367.957	91.94
368.184	76.94
368.41	65.94
368.636	78.94
368.862	80.94
369.089	69.94
369.315	85.94
369.541	81.94
369.767	91.94
369.993	85.94
370.219	81.94
370.445	79.94
370.672	89.94
370.898	86.94
371.124	79.94
371.35	81.94
371.576	97.94
371.802	98.94
372.028	81.94
372.254	94.94
372.48	93.94
372.706	99.94
372.932	89.94
373.158	81.94
373.384	104.94
373.61	94.94
373.835	76.94
374.061	77.94
374.287	71.94
374.513	80.94
374.739	79.94
374.965	84.94
375.191	73.94
375.416	88.94
375.642	84.94
375.868	86.94
376.094	87.94
376.319	92.94
376.545	77.94
376.771	90.94
376.997	81.94
377.222	93.94
377.448	84.94
377.674	73.94
377.899	79.94
378.125	93.94
378.35	79.94
378.576	92.94
378.802	80.94
379.027	87.94
379.253	79.94
379.478	89.94
379.704	68.94
379.929	89.94
380.155	82.94
380.38	70.94
380.606	91.94
380.831	89.94
381.057	92.94
381.282	81.94
381.507	93.94
381.733	86.94
381.958	89.94
382.184	75.94
382.409	89.94
382.634	89.94
382.86	83.94
383.085	91.94
383.31	90.94
383.535	94.94
383.761	102.94
383.986	99.94
384.211	79.94
384.436	92.94
384.662	95.94
384.887	87.94
385.112	84.94
385.337	96.94
385.562	105.94
385.787	87.94
386.013	82.94
386.238	87.94
386.463	85.94
386.688	103.94
386.913	73.94
387.138	86.94
387.363	89.94
387.588	93.94
387.813	88.94
388.038	101.94
388.263	90.94
388.488	106.94
388.713	87.94
388.938	82.94
389.163	80.94
389.387	106.94
389.612	76.94
389.837	84.94
390.062	99.94
390.287	83.94
390.512	103.94
390.736	96.94
390.961	103.94
391.186	90.94
391.411	101.94
391.636	92.94
391.86	79.94
392.085	93.94
392.31	93.94
392.534	90.94
392.759	90.94
392.984	83.94
393.208	107.94
393.433	101.94
393.658	102.94
393.882	93.94
394.107	126.94
394.331	146.94
394.556	169.94
394.78	112.94
395.005	100.94
395.229	97.94
395.454	100.94
395.678	115.94
395.903	140.94
396.127	196.94
396.352	195.94
396.576	132.94
396.801	105.94
397.025	82.94
397.249	88.94
397.474	97.94
397.698	96.94
397.922	96.94
398.147	104.94
398.371	87.94
398.595	86.94
398.82	118.94
399.044	96.94
399.268	101.94
399.492	85.94
399.717	84.94
399.941	92.94
400.165	96.94
400.389	106.94
400.613	94.94
400.837	95.94
401.062	102.94
401.286	107.94
401.51	101.94
401.734	81.94
401.958	86.94
402.182	102.94
402.406	119.94
402.63	93.94
402.854	97.94
403.078	93.94
403.302	104.94
403.526	111.94
403.75	97.94
403.974	101.94
404.198	98.94
404.422	109.94
404.645	93.94
404.869	99.94
405.093	104.94
405.317	91.94
405.541	95.94
405.765	89.94
405.988	107.94
406.212	96.94
406.436	93.94
406.66	97.94
406.883	106.94
407.107	86.94
407.331	107.94
407.555	99.94
407.778	97.94
408.002	104.94
408.226	101.94
408.449	91.94
408.673	93.94
408.896	106.94
409.12	94.94
409.344	91.94
409.567	93.94
409.791	116.94
410.014	106.94
410.238	95.94
410.461	91.94
410.685	102.94
410.908	100.94
411.132	115.94
411.355	97.94
411.578	102.94
411.802	96.94
412.025	99.94
412.249	93.94
412.472	107.94
412.695	100.94
412.919	109.94
413.142	98.94
413.365	99.94
413.589	105.94
413.812	94.94
414.035	113.94
414.258	121.94
414.482	107.94
414.705	96.94
414.928	104.94
415.151	88.94
415.374	102.94
415.597	94.94
415.821	95.94
416.044	110.94
416.267	104.94
416.49	105.94
416.713	98.94
416.936	108.94
417.159	106.94
417.382	103.94
417.605	103.94
417.828	102.94
418.051	106.94
418.274	100.94
418.497	99.94
418.72	100.94
418.943	101.94
419.166	96.94
419.389	112.94
419.611	109.94
419.834	104.94
420.057	119.94
420.28	109.94
420.503	109.94
420.726	96.94
420.948	94.94
421.171	94.94
421.394	103.94
421.617	100.94
421.839	100.94
422.062	94.94
422.285	103.94
422.507	99.94
422.73	119.94
422.953	98.94
423.175	92.94
423.398	105.94
423.621	104.94
423.843	119.94
424.066	99.94
424.288	104.94
424.511	108.94
424.733	103.94
424.956	105.94
425.178	108.94
425.401	103.94
425.623	115.94
425.846	101.94
426.068	95.94
426.291	107.94
426.513	90.94
426.735	102.94
426.958	104.94
427.18	93.94
427.402	97.94
427.625	102.94
427.847	95.94
428.069	97.94
428.292	107.94
428.514	120.94
428.736	93.94
428.958	103.94
429.181	99.94
429.403	99.94
429.625	104.94
429.847	101.94
430.069	115.94
430.292	117.94
430.514	108.94
430.736	106.94
430.958	96.94
431.18	93.94
431.402	93.94
431.624	105.94
431.846	96.94
432.068	87.94
432.29	99.94
432.512	106.94
432.734	106.94
432.956	95.94
433.178	115.94
433.4	105.94
433.622	115.94
433.844	88.94
434.066	92.94
434.287	80.94
434.509	85.94
434.731	88.94
434.953	100.94
435.175	100.94
435.397	109.94
435.618	90.94
435.84	84.94
436.062	95.94
436.284	87.94
436.505	105.94
436.727	105.94
436.949	112.94
437.17	105.94
437.392	97.94
437.614	96.94
437.835	84.94
438.057	94.94
438.278	102.94
438.5	89.94
438.721	118.94
438.943	111.94
439.165	95.94
439.386	119.94
439.608	107.94
439.829	97.94
440.05	105.94
440.272	105.94
440.493	124.94
440.715	103.94
440.936	102.94
441.158	108.94
441.379	120.94
441.6	101.94
441.822	115.94
442.043	100.94
442.264	98.94
442.486	100.94
442.707	109.94
442.928	99.94
443.149	131.94
443.371	110.94
443.592	107.94
443.813	128.94
444.034	113.94
444.255	120.94
444.476	100.94
444.698	116.94
444.919	103.94
445.14	173.94
445.361	130.94
445.582	109.94
445.803	109.94
446.024	106.94
446.245	105.94
446.466	110.94
446.687	116.94
446.908	112.94
447.129	109.94
447.35	106.94
447.571	104.94
447.792	120.94
448.013	119.94
448.234	116.94
448.455	99.94
448.675	117.94
448.896	111.94
449.117	114.94
449.338	102.94
449.559	107.94
449.779	112.94
450	107.94
450.221	106.94
450.442	125.94
450.662	108.94
450.883	110.94
451.104	109.94
451.324	105.94
451.545	96.94
451.766	104.94
451.986	99.94
452.207	94.94
452.428	102.94
452.648	115.94
452.869	109.94
453.089	117.94
453.31	80.94
453.53	86.94
453.751	94.94
453.971	96.94
454.192	85.94
454.412	82.94
454.633	94.94
454.853	103.94
455.073	97.94
455.294	109.94
455.514	102.94
455.734	96.94
455.955	99.94
456.175	99.94
456.395	101.94
456.616	103.94
456.836	87.94
457.056	89.94
457.276	105.94
457.497	96.94
457.717	99.94
457.937	99.94
458.157	90.94
458.377	92.94
458.598	71.94
458.818	86.94
459.038	82.94
459.258	77.94
459.478	85.94
459.698	80.94
459.918	80.94
460.138	80.94
460.358	110.94
460.578	94.94
460.798	79.94
461.018	101.94
461.238	100.94
461.458	110.94
461.678	87.94
461.898	99.94
462.118	104.94
462.338	88.94
462.558	100.94
462.777	112.94
462.997	103.94
463.217	93.94
463.437	99.94
463.657	88.94
463.876	97.94
464.096	101.94
464.316	79.94
464.536	94.94
464.755	92.94
464.975	84.94
465.195	93.94
465.414	87.94
465.634	97.94
465.854	95.94
466.073	107.94
466.293	102.94
466.512	108.94
466.732	108.94
466.951	120.94
467.171	129.94
467.391	132.94
467.61	131.94
467.829	120.94
468.049	104.94
468.268	107.94
468.488	126.94
468.707	110.94
468.927	118.94
469.146	111.94
469.365	107.94
469.585	107.94
469.804	113.94
470.023	126.94
470.243	105.94
470.462	119.94
470.681	117.94
470.901	117.94
471.12	127.94
471.339	104.94
471.558	107.94
471.777	110.94
471.997	109.94
472.216	112.94
472.435	97.94
472.654	92.94
472.873	96.94
473.092	104.94
473.311	102.94
473.53	119.94
473.749	102.94
473.968	101.94
474.187	108.94
474.406	94.94
474.625	105.94
474.844	106.94
475.063	120.94
475.282	86.94
475.501	89.94
475.72	108.94
475.939	99.94
476.158	102.94
476.377	96.94
476.596	95.94
476.814	82.94
477.033	96.94
477.252	96.94
477.471	109.94
477.69	85.94
477.908	101.94
478.127	110.94
478.346	110.94
478.564	102.94
478.783	106.94
479.002	110.94
479.22	94.94
479.439	110.94
479.658	104.94
479.876	87.94
480.095	99.94
480.313	112.94
480.532	93.94
480.751	96.94
480.969	89.94
481.188	84.94
481.406	96.94
481.624	87.94
481.843	83.94
482.061	95.94
482.28	95.94
482.498	80.94
482.717	96.94
482.935	112.94
483.153	116.94
483.372	127.94
483.59	97.94
483.808	111.94
484.027	87.94
484.245	99.94
484.463	101.94
484.681	92.94
484.9	100.94
485.118	108.94
485.336	105.94
485.554	82.94
485.772	89.94
485.99	99.94
486.209	76.94
486.427	96.94
486.645	105.94
486.863	117.94
487.081	107.94
487.299	98.94
487.517	107.94
487.735	126.94
487.953	127.94
488.171	135.94
488.389	104.94
488.607	100.94
488.825	97.94
489.043	102.94
489.261	93.94
489.479	105.94
489.696	117.94
489.914	118.94
490.132	123.94
490.35	124.94
490.568	120.94
490.786	119.94
491.003	129.94
491.221	142.94
491.439	127.94
491.657	135.94
491.874	152.94
492.092	155.94
492.31	150.94
492.527	136.94
492.745	144.94
492.963	150.94
493.18	131.94
493.398	135.94
493.615	132.94
493.833	121.94
494.05	143.94
494.268	141.94
494.485	131.94
494.703	122.94
494.92	127.94
495.138	119.94
495.355	127.94
495.573	126.94
495.79	117.94
496.008	128.94
496.225	112.94
496.442	121.94
496.66	131.94
496.877	118.94
497.094	122.94
497.312	119.94
497.529	117.94
497.746	110.94
497.963	109.94
498.181	98.94
498.398	109.94
498.615	87.94
498.832	93.94
499.049	101.94
499.267	114.94
499.484	92.94
499.701	87.94
499.918	107.94
500.135	102.94
500.352	108.94
500.569	93.94
500.786	119.94
501.003	117.94
501.22	109.94
501.437	119.94
501.654	121.94
501.871	103.94
502.088	107.94
502.305	107.94
502.522	110.94
502.739	103.94
502.956	115.94
503.172	108.94
503.389	79.94
503.606	90.94
503.823	100.94
504.04	103.94
504.256	92.94
504.473	85.94
504.69	102.94
504.907	107.94
505.123	100.94
505.34	98.94
505.557	105.94
505.773	112.94
505.99	101.94
506.207	93.94
506.423	85.94
506.64	105.94
506.856	92.94
507.073	97.94
507.289	97.94
507.506	100.94
507.722	101.94
507.939	96.94
508.155	92.94
508.372	95.94
508.588	89.94
508.805	91.94
509.021	101.94
509.238	89.94
509.454	87.94
509.67	84.94
509.887	87.94
510.103	81.94
510.319	85.94
510.536	91.94
510.752	91.94
510.968	92.94
511.184	79.94
511.401	85.94
511.617	100.94
511.833	81.94
512.049	74.94
512.265	81.94
512.481	102.94
512.698	93.94
512.914	89.94
513.13	85.94
513.346	77.94
513.562	77.94
513.778	78.94
513.994	81.94
514.21	109.94
514.426	90.94
514.642	76.94
514.858	73.94
515.074	87.94
515.29	88.94
515.506	78.94
515.721	85.94
515.937	102.94
516.153	90.94
516.369	89.94
516.585	73.94
516.801	76.94
517.016	96.94
517.232	82.94
517.448	95.94
517.664	86.94
517.879	71.94
518.095	94.94
518.311	80.94
518.527	72.94
518.742	80.94
518.958	81.94
519.173	89.94
519.389	103.94
519.605	96.94
519.82	101.94
520.036	84.94
520.251	92.94
520.467	87.94
520.682	91.94
520.898	89.94
521.113	90.94
521.329	104.94
521.544	75.94
521.76	87.94
521.975	84.94
522.19	84.94
522.406	104.94
522.621	97.94
522.836	104.94
523.052	97.94
523.267	109.94
523.482	96.94
523.698	97.94
523.913	82.94
524.128	99.94
524.343	94.94
524.559	93.94
524.774	101.94
524.989	106.94
525.204	104.94
525.419	94.94
525.634	85.94
525.849	87.94
526.064	97.94
526.28	93.94
526.495	84.94
526.71	89.94
526.925	91.94
527.14	70.94
527.355	76.94
527.57	80.94
527.785	81.94
527.999	80.94
528.214	87.94
528.429	91.94
528.644	103.94
528.859	96.94
529.074	103.94
529.289	97.94
529.503	80.94
529.718	95.94
529.933	91.94
530.148	96.94
530.363	87.94
530.577	85.94
530.792	77.94
531.007	65.94
531.221	72.94
531.436	88.94
531.651	95.94
531.865	98.94
532.08	81.94
532.295	85.94
532.509	96.94
532.724	80.94
532.938	82.94
533.153	67.94
533.367	89.94
533.582	98.94
533.796	85.94
534.011	98.94
534.225	89.94
534.44	89.94
534.654	87.94
534.868	78.94
535.083	84.94
535.297	82.94
535.511	96.94
535.726	90.94
535.94	77.94
536.154	74.94
536.369	70.94
536.583	86.94
536.797	85.94
537.011	85.94
537.225	90.94
537.44	77.94
537.654	77.94
537.868	83.94
538.082	92.94
538.296	84.94
538.51	103.94
538.724	105.94
538.938	111.94
539.153	94.94
539.367	112.94
539.581	107.94
539.795	91.94
540.009	94.94
540.222	81.94
540.436	79.94
540.65	89.94
540.864	90.94
541.078	89.94
541.292	97.94
541.506	104.94
541.72	113.94
541.934	109.94
542.147	109.94
542.361	132.94
542.575	117.94
542.789	108.94
543.002	97.94
543.216	99.94
543.43	101.94
543.644	111.94
543.857	119.94
544.071	109.94
544.285	122.94
544.498	133.94
544.712	122.94
544.925	124.94
545.139	120.94
545.352	123.94
545.566	131.94
545.779	147.94
545.993	131.94
546.206	129.94
546.42	119.94
546.633	132.94
546.847	147.94
547.06	126.94
547.274	131.94
547.487	134.94
547.7	123.94
547.914	133.94
548.127	120.94
548.34	128.94
548.554	119.94
548.767	130.94
548.98	120.94
549.193	120.94
549.407	126.94
549.62	129.94
549.833	113.94
550.046	123.94
550.259	115.94
550.473	121.94
550.686	126.94
550.899	134.94
551.112	121.94
551.325	121.94
551.538	102.94
551.751	106.94
551.964	109.94
552.177	111.94
552.39	107.94
552.603	106.94
552.816	119.94
553.029	112.94
553.242	111.94
553.455	131.94
553.667	112.94
553.88	111.94
554.093	129.94
554.306	125.94
554.519	117.94
554.732	117.94
554.944	132.94
555.157	113.94
555.37	132.94
555.583	109.94
555.795	108.94
556.008	115.94
556.221	122.94
556.433	111.94
556.646	110.94
556.859	112.94
557.071	111.94
557.284	113.94
557.496	112.94
557.709	127.94
557.921	129.94
558.134	122.94
558.346	127.94
558.559	115.94
558.771	115.94
558.984	112.94
559.196	102.94
559.409	106.94
559.621	114.94
559.833	112.94
560.046	113.94
560.258	108.94
560.47	102.94
560.683	103.94
560.895	124.94
561.107	117.94
561.32	109.94
561.532	101.94
561.744	112.94
561.956	123.94
562.168	109.94
562.381	95.94
562.593	108.94
562.805	115.94
563.017	101.94
563.229	115.94
563.441	99.94
563.653	93.94
563.865	101.94
564.077	97.94
564.289	93.94
564.501	103.94
564.713	102.94
564.925	104.94
565.137	101.94
565.349	93.94
565.561	94.94
565.773	86.94
565.985	112.94
566.197	105.94
566.408	104.94
566.62	96.94
566.832	88.94
567.044	96.94
567.255	99.94
567.467	91.94
567.679	102.94
567.891	91.94
568.102	75.94
568.314	79.94
568.526	77.94
568.737	89.94
568.949	94.94
569.161	78.94
569.372	85.94
569.584	85.94
569.795	89.94
570.007	87.94
570.218	73.94
570.43	78.94
570.641	95.94
570.853	89.94
571.064	101.94
571.276	96.94
571.487	92.94
571.698	83.94
571.91	88.94
572.121	91.94
572.333	82.94
572.544	88.94
572.755	87.94
572.966	99.94
573.178	92.94
573.389	85.94
573.6	75.94
573.811	84.94
574.023	80.94
574.234	80.94
574.445	84.94
574.656	95.94
574.867	91.94
575.078	93.94
575.289	88.94
575.501	85.94
575.712	88.94
575.923	89.94
576.134	95.94
576.345	79.94
576.556	75.94
576.767	74.94
576.978	95.94
577.188	79.94
577.399	90.94
577.61	89.94
577.821	88.94
578.032	78.94
578.243	90.94
578.454	80.94
578.665	72.94
578.875	76.94
579.086	75.94
579.297	78.94
579.508	93.94
579.718	79.94
579.929	69.94
580.14	91.94
580.35	95.94
580.561	73.94
580.772	81.94
580.982	87.94
581.193	84.94
581.403	78.94
581.614	76.94
581.825	69.94
582.035	92.94
582.246	79.94
582.456	87.94
582.667	88.94
582.877	85.94
583.087	107.94
583.298	71.94
583.508	89.94
583.719	92.94
583.929	76.94
584.139	76.94
584.35	82.94
584.56	93.94
584.77	79.94
584.981	93.94
585.191	77.94
585.401	86.94
585.611	85.94
585.821	76.94
586.032	94.94
586.242	72.94
586.452	97.94
586.662	92.94
586.872	76.94
587.082	77.94
587.292	88.94
587.502	84.94
587.713	86.94
587.923	94.94
588.133	79.94
588.343	70.94
588.553	68.94
588.762	92.94
588.972	83.94
589.182	84.94
589.392	89.94
589.602	82.94
589.812	73.94
590.022	77.94
590.232	81.94
590.441	105.94
590.651	79.94
590.861	75.94
591.071	86.94
591.281	87.94
591.49	84.94
591.7	72.94
591.91	94.94
592.119	85.94
592.329	87.94
592.539	92.94
592.748	102.94
592.958	73.94
593.167	74.94
593.377	96.94
593.587	88.94
593.796	79.94
594.006	87.94
594.215	80.94
594.424	69.94
594.634	89.94
594.843	81.94
595.053	59.94
595.262	99.94
595.472	84.94
595.681	76.94
595.89	82.94
596.1	79.94
596.309	97.94
596.518	96.94
596.727	97.94
596.937	92.94
597.146	95.94
597.355	93.94
597.564	84.94
597.774	81.94
597.983	94.94
598.192	93.94
598.401	73.94
598.61	96.94
598.819	87.94
599.028	84.94
599.237	77.94
599.446	75.94
599.655	97.94
599.864	87.94
600.073	85.94
600.282	91.94
600.491	77.94
600.7	71.94
600.909	87.94
601.118	91.94
601.327	97.94
601.536	88.94
601.745	89.94
601.953	95.94
602.162	103.94
602.371	80.94
602.58	82.94
602.789	101.94
602.997	97.94
603.206	96.94
603.415	93.94
603.623	81.94
603.832	107.94
604.041	90.94
604.249	97.94
604.458	91.94
604.666	85.94
604.875	94.94
605.084	80.94
605.292	95.94
605.501	69.94
605.709	100.94
605.918	100.94
606.126	106.94
606.334	99.94
606.543	98.94
606.751	83.94
606.96	85.94
607.168	115.94
607.376	97.94
607.585	90.94
607.793	96.94
608.001	92.94
608.21	90.94
608.418	92.94
608.626	86.94
608.834	91.94
609.043	99.94
609.251	90.94
609.459	89.94
609.667	94.94
609.875	81.94
610.083	95.94
610.291	94.94
610.499	93.94
610.707	103.94
610.916	95.94
611.124	106.94
611.332	97.94
611.54	94.94
611.748	92.94
611.955	101.94
612.163	107.94
612.371	104.94
612.579	94.94
612.787	103.94
612.995	114.94
613.203	126.94
613.411	102.94
613.618	89.94
613.826	101.94
614.034	108.94
614.242	103.94
614.449	98.94
614.657	94.94
614.865	99.94
615.072	104.94
615.28	110.94
615.488	95.94
615.695	96.94
615.903	107.94
616.111	102.94
616.318	95.94
616.526	91.94
616.733	114.94
616.941	97.94
617.148	99.94
617.356	96.94
617.563	81.94
617.771	87.94
617.978	92.94
618.185	109.94
618.393	111.94
618.6	109.94
618.807	100.94
619.015	104.94
619.222	107.94
619.429	87.94
619.637	93.94
619.844	91.94
620.051	70.94
620.258	99.94
620.466	95.94
620.673	92.94
620.88	104.94
621.087	104.94
621.294	97.94
621.501	95.94
621.708	96.94
621.915	108.94
622.122	96.94
622.329	104.94
622.536	107.94
622.743	85.94
622.95	101.94
623.157	93.94
623.364	94.94
623.571	97.94
623.778	93.94
623.985	109.94
624.192	107.94
624.399	95.94
624.606	100.94
624.812	89.94
625.019	90.94
625.226	91.94
625.433	97.94
625.639	85.94
625.846	92.94
626.053	72.94
626.259	101.94
626.466	102.94
626.673	99.94
626.879	98.94
627.086	87.94
627.293	77.94
627.499	90.94
627.706	93.94
627.912	83.94
628.119	102.94
628.325	87.94
628.532	96.94
628.738	89.94
628.945	81.94
629.151	107.94
629.357	92.94
629.564	93.94
629.77	84.94
629.976	92.94
630.183	87.94
630.389	93.94
630.595	105.94
630.802	93.94
631.008	79.94
631.214	90.94
631.42	88.94
631.627	75.94
631.833	100.94
632.039	90.94
632.245	84.94
632.451	109.94
632.657	97.94
632.863	93.94
633.069	95.94
633.275	98.94
633.481	78.94
633.688	104.94
633.893	104.94
634.099	95.94
634.305	87.94
634.511	86.94
634.717	88.94
634.923	84.94
635.129	89.94
635.335	93.94
635.541	99.94
635.747	109.94
635.952	95.94
636.158	86.94
636.364	89.94
636.57	90.94
636.775	103.94
636.981	95.94
637.187	100.94
637.392	97.94
637.598	99.94
637.804	87.94
638.009	99.94
638.215	97.94
638.421	96.94
638.626	86.94
638.832	92.94
639.037	87.94
639.243	87.94
639.448	80.94
639.654	81.94
639.859	91.94
640.065	79.94
640.27	92.94
640.475	80.94
640.681	103.94
640.886	87.94
641.091	107.94
641.297	97.94
641.502	102.94
641.707	103.94
641.913	90.94
642.118	91.94
642.323	88.94
642.528	95.94
642.733	96.94
642.939	97.94
643.144	88.94
643.349	80.94
643.554	87.94
643.759	101.94
643.964	100.94
644.169	97.94
644.374	79.94
644.579	83.94
644.784	98.94
644.989	88.94
645.194	88.94
645.399	88.94
645.604	100.94
645.809	89.94
646.014	87.94
646.219	78.94
646.423	75.94
646.628	95.94
646.833	98.94
647.038	108.94
647.243	85.94
647.447	92.94
647.652	101.94
647.857	113.94
648.062	78.94
648.266	86.94
648.471	99.94
648.676	88.94
648.88	109.94
649.085	103.94
649.289	85.94
649.494	92.94
649.698	97.94
649.903	99.94
650.107	103.94
650.312	102.94
650.516	71.94
650.721	92.94
650.925	93.94
651.13	83.94
651.334	87.94
651.539	98.94
651.743	87.94
651.947	94.94
652.152	91.94
652.356	108.94
652.56	76.94
652.764	88.94
652.969	77.94
653.173	93.94
653.377	78.94
653.581	94.94
653.785	94.94
653.99	83.94
654.194	82.94
654.398	82.94
654.602	92.94
654.806	86.94
655.01	94.94
655.214	88.94
655.418	80.94
655.622	88.94
655.826	93.94
656.03	84.94
656.234	95.94
656.438	82.94
656.642	91.94
656.846	88.94
657.049	82.94
657.253	90.94
657.457	89.94
657.661	90.94
657.865	86.94
658.068	89.94
658.272	91.94
658.476	88.94
658.68	93.94
658.883	80.94
659.087	70.94
659.291	88.94
659.494	79.94
659.698	91.94
659.901	79.94
660.105	93.94
660.309	81.94
660.512	87.94
660.716	76.94
660.919	82.94
661.123	80.94
661.326	80.94
661.53	85.94
661.733	84.94
661.936	81.94
662.14	77.94
662.343	92.94
662.546	91.94
662.75	77.94
662.953	73.94
663.156	84.94
663.36	76.94
663.563	81.94
663.766	89.94
663.969	79.94
664.173	83.94
664.376	91.94
664.579	81.94
664.782	80.94
664.985	86.94
665.188	92.94
665.391	87.94
665.594	73.94
665.797	82.94
666	77.94
666.203	89.94
666.406	90.94
666.609	81.94
666.812	90.94
667.015	90.94
667.218	88.94
667.421	75.94
667.624	78.94
667.827	75.94
668.03	91.94
668.232	84.94
668.435	73.94
668.638	71.94
668.841	82.94
669.043	77.94
669.246	78.94
669.449	78.94
669.651	85.94
669.854	67.94
670.057	76.94
670.259	81.94
670.462	71.94
670.665	83.94
670.867	71.94
671.07	67.94
671.272	79.94
671.475	67.94
671.677	93.94
671.88	88.94
672.082	88.94
672.284	77.94
672.487	80.94
672.689	81.94
672.892	91.94
