Data from Dry_Prop_50_2_HRD10591_00005.txt Node
Date: Wed Dec 03 14:46:00 EST 2025
User: Yrep
Spectrometer: HR+D1059
Trigger mode: 1
Integration Time (sec): 1.000000E-1
Scans to average: 1
Electric dark correction enabled: true
Nonlinearity correction enabled: false
Boxcar width: 0
XAxis mode: Wavelengths
Number of Pixels in Spectrum: 2048
>>>>>Begin Spectral Data<<<<<
223.165	-10.44
223.4	-10.44
223.635	-10.44
223.869	-23.44
224.104	-31.44
224.338	-13.44
224.573	-11.44
224.808	-8.44
225.042	-12.44
225.277	-0.44
225.511	7.56
225.746	8.56
225.98	3.56
226.215	11.56
226.449	5.56
226.683	8.56
226.918	33.56
227.152	32.56
227.387	39.56
227.621	34.56
227.856	53.56
228.09	36.56
228.324	47.56
228.559	44.56
228.793	71.56
229.027	63.56
229.262	61.56
229.496	62.56
229.73	59.56
229.964	73.56
230.199	82.56
230.433	83.56
230.667	75.56
230.901	75.56
231.136	89.56
231.37	84.56
231.604	76.56
231.838	82.56
232.072	74.56
232.306	82.56
232.541	81.56
232.775	76.56
233.009	80.56
233.243	91.56
233.477	86.56
233.711	78.56
233.945	73.56
234.179	85.56
234.413	84.56
234.647	73.56
234.881	77.56
235.115	65.56
235.349	92.56
235.583	74.56
235.817	71.56
236.051	65.56
236.285	83.56
236.519	68.56
236.753	75.56
236.987	91.56
237.221	61.56
237.455	66.56
237.689	67.56
237.922	76.56
238.156	61.56
238.39	72.56
238.624	75.56
238.858	88.56
239.091	88.56
239.325	65.56
239.559	83.56
239.793	63.56
240.027	59.56
240.26	80.56
240.494	74.56
240.728	75.56
240.961	64.56
241.195	68.56
241.429	68.56
241.662	81.56
241.896	68.56
242.13	74.56
242.363	79.56
242.597	66.56
242.83	78.56
243.064	77.56
243.298	87.56
243.531	68.56
243.765	74.56
243.998	70.56
244.232	78.56
244.465	72.56
244.699	76.56
244.932	81.56
245.166	85.56
245.399	78.56
245.633	87.56
245.866	88.56
246.099	72.56
246.333	78.56
246.566	64.56
246.8	73.56
247.033	69.56
247.266	89.56
247.5	65.56
247.733	78.56
247.966	86.56
248.2	64.56
248.433	79.56
248.666	69.56
248.899	76.56
249.133	74.56
249.366	73.56
249.599	90.56
249.832	70.56
250.066	71.56
250.299	94.56
250.532	81.56
250.765	76.56
250.998	81.56
251.231	69.56
251.465	70.56
251.698	64.56
251.931	77.56
252.164	78.56
252.397	81.56
252.63	70.56
252.863	75.56
253.096	94.56
253.329	88.56
253.562	84.56
253.795	78.56
254.028	84.56
254.261	84.56
254.494	80.56
254.727	93.56
254.96	60.56
255.193	77.56
255.426	85.56
255.659	74.56
255.892	80.56
256.124	78.56
256.357	71.56
256.59	81.56
256.823	77.56
257.056	82.56
257.289	80.56
257.521	84.56
257.754	78.56
257.987	86.56
258.22	82.56
258.452	85.56
258.685	72.56
258.918	72.56
259.151	67.56
259.383	72.56
259.616	80.56
259.849	86.56
260.081	90.56
260.314	76.56
260.547	74.56
260.779	85.56
261.012	86.56
261.244	77.56
261.477	81.56
261.71	78.56
261.942	90.56
262.175	77.56
262.407	75.56
262.64	90.56
262.872	84.56
263.105	69.56
263.337	79.56
263.57	62.56
263.802	66.56
264.035	77.56
264.267	77.56
264.499	73.56
264.732	70.56
264.964	89.56
265.197	75.56
265.429	77.56
265.661	84.56
265.894	81.56
266.126	72.56
266.358	76.56
266.591	78.56
266.823	89.56
267.055	90.56
267.287	80.56
267.52	90.56
267.752	85.56
267.984	92.56
268.216	80.56
268.448	74.56
268.681	79.56
268.913	77.56
269.145	58.56
269.377	76.56
269.609	76.56
269.841	90.56
270.073	88.56
270.306	84.56
270.538	72.56
270.77	68.56
271.002	60.56
271.234	73.56
271.466	88.56
271.698	74.56
271.93	76.56
272.162	86.56
272.394	84.56
272.626	82.56
272.858	92.56
273.09	92.56
273.322	82.56
273.553	76.56
273.785	93.56
274.017	72.56
274.249	81.56
274.481	93.56
274.713	81.56
274.945	72.56
275.176	79.56
275.408	88.56
275.64	81.56
275.872	77.56
276.104	85.56
276.335	93.56
276.567	88.56
276.799	74.56
277.031	92.56
277.262	76.56
277.494	92.56
277.726	92.56
277.957	87.56
278.189	107.56
278.421	88.56
278.652	96.56
278.884	80.56
279.115	80.56
279.347	90.56
279.579	91.56
279.81	84.56
280.042	88.56
280.273	80.56
280.505	60.56
280.736	92.56
280.968	77.56
281.199	82.56
281.431	95.56
281.662	66.56
281.894	76.56
282.125	85.56
282.356	85.56
282.588	88.56
282.819	93.56
283.051	82.56
283.282	84.56
283.513	91.56
283.745	77.56
283.976	92.56
284.207	78.56
284.439	75.56
284.67	76.56
284.901	93.56
285.132	85.56
285.364	73.56
285.595	85.56
285.826	90.56
286.057	83.56
286.288	93.56
286.52	84.56
286.751	89.56
286.982	92.56
287.213	75.56
287.444	77.56
287.675	92.56
287.906	87.56
288.138	66.56
288.369	84.56
288.6	79.56
288.831	85.56
289.062	72.56
289.293	80.56
289.524	77.56
289.755	77.56
289.986	73.56
290.217	82.56
290.448	84.56
290.679	72.56
290.91	90.56
291.141	103.56
291.371	86.56
291.602	88.56
291.833	84.56
292.064	94.56
292.295	71.56
292.526	92.56
292.757	77.56
292.987	76.56
293.218	76.56
293.449	79.56
293.68	86.56
293.91	86.56
294.141	97.56
294.372	81.56
294.603	76.56
294.833	77.56
295.064	92.56
295.295	80.56
295.525	85.56
295.756	82.56
295.987	85.56
296.217	79.56
296.448	71.56
296.679	86.56
296.909	87.56
297.14	78.56
297.37	98.56
297.601	76.56
297.831	76.56
298.062	97.56
298.292	85.56
298.523	83.56
298.753	92.56
298.984	85.56
299.214	78.56
299.445	80.56
299.675	89.56
299.905	72.56
300.136	80.56
300.366	93.56
300.597	96.56
300.827	88.56
301.057	90.56
301.288	74.56
301.518	95.56
301.748	84.56
301.979	93.56
302.209	69.56
302.439	77.56
302.669	74.56
302.9	77.56
303.13	80.56
303.36	92.56
303.59	79.56
303.82	85.56
304.051	81.56
304.281	82.56
304.511	90.56
304.741	82.56
304.971	64.56
305.201	91.56
305.431	80.56
305.661	86.56
305.891	93.56
306.121	76.56
306.352	95.56
306.582	78.56
306.812	96.56
307.042	68.56
307.272	90.56
307.502	88.56
307.731	88.56
307.961	88.56
308.191	89.56
308.421	82.56
308.651	79.56
308.881	85.56
309.111	85.56
309.341	88.56
309.571	82.56
309.8	78.56
310.03	83.56
310.26	88.56
310.49	79.56
310.72	78.56
310.949	83.56
311.179	77.56
311.409	92.56
311.639	80.56
311.868	83.56
312.098	82.56
312.328	81.56
312.557	79.56
312.787	77.56
313.017	78.56
313.246	81.56
313.476	100.56
313.706	90.56
313.935	78.56
314.165	74.56
314.394	92.56
314.624	81.56
314.853	86.56
315.083	80.56
315.312	88.56
315.542	86.56
315.771	94.56
316.001	81.56
316.23	69.56
316.46	88.56
316.689	76.56
316.919	94.56
317.148	91.56
317.377	92.56
317.607	85.56
317.836	84.56
318.065	74.56
318.295	81.56
318.524	84.56
318.753	87.56
318.983	78.56
319.212	92.56
319.441	79.56
319.67	82.56
319.9	76.56
320.129	90.56
320.358	80.56
320.587	86.56
320.816	87.56
321.046	92.56
321.275	91.56
321.504	87.56
321.733	84.56
321.962	89.56
322.191	81.56
322.42	81.56
322.649	90.56
322.878	83.56
323.108	96.56
323.337	82.56
323.566	78.56
323.795	69.56
324.024	79.56
324.253	88.56
324.482	72.56
324.71	80.56
324.939	86.56
325.168	76.56
325.397	86.56
325.626	87.56
325.855	80.56
326.084	76.56
326.313	85.56
326.542	84.56
326.77	71.56
326.999	88.56
327.228	90.56
327.457	84.56
327.686	62.56
327.914	63.56
328.143	84.56
328.372	65.56
328.6	82.56
328.829	91.56
329.058	77.56
329.287	75.56
329.515	72.56
329.744	89.56
329.972	90.56
330.201	84.56
330.43	77.56
330.658	84.56
330.887	76.56
331.115	73.56
331.344	89.56
331.572	73.56
331.801	77.56
332.03	72.56
332.258	80.56
332.486	80.56
332.715	82.56
332.943	81.56
333.172	87.56
333.4	74.56
333.629	94.56
333.857	80.56
334.085	78.56
334.314	90.56
334.542	85.56
334.771	79.56
334.999	81.56
335.227	82.56
335.455	70.56
335.684	91.56
335.912	83.56
336.14	74.56
336.369	85.56
336.597	73.56
336.825	80.56
337.053	86.56
337.281	77.56
337.51	82.56
337.738	80.56
337.966	71.56
338.194	70.56
338.422	85.56
338.65	80.56
338.878	72.56
339.106	88.56
339.334	91.56
339.562	85.56
339.79	78.56
340.018	74.56
340.246	62.56
340.474	85.56
340.702	76.56
340.93	83.56
341.158	81.56
341.386	84.56
341.614	86.56
341.842	76.56
342.07	85.56
342.298	93.56
342.526	70.56
342.754	87.56
342.981	95.56
343.209	96.56
343.437	97.56
343.665	82.56
343.893	78.56
344.12	76.56
344.348	61.56
344.576	74.56
344.804	66.56
345.031	68.56
345.259	81.56
345.487	78.56
345.714	78.56
345.942	85.56
346.17	84.56
346.397	89.56
346.625	85.56
346.853	80.56
347.08	74.56
347.308	72.56
347.535	85.56
347.763	77.56
347.99	85.56
348.218	89.56
348.445	73.56
348.673	89.56
348.9	84.56
349.128	90.56
349.355	92.56
349.583	103.56
349.81	90.56
350.037	95.56
350.265	84.56
350.492	67.56
350.72	88.56
350.947	80.56
351.174	74.56
351.402	67.56
351.629	84.56
351.856	74.56
352.083	76.56
352.311	88.56
352.538	80.56
352.765	85.56
352.992	82.56
353.22	80.56
353.447	73.56
353.674	83.56
353.901	85.56
354.128	68.56
354.355	88.56
354.583	66.56
354.81	88.56
355.037	79.56
355.264	78.56
355.491	83.56
355.718	87.56
355.945	93.56
356.172	77.56
356.399	74.56
356.626	69.56
356.853	67.56
357.08	84.56
357.307	85.56
357.534	83.56
357.761	85.56
357.988	77.56
358.215	82.56
358.441	95.56
358.668	75.56
358.895	83.56
359.122	77.56
359.349	91.56
359.576	81.56
359.802	84.56
360.029	72.56
360.256	67.56
360.483	86.56
360.709	73.56
360.936	72.56
361.163	91.56
361.39	89.56
361.616	83.56
361.843	82.56
362.07	72.56
362.296	69.56
362.523	73.56
362.749	66.56
362.976	89.56
363.203	95.56
363.429	90.56
363.656	66.56
363.882	74.56
364.109	82.56
364.335	96.56
364.562	80.56
364.788	75.56
365.015	77.56
365.241	83.56
365.468	84.56
365.694	73.56
365.92	68.56
366.147	89.56
366.373	72.56
366.599	75.56
366.826	76.56
367.052	96.56
367.278	74.56
367.505	80.56
367.731	84.56
367.957	84.56
368.184	74.56
368.41	83.56
368.636	83.56
368.862	92.56
369.089	80.56
369.315	76.56
369.541	83.56
369.767	74.56
369.993	91.56
370.219	83.56
370.445	72.56
370.672	84.56
370.898	76.56
371.124	78.56
371.35	75.56
371.576	83.56
371.802	64.56
372.028	91.56
372.254	85.56
372.48	88.56
372.706	86.56
372.932	88.56
373.158	66.56
373.384	77.56
373.61	61.56
373.835	81.56
374.061	84.56
374.287	96.56
374.513	88.56
374.739	82.56
374.965	81.56
375.191	89.56
375.416	75.56
375.642	84.56
375.868	84.56
376.094	60.56
376.319	84.56
376.545	90.56
376.771	68.56
376.997	74.56
377.222	96.56
377.448	74.56
377.674	75.56
377.899	83.56
378.125	81.56
378.35	76.56
378.576	75.56
378.802	78.56
379.027	88.56
379.253	75.56
379.478	75.56
379.704	85.56
379.929	74.56
380.155	68.56
380.38	83.56
380.606	72.56
380.831	72.56
381.057	84.56
381.282	86.56
381.507	75.56
381.733	96.56
381.958	75.56
382.184	84.56
382.409	82.56
382.634	85.56
382.86	91.56
383.085	89.56
383.31	82.56
383.535	87.56
383.761	92.56
383.986	72.56
384.211	48.56
384.436	77.56
384.662	74.56
384.887	86.56
385.112	79.56
385.337	88.56
385.562	81.56
385.787	72.56
386.013	83.56
386.238	80.56
386.463	81.56
386.688	99.56
386.913	92.56
387.138	63.56
387.363	88.56
387.588	78.56
387.813	92.56
388.038	90.56
388.263	90.56
388.488	90.56
388.713	64.56
388.938	76.56
389.163	88.56
389.387	78.56
389.612	68.56
389.837	73.56
390.062	86.56
390.287	80.56
390.512	90.56
390.736	91.56
390.961	100.56
391.186	81.56
391.411	76.56
391.636	73.56
391.86	80.56
392.085	74.56
392.31	85.56
392.534	64.56
392.759	66.56
392.984	81.56
393.208	82.56
393.433	85.56
393.658	80.56
393.882	72.56
394.107	76.56
394.331	78.56
394.556	88.56
394.78	84.56
395.005	78.56
395.229	64.56
395.454	75.56
395.678	66.56
395.903	72.56
396.127	64.56
396.352	82.56
396.576	82.56
396.801	94.56
397.025	101.56
397.249	84.56
397.474	76.56
397.698	62.56
397.922	87.56
398.147	78.56
398.371	72.56
398.595	79.56
398.82	92.56
399.044	85.56
399.268	79.56
399.492	92.56
399.717	85.56
399.941	79.56
400.165	72.56
400.389	86.56
400.613	84.56
400.837	85.56
401.062	88.56
401.286	83.56
401.51	79.56
401.734	79.56
401.958	78.56
402.182	88.56
402.406	79.56
402.63	72.56
402.854	82.56
403.078	82.56
403.302	82.56
403.526	75.56
403.75	80.56
403.974	76.56
404.198	81.56
404.422	90.56
404.645	78.56
404.869	73.56
405.093	90.56
405.317	68.56
405.541	80.56
405.765	74.56
405.988	73.56
406.212	84.56
406.436	79.56
406.66	90.56
406.883	86.56
407.107	75.56
407.331	65.56
407.555	92.56
407.778	96.56
408.002	73.56
408.226	85.56
408.449	76.56
408.673	78.56
408.896	84.56
409.12	84.56
409.344	83.56
409.567	79.56
409.791	86.56
410.014	72.56
410.238	70.56
410.461	77.56
410.685	79.56
410.908	80.56
411.132	89.56
411.355	90.56
411.578	68.56
411.802	76.56
412.025	81.56
412.249	84.56
412.472	85.56
412.695	80.56
412.919	81.56
413.142	96.56
413.365	77.56
413.589	88.56
413.812	92.56
414.035	73.56
414.258	68.56
414.482	79.56
414.705	86.56
414.928	88.56
415.151	76.56
415.374	72.56
415.597	73.56
415.821	88.56
416.044	81.56
416.267	69.56
416.49	76.56
416.713	78.56
416.936	57.56
417.159	76.56
417.382	72.56
417.605	66.56
417.828	70.56
418.051	71.56
418.274	83.56
418.497	66.56
418.72	74.56
418.943	63.56
419.166	82.56
419.389	80.56
419.611	61.56
419.834	89.56
420.057	75.56
420.28	79.56
420.503	84.56
420.726	89.56
420.948	66.56
421.171	84.56
421.394	93.56
421.617	75.56
421.839	86.56
422.062	70.56
422.285	81.56
422.507	104.56
422.73	88.56
422.953	91.56
423.175	81.56
423.398	88.56
423.621	84.56
423.843	81.56
424.066	80.56
424.288	82.56
424.511	83.56
424.733	77.56
424.956	85.56
425.178	88.56
425.401	76.56
425.623	83.56
425.846	73.56
426.068	81.56
426.291	74.56
426.513	82.56
426.735	73.56
426.958	59.56
427.18	72.56
427.402	75.56
427.625	68.56
427.847	81.56
428.069	83.56
428.292	77.56
428.514	89.56
428.736	68.56
428.958	84.56
429.181	80.56
429.403	69.56
429.625	80.56
429.847	69.56
430.069	76.56
430.292	80.56
430.514	71.56
430.736	84.56
430.958	77.56
431.18	74.56
431.402	82.56
431.624	69.56
431.846	72.56
432.068	65.56
432.29	80.56
432.512	70.56
432.734	86.56
432.956	82.56
433.178	68.56
433.4	81.56
433.622	84.56
433.844	76.56
434.066	74.56
434.287	72.56
434.509	82.56
434.731	70.56
434.953	74.56
435.175	64.56
435.397	92.56
435.618	80.56
435.84	74.56
436.062	76.56
436.284	72.56
436.505	82.56
436.727	66.56
436.949	76.56
437.17	77.56
437.392	84.56
437.614	86.56
437.835	81.56
438.057	76.56
438.278	77.56
438.5	90.56
438.721	79.56
438.943	85.56
439.165	83.56
439.386	75.56
439.608	96.56
439.829	76.56
440.05	75.56
440.272	80.56
440.493	73.56
440.715	77.56
440.936	88.56
441.158	88.56
441.379	76.56
441.6	76.56
441.822	68.56
442.043	74.56
442.264	81.56
442.486	58.56
442.707	82.56
442.928	69.56
443.149	74.56
443.371	68.56
443.592	72.56
443.813	94.56
444.034	84.56
444.255	76.56
444.476	83.56
444.698	76.56
444.919	82.56
445.14	135.56
445.361	109.56
445.582	70.56
445.803	88.56
446.024	84.56
446.245	74.56
446.466	82.56
446.687	76.56
446.908	92.56
447.129	90.56
447.35	74.56
447.571	99.56
447.792	74.56
448.013	70.56
448.234	85.56
448.455	93.56
448.675	77.56
448.896	90.56
449.117	60.56
449.338	68.56
449.559	75.56
449.779	81.56
450	83.56
450.221	77.56
450.442	72.56
450.662	58.56
450.883	81.56
451.104	78.56
451.324	82.56
451.545	90.56
451.766	69.56
451.986	85.56
452.207	80.56
452.428	74.56
452.648	76.56
452.869	92.56
453.089	80.56
453.31	81.56
453.53	77.56
453.751	81.56
453.971	83.56
454.192	74.56
454.412	68.56
454.633	67.56
454.853	77.56
455.073	73.56
455.294	72.56
455.514	90.56
455.734	81.56
455.955	76.56
456.175	72.56
456.395	78.56
456.616	83.56
456.836	80.56
457.056	74.56
457.276	79.56
457.497	83.56
457.717	86.56
457.937	90.56
458.157	72.56
458.377	78.56
458.598	80.56
458.818	84.56
459.038	80.56
459.258	96.56
459.478	80.56
459.698	94.56
459.918	79.56
460.138	76.56
460.358	89.56
460.578	82.56
460.798	76.56
461.018	80.56
461.238	72.56
461.458	71.56
461.678	77.56
461.898	77.56
462.118	93.56
462.338	70.56
462.558	79.56
462.777	68.56
462.997	78.56
463.217	72.56
463.437	94.56
463.657	65.56
463.876	75.56
464.096	68.56
464.316	80.56
464.536	76.56
464.755	77.56
464.975	97.56
465.195	78.56
465.414	68.56
465.634	81.56
465.854	88.56
466.073	75.56
466.293	72.56
466.512	79.56
466.732	68.56
466.951	88.56
467.171	75.56
467.391	76.56
467.61	89.56
467.829	79.56
468.049	71.56
468.268	84.56
468.488	92.56
468.707	83.56
468.927	92.56
469.146	85.56
469.365	80.56
469.585	85.56
469.804	85.56
470.023	68.56
470.243	80.56
470.462	76.56
470.681	72.56
470.901	82.56
471.12	84.56
471.339	82.56
471.558	79.56
471.777	93.56
471.997	71.56
472.216	89.56
472.435	84.56
472.654	94.56
472.873	94.56
473.092	91.56
473.311	78.56
473.53	83.56
473.749	72.56
473.968	85.56
474.187	79.56
474.406	64.56
474.625	86.56
474.844	79.56
475.063	74.56
475.282	94.56
475.501	78.56
475.72	92.56
475.939	89.56
476.158	83.56
476.377	94.56
476.596	80.56
476.814	77.56
477.033	85.56
477.252	78.56
477.471	71.56
477.69	75.56
477.908	86.56
478.127	77.56
478.346	81.56
478.564	78.56
478.783	89.56
479.002	76.56
479.22	80.56
479.439	88.56
479.658	86.56
479.876	66.56
480.095	83.56
480.313	80.56
480.532	77.56
480.751	86.56
480.969	80.56
481.188	82.56
481.406	69.56
481.624	75.56
481.843	62.56
482.061	83.56
482.28	86.56
482.498	76.56
482.717	89.56
482.935	72.56
483.153	68.56
483.372	87.56
483.59	84.56
483.808	76.56
484.027	78.56
484.245	95.56
484.463	77.56
484.681	80.56
484.9	95.56
485.118	86.56
485.336	77.56
485.554	97.56
485.772	96.56
485.99	84.56
486.209	80.56
486.427	65.56
486.645	84.56
486.863	90.56
487.081	88.56
487.299	72.56
487.517	97.56
487.735	81.56
487.953	74.56
488.171	83.56
488.389	83.56
488.607	70.56
488.825	83.56
489.043	78.56
489.261	97.56
489.479	56.56
489.696	79.56
489.914	81.56
490.132	79.56
490.35	86.56
490.568	94.56
490.786	76.56
491.003	86.56
491.221	81.56
491.439	84.56
491.657	69.56
491.874	98.56
492.092	81.56
492.31	65.56
492.527	85.56
492.745	94.56
492.963	90.56
493.18	67.56
493.398	81.56
493.615	91.56
493.833	76.56
494.05	85.56
494.268	97.56
494.485	102.56
494.703	74.56
494.92	86.56
495.138	78.56
495.355	81.56
495.573	81.56
495.79	80.56
496.008	85.56
496.225	88.56
496.442	85.56
496.66	81.56
496.877	80.56
497.094	65.56
497.312	76.56
497.529	80.56
497.746	75.56
497.963	91.56
498.181	89.56
498.398	95.56
498.615	81.56
498.832	76.56
499.049	87.56
499.267	88.56
499.484	69.56
499.701	85.56
499.918	84.56
500.135	78.56
500.352	101.56
500.569	75.56
500.786	76.56
501.003	76.56
501.22	65.56
501.437	85.56
501.654	82.56
501.871	86.56
502.088	73.56
502.305	76.56
502.522	77.56
502.739	75.56
502.956	79.56
503.172	78.56
503.389	77.56
503.606	81.56
503.823	78.56
504.04	78.56
504.256	78.56
504.473	77.56
504.69	74.56
504.907	71.56
505.123	84.56
505.34	85.56
505.557	69.56
505.773	97.56
505.99	74.56
506.207	82.56
506.423	93.56
506.64	75.56
506.856	88.56
507.073	88.56
507.289	78.56
507.506	77.56
507.722	93.56
507.939	69.56
508.155	80.56
508.372	79.56
508.588	73.56
508.805	85.56
509.021	76.56
509.238	80.56
509.454	85.56
509.67	75.56
509.887	92.56
510.103	76.56
510.319	76.56
510.536	88.56
510.752	72.56
510.968	76.56
511.184	72.56
511.401	94.56
511.617	74.56
511.833	83.56
512.049	72.56
512.265	67.56
512.481	93.56
512.698	81.56
512.914	88.56
513.13	88.56
513.346	72.56
513.562	84.56
513.778	69.56
513.994	91.56
514.21	85.56
514.426	92.56
514.642	102.56
514.858	77.56
515.074	84.56
515.29	88.56
515.506	80.56
515.721	87.56
515.937	77.56
516.153	70.56
516.369	80.56
516.585	77.56
516.801	91.56
517.016	70.56
517.232	84.56
517.448	84.56
517.664	78.56
517.879	85.56
518.095	73.56
518.311	84.56
518.527	92.56
518.742	76.56
518.958	73.56
519.173	75.56
519.389	85.56
519.605	88.56
519.82	74.56
520.036	82.56
520.251	79.56
520.467	83.56
520.682	75.56
520.898	85.56
521.113	80.56
521.329	81.56
521.544	72.56
521.76	77.56
521.975	80.56
522.19	82.56
522.406	79.56
522.621	86.56
522.836	77.56
523.052	78.56
523.267	77.56
523.482	85.56
523.698	79.56
523.913	84.56
524.128	82.56
524.343	92.56
524.559	91.56
524.774	90.56
524.989	94.56
525.204	82.56
525.419	92.56
525.634	77.56
525.849	77.56
526.064	88.56
526.28	86.56
526.495	98.56
526.71	71.56
526.925	76.56
527.14	88.56
527.355	91.56
527.57	80.56
527.785	76.56
527.999	84.56
528.214	68.56
528.429	90.56
528.644	79.56
528.859	98.56
529.074	92.56
529.289	81.56
529.503	86.56
529.718	83.56
529.933	107.56
530.148	86.56
530.363	78.56
530.577	81.56
530.792	87.56
531.007	90.56
531.221	79.56
531.436	82.56
531.651	83.56
531.865	72.56
532.08	102.56
532.295	77.56
532.509	98.56
532.724	92.56
532.938	95.56
533.153	79.56
533.367	91.56
533.582	82.56
533.796	94.56
534.011	85.56
534.225	88.56
534.44	78.56
534.654	75.56
534.868	88.56
535.083	86.56
535.297	79.56
535.511	85.56
535.726	88.56
535.94	76.56
536.154	80.56
536.369	82.56
536.583	83.56
536.797	66.56
537.011	92.56
537.225	92.56
537.44	85.56
537.654	85.56
537.868	82.56
538.082	92.56
538.296	90.56
538.51	83.56
538.724	76.56
538.938	68.56
539.153	80.56
539.367	93.56
539.581	96.56
539.795	88.56
540.009	86.56
540.222	94.56
540.436	86.56
540.65	82.56
540.864	83.56
541.078	77.56
541.292	77.56
541.506	85.56
541.72	92.56
541.934	98.56
542.147	92.56
542.361	90.56
542.575	78.56
542.789	79.56
543.002	78.56
543.216	76.56
543.43	90.56
543.644	84.56
543.857	71.56
544.071	84.56
544.285	90.56
544.498	84.56
544.712	83.56
544.925	76.56
545.139	82.56
545.352	90.56
545.566	95.56
545.779	82.56
545.993	81.56
546.206	77.56
546.42	82.56
546.633	74.56
546.847	94.56
547.06	98.56
547.274	79.56
547.487	84.56
547.7	85.56
547.914	79.56
548.127	74.56
548.34	95.56
548.554	70.56
548.767	93.56
548.98	77.56
549.193	83.56
549.407	77.56
549.62	90.56
549.833	79.56
550.046	94.56
550.259	78.56
550.473	85.56
550.686	91.56
550.899	75.56
551.112	73.56
551.325	94.56
551.538	90.56
551.751	83.56
551.964	69.56
552.177	80.56
552.39	82.56
552.603	77.56
552.816	91.56
553.029	76.56
553.242	72.56
553.455	81.56
553.667	83.56
553.88	96.56
554.093	77.56
554.306	78.56
554.519	75.56
554.732	84.56
554.944	101.56
555.157	73.56
555.37	98.56
555.583	83.56
555.795	91.56
556.008	83.56
556.221	81.56
556.433	76.56
556.646	94.56
556.859	89.56
557.071	84.56
557.284	92.56
557.496	82.56
557.709	88.56
557.921	90.56
558.134	91.56
558.346	82.56
558.559	84.56
558.771	86.56
558.984	79.56
559.196	84.56
559.409	83.56
559.621	70.56
559.833	88.56
560.046	77.56
560.258	80.56
560.47	88.56
560.683	100.56
560.895	78.56
561.107	80.56
561.32	100.56
561.532	76.56
561.744	92.56
561.956	99.56
562.168	85.56
562.381	84.56
562.593	96.56
562.805	83.56
563.017	88.56
563.229	72.56
563.441	96.56
563.653	88.56
563.865	84.56
564.077	76.56
564.289	79.56
564.501	81.56
564.713	78.56
564.925	86.56
565.137	80.56
565.349	83.56
565.561	78.56
565.773	83.56
565.985	91.56
566.197	90.56
566.408	75.56
566.62	76.56
566.832	85.56
567.044	84.56
567.255	73.56
567.467	92.56
567.679	92.56
567.891	71.56
568.102	83.56
568.314	86.56
568.526	79.56
568.737	82.56
568.949	84.56
569.161	82.56
569.372	89.56
569.584	83.56
569.795	81.56
570.007	79.56
570.218	101.56
570.43	86.56
570.641	78.56
570.853	89.56
571.064	88.56
571.276	82.56
571.487	88.56
571.698	80.56
571.91	95.56
572.121	89.56
572.333	80.56
572.544	75.56
572.755	88.56
572.966	76.56
573.178	78.56
573.389	85.56
573.6	80.56
573.811	67.56
574.023	85.56
574.234	88.56
574.445	82.56
574.656	82.56
574.867	84.56
575.078	77.56
575.289	84.56
575.501	86.56
575.712	78.56
575.923	91.56
576.134	84.56
576.345	81.56
576.556	75.56
576.767	86.56
576.978	89.56
577.188	83.56
577.399	81.56
577.61	84.56
577.821	89.56
578.032	70.56
578.243	79.56
578.454	99.56
578.665	78.56
578.875	88.56
579.086	96.56
579.297	74.56
579.508	81.56
579.718	93.56
579.929	75.56
580.14	68.56
580.35	74.56
580.561	74.56
580.772	92.56
580.982	93.56
581.193	78.56
581.403	77.56
581.614	83.56
581.825	77.56
582.035	65.56
582.246	88.56
582.456	88.56
582.667	84.56
582.877	91.56
583.087	96.56
583.298	80.56
583.508	92.56
583.719	73.56
583.929	69.56
584.139	78.56
584.35	83.56
584.56	71.56
584.77	80.56
584.981	83.56
585.191	96.56
585.401	94.56
585.611	90.56
585.821	89.56
586.032	81.56
586.242	82.56
586.452	93.56
586.662	90.56
586.872	88.56
587.082	84.56
587.292	80.56
587.502	85.56
587.713	91.56
587.923	95.56
588.133	82.56
588.343	81.56
588.553	90.56
588.762	95.56
588.972	130.56
589.182	243.56
589.392	167.56
589.602	132.56
589.812	200.56
590.022	135.56
590.232	98.56
590.441	90.56
590.651	81.56
590.861	97.56
591.071	74.56
591.281	90.56
591.49	75.56
591.7	80.56
591.91	74.56
592.119	69.56
592.329	85.56
592.539	83.56
592.748	95.56
592.958	88.56
593.167	97.56
593.377	76.56
593.587	84.56
593.796	92.56
594.006	90.56
594.215	88.56
594.424	89.56
594.634	86.56
594.843	93.56
595.053	84.56
595.262	75.56
595.472	77.56
595.681	91.56
595.89	77.56
596.1	73.56
596.309	97.56
596.518	84.56
596.727	83.56
596.937	70.56
597.146	85.56
597.355	83.56
597.564	81.56
597.774	93.56
597.983	79.56
598.192	95.56
598.401	92.56
598.61	74.56
598.819	85.56
599.028	80.56
599.237	80.56
599.446	86.56
599.655	90.56
599.864	84.56
600.073	89.56
600.282	85.56
600.491	90.56
600.7	80.56
600.909	82.56
601.118	97.56
601.327	100.56
601.536	85.56
601.745	79.56
601.953	88.56
602.162	76.56
602.371	77.56
602.58	86.56
602.789	82.56
602.997	86.56
603.206	90.56
603.415	83.56
603.623	85.56
603.832	100.56
604.041	88.56
604.249	61.56
604.458	82.56
604.666	92.56
604.875	83.56
605.084	78.56
605.292	87.56
605.501	77.56
605.709	76.56
605.918	86.56
606.126	92.56
606.334	101.56
606.543	97.56
606.751	90.56
606.96	83.56
607.168	84.56
607.376	85.56
607.585	93.56
607.793	94.56
608.001	90.56
608.21	88.56
608.418	74.56
608.626	90.56
608.834	83.56
609.043	83.56
609.251	89.56
609.459	70.56
609.667	80.56
609.875	82.56
610.083	79.56
610.291	92.56
610.499	91.56
610.707	74.56
610.916	90.56
611.124	76.56
611.332	94.56
611.54	94.56
611.748	76.56
611.955	89.56
612.163	76.56
612.371	85.56
612.579	88.56
612.787	79.56
612.995	93.56
613.203	74.56
613.411	92.56
613.618	94.56
613.826	84.56
614.034	84.56
614.242	74.56
614.449	89.56
614.657	81.56
614.865	74.56
615.072	94.56
615.28	90.56
615.488	82.56
615.695	92.56
615.903	76.56
616.111	80.56
616.318	97.56
616.526	88.56
616.733	93.56
616.941	86.56
617.148	80.56
617.356	95.56
617.563	76.56
617.771	68.56
617.978	79.56
618.185	79.56
618.393	76.56
618.6	98.56
618.807	81.56
619.015	68.56
619.222	80.56
619.429	78.56
619.637	74.56
619.844	82.56
620.051	73.56
620.258	90.56
620.466	99.56
620.673	73.56
620.88	84.56
621.087	85.56
621.294	86.56
621.501	86.56
621.708	78.56
621.915	72.56
622.122	95.56
622.329	96.56
622.536	93.56
622.743	83.56
622.95	88.56
623.157	76.56
623.364	90.56
623.571	81.56
623.778	76.56
623.985	87.56
624.192	84.56
624.399	83.56
624.606	85.56
624.812	66.56
625.019	84.56
625.226	84.56
625.433	85.56
625.639	70.56
625.846	75.56
626.053	88.56
626.259	78.56
626.466	78.56
626.673	93.56
626.879	84.56
627.086	92.56
627.293	91.56
627.499	82.56
627.706	76.56
627.912	78.56
628.119	83.56
628.325	94.56
628.532	82.56
628.738	77.56
628.945	75.56
629.151	94.56
629.357	67.56
629.564	82.56
629.77	67.56
629.976	81.56
630.183	75.56
630.389	91.56
630.595	78.56
630.802	77.56
631.008	82.56
631.214	85.56
631.42	89.56
631.627	81.56
631.833	66.56
632.039	74.56
632.245	70.56
632.451	69.56
632.657	72.56
632.863	71.56
633.069	78.56
633.275	75.56
633.481	76.56
633.688	73.56
633.893	77.56
634.099	82.56
634.305	78.56
634.511	71.56
634.717	102.56
634.923	75.56
635.129	81.56
635.335	77.56
635.541	85.56
635.747	92.56
635.952	74.56
636.158	82.56
636.364	86.56
636.57	78.56
636.775	78.56
636.981	82.56
637.187	91.56
637.392	77.56
637.598	70.56
637.804	77.56
638.009	83.56
638.215	81.56
638.421	68.56
638.626	88.56
638.832	74.56
639.037	76.56
639.243	77.56
639.448	78.56
639.654	81.56
639.859	77.56
640.065	73.56
640.27	93.56
640.475	95.56
640.681	68.56
640.886	84.56
641.091	78.56
641.297	91.56
641.502	74.56
641.707	86.56
641.913	91.56
642.118	76.56
642.323	83.56
642.528	78.56
642.733	86.56
642.939	74.56
643.144	83.56
643.349	92.56
643.554	77.56
643.759	78.56
643.964	84.56
644.169	79.56
644.374	88.56
644.579	86.56
644.784	82.56
644.989	70.56
645.194	77.56
645.399	84.56
645.604	87.56
645.809	82.56
646.014	69.56
646.219	80.56
646.423	86.56
646.628	85.56
646.833	67.56
647.038	88.56
647.243	69.56
647.447	69.56
647.652	90.56
647.857	100.56
648.062	91.56
648.266	85.56
648.471	84.56
648.676	94.56
648.88	78.56
649.085	88.56
649.289	82.56
649.494	94.56
649.698	82.56
649.903	83.56
650.107	83.56
650.312	82.56
650.516	84.56
650.721	87.56
650.925	82.56
651.13	80.56
651.334	74.56
651.539	84.56
651.743	76.56
651.947	89.56
652.152	89.56
652.356	83.56
652.56	99.56
652.764	76.56
652.969	72.56
653.173	85.56
653.377	82.56
653.581	71.56
653.785	88.56
653.99	75.56
654.194	80.56
654.398	79.56
654.602	83.56
654.806	94.56
655.01	72.56
655.214	83.56
655.418	81.56
655.622	85.56
655.826	79.56
656.03	98.56
656.234	93.56
656.438	77.56
656.642	85.56
656.846	93.56
657.049	97.56
657.253	88.56
657.457	81.56
657.661	93.56
657.865	83.56
658.068	69.56
658.272	56.56
658.476	77.56
658.68	77.56
658.883	93.56
659.087	82.56
659.291	82.56
659.494	80.56
659.698	85.56
659.901	78.56
660.105	93.56
660.309	76.56
660.512	67.56
660.716	77.56
660.919	74.56
661.123	84.56
661.326	89.56
661.53	77.56
661.733	90.56
661.936	80.56
662.14	73.56
662.343	79.56
662.546	98.56
662.75	86.56
662.953	69.56
663.156	90.56
663.36	96.56
663.563	82.56
663.766	78.56
663.969	83.56
664.173	75.56
664.376	83.56
664.579	83.56
664.782	88.56
664.985	73.56
665.188	80.56
665.391	72.56
665.594	73.56
665.797	81.56
666	82.56
666.203	92.56
666.406	70.56
666.609	78.56
666.812	64.56
667.015	83.56
667.218	75.56
667.421	64.56
667.624	70.56
667.827	91.56
668.03	74.56
668.232	90.56
668.435	83.56
668.638	78.56
668.841	76.56
669.043	70.56
669.246	86.56
669.449	70.56
669.651	79.56
669.854	77.56
670.057	91.56
670.259	72.56
670.462	74.56
670.665	69.56
670.867	90.56
671.07	76.56
671.272	69.56
671.475	82.56
671.677	77.56
671.88	68.56
672.082	78.56
672.284	85.56
672.487	94.56
672.689	57.56
672.892	75.56
