Data from Dry_Prop_50_2_HRD10591_00003.txt Node
Date: Wed Dec 03 14:45:59 EST 2025
User: Yrep
Spectrometer: HR+D1059
Trigger mode: 1
Integration Time (sec): 1.000000E-1
Scans to average: 1
Electric dark correction enabled: true
Nonlinearity correction enabled: false
Boxcar width: 0
XAxis mode: Wavelengths
Number of Pixels in Spectrum: 2048
>>>>>Begin Spectral Data<<<<<
223.165	-11.62
223.4	-11.62
223.635	-11.62
223.869	-18.62
224.104	-18.62
224.338	-8.62
224.573	-22.62
224.808	-7.62
225.042	-13.62
225.277	0.38
225.511	3.38
225.746	9.38
225.98	7.38
226.215	9.38
226.449	9.38
226.683	28.38
226.918	14.38
227.152	19.38
227.387	39.38
227.621	33.38
227.856	34.38
228.09	43.38
228.324	47.38
228.559	52.38
228.793	41.38
229.027	68.38
229.262	69.38
229.496	67.38
229.73	73.38
229.964	63.38
230.199	69.38
230.433	86.38
230.667	71.38
230.901	61.38
231.136	66.38
231.37	84.38
231.604	87.38
231.838	91.38
232.072	76.38
232.306	73.38
232.541	70.38
232.775	70.38
233.009	63.38
233.243	80.38
233.477	85.38
233.711	94.38
233.945	83.38
234.179	67.38
234.413	89.38
234.647	89.38
234.881	82.38
235.115	79.38
235.349	71.38
235.583	74.38
235.817	72.38
236.051	87.38
236.285	73.38
236.519	72.38
236.753	77.38
236.987	67.38
237.221	79.38
237.455	82.38
237.689	79.38
237.922	82.38
238.156	67.38
238.39	64.38
238.624	72.38
238.858	73.38
239.091	86.38
239.325	84.38
239.559	74.38
239.793	78.38
240.027	75.38
240.26	80.38
240.494	85.38
240.728	73.38
240.961	67.38
241.195	76.38
241.429	88.38
241.662	89.38
241.896	83.38
242.13	61.38
242.363	69.38
242.597	69.38
242.83	78.38
243.064	70.38
243.298	87.38
243.531	77.38
243.765	93.38
243.998	73.38
244.232	69.38
244.465	69.38
244.699	69.38
244.932	78.38
245.166	81.38
245.399	75.38
245.633	70.38
245.866	73.38
246.099	78.38
246.333	74.38
246.566	68.38
246.8	69.38
247.033	76.38
247.266	74.38
247.5	66.38
247.733	68.38
247.966	84.38
248.2	85.38
248.433	87.38
248.666	80.38
248.899	74.38
249.133	85.38
249.366	71.38
249.599	78.38
249.832	63.38
250.066	89.38
250.299	84.38
250.532	69.38
250.765	71.38
250.998	63.38
251.231	75.38
251.465	68.38
251.698	89.38
251.931	77.38
252.164	83.38
252.397	62.38
252.63	98.38
252.863	70.38
253.096	81.38
253.329	75.38
253.562	76.38
253.795	81.38
254.028	75.38
254.261	82.38
254.494	86.38
254.727	90.38
254.96	77.38
255.193	89.38
255.426	89.38
255.659	79.38
255.892	74.38
256.124	82.38
256.357	82.38
256.59	77.38
256.823	74.38
257.056	70.38
257.289	78.38
257.521	68.38
257.754	66.38
257.987	83.38
258.22	76.38
258.452	86.38
258.685	77.38
258.918	66.38
259.151	82.38
259.383	83.38
259.616	94.38
259.849	85.38
260.081	65.38
260.314	82.38
260.547	85.38
260.779	83.38
261.012	77.38
261.244	77.38
261.477	82.38
261.71	75.38
261.942	79.38
262.175	92.38
262.407	82.38
262.64	81.38
262.872	85.38
263.105	68.38
263.337	84.38
263.57	74.38
263.802	75.38
264.035	71.38
264.267	82.38
264.499	82.38
264.732	85.38
264.964	83.38
265.197	79.38
265.429	77.38
265.661	86.38
265.894	88.38
266.126	82.38
266.358	90.38
266.591	72.38
266.823	83.38
267.055	78.38
267.287	82.38
267.52	73.38
267.752	83.38
267.984	71.38
268.216	69.38
268.448	74.38
268.681	89.38
268.913	70.38
269.145	84.38
269.377	69.38
269.609	91.38
269.841	95.38
270.073	96.38
270.306	97.38
270.538	76.38
270.77	74.38
271.002	72.38
271.234	83.38
271.466	83.38
271.698	91.38
271.93	93.38
272.162	81.38
272.394	105.38
272.626	77.38
272.858	93.38
273.09	75.38
273.322	74.38
273.553	74.38
273.785	79.38
274.017	83.38
274.249	80.38
274.481	91.38
274.713	85.38
274.945	83.38
275.176	71.38
275.408	81.38
275.64	78.38
275.872	85.38
276.104	91.38
276.335	79.38
276.567	70.38
276.799	80.38
277.031	81.38
277.262	81.38
277.494	84.38
277.726	75.38
277.957	94.38
278.189	78.38
278.421	81.38
278.652	97.38
278.884	89.38
279.115	80.38
279.347	78.38
279.579	66.38
279.81	74.38
280.042	80.38
280.273	79.38
280.505	81.38
280.736	80.38
280.968	93.38
281.199	73.38
281.431	72.38
281.662	102.38
281.894	66.38
282.125	82.38
282.356	94.38
282.588	79.38
282.819	97.38
283.051	82.38
283.282	89.38
283.513	77.38
283.745	81.38
283.976	78.38
284.207	89.38
284.439	91.38
284.67	87.38
284.901	85.38
285.132	87.38
285.364	86.38
285.595	79.38
285.826	85.38
286.057	95.38
286.288	93.38
286.52	84.38
286.751	68.38
286.982	84.38
287.213	80.38
287.444	82.38
287.675	77.38
287.906	91.38
288.138	76.38
288.369	90.38
288.6	82.38
288.831	74.38
289.062	77.38
289.293	75.38
289.524	81.38
289.755	95.38
289.986	78.38
290.217	96.38
290.448	75.38
290.679	81.38
290.91	76.38
291.141	93.38
291.371	80.38
291.602	85.38
291.833	79.38
292.064	87.38
292.295	86.38
292.526	92.38
292.757	89.38
292.987	98.38
293.218	79.38
293.449	84.38
293.68	77.38
293.91	81.38
294.141	76.38
294.372	81.38
294.603	75.38
294.833	78.38
295.064	93.38
295.295	78.38
295.525	75.38
295.756	84.38
295.987	90.38
296.217	89.38
296.448	78.38
296.679	89.38
296.909	76.38
297.14	95.38
297.37	86.38
297.601	97.38
297.831	74.38
298.062	80.38
298.292	80.38
298.523	74.38
298.753	86.38
298.984	100.38
299.214	82.38
299.445	75.38
299.675	78.38
299.905	82.38
300.136	85.38
300.366	85.38
300.597	93.38
300.827	86.38
301.057	83.38
301.288	90.38
301.518	74.38
301.748	86.38
301.979	96.38
302.209	93.38
302.439	94.38
302.669	78.38
302.9	79.38
303.13	86.38
303.36	90.38
303.59	84.38
303.82	81.38
304.051	93.38
304.281	89.38
304.511	79.38
304.741	74.38
304.971	82.38
305.201	93.38
305.431	79.38
305.661	89.38
305.891	91.38
306.121	78.38
306.352	83.38
306.582	90.38
306.812	85.38
307.042	93.38
307.272	82.38
307.502	89.38
307.731	85.38
307.961	68.38
308.191	80.38
308.421	86.38
308.651	85.38
308.881	82.38
309.111	88.38
309.341	94.38
309.571	96.38
309.8	83.38
310.03	69.38
310.26	82.38
310.49	77.38
310.72	79.38
310.949	80.38
311.179	89.38
311.409	83.38
311.639	70.38
311.868	92.38
312.098	97.38
312.328	74.38
312.557	86.38
312.787	83.38
313.017	79.38
313.246	77.38
313.476	102.38
313.706	88.38
313.935	91.38
314.165	86.38
314.394	84.38
314.624	66.38
314.853	87.38
315.083	77.38
315.312	82.38
315.542	82.38
315.771	81.38
316.001	70.38
316.23	78.38
316.46	91.38
316.689	95.38
316.919	83.38
317.148	81.38
317.377	92.38
317.607	77.38
317.836	85.38
318.065	70.38
318.295	83.38
318.524	78.38
318.753	73.38
318.983	84.38
319.212	96.38
319.441	89.38
319.67	96.38
319.9	73.38
320.129	83.38
320.358	71.38
320.587	71.38
320.816	85.38
321.046	84.38
321.275	87.38
321.504	71.38
321.733	80.38
321.962	91.38
322.191	92.38
322.42	78.38
322.649	84.38
322.878	83.38
323.108	90.38
323.337	71.38
323.566	98.38
323.795	92.38
324.024	82.38
324.253	76.38
324.482	90.38
324.71	94.38
324.939	80.38
325.168	89.38
325.397	87.38
325.626	85.38
325.855	69.38
326.084	96.38
326.313	97.38
326.542	74.38
326.77	87.38
326.999	78.38
327.228	76.38
327.457	73.38
327.686	94.38
327.914	85.38
328.143	80.38
328.372	84.38
328.6	94.38
328.829	89.38
329.058	84.38
329.287	82.38
329.515	89.38
329.744	83.38
329.972	77.38
330.201	77.38
330.43	90.38
330.658	84.38
330.887	89.38
331.115	91.38
331.344	91.38
331.572	95.38
331.801	78.38
332.03	86.38
332.258	85.38
332.486	73.38
332.715	82.38
332.943	88.38
333.172	90.38
333.4	75.38
333.629	79.38
333.857	85.38
334.085	78.38
334.314	86.38
334.542	85.38
334.771	90.38
334.999	87.38
335.227	89.38
335.455	92.38
335.684	86.38
335.912	79.38
336.14	79.38
336.369	76.38
336.597	86.38
336.825	81.38
337.053	82.38
337.281	77.38
337.51	86.38
337.738	82.38
337.966	102.38
338.194	80.38
338.422	82.38
338.65	83.38
338.878	78.38
339.106	85.38
339.334	85.38
339.562	92.38
339.79	95.38
340.018	79.38
340.246	84.38
340.474	83.38
340.702	90.38
340.93	71.38
341.158	89.38
341.386	101.38
341.614	85.38
341.842	71.38
342.07	80.38
342.298	89.38
342.526	89.38
342.754	81.38
342.981	71.38
343.209	80.38
343.437	87.38
343.665	89.38
343.893	85.38
344.12	84.38
344.348	98.38
344.576	89.38
344.804	75.38
345.031	69.38
345.259	82.38
345.487	76.38
345.714	89.38
345.942	76.38
346.17	93.38
346.397	82.38
346.625	83.38
346.853	94.38
347.08	81.38
347.308	86.38
347.535	91.38
347.763	74.38
347.99	73.38
348.218	81.38
348.445	70.38
348.673	71.38
348.9	89.38
349.128	81.38
349.355	82.38
349.583	76.38
349.81	74.38
350.037	82.38
350.265	68.38
350.492	78.38
350.72	68.38
350.947	91.38
351.174	93.38
351.402	77.38
351.629	67.38
351.856	75.38
352.083	70.38
352.311	83.38
352.538	89.38
352.765	87.38
352.992	92.38
353.22	84.38
353.447	76.38
353.674	78.38
353.901	91.38
354.128	81.38
354.355	85.38
354.583	90.38
354.81	82.38
355.037	83.38
355.264	87.38
355.491	73.38
355.718	78.38
355.945	82.38
356.172	82.38
356.399	86.38
356.626	90.38
356.853	85.38
357.08	82.38
357.307	75.38
357.534	90.38
357.761	97.38
357.988	72.38
358.215	89.38
358.441	81.38
358.668	81.38
358.895	85.38
359.122	80.38
359.349	86.38
359.576	83.38
359.802	75.38
360.029	90.38
360.256	84.38
360.483	77.38
360.709	62.38
360.936	95.38
361.163	82.38
361.39	69.38
361.616	82.38
361.843	79.38
362.07	77.38
362.296	94.38
362.523	83.38
362.749	69.38
362.976	93.38
363.203	84.38
363.429	82.38
363.656	78.38
363.882	91.38
364.109	90.38
364.335	75.38
364.562	86.38
364.788	77.38
365.015	93.38
365.241	83.38
365.468	81.38
365.694	92.38
365.92	75.38
366.147	87.38
366.373	84.38
366.599	97.38
366.826	76.38
367.052	87.38
367.278	90.38
367.505	83.38
367.731	97.38
367.957	87.38
368.184	81.38
368.41	96.38
368.636	77.38
368.862	86.38
369.089	77.38
369.315	92.38
369.541	69.38
369.767	82.38
369.993	89.38
370.219	81.38
370.445	98.38
370.672	88.38
370.898	73.38
371.124	77.38
371.35	65.38
371.576	77.38
371.802	77.38
372.028	63.38
372.254	76.38
372.48	95.38
372.706	87.38
372.932	82.38
373.158	89.38
373.384	74.38
373.61	85.38
373.835	64.38
374.061	70.38
374.287	74.38
374.513	86.38
374.739	78.38
374.965	91.38
375.191	85.38
375.416	62.38
375.642	81.38
375.868	87.38
376.094	91.38
376.319	70.38
376.545	81.38
376.771	96.38
376.997	76.38
377.222	84.38
377.448	91.38
377.674	81.38
377.899	75.38
378.125	83.38
378.35	81.38
378.576	69.38
378.802	74.38
379.027	85.38
379.253	71.38
379.478	80.38
379.704	88.38
379.929	74.38
380.155	85.38
380.38	73.38
380.606	75.38
380.831	84.38
381.057	95.38
381.282	86.38
381.507	84.38
381.733	84.38
381.958	80.38
382.184	92.38
382.409	85.38
382.634	83.38
382.86	76.38
383.085	93.38
383.31	84.38
383.535	85.38
383.761	81.38
383.986	79.38
384.211	88.38
384.436	69.38
384.662	84.38
384.887	69.38
385.112	95.38
385.337	92.38
385.562	77.38
385.787	82.38
386.013	71.38
386.238	75.38
386.463	83.38
386.688	95.38
386.913	76.38
387.138	81.38
387.363	90.38
387.588	79.38
387.813	82.38
388.038	84.38
388.263	80.38
388.488	79.38
388.713	83.38
388.938	89.38
389.163	85.38
389.387	78.38
389.612	84.38
389.837	75.38
390.062	68.38
390.287	83.38
390.512	81.38
390.736	77.38
390.961	99.38
391.186	85.38
391.411	73.38
391.636	73.38
391.86	91.38
392.085	91.38
392.31	81.38
392.534	87.38
392.759	70.38
392.984	77.38
393.208	75.38
393.433	86.38
393.658	99.38
393.882	82.38
394.107	73.38
394.331	69.38
394.556	81.38
394.78	93.38
395.005	85.38
395.229	78.38
395.454	66.38
395.678	84.38
395.903	73.38
396.127	61.38
396.352	86.38
396.576	83.38
396.801	81.38
397.025	70.38
397.249	84.38
397.474	93.38
397.698	83.38
397.922	89.38
398.147	93.38
398.371	76.38
398.595	78.38
398.82	86.38
399.044	97.38
399.268	89.38
399.492	85.38
399.717	97.38
399.941	85.38
400.165	82.38
400.389	82.38
400.613	86.38
400.837	78.38
401.062	82.38
401.286	70.38
401.51	98.38
401.734	82.38
401.958	70.38
402.182	75.38
402.406	69.38
402.63	74.38
402.854	91.38
403.078	93.38
403.302	86.38
403.526	93.38
403.75	64.38
403.974	92.38
404.198	88.38
404.422	73.38
404.645	91.38
404.869	87.38
405.093	80.38
405.317	73.38
405.541	79.38
405.765	76.38
405.988	82.38
406.212	70.38
406.436	85.38
406.66	97.38
406.883	85.38
407.107	71.38
407.331	87.38
407.555	85.38
407.778	61.38
408.002	81.38
408.226	87.38
408.449	75.38
408.673	79.38
408.896	79.38
409.12	85.38
409.344	67.38
409.567	79.38
409.791	73.38
410.014	91.38
410.238	97.38
410.461	75.38
410.685	76.38
410.908	91.38
411.132	82.38
411.355	84.38
411.578	93.38
411.802	77.38
412.025	79.38
412.249	96.38
412.472	81.38
412.695	74.38
412.919	66.38
413.142	76.38
413.365	79.38
413.589	79.38
413.812	82.38
414.035	75.38
414.258	82.38
414.482	62.38
414.705	79.38
414.928	93.38
415.151	75.38
415.374	76.38
415.597	82.38
415.821	77.38
416.044	82.38
416.267	67.38
416.49	72.38
416.713	71.38
416.936	77.38
417.159	77.38
417.382	69.38
417.605	77.38
417.828	79.38
418.051	83.38
418.274	69.38
418.497	86.38
418.72	67.38
418.943	69.38
419.166	82.38
419.389	89.38
419.611	86.38
419.834	82.38
420.057	76.38
420.28	84.38
420.503	94.38
420.726	79.38
420.948	88.38
421.171	76.38
421.394	80.38
421.617	69.38
421.839	85.38
422.062	72.38
422.285	76.38
422.507	79.38
422.73	88.38
422.953	71.38
423.175	75.38
423.398	86.38
423.621	81.38
423.843	82.38
424.066	82.38
424.288	86.38
424.511	82.38
424.733	79.38
424.956	92.38
425.178	77.38
425.401	76.38
425.623	90.38
425.846	76.38
426.068	68.38
426.291	80.38
426.513	68.38
426.735	91.38
426.958	83.38
427.18	86.38
427.402	75.38
427.625	80.38
427.847	82.38
428.069	85.38
428.292	103.38
428.514	77.38
428.736	75.38
428.958	96.38
429.181	78.38
429.403	76.38
429.625	84.38
429.847	77.38
430.069	81.38
430.292	67.38
430.514	77.38
430.736	71.38
430.958	74.38
431.18	100.38
431.402	71.38
431.624	76.38
431.846	86.38
432.068	81.38
432.29	82.38
432.512	86.38
432.734	86.38
432.956	79.38
433.178	80.38
433.4	57.38
433.622	75.38
433.844	93.38
434.066	81.38
434.287	71.38
434.509	77.38
434.731	89.38
434.953	81.38
435.175	95.38
435.397	79.38
435.618	78.38
435.84	90.38
436.062	74.38
436.284	68.38
436.505	76.38
436.727	91.38
436.949	85.38
437.17	88.38
437.392	80.38
437.614	86.38
437.835	78.38
438.057	73.38
438.278	79.38
438.5	86.38
438.721	73.38
438.943	81.38
439.165	84.38
439.386	72.38
439.608	84.38
439.829	86.38
440.05	64.38
440.272	69.38
440.493	87.38
440.715	77.38
440.936	78.38
441.158	86.38
441.379	80.38
441.6	81.38
441.822	69.38
442.043	78.38
442.264	88.38
442.486	83.38
442.707	78.38
442.928	76.38
443.149	73.38
443.371	79.38
443.592	82.38
443.813	75.38
444.034	78.38
444.255	80.38
444.476	74.38
444.698	95.38
444.919	80.38
445.14	148.38
445.361	109.38
445.582	87.38
445.803	79.38
446.024	89.38
446.245	87.38
446.466	85.38
446.687	89.38
446.908	73.38
447.129	80.38
447.35	68.38
447.571	73.38
447.792	74.38
448.013	69.38
448.234	79.38
448.455	81.38
448.675	68.38
448.896	82.38
449.117	73.38
449.338	73.38
449.559	78.38
449.779	81.38
450	80.38
450.221	71.38
450.442	90.38
450.662	93.38
450.883	73.38
451.104	76.38
451.324	80.38
451.545	86.38
451.766	91.38
451.986	94.38
452.207	77.38
452.428	86.38
452.648	82.38
452.869	90.38
453.089	78.38
453.31	80.38
453.53	72.38
453.751	87.38
453.971	72.38
454.192	82.38
454.412	78.38
454.633	82.38
454.853	60.38
455.073	90.38
455.294	70.38
455.514	87.38
455.734	73.38
455.955	82.38
456.175	73.38
456.395	83.38
456.616	78.38
456.836	85.38
457.056	90.38
457.276	73.38
457.497	67.38
457.717	74.38
457.937	84.38
458.157	76.38
458.377	77.38
458.598	78.38
458.818	72.38
459.038	87.38
459.258	76.38
459.478	93.38
459.698	69.38
459.918	73.38
460.138	74.38
460.358	81.38
460.578	96.38
460.798	75.38
461.018	95.38
461.238	73.38
461.458	76.38
461.678	90.38
461.898	93.38
462.118	78.38
462.338	71.38
462.558	85.38
462.777	70.38
462.997	82.38
463.217	74.38
463.437	86.38
463.657	83.38
463.876	79.38
464.096	89.38
464.316	81.38
464.536	78.38
464.755	99.38
464.975	77.38
465.195	99.38
465.414	89.38
465.634	93.38
465.854	92.38
466.073	87.38
466.293	82.38
466.512	87.38
466.732	78.38
466.951	81.38
467.171	87.38
467.391	98.38
467.61	86.38
467.829	83.38
468.049	83.38
468.268	69.38
468.488	78.38
468.707	66.38
468.927	77.38
469.146	83.38
469.365	87.38
469.585	83.38
469.804	71.38
470.023	80.38
470.243	75.38
470.462	79.38
470.681	84.38
470.901	74.38
471.12	85.38
471.339	74.38
471.558	80.38
471.777	86.38
471.997	85.38
472.216	73.38
472.435	77.38
472.654	86.38
472.873	79.38
473.092	78.38
473.311	81.38
473.53	70.38
473.749	72.38
473.968	82.38
474.187	75.38
474.406	74.38
474.625	98.38
474.844	83.38
475.063	93.38
475.282	75.38
475.501	81.38
475.72	82.38
475.939	78.38
476.158	82.38
476.377	69.38
476.596	80.38
476.814	90.38
477.033	83.38
477.252	76.38
477.471	79.38
477.69	69.38
477.908	86.38
478.127	87.38
478.346	74.38
478.564	80.38
478.783	95.38
479.002	89.38
479.22	86.38
479.439	82.38
479.658	85.38
479.876	89.38
480.095	66.38
480.313	68.38
480.532	73.38
480.751	80.38
480.969	76.38
481.188	77.38
481.406	82.38
481.624	75.38
481.843	65.38
482.061	66.38
482.28	80.38
482.498	68.38
482.717	74.38
482.935	81.38
483.153	86.38
483.372	79.38
483.59	80.38
483.808	82.38
484.027	72.38
484.245	71.38
484.463	95.38
484.681	98.38
484.9	74.38
485.118	71.38
485.336	67.38
485.554	73.38
485.772	85.38
485.99	91.38
486.209	87.38
486.427	77.38
486.645	89.38
486.863	82.38
487.081	67.38
487.299	82.38
487.517	78.38
487.735	79.38
487.953	83.38
488.171	88.38
488.389	83.38
488.607	84.38
488.825	78.38
489.043	80.38
489.261	77.38
489.479	61.38
489.696	63.38
489.914	79.38
490.132	82.38
490.35	89.38
490.568	74.38
490.786	89.38
491.003	92.38
491.221	82.38
491.439	68.38
491.657	86.38
491.874	85.38
492.092	84.38
492.31	71.38
492.527	85.38
492.745	88.38
492.963	93.38
493.18	79.38
493.398	75.38
493.615	85.38
493.833	78.38
494.05	86.38
494.268	69.38
494.485	95.38
494.703	84.38
494.92	86.38
495.138	67.38
495.355	75.38
495.573	80.38
495.79	78.38
496.008	85.38
496.225	82.38
496.442	84.38
496.66	82.38
496.877	79.38
497.094	89.38
497.312	80.38
497.529	72.38
497.746	75.38
497.963	85.38
498.181	77.38
498.398	83.38
498.615	84.38
498.832	76.38
499.049	92.38
499.267	93.38
499.484	77.38
499.701	82.38
499.918	88.38
500.135	78.38
500.352	86.38
500.569	96.38
500.786	83.38
501.003	87.38
501.22	82.38
501.437	79.38
501.654	83.38
501.871	89.38
502.088	81.38
502.305	79.38
502.522	83.38
502.739	92.38
502.956	74.38
503.172	77.38
503.389	73.38
503.606	89.38
503.823	87.38
504.04	79.38
504.256	81.38
504.473	78.38
504.69	89.38
504.907	92.38
505.123	82.38
505.34	91.38
505.557	83.38
505.773	75.38
505.99	73.38
506.207	83.38
506.423	70.38
506.64	68.38
506.856	70.38
507.073	92.38
507.289	93.38
507.506	84.38
507.722	81.38
507.939	71.38
508.155	75.38
508.372	79.38
508.588	81.38
508.805	84.38
509.021	87.38
509.238	84.38
509.454	77.38
509.67	68.38
509.887	81.38
510.103	79.38
510.319	75.38
510.536	73.38
510.752	86.38
510.968	95.38
511.184	84.38
511.401	80.38
511.617	85.38
511.833	69.38
512.049	77.38
512.265	76.38
512.481	78.38
512.698	74.38
512.914	81.38
513.13	80.38
513.346	81.38
513.562	81.38
513.778	90.38
513.994	93.38
514.21	82.38
514.426	70.38
514.642	90.38
514.858	71.38
515.074	78.38
515.29	69.38
515.506	75.38
515.721	77.38
515.937	86.38
516.153	77.38
516.369	82.38
516.585	81.38
516.801	80.38
517.016	95.38
517.232	85.38
517.448	77.38
517.664	69.38
517.879	89.38
518.095	82.38
518.311	89.38
518.527	78.38
518.742	77.38
518.958	91.38
519.173	70.38
519.389	93.38
519.605	78.38
519.82	78.38
520.036	86.38
520.251	78.38
520.467	74.38
520.682	89.38
520.898	89.38
521.113	77.38
521.329	99.38
521.544	91.38
521.76	85.38
521.975	75.38
522.19	84.38
522.406	77.38
522.621	85.38
522.836	89.38
523.052	85.38
523.267	89.38
523.482	74.38
523.698	84.38
523.913	85.38
524.128	103.38
524.343	85.38
524.559	83.38
524.774	77.38
524.989	77.38
525.204	92.38
525.419	99.38
525.634	90.38
525.849	71.38
526.064	93.38
526.28	80.38
526.495	100.38
526.71	87.38
526.925	82.38
527.14	81.38
527.355	69.38
527.57	78.38
527.785	88.38
527.999	72.38
528.214	84.38
528.429	76.38
528.644	85.38
528.859	73.38
529.074	90.38
529.289	77.38
529.503	91.38
529.718	83.38
529.933	77.38
530.148	84.38
530.363	81.38
530.577	80.38
530.792	76.38
531.007	78.38
531.221	79.38
531.436	70.38
531.651	92.38
531.865	93.38
532.08	79.38
532.295	89.38
532.509	65.38
532.724	89.38
532.938	86.38
533.153	71.38
533.367	85.38
533.582	83.38
533.796	97.38
534.011	80.38
534.225	76.38
534.44	77.38
534.654	54.38
534.868	85.38
535.083	82.38
535.297	90.38
535.511	80.38
535.726	106.38
535.94	94.38
536.154	89.38
536.369	91.38
536.583	86.38
536.797	89.38
537.011	96.38
537.225	82.38
537.44	80.38
537.654	90.38
537.868	84.38
538.082	89.38
538.296	79.38
538.51	84.38
538.724	83.38
538.938	74.38
539.153	70.38
539.367	84.38
539.581	85.38
539.795	81.38
540.009	77.38
540.222	87.38
540.436	84.38
540.65	74.38
540.864	85.38
541.078	86.38
541.292	86.38
541.506	93.38
541.72	86.38
541.934	85.38
542.147	83.38
542.361	78.38
542.575	77.38
542.789	82.38
543.002	93.38
543.216	76.38
543.43	96.38
543.644	71.38
543.857	93.38
544.071	74.38
544.285	85.38
544.498	99.38
544.712	71.38
544.925	91.38
545.139	93.38
545.352	88.38
545.566	80.38
545.779	75.38
545.993	90.38
546.206	79.38
546.42	84.38
546.633	89.38
546.847	85.38
547.06	79.38
547.274	86.38
547.487	83.38
547.7	83.38
547.914	78.38
548.127	84.38
548.34	78.38
548.554	92.38
548.767	79.38
548.98	82.38
549.193	75.38
549.407	89.38
549.62	84.38
549.833	83.38
550.046	91.38
550.259	89.38
550.473	76.38
550.686	84.38
550.899	82.38
551.112	84.38
551.325	80.38
551.538	78.38
551.751	70.38
551.964	107.38
552.177	75.38
552.39	92.38
552.603	90.38
552.816	77.38
553.029	77.38
553.242	74.38
553.455	78.38
553.667	96.38
553.88	94.38
554.093	85.38
554.306	88.38
554.519	86.38
554.732	87.38
554.944	89.38
555.157	93.38
555.37	79.38
555.583	91.38
555.795	93.38
556.008	77.38
556.221	79.38
556.433	74.38
556.646	81.38
556.859	90.38
557.071	89.38
557.284	84.38
557.496	80.38
557.709	79.38
557.921	73.38
558.134	79.38
558.346	78.38
558.559	83.38
558.771	84.38
558.984	84.38
559.196	71.38
559.409	80.38
559.621	87.38
559.833	87.38
560.046	73.38
560.258	79.38
560.47	85.38
560.683	89.38
560.895	78.38
561.107	94.38
561.32	79.38
561.532	79.38
561.744	81.38
561.956	75.38
562.168	85.38
562.381	77.38
562.593	80.38
562.805	74.38
563.017	91.38
563.229	94.38
563.441	89.38
563.653	95.38
563.865	85.38
564.077	78.38
564.289	85.38
564.501	92.38
564.713	90.38
564.925	75.38
565.137	81.38
565.349	97.38
565.561	74.38
565.773	86.38
565.985	95.38
566.197	86.38
566.408	82.38
566.62	91.38
566.832	75.38
567.044	85.38
567.255	79.38
567.467	70.38
567.679	89.38
567.891	81.38
568.102	78.38
568.314	84.38
568.526	97.38
568.737	86.38
568.949	69.38
569.161	81.38
569.372	75.38
569.584	82.38
569.795	81.38
570.007	94.38
570.218	89.38
570.43	85.38
570.641	86.38
570.853	81.38
571.064	79.38
571.276	79.38
571.487	94.38
571.698	84.38
571.91	74.38
572.121	91.38
572.333	73.38
572.544	68.38
572.755	64.38
572.966	81.38
573.178	89.38
573.389	86.38
573.6	85.38
573.811	85.38
574.023	85.38
574.234	79.38
574.445	88.38
574.656	74.38
574.867	78.38
575.078	75.38
575.289	81.38
575.501	83.38
575.712	71.38
575.923	81.38
576.134	77.38
576.345	76.38
576.556	82.38
576.767	91.38
576.978	81.38
577.188	91.38
577.399	86.38
577.61	82.38
577.821	86.38
578.032	89.38
578.243	82.38
578.454	77.38
578.665	70.38
578.875	78.38
579.086	75.38
579.297	81.38
579.508	96.38
579.718	91.38
579.929	89.38
580.14	77.38
580.35	85.38
580.561	91.38
580.772	76.38
580.982	71.38
581.193	90.38
581.403	83.38
581.614	75.38
581.825	57.38
582.035	85.38
582.246	77.38
582.456	83.38
582.667	82.38
582.877	97.38
583.087	86.38
583.298	78.38
583.508	85.38
583.719	91.38
583.929	82.38
584.139	89.38
584.35	77.38
584.56	87.38
584.77	73.38
584.981	85.38
585.191	80.38
585.401	90.38
585.611	71.38
585.821	90.38
586.032	90.38
586.242	86.38
586.452	83.38
586.662	83.38
586.872	83.38
587.082	81.38
587.292	82.38
587.502	73.38
587.713	82.38
587.923	99.38
588.133	84.38
588.343	70.38
588.553	73.38
588.762	107.38
588.972	105.38
589.182	185.38
589.392	105.38
589.602	101.38
589.812	160.38
590.022	118.38
590.232	89.38
590.441	103.38
590.651	87.38
590.861	87.38
591.071	90.38
591.281	81.38
591.49	86.38
591.7	89.38
591.91	71.38
592.119	78.38
592.329	81.38
592.539	67.38
592.748	93.38
592.958	94.38
593.167	77.38
593.377	86.38
593.587	81.38
593.796	75.38
594.006	92.38
594.215	79.38
594.424	73.38
594.634	80.38
594.843	93.38
595.053	81.38
595.262	91.38
595.472	79.38
595.681	75.38
595.89	81.38
596.1	86.38
596.309	89.38
596.518	76.38
596.727	89.38
596.937	93.38
597.146	66.38
597.355	83.38
597.564	69.38
597.774	80.38
597.983	86.38
598.192	97.38
598.401	79.38
598.61	83.38
598.819	91.38
599.028	69.38
599.237	79.38
599.446	80.38
599.655	73.38
599.864	74.38
600.073	79.38
600.282	90.38
600.491	86.38
600.7	93.38
600.909	84.38
601.118	93.38
601.327	86.38
601.536	92.38
601.745	89.38
601.953	71.38
602.162	84.38
602.371	77.38
602.58	91.38
602.789	97.38
602.997	78.38
603.206	84.38
603.415	80.38
603.623	92.38
603.832	78.38
604.041	81.38
604.249	84.38
604.458	92.38
604.666	91.38
604.875	88.38
605.084	84.38
605.292	79.38
605.501	85.38
605.709	85.38
605.918	82.38
606.126	84.38
606.334	93.38
606.543	93.38
606.751	85.38
606.96	85.38
607.168	79.38
607.376	81.38
607.585	103.38
607.793	84.38
608.001	98.38
608.21	97.38
608.418	87.38
608.626	77.38
608.834	78.38
609.043	89.38
609.251	81.38
609.459	78.38
609.667	84.38
609.875	81.38
610.083	83.38
610.291	82.38
610.499	93.38
610.707	94.38
610.916	84.38
611.124	86.38
611.332	86.38
611.54	70.38
611.748	76.38
611.955	97.38
612.163	89.38
612.371	85.38
612.579	69.38
612.787	77.38
612.995	85.38
613.203	82.38
613.411	84.38
613.618	84.38
613.826	79.38
614.034	83.38
614.242	91.38
614.449	95.38
614.657	78.38
614.865	85.38
615.072	91.38
615.28	78.38
615.488	91.38
615.695	79.38
615.903	87.38
616.111	89.38
616.318	89.38
616.526	94.38
616.733	73.38
616.941	65.38
617.148	79.38
617.356	95.38
617.563	68.38
617.771	109.38
617.978	76.38
618.185	98.38
618.393	73.38
618.6	80.38
618.807	79.38
619.015	96.38
619.222	76.38
619.429	91.38
619.637	65.38
619.844	90.38
620.051	78.38
620.258	81.38
620.466	76.38
620.673	88.38
620.88	82.38
621.087	76.38
621.294	87.38
621.501	90.38
621.708	83.38
621.915	73.38
622.122	75.38
622.329	85.38
622.536	90.38
622.743	71.38
622.95	76.38
623.157	74.38
623.364	79.38
623.571	81.38
623.778	91.38
623.985	86.38
624.192	90.38
624.399	83.38
624.606	77.38
624.812	81.38
625.019	58.38
625.226	77.38
625.433	98.38
625.639	90.38
625.846	86.38
626.053	61.38
626.259	61.38
626.466	93.38
626.673	94.38
626.879	86.38
627.086	81.38
627.293	77.38
627.499	77.38
627.706	80.38
627.912	82.38
628.119	74.38
628.325	90.38
628.532	74.38
628.738	77.38
628.945	82.38
629.151	81.38
629.357	83.38
629.564	77.38
629.77	82.38
629.976	88.38
630.183	67.38
630.389	74.38
630.595	91.38
630.802	84.38
631.008	70.38
631.214	81.38
631.42	76.38
631.627	91.38
631.833	84.38
632.039	73.38
632.245	82.38
632.451	70.38
632.657	75.38
632.863	79.38
633.069	80.38
633.275	78.38
633.481	84.38
633.688	87.38
633.893	79.38
634.099	82.38
634.305	77.38
634.511	85.38
634.717	80.38
634.923	74.38
635.129	81.38
635.335	77.38
635.541	80.38
635.747	74.38
635.952	78.38
636.158	82.38
636.364	77.38
636.57	77.38
636.775	81.38
636.981	85.38
637.187	89.38
637.392	69.38
637.598	77.38
637.804	85.38
638.009	71.38
638.215	96.38
638.421	86.38
638.626	69.38
638.832	81.38
639.037	87.38
639.243	88.38
639.448	89.38
639.654	85.38
639.859	76.38
640.065	65.38
640.27	77.38
640.475	105.38
640.681	71.38
640.886	95.38
641.091	90.38
641.297	82.38
641.502	83.38
641.707	93.38
641.913	75.38
642.118	79.38
642.323	82.38
642.528	79.38
642.733	83.38
642.939	84.38
643.144	73.38
643.349	74.38
643.554	59.38
643.759	77.38
643.964	81.38
644.169	83.38
644.374	90.38
644.579	79.38
644.784	87.38
644.989	77.38
645.194	92.38
645.399	90.38
645.604	77.38
645.809	80.38
646.014	73.38
646.219	73.38
646.423	63.38
646.628	75.38
646.833	95.38
647.038	69.38
647.243	93.38
647.447	78.38
647.652	89.38
647.857	79.38
648.062	86.38
648.266	83.38
648.471	77.38
648.676	88.38
648.88	84.38
649.085	73.38
649.289	75.38
649.494	78.38
649.698	87.38
649.903	98.38
650.107	80.38
650.312	78.38
650.516	78.38
650.721	78.38
650.925	75.38
651.13	93.38
651.334	73.38
651.539	89.38
651.743	73.38
651.947	65.38
652.152	68.38
652.356	76.38
652.56	76.38
652.764	84.38
652.969	81.38
653.173	75.38
653.377	73.38
653.581	94.38
653.785	93.38
653.99	84.38
654.194	81.38
654.398	71.38
654.602	77.38
654.806	84.38
655.01	82.38
655.214	73.38
655.418	77.38
655.622	84.38
655.826	81.38
656.03	71.38
656.234	90.38
656.438	96.38
656.642	86.38
656.846	105.38
657.049	72.38
657.253	76.38
657.457	83.38
657.661	83.38
657.865	80.38
658.068	91.38
658.272	83.38
658.476	62.38
658.68	86.38
658.883	58.38
659.087	92.38
659.291	90.38
659.494	87.38
659.698	69.38
659.901	89.38
660.105	76.38
660.309	71.38
660.512	80.38
660.716	80.38
660.919	77.38
661.123	73.38
661.326	77.38
661.53	78.38
661.733	95.38
661.936	70.38
662.14	78.38
662.343	78.38
662.546	75.38
662.75	85.38
662.953	97.38
663.156	88.38
663.36	66.38
663.563	67.38
663.766	83.38
663.969	90.38
664.173	77.38
664.376	66.38
664.579	65.38
664.782	84.38
664.985	71.38
665.188	82.38
665.391	81.38
665.594	84.38
665.797	66.38
666	86.38
666.203	71.38
666.406	77.38
666.609	85.38
666.812	81.38
667.015	79.38
667.218	91.38
667.421	80.38
667.624	91.38
667.827	86.38
668.03	77.38
668.232	72.38
668.435	71.38
668.638	79.38
668.841	75.38
669.043	75.38
669.246	84.38
669.449	69.38
669.651	89.38
669.854	94.38
670.057	75.38
670.259	74.38
670.462	71.38
670.665	74.38
670.867	62.38
671.07	86.38
671.272	81.38
671.475	90.38
671.677	95.38
671.88	85.38
672.082	87.38
672.284	89.38
672.487	85.38
672.689	83.38
672.892	86.38
