Data from Uncirc_1998_H10_HRD10591_00020.txt Node
Date: Wed Jan 03 11:25:28 EST 2024
User: Yrep
Spectrometer: HR+D1059
Trigger mode: 1
Integration Time (sec): 1.000000E-1
Scans to average: 1
Electric dark correction enabled: true
Nonlinearity correction enabled: false
Boxcar width: 0
XAxis mode: Wavelengths
Number of Pixels in Spectrum: 2048
>>>>>Begin Spectral Data<<<<<
223.165	-20.88
223.4	-20.88
223.635	-20.88
223.869	-14.88
224.104	-14.88
224.338	-21.88
224.573	-13.88
224.808	-6.88
225.042	11.12
225.277	6.12
225.511	-0.88
225.746	-7.88
225.98	2.12
226.215	4.12
226.449	12.12
226.683	14.12
226.918	14.12
227.152	38.12
227.387	35.12
227.621	29.12
227.856	31.12
228.09	44.12
228.324	40.12
228.559	52.12
228.793	54.12
229.027	74.12
229.262	53.12
229.496	78.12
229.73	89.12
229.964	90.12
230.199	80.12
230.433	74.12
230.667	73.12
230.901	79.12
231.136	68.12
231.37	86.12
231.604	83.12
231.838	92.12
232.072	97.12
232.306	79.12
232.541	74.12
232.775	89.12
233.009	82.12
233.243	89.12
233.477	76.12
233.711	92.12
233.945	81.12
234.179	82.12
234.413	83.12
234.647	88.12
234.881	63.12
235.115	73.12
235.349	74.12
235.583	94.12
235.817	78.12
236.051	66.12
236.285	78.12
236.519	72.12
236.753	81.12
236.987	72.12
237.221	90.12
237.455	79.12
237.689	76.12
237.922	65.12
238.156	81.12
238.39	83.12
238.624	67.12
238.858	77.12
239.091	66.12
239.325	66.12
239.559	76.12
239.793	70.12
240.027	60.12
240.26	75.12
240.494	79.12
240.728	67.12
240.961	78.12
241.195	70.12
241.429	77.12
241.662	83.12
241.896	82.12
242.13	82.12
242.363	83.12
242.597	82.12
242.83	76.12
243.064	72.12
243.298	87.12
243.531	71.12
243.765	87.12
243.998	78.12
244.232	79.12
244.465	90.12
244.699	71.12
244.932	78.12
245.166	89.12
245.399	76.12
245.633	67.12
245.866	65.12
246.099	63.12
246.333	75.12
246.566	74.12
246.8	91.12
247.033	81.12
247.266	86.12
247.5	90.12
247.733	88.12
247.966	80.12
248.2	82.12
248.433	79.12
248.666	64.12
248.899	86.12
249.133	90.12
249.366	90.12
249.599	98.12
249.832	86.12
250.066	82.12
250.299	88.12
250.532	90.12
250.765	74.12
250.998	84.12
251.231	88.12
251.465	81.12
251.698	72.12
251.931	80.12
252.164	76.12
252.397	76.12
252.63	81.12
252.863	78.12
253.096	73.12
253.329	76.12
253.562	82.12
253.795	90.12
254.028	91.12
254.261	76.12
254.494	87.12
254.727	89.12
254.96	90.12
255.193	73.12
255.426	88.12
255.659	65.12
255.892	86.12
256.124	72.12
256.357	76.12
256.59	72.12
256.823	82.12
257.056	84.12
257.289	75.12
257.521	83.12
257.754	77.12
257.987	84.12
258.22	82.12
258.452	79.12
258.685	99.12
258.918	88.12
259.151	89.12
259.383	82.12
259.616	72.12
259.849	83.12
260.081	88.12
260.314	85.12
260.547	74.12
260.779	78.12
261.012	81.12
261.244	79.12
261.477	86.12
261.71	91.12
261.942	88.12
262.175	115.12
262.407	87.12
262.64	78.12
262.872	78.12
263.105	97.12
263.337	81.12
263.57	86.12
263.802	84.12
264.035	75.12
264.267	83.12
264.499	89.12
264.732	73.12
264.964	86.12
265.197	95.12
265.429	77.12
265.661	81.12
265.894	89.12
266.126	88.12
266.358	87.12
266.591	82.12
266.823	77.12
267.055	74.12
267.287	90.12
267.52	84.12
267.752	70.12
267.984	91.12
268.216	80.12
268.448	88.12
268.681	94.12
268.913	64.12
269.145	82.12
269.377	84.12
269.609	84.12
269.841	93.12
270.073	69.12
270.306	84.12
270.538	91.12
270.77	84.12
271.002	88.12
271.234	82.12
271.466	75.12
271.698	71.12
271.93	80.12
272.162	87.12
272.394	84.12
272.626	110.12
272.858	94.12
273.09	78.12
273.322	90.12
273.553	88.12
273.785	85.12
274.017	88.12
274.249	88.12
274.481	92.12
274.713	77.12
274.945	94.12
275.176	84.12
275.408	62.12
275.64	92.12
275.872	87.12
276.104	91.12
276.335	85.12
276.567	90.12
276.799	101.12
277.031	89.12
277.262	84.12
277.494	74.12
277.726	88.12
277.957	78.12
278.189	84.12
278.421	89.12
278.652	96.12
278.884	82.12
279.115	86.12
279.347	88.12
279.579	88.12
279.81	84.12
280.042	100.12
280.273	92.12
280.505	78.12
280.736	92.12
280.968	82.12
281.199	76.12
281.431	89.12
281.662	95.12
281.894	70.12
282.125	86.12
282.356	102.12
282.588	123.12
282.819	108.12
283.051	84.12
283.282	75.12
283.513	87.12
283.745	97.12
283.976	86.12
284.207	88.12
284.439	84.12
284.67	78.12
284.901	89.12
285.132	90.12
285.364	80.12
285.595	89.12
285.826	91.12
286.057	79.12
286.288	94.12
286.52	65.12
286.751	77.12
286.982	91.12
287.213	75.12
287.444	105.12
287.675	93.12
287.906	91.12
288.138	82.12
288.369	99.12
288.6	95.12
288.831	80.12
289.062	95.12
289.293	78.12
289.524	81.12
289.755	83.12
289.986	82.12
290.217	79.12
290.448	84.12
290.679	82.12
290.91	88.12
291.141	91.12
291.371	88.12
291.602	94.12
291.833	91.12
292.064	89.12
292.295	91.12
292.526	95.12
292.757	89.12
292.987	87.12
293.218	98.12
293.449	69.12
293.68	77.12
293.91	90.12
294.141	85.12
294.372	91.12
294.603	96.12
294.833	87.12
295.064	70.12
295.295	86.12
295.525	87.12
295.756	99.12
295.987	98.12
296.217	123.12
296.448	121.12
296.679	88.12
296.909	92.12
297.14	82.12
297.37	89.12
297.601	88.12
297.831	79.12
298.062	82.12
298.292	97.12
298.523	95.12
298.753	93.12
298.984	84.12
299.214	91.12
299.445	101.12
299.675	94.12
299.905	91.12
300.136	79.12
300.366	70.12
300.597	88.12
300.827	99.12
301.057	104.12
301.288	98.12
301.518	97.12
301.748	93.12
301.979	105.12
302.209	99.12
302.439	84.12
302.669	87.12
302.9	89.12
303.13	100.12
303.36	83.12
303.59	102.12
303.82	97.12
304.051	90.12
304.281	73.12
304.511	70.12
304.741	96.12
304.971	82.12
305.201	94.12
305.431	86.12
305.661	97.12
305.891	98.12
306.121	96.12
306.352	92.12
306.582	105.12
306.812	93.12
307.042	94.12
307.272	91.12
307.502	88.12
307.731	93.12
307.961	66.12
308.191	74.12
308.421	85.12
308.651	86.12
308.881	88.12
309.111	76.12
309.341	83.12
309.571	84.12
309.8	82.12
310.03	83.12
310.26	103.12
310.49	95.12
310.72	92.12
310.949	87.12
311.179	91.12
311.409	84.12
311.639	104.12
311.868	97.12
312.098	104.12
312.328	99.12
312.557	82.12
312.787	92.12
313.017	91.12
313.246	91.12
313.476	99.12
313.706	86.12
313.935	94.12
314.165	84.12
314.394	97.12
314.624	92.12
314.853	78.12
315.083	98.12
315.312	74.12
315.542	98.12
315.771	91.12
316.001	100.12
316.23	88.12
316.46	98.12
316.689	85.12
316.919	71.12
317.148	99.12
317.377	103.12
317.607	97.12
317.836	88.12
318.065	98.12
318.295	92.12
318.524	88.12
318.753	82.12
318.983	86.12
319.212	109.12
319.441	107.12
319.67	95.12
319.9	105.12
320.129	101.12
320.358	84.12
320.587	98.12
320.816	99.12
321.046	87.12
321.275	87.12
321.504	100.12
321.733	101.12
321.962	97.12
322.191	105.12
322.42	113.12
322.649	106.12
322.878	99.12
323.108	103.12
323.337	129.12
323.566	119.12
323.795	135.12
324.024	167.12
324.253	321.12
324.482	682.12
324.71	1360.12
324.939	1752.12
325.168	636.12
325.397	202.12
325.626	138.12
325.855	121.12
326.084	125.12
326.313	113.12
326.542	140.12
326.77	206.12
326.999	396.12
327.228	783.12
327.457	1364.12
327.686	1112.12
327.914	335.12
328.143	202.12
328.372	146.12
328.6	122.12
328.829	113.12
329.058	110.12
329.287	112.12
329.515	96.12
329.744	92.12
329.972	95.12
330.201	104.12
330.43	110.12
330.658	103.12
330.887	128.12
331.115	112.12
331.344	83.12
331.572	94.12
331.801	97.12
332.03	84.12
332.258	91.12
332.486	98.12
332.715	95.12
332.943	106.12
333.172	97.12
333.4	105.12
333.629	102.12
333.857	100.12
334.085	97.12
334.314	105.12
334.542	109.12
334.771	99.12
334.999	104.12
335.227	84.12
335.455	107.12
335.684	98.12
335.912	107.12
336.14	100.12
336.369	90.12
336.597	89.12
336.825	99.12
337.053	89.12
337.281	92.12
337.51	82.12
337.738	94.12
337.966	102.12
338.194	112.12
338.422	110.12
338.65	103.12
338.878	95.12
339.106	91.12
339.334	95.12
339.562	95.12
339.79	99.12
340.018	90.12
340.246	93.12
340.474	90.12
340.702	108.12
340.93	106.12
341.158	91.12
341.386	96.12
341.614	93.12
341.842	79.12
342.07	85.12
342.298	82.12
342.526	85.12
342.754	96.12
342.981	101.12
343.209	81.12
343.437	103.12
343.665	74.12
343.893	102.12
344.12	97.12
344.348	91.12
344.576	94.12
344.804	99.12
345.031	96.12
345.259	86.12
345.487	90.12
345.714	95.12
345.942	105.12
346.17	98.12
346.397	104.12
346.625	99.12
346.853	84.12
347.08	96.12
347.308	80.12
347.535	91.12
347.763	111.12
347.99	103.12
348.218	102.12
348.445	96.12
348.673	93.12
348.9	108.12
349.128	98.12
349.355	88.12
349.583	91.12
349.81	86.12
350.037	88.12
350.265	93.12
350.492	102.12
350.72	84.12
350.947	96.12
351.174	104.12
351.402	103.12
351.629	94.12
351.856	89.12
352.083	106.12
352.311	100.12
352.538	98.12
352.765	99.12
352.992	86.12
353.22	102.12
353.447	107.12
353.674	108.12
353.901	100.12
354.128	95.12
354.355	91.12
354.583	93.12
354.81	87.12
355.037	100.12
355.264	94.12
355.491	109.12
355.718	82.12
355.945	83.12
356.172	85.12
356.399	93.12
356.626	85.12
356.853	95.12
357.08	90.12
357.307	102.12
357.534	96.12
357.761	98.12
357.988	89.12
358.215	93.12
358.441	94.12
358.668	91.12
358.895	86.12
359.122	89.12
359.349	74.12
359.576	78.12
359.802	92.12
360.029	101.12
360.256	101.12
360.483	107.12
360.709	97.12
360.936	86.12
361.163	92.12
361.39	92.12
361.616	100.12
361.843	100.12
362.07	90.12
362.296	81.12
362.523	78.12
362.749	108.12
362.976	88.12
363.203	93.12
363.429	97.12
363.656	89.12
363.882	87.12
364.109	95.12
364.335	96.12
364.562	94.12
364.788	88.12
365.015	93.12
365.241	99.12
365.468	99.12
365.694	95.12
365.92	95.12
366.147	92.12
366.373	87.12
366.599	91.12
366.826	82.12
367.052	74.12
367.278	90.12
367.505	81.12
367.731	88.12
367.957	97.12
368.184	103.12
368.41	104.12
368.636	107.12
368.862	112.12
369.089	109.12
369.315	94.12
369.541	91.12
369.767	88.12
369.993	91.12
370.219	91.12
370.445	93.12
370.672	82.12
370.898	76.12
371.124	91.12
371.35	71.12
371.576	89.12
371.802	98.12
372.028	83.12
372.254	94.12
372.48	87.12
372.706	92.12
372.932	83.12
373.158	91.12
373.384	96.12
373.61	95.12
373.835	93.12
374.061	86.12
374.287	98.12
374.513	84.12
374.739	99.12
374.965	90.12
375.191	88.12
375.416	103.12
375.642	93.12
375.868	90.12
376.094	110.12
376.319	92.12
376.545	88.12
376.771	95.12
376.997	106.12
377.222	98.12
377.448	84.12
377.674	91.12
377.899	92.12
378.125	84.12
378.35	93.12
378.576	88.12
378.802	93.12
379.027	97.12
379.253	86.12
379.478	100.12
379.704	84.12
379.929	103.12
380.155	110.12
380.38	89.12
380.606	94.12
380.831	97.12
381.057	88.12
381.282	97.12
381.507	108.12
381.733	104.12
381.958	91.12
382.184	96.12
382.409	94.12
382.634	97.12
382.86	100.12
383.085	118.12
383.31	99.12
383.535	102.12
383.761	109.12
383.986	106.12
384.211	102.12
384.436	100.12
384.662	104.12
384.887	105.12
385.112	97.12
385.337	99.12
385.562	106.12
385.787	110.12
386.013	97.12
386.238	102.12
386.463	100.12
386.688	110.12
386.913	107.12
387.138	109.12
387.363	99.12
387.588	92.12
387.813	104.12
388.038	105.12
388.263	111.12
388.488	108.12
388.713	76.12
388.938	85.12
389.163	89.12
389.387	100.12
389.612	91.12
389.837	96.12
390.062	90.12
390.287	86.12
390.512	79.12
390.736	94.12
390.961	81.12
391.186	99.12
391.411	93.12
391.636	97.12
391.86	70.12
392.085	95.12
392.31	90.12
392.534	98.12
392.759	103.12
392.984	95.12
393.208	89.12
393.433	95.12
393.658	89.12
393.882	89.12
394.107	97.12
394.331	75.12
394.556	105.12
394.78	85.12
395.005	89.12
395.229	86.12
395.454	91.12
395.678	84.12
395.903	90.12
396.127	91.12
396.352	89.12
396.576	83.12
396.801	84.12
397.025	81.12
397.249	92.12
397.474	91.12
397.698	86.12
397.922	80.12
398.147	78.12
398.371	72.12
398.595	80.12
398.82	84.12
399.044	89.12
399.268	95.12
399.492	86.12
399.717	94.12
399.941	87.12
400.165	102.12
400.389	83.12
400.613	90.12
400.837	99.12
401.062	87.12
401.286	98.12
401.51	104.12
401.734	95.12
401.958	99.12
402.182	105.12
402.406	124.12
402.63	108.12
402.854	84.12
403.078	92.12
403.302	86.12
403.526	78.12
403.75	88.12
403.974	80.12
404.198	78.12
404.422	86.12
404.645	88.12
404.869	90.12
405.093	87.12
405.317	92.12
405.541	83.12
405.765	81.12
405.988	107.12
406.212	154.12
406.436	202.12
406.66	145.12
406.883	86.12
407.107	82.12
407.331	90.12
407.555	86.12
407.778	91.12
408.002	90.12
408.226	89.12
408.449	89.12
408.673	100.12
408.896	94.12
409.12	89.12
409.344	94.12
409.567	94.12
409.791	91.12
410.014	102.12
410.238	93.12
410.461	111.12
410.685	83.12
410.908	98.12
411.132	99.12
411.355	77.12
411.578	79.12
411.802	76.12
412.025	84.12
412.249	98.12
412.472	103.12
412.695	82.12
412.919	64.12
413.142	75.12
413.365	102.12
413.589	86.12
413.812	97.12
414.035	88.12
414.258	95.12
414.482	97.12
414.705	98.12
414.928	79.12
415.151	92.12
415.374	95.12
415.597	93.12
415.821	78.12
416.044	91.12
416.267	99.12
416.49	82.12
416.713	94.12
416.936	83.12
417.159	88.12
417.382	83.12
417.605	81.12
417.828	98.12
418.051	81.12
418.274	82.12
418.497	83.12
418.72	84.12
418.943	89.12
419.166	80.12
419.389	83.12
419.611	90.12
419.834	102.12
420.057	86.12
420.28	88.12
420.503	85.12
420.726	85.12
420.948	88.12
421.171	90.12
421.394	106.12
421.617	83.12
421.839	98.12
422.062	93.12
422.285	94.12
422.507	91.12
422.73	104.12
422.953	99.12
423.175	102.12
423.398	93.12
423.621	80.12
423.843	84.12
424.066	97.12
424.288	86.12
424.511	94.12
424.733	86.12
424.956	88.12
425.178	102.12
425.401	87.12
425.623	89.12
425.846	86.12
426.068	95.12
426.291	90.12
426.513	83.12
426.735	93.12
426.958	96.12
427.18	98.12
427.402	120.12
427.625	128.12
427.847	106.12
428.069	98.12
428.292	86.12
428.514	83.12
428.736	95.12
428.958	89.12
429.181	94.12
429.403	93.12
429.625	83.12
429.847	94.12
430.069	98.12
430.292	92.12
430.514	91.12
430.736	89.12
430.958	80.12
431.18	80.12
431.402	91.12
431.624	80.12
431.846	109.12
432.068	94.12
432.29	74.12
432.512	83.12
432.734	89.12
432.956	87.12
433.178	91.12
433.4	106.12
433.622	98.12
433.844	92.12
434.066	95.12
434.287	86.12
434.509	86.12
434.731	93.12
434.953	95.12
435.175	85.12
435.397	81.12
435.618	89.12
435.84	102.12
436.062	111.12
436.284	109.12
436.505	107.12
436.727	94.12
436.949	97.12
437.17	84.12
437.392	89.12
437.614	87.12
437.835	79.12
438.057	106.12
438.278	116.12
438.5	103.12
438.721	121.12
438.943	97.12
439.165	83.12
439.386	99.12
439.608	85.12
439.829	98.12
440.05	95.12
440.272	125.12
440.493	88.12
440.715	76.12
440.936	89.12
441.158	75.12
441.379	83.12
441.6	102.12
441.822	87.12
442.043	93.12
442.264	110.12
442.486	100.12
442.707	112.12
442.928	96.12
443.149	113.12
443.371	115.12
443.592	108.12
443.813	111.12
444.034	98.12
444.255	95.12
444.476	86.12
444.698	75.12
444.919	91.12
445.14	127.12
445.361	115.12
445.582	107.12
445.803	123.12
446.024	118.12
446.245	105.12
446.466	103.12
446.687	88.12
446.908	95.12
447.129	97.12
447.35	91.12
447.571	102.12
447.792	95.12
448.013	107.12
448.234	105.12
448.455	93.12
448.675	120.12
448.896	116.12
449.117	99.12
449.338	95.12
449.559	109.12
449.779	111.12
450	89.12
450.221	74.12
450.442	84.12
450.662	91.12
450.883	89.12
451.104	99.12
451.324	96.12
451.545	91.12
451.766	79.12
451.986	89.12
452.207	94.12
452.428	86.12
452.648	76.12
452.869	96.12
453.089	99.12
453.31	111.12
453.53	102.12
453.751	97.12
453.971	99.12
454.192	90.12
454.412	96.12
454.633	90.12
454.853	94.12
455.073	87.12
455.294	96.12
455.514	94.12
455.734	94.12
455.955	83.12
456.175	72.12
456.395	85.12
456.616	94.12
456.836	90.12
457.056	82.12
457.276	88.12
457.497	82.12
457.717	96.12
457.937	82.12
458.157	84.12
458.377	94.12
458.598	105.12
458.818	121.12
459.038	138.12
459.258	104.12
459.478	82.12
459.698	81.12
459.918	84.12
460.138	79.12
460.358	82.12
460.578	92.12
460.798	90.12
461.018	102.12
461.238	91.12
461.458	97.12
461.678	84.12
461.898	94.12
462.118	87.12
462.338	83.12
462.558	97.12
462.777	89.12
462.997	106.12
463.217	82.12
463.437	78.12
463.657	83.12
463.876	95.12
464.096	83.12
464.316	94.12
464.536	95.12
464.755	96.12
464.975	91.12
465.195	128.12
465.414	134.12
465.634	82.12
465.854	83.12
466.073	91.12
466.293	92.12
466.512	86.12
466.732	79.12
466.951	96.12
467.171	108.12
467.391	86.12
467.61	91.12
467.829	94.12
468.049	86.12
468.268	91.12
468.488	86.12
468.707	80.12
468.927	76.12
469.146	92.12
469.365	82.12
469.585	80.12
469.804	93.12
470.023	95.12
470.243	97.12
470.462	104.12
470.681	100.12
470.901	93.12
471.12	90.12
471.339	94.12
471.558	75.12
471.777	71.12
471.997	83.12
472.216	94.12
472.435	92.12
472.654	86.12
472.873	90.12
473.092	89.12
473.311	89.12
473.53	80.12
473.749	82.12
473.968	88.12
474.187	99.12
474.406	91.12
474.625	102.12
474.844	100.12
475.063	82.12
475.282	91.12
475.501	87.12
475.72	94.12
475.939	86.12
476.158	66.12
476.377	74.12
476.596	95.12
476.814	86.12
477.033	94.12
477.252	84.12
477.471	82.12
477.69	105.12
477.908	97.12
478.127	84.12
478.346	94.12
478.564	86.12
478.783	95.12
479.002	93.12
479.22	73.12
479.439	84.12
479.658	79.12
479.876	92.12
480.095	92.12
480.313	90.12
480.532	94.12
480.751	104.12
480.969	80.12
481.188	136.12
481.406	101.12
481.624	82.12
481.843	93.12
482.061	82.12
482.28	82.12
482.498	105.12
482.717	84.12
482.935	86.12
483.153	85.12
483.372	86.12
483.59	79.12
483.808	91.12
484.027	89.12
484.245	89.12
484.463	96.12
484.681	99.12
484.9	71.12
485.118	93.12
485.336	91.12
485.554	104.12
485.772	106.12
485.99	106.12
486.209	91.12
486.427	99.12
486.645	107.12
486.863	98.12
487.081	90.12
487.299	100.12
487.517	92.12
487.735	100.12
487.953	88.12
488.171	98.12
488.389	103.12
488.607	89.12
488.825	80.12
489.043	105.12
489.261	100.12
489.479	78.12
489.696	92.12
489.914	91.12
490.132	95.12
490.35	94.12
490.568	82.12
490.786	86.12
491.003	97.12
491.221	96.12
491.439	95.12
491.657	78.12
491.874	102.12
492.092	89.12
492.31	89.12
492.527	79.12
492.745	76.12
492.963	88.12
493.18	88.12
493.398	100.12
493.615	103.12
493.833	108.12
494.05	89.12
494.268	96.12
494.485	85.12
494.703	88.12
494.92	87.12
495.138	89.12
495.355	90.12
495.573	83.12
495.79	101.12
496.008	94.12
496.225	73.12
496.442	89.12
496.66	109.12
496.877	91.12
497.094	95.12
497.312	94.12
497.529	93.12
497.746	99.12
497.963	84.12
498.181	88.12
498.398	104.12
498.615	94.12
498.832	108.12
499.049	96.12
499.267	89.12
499.484	85.12
499.701	82.12
499.918	92.12
500.135	87.12
500.352	97.12
500.569	92.12
500.786	90.12
501.003	92.12
501.22	81.12
501.437	96.12
501.654	98.12
501.871	97.12
502.088	76.12
502.305	100.12
502.522	98.12
502.739	82.12
502.956	103.12
503.172	88.12
503.389	98.12
503.606	105.12
503.823	93.12
504.04	80.12
504.256	93.12
504.473	78.12
504.69	74.12
504.907	97.12
505.123	102.12
505.34	81.12
505.557	104.12
505.773	93.12
505.99	93.12
506.207	89.12
506.423	89.12
506.64	87.12
506.856	97.12
507.073	94.12
507.289	91.12
507.506	86.12
507.722	111.12
507.939	98.12
508.155	93.12
508.372	91.12
508.588	96.12
508.805	94.12
509.021	84.12
509.238	113.12
509.454	84.12
509.67	104.12
509.887	104.12
510.103	118.12
510.319	197.12
510.536	650.12
510.752	1866.12
510.968	528.12
511.184	145.12
511.401	108.12
511.617	94.12
511.833	95.12
512.049	67.12
512.265	92.12
512.481	104.12
512.698	89.12
512.914	97.12
513.13	84.12
513.346	83.12
513.562	98.12
513.778	83.12
513.994	86.12
514.21	111.12
514.426	116.12
514.642	123.12
514.858	117.12
515.074	138.12
515.29	350.12
515.506	1085.12
515.721	432.12
515.937	136.12
516.153	83.12
516.369	92.12
516.585	106.12
516.801	91.12
517.016	94.12
517.232	80.12
517.448	89.12
517.664	96.12
517.879	84.12
518.095	83.12
518.311	99.12
518.527	76.12
518.742	89.12
518.958	105.12
519.173	86.12
519.389	88.12
519.605	96.12
519.82	97.12
520.036	115.12
520.251	116.12
520.467	104.12
520.682	99.12
520.898	97.12
521.113	104.12
521.329	129.12
521.544	180.12
521.76	426.12
521.975	1827.12
522.19	1098.12
522.406	249.12
522.621	104.12
522.836	88.12
523.052	89.12
523.267	91.12
523.482	89.12
523.698	96.12
523.913	116.12
524.128	121.12
524.343	93.12
524.559	89.12
524.774	91.12
524.989	81.12
525.204	108.12
525.419	98.12
525.634	89.12
525.849	84.12
526.064	90.12
526.28	104.12
526.495	92.12
526.71	98.12
526.925	83.12
527.14	100.12
527.355	94.12
527.57	95.12
527.785	88.12
527.999	102.12
528.214	110.12
528.429	96.12
528.644	93.12
528.859	84.12
529.074	102.12
529.289	108.12
529.503	142.12
529.718	96.12
529.933	87.12
530.148	95.12
530.363	92.12
530.577	100.12
530.792	96.12
531.007	83.12
531.221	112.12
531.436	88.12
531.651	89.12
531.865	97.12
532.08	88.12
532.295	70.12
532.509	86.12
532.724	81.12
532.938	104.12
533.153	103.12
533.367	103.12
533.582	90.12
533.796	97.12
534.011	87.12
534.225	78.12
534.44	87.12
534.654	100.12
534.868	93.12
535.083	92.12
535.297	104.12
535.511	104.12
535.726	104.12
535.94	109.12
536.154	92.12
536.369	79.12
536.583	90.12
536.797	82.12
537.011	90.12
537.225	107.12
537.44	95.12
537.654	81.12
537.868	92.12
538.082	91.12
538.296	69.12
538.51	89.12
538.724	101.12
538.938	85.12
539.153	96.12
539.367	108.12
539.581	94.12
539.795	90.12
540.009	92.12
540.222	74.12
540.436	86.12
540.65	93.12
540.864	77.12
541.078	90.12
541.292	104.12
541.506	77.12
541.72	97.12
541.934	78.12
542.147	86.12
542.361	96.12
542.575	81.12
542.789	99.12
543.002	95.12
543.216	99.12
543.43	86.12
543.644	97.12
543.857	86.12
544.071	86.12
544.285	97.12
544.498	87.12
544.712	112.12
544.925	97.12
545.139	98.12
545.352	78.12
545.566	84.12
545.779	81.12
545.993	94.12
546.206	103.12
546.42	96.12
546.633	96.12
546.847	103.12
547.06	103.12
547.274	90.12
547.487	90.12
547.7	82.12
547.914	90.12
548.127	99.12
548.34	111.12
548.554	72.12
548.767	89.12
548.98	83.12
549.193	100.12
549.407	79.12
549.62	85.12
549.833	99.12
550.046	81.12
550.259	105.12
550.473	94.12
550.686	100.12
550.899	90.12
551.112	82.12
551.325	82.12
551.538	89.12
551.751	104.12
551.964	83.12
552.177	80.12
552.39	80.12
552.603	82.12
552.816	92.12
553.029	94.12
553.242	98.12
553.455	90.12
553.667	118.12
553.88	93.12
554.093	109.12
554.306	87.12
554.519	87.12
554.732	97.12
554.944	87.12
555.157	86.12
555.37	91.12
555.583	91.12
555.795	77.12
556.008	91.12
556.221	101.12
556.433	106.12
556.646	82.12
556.859	84.12
557.071	99.12
557.284	91.12
557.496	91.12
557.709	94.12
557.921	106.12
558.134	83.12
558.346	73.12
558.559	79.12
558.771	88.12
558.984	80.12
559.196	91.12
559.409	82.12
559.621	90.12
559.833	82.12
560.046	87.12
560.258	87.12
560.47	94.12
560.683	89.12
560.895	84.12
561.107	89.12
561.32	88.12
561.532	101.12
561.744	83.12
561.956	96.12
562.168	94.12
562.381	92.12
562.593	81.12
562.805	99.12
563.017	89.12
563.229	99.12
563.441	84.12
563.653	87.12
563.865	76.12
564.077	88.12
564.289	87.12
564.501	91.12
564.713	104.12
564.925	93.12
565.137	94.12
565.349	96.12
565.561	94.12
565.773	90.12
565.985	93.12
566.197	95.12
566.408	80.12
566.62	95.12
566.832	95.12
567.044	88.12
567.255	84.12
567.467	82.12
567.679	85.12
567.891	79.12
568.102	86.12
568.314	98.12
568.526	102.12
568.737	95.12
568.949	96.12
569.161	86.12
569.372	77.12
569.584	93.12
569.795	112.12
570.007	107.12
570.218	211.12
570.43	130.12
570.641	86.12
570.853	90.12
571.064	82.12
571.276	86.12
571.487	89.12
571.698	90.12
571.91	100.12
572.121	98.12
572.333	94.12
572.544	85.12
572.755	100.12
572.966	90.12
573.178	87.12
573.389	97.12
573.6	103.12
573.811	91.12
574.023	102.12
574.234	91.12
574.445	90.12
574.656	104.12
574.867	89.12
575.078	90.12
575.289	92.12
575.501	90.12
575.712	93.12
575.923	97.12
576.134	95.12
576.345	91.12
576.556	90.12
576.767	106.12
576.978	92.12
577.188	104.12
577.399	88.12
577.61	103.12
577.821	86.12
578.032	119.12
578.243	244.12
578.454	627.12
578.665	191.12
578.875	90.12
579.086	86.12
579.297	85.12
579.508	100.12
579.718	100.12
579.929	102.12
580.14	77.12
580.35	87.12
580.561	97.12
580.772	89.12
580.982	91.12
581.193	92.12
581.403	87.12
581.614	89.12
581.825	95.12
582.035	80.12
582.246	80.12
582.456	92.12
582.667	96.12
582.877	76.12
583.087	95.12
583.298	96.12
583.508	80.12
583.719	83.12
583.929	100.12
584.139	91.12
584.35	95.12
584.56	90.12
584.77	99.12
584.981	92.12
585.191	95.12
585.401	90.12
585.611	102.12
585.821	82.12
586.032	84.12
586.242	76.12
586.452	86.12
586.662	90.12
586.872	102.12
587.082	99.12
587.292	90.12
587.502	86.12
587.713	87.12
587.923	80.12
588.133	89.12
588.343	74.12
588.553	86.12
588.762	87.12
588.972	111.12
589.182	90.12
589.392	86.12
589.602	89.12
589.812	81.12
590.022	103.12
590.232	102.12
590.441	87.12
590.651	96.12
590.861	111.12
591.071	99.12
591.281	94.12
591.49	70.12
591.7	94.12
591.91	85.12
592.119	90.12
592.329	81.12
592.539	94.12
592.748	93.12
592.958	84.12
593.167	88.12
593.377	86.12
593.587	91.12
593.796	93.12
594.006	89.12
594.215	92.12
594.424	97.12
594.634	97.12
594.843	96.12
595.053	91.12
595.262	103.12
595.472	90.12
595.681	104.12
595.89	87.12
596.1	86.12
596.309	88.12
596.518	78.12
596.727	89.12
596.937	100.12
597.146	81.12
597.355	90.12
597.564	90.12
597.774	97.12
597.983	101.12
598.192	89.12
598.401	86.12
598.61	79.12
598.819	72.12
599.028	104.12
599.237	97.12
599.446	83.12
599.655	94.12
599.864	79.12
600.073	79.12
600.282	98.12
600.491	86.12
600.7	100.12
600.909	89.12
601.118	107.12
601.327	98.12
601.536	83.12
601.745	81.12
601.953	90.12
602.162	88.12
602.371	91.12
602.58	74.12
602.789	82.12
602.997	99.12
603.206	82.12
603.415	83.12
603.623	90.12
603.832	88.12
604.041	92.12
604.249	82.12
604.458	85.12
604.666	78.12
604.875	95.12
605.084	96.12
605.292	107.12
605.501	86.12
605.709	94.12
605.918	90.12
606.126	73.12
606.334	88.12
606.543	99.12
606.751	78.12
606.96	98.12
607.168	87.12
607.376	86.12
607.585	93.12
607.793	91.12
608.001	81.12
608.21	91.12
608.418	92.12
608.626	79.12
608.834	82.12
609.043	102.12
609.251	97.12
609.459	108.12
609.667	83.12
609.875	102.12
610.083	81.12
610.291	90.12
610.499	87.12
610.707	99.12
610.916	90.12
611.124	83.12
611.332	76.12
611.54	88.12
611.748	86.12
611.955	88.12
612.163	95.12
612.371	95.12
612.579	89.12
612.787	76.12
612.995	100.12
613.203	98.12
613.411	87.12
613.618	72.12
613.826	78.12
614.034	86.12
614.242	86.12
614.449	89.12
614.657	92.12
614.865	85.12
615.072	88.12
615.28	93.12
615.488	77.12
615.695	95.12
615.903	104.12
616.111	95.12
616.318	106.12
616.526	104.12
616.733	103.12
616.941	74.12
617.148	92.12
617.356	78.12
617.563	72.12
617.771	88.12
617.978	98.12
618.185	105.12
618.393	86.12
618.6	94.12
618.807	92.12
619.015	91.12
619.222	85.12
619.429	66.12
619.637	81.12
619.844	86.12
620.051	95.12
620.258	81.12
620.466	83.12
620.673	95.12
620.88	86.12
621.087	87.12
621.294	85.12
621.501	93.12
621.708	89.12
621.915	104.12
622.122	83.12
622.329	76.12
622.536	88.12
622.743	82.12
622.95	79.12
623.157	88.12
623.364	67.12
623.571	83.12
623.778	82.12
623.985	98.12
624.192	88.12
624.399	76.12
624.606	91.12
624.812	80.12
625.019	104.12
625.226	87.12
625.433	87.12
625.639	78.12
625.846	79.12
626.053	95.12
626.259	79.12
626.466	83.12
626.673	87.12
626.879	89.12
627.086	89.12
627.293	88.12
627.499	86.12
627.706	89.12
627.912	84.12
628.119	89.12
628.325	94.12
628.532	92.12
628.738	77.12
628.945	79.12
629.151	82.12
629.357	90.12
629.564	93.12
629.77	90.12
629.976	85.12
630.183	93.12
630.389	79.12
630.595	81.12
630.802	96.12
631.008	100.12
631.214	85.12
631.42	90.12
631.627	90.12
631.833	75.12
632.039	91.12
632.245	83.12
632.451	75.12
632.657	75.12
632.863	84.12
633.069	83.12
633.275	79.12
633.481	86.12
633.688	95.12
633.893	83.12
634.099	83.12
634.305	81.12
634.511	80.12
634.717	98.12
634.923	76.12
635.129	80.12
635.335	80.12
635.541	92.12
635.747	94.12
635.952	97.12
636.158	83.12
636.364	82.12
636.57	91.12
636.775	87.12
636.981	99.12
637.187	94.12
637.392	79.12
637.598	82.12
637.804	88.12
638.009	75.12
638.215	95.12
638.421	75.12
638.626	87.12
638.832	91.12
639.037	78.12
639.243	85.12
639.448	80.12
639.654	64.12
639.859	84.12
640.065	91.12
640.27	94.12
640.475	81.12
640.681	92.12
640.886	91.12
641.091	87.12
641.297	94.12
641.502	82.12
641.707	83.12
641.913	91.12
642.118	89.12
642.323	79.12
642.528	86.12
642.733	88.12
642.939	88.12
643.144	83.12
643.349	86.12
643.554	104.12
643.759	94.12
643.964	85.12
644.169	94.12
644.374	82.12
644.579	82.12
644.784	87.12
644.989	90.12
645.194	89.12
645.399	91.12
645.604	91.12
645.809	92.12
646.014	85.12
646.219	88.12
646.423	97.12
646.628	94.12
646.833	89.12
647.038	87.12
647.243	78.12
647.447	80.12
647.652	76.12
647.857	72.12
648.062	90.12
648.266	80.12
648.471	101.12
648.676	90.12
648.88	86.12
649.085	92.12
649.289	83.12
649.494	109.12
649.698	134.12
649.903	89.12
650.107	100.12
650.312	88.12
650.516	86.12
650.721	90.12
650.925	83.12
651.13	81.12
651.334	80.12
651.539	76.12
651.743	70.12
651.947	96.12
652.152	94.12
652.356	97.12
652.56	83.12
652.764	74.12
652.969	94.12
653.173	83.12
653.377	80.12
653.581	88.12
653.785	80.12
653.99	89.12
654.194	89.12
654.398	86.12
654.602	74.12
654.806	78.12
655.01	106.12
655.214	103.12
655.418	81.12
655.622	86.12
655.826	80.12
656.03	82.12
656.234	87.12
656.438	84.12
656.642	90.12
656.846	96.12
657.049	75.12
657.253	81.12
657.457	85.12
657.661	78.12
657.865	80.12
658.068	91.12
658.272	79.12
658.476	91.12
658.68	81.12
658.883	92.12
659.087	87.12
659.291	79.12
659.494	83.12
659.698	58.12
659.901	76.12
660.105	87.12
660.309	92.12
660.512	78.12
660.716	97.12
660.919	92.12
661.123	89.12
661.326	86.12
661.53	96.12
661.733	87.12
661.936	74.12
662.14	78.12
662.343	79.12
662.546	79.12
662.75	81.12
662.953	73.12
663.156	76.12
663.36	86.12
663.563	78.12
663.766	84.12
663.969	87.12
664.173	76.12
664.376	86.12
664.579	83.12
664.782	83.12
664.985	92.12
665.188	79.12
665.391	82.12
665.594	85.12
665.797	85.12
666	89.12
666.203	86.12
666.406	72.12
666.609	80.12
666.812	82.12
667.015	82.12
667.218	87.12
667.421	87.12
667.624	85.12
667.827	82.12
668.03	74.12
668.232	84.12
668.435	71.12
668.638	75.12
668.841	77.12
669.043	78.12
669.246	81.12
669.449	80.12
669.651	89.12
669.854	90.12
670.057	86.12
670.259	79.12
670.462	87.12
670.665	72.12
670.867	92.12
671.07	96.12
671.272	94.12
671.475	81.12
671.677	79.12
671.88	89.12
672.082	64.12
672.284	86.12
672.487	76.12
672.689	92.12
672.892	98.12
