Data from Uncirc_1998_H10_HRD10591_00082.txt Node
Date: Wed Jan 03 11:25:41 EST 2024
User: Yrep
Spectrometer: HR+D1059
Trigger mode: 1
Integration Time (sec): 1.000000E-1
Scans to average: 1
Electric dark correction enabled: true
Nonlinearity correction enabled: false
Boxcar width: 0
XAxis mode: Wavelengths
Number of Pixels in Spectrum: 2048
>>>>>Begin Spectral Data<<<<<
223.165	-16.81
223.4	-16.81
223.635	-16.81
223.869	-13.81
224.104	-13.81
224.338	-30.81
224.573	-21.81
224.808	-25.81
225.042	-12.81
225.277	5.19
225.511	-1.81
225.746	12.19
225.98	16.19
226.215	16.19
226.449	16.19
226.683	18.19
226.918	26.19
227.152	27.19
227.387	38.19
227.621	39.19
227.856	53.19
228.09	38.19
228.324	39.19
228.559	66.19
228.793	42.19
229.027	55.19
229.262	51.19
229.496	65.19
229.73	67.19
229.964	83.19
230.199	68.19
230.433	79.19
230.667	94.19
230.901	71.19
231.136	59.19
231.37	74.19
231.604	79.19
231.838	67.19
232.072	77.19
232.306	75.19
232.541	70.19
232.775	83.19
233.009	75.19
233.243	74.19
233.477	77.19
233.711	77.19
233.945	71.19
234.179	86.19
234.413	81.19
234.647	68.19
234.881	70.19
235.115	65.19
235.349	69.19
235.583	67.19
235.817	58.19
236.051	57.19
236.285	63.19
236.519	74.19
236.753	74.19
236.987	68.19
237.221	79.19
237.455	77.19
237.689	76.19
237.922	71.19
238.156	70.19
238.39	59.19
238.624	69.19
238.858	75.19
239.091	75.19
239.325	69.19
239.559	81.19
239.793	81.19
240.027	64.19
240.26	82.19
240.494	81.19
240.728	68.19
240.961	75.19
241.195	61.19
241.429	83.19
241.662	69.19
241.896	68.19
242.13	85.19
242.363	72.19
242.597	73.19
242.83	70.19
243.064	75.19
243.298	70.19
243.531	72.19
243.765	82.19
243.998	66.19
244.232	83.19
244.465	66.19
244.699	75.19
244.932	71.19
245.166	62.19
245.399	76.19
245.633	74.19
245.866	71.19
246.099	72.19
246.333	79.19
246.566	74.19
246.8	66.19
247.033	75.19
247.266	79.19
247.5	70.19
247.733	95.19
247.966	85.19
248.2	78.19
248.433	73.19
248.666	76.19
248.899	78.19
249.133	81.19
249.366	89.19
249.599	90.19
249.832	81.19
250.066	77.19
250.299	82.19
250.532	78.19
250.765	83.19
250.998	77.19
251.231	75.19
251.465	67.19
251.698	78.19
251.931	70.19
252.164	58.19
252.397	87.19
252.63	72.19
252.863	75.19
253.096	80.19
253.329	74.19
253.562	83.19
253.795	77.19
254.028	66.19
254.261	67.19
254.494	72.19
254.727	74.19
254.96	81.19
255.193	73.19
255.426	83.19
255.659	74.19
255.892	71.19
256.124	83.19
256.357	69.19
256.59	76.19
256.823	75.19
257.056	77.19
257.289	79.19
257.521	91.19
257.754	81.19
257.987	72.19
258.22	82.19
258.452	81.19
258.685	73.19
258.918	76.19
259.151	77.19
259.383	88.19
259.616	72.19
259.849	76.19
260.081	70.19
260.314	90.19
260.547	77.19
260.779	80.19
261.012	85.19
261.244	67.19
261.477	74.19
261.71	72.19
261.942	91.19
262.175	102.19
262.407	84.19
262.64	83.19
262.872	79.19
263.105	83.19
263.337	80.19
263.57	90.19
263.802	84.19
264.035	73.19
264.267	90.19
264.499	85.19
264.732	77.19
264.964	80.19
265.197	81.19
265.429	87.19
265.661	89.19
265.894	81.19
266.126	85.19
266.358	78.19
266.591	89.19
266.823	93.19
267.055	73.19
267.287	73.19
267.52	89.19
267.752	87.19
267.984	73.19
268.216	90.19
268.448	75.19
268.681	73.19
268.913	89.19
269.145	82.19
269.377	67.19
269.609	93.19
269.841	83.19
270.073	77.19
270.306	75.19
270.538	89.19
270.77	93.19
271.002	87.19
271.234	86.19
271.466	85.19
271.698	71.19
271.93	84.19
272.162	84.19
272.394	77.19
272.626	77.19
272.858	86.19
273.09	77.19
273.322	87.19
273.553	82.19
273.785	87.19
274.017	74.19
274.249	80.19
274.481	71.19
274.713	78.19
274.945	82.19
275.176	73.19
275.408	100.19
275.64	84.19
275.872	68.19
276.104	80.19
276.335	93.19
276.567	93.19
276.799	95.19
277.031	83.19
277.262	89.19
277.494	77.19
277.726	77.19
277.957	71.19
278.189	83.19
278.421	83.19
278.652	79.19
278.884	81.19
279.115	87.19
279.347	79.19
279.579	90.19
279.81	85.19
280.042	77.19
280.273	75.19
280.505	82.19
280.736	78.19
280.968	87.19
281.199	85.19
281.431	78.19
281.662	83.19
281.894	85.19
282.125	83.19
282.356	99.19
282.588	105.19
282.819	93.19
283.051	83.19
283.282	85.19
283.513	75.19
283.745	77.19
283.976	83.19
284.207	79.19
284.439	75.19
284.67	93.19
284.901	84.19
285.132	75.19
285.364	83.19
285.595	75.19
285.826	92.19
286.057	83.19
286.288	79.19
286.52	81.19
286.751	84.19
286.982	83.19
287.213	87.19
287.444	97.19
287.675	83.19
287.906	82.19
288.138	86.19
288.369	93.19
288.6	90.19
288.831	91.19
289.062	82.19
289.293	95.19
289.524	74.19
289.755	74.19
289.986	82.19
290.217	72.19
290.448	84.19
290.679	75.19
290.91	79.19
291.141	72.19
291.371	78.19
291.602	81.19
291.833	83.19
292.064	81.19
292.295	91.19
292.526	86.19
292.757	83.19
292.987	87.19
293.218	98.19
293.449	75.19
293.68	83.19
293.91	70.19
294.141	92.19
294.372	87.19
294.603	93.19
294.833	79.19
295.064	78.19
295.295	75.19
295.525	86.19
295.756	91.19
295.987	94.19
296.217	118.19
296.448	110.19
296.679	97.19
296.909	78.19
297.14	75.19
297.37	87.19
297.601	79.19
297.831	80.19
298.062	85.19
298.292	85.19
298.523	92.19
298.753	83.19
298.984	87.19
299.214	84.19
299.445	95.19
299.675	86.19
299.905	88.19
300.136	82.19
300.366	81.19
300.597	94.19
300.827	94.19
301.057	87.19
301.288	92.19
301.518	86.19
301.748	83.19
301.979	90.19
302.209	78.19
302.439	90.19
302.669	99.19
302.9	81.19
303.13	81.19
303.36	90.19
303.59	93.19
303.82	101.19
304.051	92.19
304.281	100.19
304.511	79.19
304.741	89.19
304.971	97.19
305.201	83.19
305.431	81.19
305.661	88.19
305.891	78.19
306.121	82.19
306.352	87.19
306.582	97.19
306.812	88.19
307.042	84.19
307.272	74.19
307.502	87.19
307.731	82.19
307.961	71.19
308.191	83.19
308.421	104.19
308.651	92.19
308.881	87.19
309.111	92.19
309.341	102.19
309.571	77.19
309.8	93.19
310.03	72.19
310.26	83.19
310.49	78.19
310.72	80.19
310.949	82.19
311.179	96.19
311.409	90.19
311.639	84.19
311.868	91.19
312.098	83.19
312.328	95.19
312.557	99.19
312.787	102.19
313.017	92.19
313.246	86.19
313.476	83.19
313.706	85.19
313.935	86.19
314.165	90.19
314.394	97.19
314.624	99.19
314.853	89.19
315.083	92.19
315.312	96.19
315.542	88.19
315.771	95.19
316.001	84.19
316.23	71.19
316.46	82.19
316.689	72.19
316.919	76.19
317.148	87.19
317.377	87.19
317.607	94.19
317.836	84.19
318.065	73.19
318.295	100.19
318.524	78.19
318.753	83.19
318.983	85.19
319.212	97.19
319.441	106.19
319.67	99.19
319.9	85.19
320.129	86.19
320.358	84.19
320.587	75.19
320.816	86.19
321.046	98.19
321.275	99.19
321.504	91.19
321.733	93.19
321.962	92.19
322.191	89.19
322.42	89.19
322.649	100.19
322.878	110.19
323.108	105.19
323.337	111.19
323.566	115.19
323.795	118.19
324.024	181.19
324.253	345.19
324.482	709.19
324.71	1427.19
324.939	1892.19
325.168	681.19
325.397	201.19
325.626	139.19
325.855	115.19
326.084	108.19
326.313	124.19
326.542	153.19
326.77	210.19
326.999	385.19
327.228	826.19
327.457	1451.19
327.686	1159.19
327.914	318.19
328.143	166.19
328.372	134.19
328.6	104.19
328.829	108.19
329.058	101.19
329.287	108.19
329.515	103.19
329.744	91.19
329.972	88.19
330.201	91.19
330.43	97.19
330.658	99.19
330.887	117.19
331.115	100.19
331.344	92.19
331.572	97.19
331.801	103.19
332.03	88.19
332.258	86.19
332.486	89.19
332.715	102.19
332.943	96.19
333.172	88.19
333.4	93.19
333.629	109.19
333.857	103.19
334.085	82.19
334.314	93.19
334.542	92.19
334.771	94.19
334.999	89.19
335.227	98.19
335.455	81.19
335.684	95.19
335.912	81.19
336.14	95.19
336.369	91.19
336.597	91.19
336.825	80.19
337.053	95.19
337.281	94.19
337.51	78.19
337.738	103.19
337.966	87.19
338.194	94.19
338.422	84.19
338.65	92.19
338.878	92.19
339.106	90.19
339.334	89.19
339.562	75.19
339.79	82.19
340.018	83.19
340.246	82.19
340.474	82.19
340.702	82.19
340.93	83.19
341.158	71.19
341.386	91.19
341.614	84.19
341.842	87.19
342.07	92.19
342.298	89.19
342.526	93.19
342.754	89.19
342.981	80.19
343.209	106.19
343.437	98.19
343.665	71.19
343.893	95.19
344.12	80.19
344.348	84.19
344.576	92.19
344.804	86.19
345.031	84.19
345.259	94.19
345.487	87.19
345.714	94.19
345.942	98.19
346.17	85.19
346.397	80.19
346.625	78.19
346.853	62.19
347.08	83.19
347.308	84.19
347.535	87.19
347.763	93.19
347.99	83.19
348.218	85.19
348.445	103.19
348.673	99.19
348.9	92.19
349.128	104.19
349.355	90.19
349.583	73.19
349.81	78.19
350.037	86.19
350.265	83.19
350.492	86.19
350.72	102.19
350.947	83.19
351.174	95.19
351.402	103.19
351.629	95.19
351.856	101.19
352.083	97.19
352.311	113.19
352.538	95.19
352.765	105.19
352.992	107.19
353.22	102.19
353.447	96.19
353.674	100.19
353.901	77.19
354.128	91.19
354.355	93.19
354.583	90.19
354.81	81.19
355.037	85.19
355.264	83.19
355.491	84.19
355.718	102.19
355.945	92.19
356.172	79.19
356.399	81.19
356.626	86.19
356.853	90.19
357.08	91.19
357.307	83.19
357.534	88.19
357.761	98.19
357.988	95.19
358.215	89.19
358.441	75.19
358.668	90.19
358.895	88.19
359.122	84.19
359.349	76.19
359.576	82.19
359.802	95.19
360.029	99.19
360.256	94.19
360.483	98.19
360.709	87.19
360.936	92.19
361.163	99.19
361.39	93.19
361.616	79.19
361.843	79.19
362.07	94.19
362.296	89.19
362.523	84.19
362.749	84.19
362.976	77.19
363.203	89.19
363.429	98.19
363.656	86.19
363.882	92.19
364.109	85.19
364.335	89.19
364.562	82.19
364.788	76.19
365.015	80.19
365.241	94.19
365.468	103.19
365.694	107.19
365.92	85.19
366.147	73.19
366.373	88.19
366.599	98.19
366.826	86.19
367.052	82.19
367.278	83.19
367.505	88.19
367.731	76.19
367.957	78.19
368.184	91.19
368.41	92.19
368.636	99.19
368.862	105.19
369.089	101.19
369.315	79.19
369.541	95.19
369.767	78.19
369.993	87.19
370.219	95.19
370.445	68.19
370.672	75.19
370.898	83.19
371.124	86.19
371.35	66.19
371.576	92.19
371.802	60.19
372.028	74.19
372.254	78.19
372.48	86.19
372.706	77.19
372.932	82.19
373.158	91.19
373.384	76.19
373.61	85.19
373.835	93.19
374.061	83.19
374.287	85.19
374.513	73.19
374.739	79.19
374.965	85.19
375.191	97.19
375.416	89.19
375.642	88.19
375.868	84.19
376.094	76.19
376.319	78.19
376.545	84.19
376.771	84.19
376.997	88.19
377.222	78.19
377.448	76.19
377.674	79.19
377.899	78.19
378.125	88.19
378.35	89.19
378.576	85.19
378.802	85.19
379.027	89.19
379.253	81.19
379.478	81.19
379.704	90.19
379.929	85.19
380.155	80.19
380.38	69.19
380.606	81.19
380.831	91.19
381.057	99.19
381.282	85.19
381.507	83.19
381.733	89.19
381.958	82.19
382.184	82.19
382.409	93.19
382.634	112.19
382.86	77.19
383.085	109.19
383.31	84.19
383.535	92.19
383.761	90.19
383.986	99.19
384.211	81.19
384.436	81.19
384.662	87.19
384.887	84.19
385.112	83.19
385.337	95.19
385.562	97.19
385.787	93.19
386.013	94.19
386.238	109.19
386.463	105.19
386.688	100.19
386.913	85.19
387.138	105.19
387.363	92.19
387.588	92.19
387.813	100.19
388.038	92.19
388.263	114.19
388.488	93.19
388.713	90.19
388.938	86.19
389.163	99.19
389.387	100.19
389.612	93.19
389.837	94.19
390.062	79.19
390.287	94.19
390.512	97.19
390.736	87.19
390.961	91.19
391.186	86.19
391.411	83.19
391.636	92.19
391.86	77.19
392.085	82.19
392.31	92.19
392.534	85.19
392.759	93.19
392.984	89.19
393.208	82.19
393.433	74.19
393.658	85.19
393.882	76.19
394.107	78.19
394.331	89.19
394.556	87.19
394.78	84.19
395.005	83.19
395.229	76.19
395.454	84.19
395.678	91.19
395.903	94.19
396.127	91.19
396.352	85.19
396.576	72.19
396.801	82.19
397.025	85.19
397.249	88.19
397.474	90.19
397.698	88.19
397.922	78.19
398.147	90.19
398.371	77.19
398.595	78.19
398.82	74.19
399.044	82.19
399.268	56.19
399.492	82.19
399.717	78.19
399.941	92.19
400.165	78.19
400.389	72.19
400.613	76.19
400.837	89.19
401.062	77.19
401.286	76.19
401.51	82.19
401.734	83.19
401.958	92.19
402.182	103.19
402.406	149.19
402.63	106.19
402.854	91.19
403.078	84.19
403.302	77.19
403.526	73.19
403.75	76.19
403.974	90.19
404.198	81.19
404.422	99.19
404.645	79.19
404.869	76.19
405.093	103.19
405.317	84.19
405.541	79.19
405.765	85.19
405.988	103.19
406.212	149.19
406.436	199.19
406.66	135.19
406.883	91.19
407.107	77.19
407.331	84.19
407.555	79.19
407.778	84.19
408.002	100.19
408.226	94.19
408.449	69.19
408.673	70.19
408.896	78.19
409.12	89.19
409.344	79.19
409.567	90.19
409.791	84.19
410.014	97.19
410.238	90.19
410.461	83.19
410.685	103.19
410.908	102.19
411.132	88.19
411.355	106.19
411.578	78.19
411.802	98.19
412.025	87.19
412.249	86.19
412.472	77.19
412.695	66.19
412.919	91.19
413.142	80.19
413.365	81.19
413.589	80.19
413.812	83.19
414.035	83.19
414.258	78.19
414.482	72.19
414.705	84.19
414.928	86.19
415.151	95.19
415.374	88.19
415.597	94.19
415.821	91.19
416.044	88.19
416.267	95.19
416.49	80.19
416.713	83.19
416.936	74.19
417.159	81.19
417.382	97.19
417.605	85.19
417.828	87.19
418.051	77.19
418.274	84.19
418.497	83.19
418.72	79.19
418.943	89.19
419.166	75.19
419.389	86.19
419.611	81.19
419.834	85.19
420.057	76.19
420.28	81.19
420.503	81.19
420.726	74.19
420.948	76.19
421.171	87.19
421.394	78.19
421.617	82.19
421.839	88.19
422.062	77.19
422.285	87.19
422.507	98.19
422.73	104.19
422.953	92.19
423.175	85.19
423.398	89.19
423.621	88.19
423.843	71.19
424.066	82.19
424.288	83.19
424.511	88.19
424.733	95.19
424.956	86.19
425.178	98.19
425.401	102.19
425.623	90.19
425.846	90.19
426.068	88.19
426.291	72.19
426.513	72.19
426.735	87.19
426.958	73.19
427.18	91.19
427.402	119.19
427.625	132.19
427.847	110.19
428.069	87.19
428.292	85.19
428.514	81.19
428.736	78.19
428.958	82.19
429.181	83.19
429.403	85.19
429.625	90.19
429.847	85.19
430.069	89.19
430.292	81.19
430.514	67.19
430.736	88.19
430.958	89.19
431.18	83.19
431.402	93.19
431.624	86.19
431.846	77.19
432.068	86.19
432.29	69.19
432.512	78.19
432.734	87.19
432.956	94.19
433.178	102.19
433.4	82.19
433.622	81.19
433.844	88.19
434.066	86.19
434.287	86.19
434.509	86.19
434.731	85.19
434.953	83.19
435.175	90.19
435.397	76.19
435.618	94.19
435.84	93.19
436.062	111.19
436.284	100.19
436.505	89.19
436.727	100.19
436.949	102.19
437.17	104.19
437.392	77.19
437.614	88.19
437.835	95.19
438.057	100.19
438.278	107.19
438.5	85.19
438.721	104.19
438.943	86.19
439.165	90.19
439.386	80.19
439.608	91.19
439.829	94.19
440.05	92.19
440.272	121.19
440.493	85.19
440.715	85.19
440.936	82.19
441.158	65.19
441.379	83.19
441.6	91.19
441.822	95.19
442.043	81.19
442.264	98.19
442.486	94.19
442.707	71.19
442.928	90.19
443.149	106.19
443.371	107.19
443.592	90.19
443.813	95.19
444.034	80.19
444.255	76.19
444.476	87.19
444.698	85.19
444.919	92.19
445.14	134.19
445.361	106.19
445.582	116.19
445.803	123.19
446.024	118.19
446.245	129.19
446.466	107.19
446.687	90.19
446.908	92.19
447.129	93.19
447.35	97.19
447.571	91.19
447.792	77.19
448.013	78.19
448.234	100.19
448.455	92.19
448.675	96.19
448.896	106.19
449.117	102.19
449.338	105.19
449.559	113.19
449.779	123.19
450	97.19
450.221	84.19
450.442	81.19
450.662	87.19
450.883	93.19
451.104	111.19
451.324	85.19
451.545	85.19
451.766	77.19
451.986	56.19
452.207	84.19
452.428	79.19
452.648	84.19
452.869	105.19
453.089	112.19
453.31	119.19
453.53	97.19
453.751	94.19
453.971	88.19
454.192	93.19
454.412	90.19
454.633	70.19
454.853	100.19
455.073	77.19
455.294	86.19
455.514	81.19
455.734	90.19
455.955	89.19
456.175	83.19
456.395	73.19
456.616	84.19
456.836	85.19
457.056	79.19
457.276	79.19
457.497	75.19
457.717	82.19
457.937	88.19
458.157	78.19
458.377	81.19
458.598	87.19
458.818	119.19
459.038	118.19
459.258	101.19
459.478	78.19
459.698	73.19
459.918	84.19
460.138	90.19
460.358	78.19
460.578	64.19
460.798	77.19
461.018	67.19
461.238	87.19
461.458	89.19
461.678	90.19
461.898	70.19
462.118	66.19
462.338	78.19
462.558	96.19
462.777	74.19
462.997	81.19
463.217	86.19
463.437	83.19
463.657	83.19
463.876	88.19
464.096	76.19
464.316	94.19
464.536	84.19
464.755	91.19
464.975	90.19
465.195	132.19
465.414	119.19
465.634	74.19
465.854	73.19
466.073	93.19
466.293	101.19
466.512	80.19
466.732	75.19
466.951	81.19
467.171	99.19
467.391	101.19
467.61	100.19
467.829	85.19
468.049	85.19
468.268	94.19
468.488	69.19
468.707	74.19
468.927	78.19
469.146	75.19
469.365	76.19
469.585	85.19
469.804	75.19
470.023	86.19
470.243	75.19
470.462	84.19
470.681	89.19
470.901	81.19
471.12	77.19
471.339	79.19
471.558	79.19
471.777	73.19
471.997	72.19
472.216	94.19
472.435	72.19
472.654	98.19
472.873	73.19
473.092	86.19
473.311	81.19
473.53	79.19
473.749	93.19
473.968	88.19
474.187	89.19
474.406	80.19
474.625	76.19
474.844	66.19
475.063	72.19
475.282	84.19
475.501	81.19
475.72	99.19
475.939	79.19
476.158	88.19
476.377	81.19
476.596	90.19
476.814	89.19
477.033	73.19
477.252	93.19
477.471	91.19
477.69	103.19
477.908	87.19
478.127	93.19
478.346	87.19
478.564	93.19
478.783	99.19
479.002	97.19
479.22	82.19
479.439	90.19
479.658	101.19
479.876	94.19
480.095	75.19
480.313	79.19
480.532	90.19
480.751	101.19
480.969	85.19
481.188	105.19
481.406	102.19
481.624	85.19
481.843	87.19
482.061	88.19
482.28	86.19
482.498	78.19
482.717	73.19
482.935	75.19
483.153	89.19
483.372	81.19
483.59	98.19
483.808	89.19
484.027	82.19
484.245	95.19
484.463	90.19
484.681	84.19
484.9	97.19
485.118	100.19
485.336	84.19
485.554	97.19
485.772	91.19
485.99	98.19
486.209	92.19
486.427	95.19
486.645	108.19
486.863	89.19
487.081	97.19
487.299	93.19
487.517	100.19
487.735	81.19
487.953	90.19
488.171	85.19
488.389	97.19
488.607	92.19
488.825	104.19
489.043	91.19
489.261	93.19
489.479	85.19
489.696	71.19
489.914	86.19
490.132	86.19
490.35	87.19
490.568	92.19
490.786	71.19
491.003	104.19
491.221	84.19
491.439	95.19
491.657	97.19
491.874	84.19
492.092	78.19
492.31	86.19
492.527	79.19
492.745	77.19
492.963	87.19
493.18	96.19
493.398	91.19
493.615	88.19
493.833	101.19
494.05	82.19
494.268	95.19
494.485	99.19
494.703	102.19
494.92	79.19
495.138	85.19
495.355	91.19
495.573	77.19
495.79	87.19
496.008	95.19
496.225	87.19
496.442	90.19
496.66	95.19
496.877	87.19
497.094	101.19
497.312	89.19
497.529	80.19
497.746	90.19
497.963	82.19
498.181	92.19
498.398	89.19
498.615	109.19
498.832	96.19
499.049	95.19
499.267	92.19
499.484	98.19
499.701	83.19
499.918	87.19
500.135	80.19
500.352	72.19
500.569	75.19
500.786	91.19
501.003	80.19
501.22	79.19
501.437	73.19
501.654	99.19
501.871	107.19
502.088	95.19
502.305	97.19
502.522	85.19
502.739	84.19
502.956	88.19
503.172	92.19
503.389	92.19
503.606	100.19
503.823	90.19
504.04	85.19
504.256	78.19
504.473	81.19
504.69	92.19
504.907	91.19
505.123	90.19
505.34	77.19
505.557	91.19
505.773	89.19
505.99	104.19
506.207	89.19
506.423	81.19
506.64	86.19
506.856	85.19
507.073	88.19
507.289	76.19
507.506	85.19
507.722	102.19
507.939	99.19
508.155	86.19
508.372	88.19
508.588	81.19
508.805	91.19
509.021	101.19
509.238	93.19
509.454	85.19
509.67	98.19
509.887	96.19
510.103	102.19
510.319	204.19
510.536	619.19
510.752	1901.19
510.968	569.19
511.184	134.19
511.401	98.19
511.617	94.19
511.833	93.19
512.049	101.19
512.265	87.19
512.481	89.19
512.698	87.19
512.914	88.19
513.13	85.19
513.346	94.19
513.562	97.19
513.778	101.19
513.994	107.19
514.21	85.19
514.426	99.19
514.642	120.19
514.858	113.19
515.074	146.19
515.29	365.19
515.506	1141.19
515.721	424.19
515.937	130.19
516.153	103.19
516.369	69.19
516.585	86.19
516.801	92.19
517.016	81.19
517.232	82.19
517.448	102.19
517.664	86.19
517.879	86.19
518.095	80.19
518.311	83.19
518.527	91.19
518.742	91.19
518.958	97.19
519.173	82.19
519.389	97.19
519.605	94.19
519.82	83.19
520.036	95.19
520.251	98.19
520.467	107.19
520.682	83.19
520.898	95.19
521.113	103.19
521.329	135.19
521.544	168.19
521.76	452.19
521.975	1899.19
522.19	1105.19
522.406	265.19
522.621	110.19
522.836	92.19
523.052	101.19
523.267	95.19
523.482	97.19
523.698	94.19
523.913	114.19
524.128	88.19
524.343	77.19
524.559	92.19
524.774	85.19
524.989	96.19
525.204	106.19
525.419	103.19
525.634	83.19
525.849	90.19
526.064	77.19
526.28	88.19
526.495	77.19
526.71	81.19
526.925	79.19
527.14	87.19
527.355	80.19
527.57	82.19
527.785	71.19
527.999	92.19
528.214	103.19
528.429	87.19
528.644	87.19
528.859	94.19
529.074	81.19
529.289	107.19
529.503	141.19
529.718	100.19
529.933	80.19
530.148	88.19
530.363	80.19
530.577	91.19
530.792	83.19
531.007	100.19
531.221	100.19
531.436	87.19
531.651	84.19
531.865	79.19
532.08	79.19
532.295	97.19
532.509	89.19
532.724	95.19
532.938	90.19
533.153	94.19
533.367	78.19
533.582	81.19
533.796	84.19
534.011	91.19
534.225	75.19
534.44	78.19
534.654	87.19
534.868	96.19
535.083	91.19
535.297	80.19
535.511	93.19
535.726	99.19
535.94	91.19
536.154	88.19
536.369	86.19
536.583	100.19
536.797	74.19
537.011	71.19
537.225	94.19
537.44	88.19
537.654	85.19
537.868	89.19
538.082	91.19
538.296	93.19
538.51	94.19
538.724	89.19
538.938	79.19
539.153	99.19
539.367	112.19
539.581	95.19
539.795	94.19
540.009	92.19
540.222	98.19
540.436	81.19
540.65	107.19
540.864	87.19
541.078	94.19
541.292	73.19
541.506	97.19
541.72	90.19
541.934	107.19
542.147	79.19
542.361	90.19
542.575	81.19
542.789	73.19
543.002	86.19
543.216	94.19
543.43	81.19
543.644	94.19
543.857	95.19
544.071	98.19
544.285	79.19
544.498	83.19
544.712	67.19
544.925	75.19
545.139	79.19
545.352	83.19
545.566	92.19
545.779	92.19
545.993	78.19
546.206	99.19
546.42	89.19
546.633	81.19
546.847	86.19
547.06	86.19
547.274	90.19
547.487	88.19
547.7	81.19
547.914	88.19
548.127	94.19
548.34	85.19
548.554	95.19
548.767	94.19
548.98	83.19
549.193	88.19
549.407	66.19
549.62	85.19
549.833	84.19
550.046	87.19
550.259	91.19
550.473	94.19
550.686	71.19
550.899	77.19
551.112	91.19
551.325	91.19
551.538	93.19
551.751	85.19
551.964	92.19
552.177	87.19
552.39	89.19
552.603	75.19
552.816	84.19
553.029	85.19
553.242	89.19
553.455	100.19
553.667	89.19
553.88	96.19
554.093	84.19
554.306	79.19
554.519	84.19
554.732	67.19
554.944	97.19
555.157	100.19
555.37	89.19
555.583	91.19
555.795	93.19
556.008	89.19
556.221	82.19
556.433	89.19
556.646	82.19
556.859	76.19
557.071	96.19
557.284	86.19
557.496	91.19
557.709	81.19
557.921	94.19
558.134	98.19
558.346	77.19
558.559	96.19
558.771	95.19
558.984	75.19
559.196	87.19
559.409	78.19
559.621	85.19
559.833	93.19
560.046	85.19
560.258	85.19
560.47	98.19
560.683	81.19
560.895	93.19
561.107	76.19
561.32	71.19
561.532	83.19
561.744	91.19
561.956	88.19
562.168	93.19
562.381	84.19
562.593	86.19
562.805	84.19
563.017	90.19
563.229	85.19
563.441	82.19
563.653	77.19
563.865	101.19
564.077	94.19
564.289	70.19
564.501	88.19
564.713	88.19
564.925	79.19
565.137	106.19
565.349	80.19
565.561	74.19
565.773	94.19
565.985	88.19
566.197	87.19
566.408	86.19
566.62	83.19
566.832	54.19
567.044	83.19
567.255	88.19
567.467	84.19
567.679	87.19
567.891	93.19
568.102	85.19
568.314	93.19
568.526	81.19
568.737	93.19
568.949	98.19
569.161	73.19
569.372	84.19
569.584	88.19
569.795	89.19
570.007	99.19
570.218	206.19
570.43	126.19
570.641	77.19
570.853	85.19
571.064	71.19
571.276	91.19
571.487	91.19
571.698	87.19
571.91	86.19
572.121	77.19
572.333	89.19
572.544	87.19
572.755	91.19
572.966	69.19
573.178	72.19
573.389	97.19
573.6	72.19
573.811	78.19
574.023	84.19
574.234	90.19
574.445	90.19
574.656	78.19
574.867	80.19
575.078	72.19
575.289	78.19
575.501	100.19
575.712	83.19
575.923	79.19
576.134	81.19
576.345	84.19
576.556	91.19
576.767	83.19
576.978	74.19
577.188	86.19
577.399	86.19
577.61	87.19
577.821	93.19
578.032	103.19
578.243	236.19
578.454	619.19
578.665	182.19
578.875	80.19
579.086	98.19
579.297	74.19
579.508	82.19
579.718	77.19
579.929	83.19
580.14	76.19
580.35	95.19
580.561	93.19
580.772	85.19
580.982	83.19
581.193	92.19
581.403	81.19
581.614	70.19
581.825	87.19
582.035	74.19
582.246	86.19
582.456	81.19
582.667	81.19
582.877	84.19
583.087	95.19
583.298	90.19
583.508	69.19
583.719	88.19
583.929	80.19
584.139	92.19
584.35	81.19
584.56	89.19
584.77	71.19
584.981	83.19
585.191	106.19
585.401	78.19
585.611	84.19
585.821	95.19
586.032	83.19
586.242	83.19
586.452	95.19
586.662	76.19
586.872	92.19
587.082	88.19
587.292	89.19
587.502	76.19
587.713	82.19
587.923	88.19
588.133	98.19
588.343	81.19
588.553	72.19
588.762	98.19
588.972	90.19
589.182	70.19
589.392	83.19
589.602	72.19
589.812	68.19
590.022	79.19
590.232	80.19
590.441	79.19
590.651	81.19
590.861	83.19
591.071	86.19
591.281	63.19
591.49	68.19
591.7	88.19
591.91	92.19
592.119	70.19
592.329	82.19
592.539	78.19
592.748	72.19
592.958	80.19
593.167	95.19
593.377	74.19
593.587	89.19
593.796	79.19
594.006	73.19
594.215	74.19
594.424	75.19
594.634	67.19
594.843	91.19
595.053	82.19
595.262	81.19
595.472	98.19
595.681	79.19
595.89	87.19
596.1	93.19
596.309	75.19
596.518	95.19
596.727	77.19
596.937	84.19
597.146	75.19
597.355	88.19
597.564	78.19
597.774	85.19
597.983	88.19
598.192	78.19
598.401	78.19
598.61	83.19
598.819	75.19
599.028	78.19
599.237	86.19
599.446	77.19
599.655	86.19
599.864	76.19
600.073	78.19
600.282	78.19
600.491	76.19
600.7	71.19
600.909	78.19
601.118	95.19
601.327	77.19
601.536	93.19
601.745	96.19
601.953	79.19
602.162	76.19
602.371	82.19
602.58	83.19
602.789	91.19
602.997	85.19
603.206	78.19
603.415	88.19
603.623	72.19
603.832	79.19
604.041	76.19
604.249	93.19
604.458	89.19
604.666	67.19
604.875	79.19
605.084	74.19
605.292	73.19
605.501	73.19
605.709	82.19
605.918	75.19
606.126	91.19
606.334	86.19
606.543	75.19
606.751	79.19
606.96	77.19
607.168	83.19
607.376	88.19
607.585	69.19
607.793	86.19
608.001	83.19
608.21	71.19
608.418	68.19
608.626	67.19
608.834	91.19
609.043	65.19
609.251	66.19
609.459	84.19
609.667	85.19
609.875	83.19
610.083	87.19
610.291	70.19
610.499	84.19
610.707	85.19
610.916	79.19
611.124	77.19
611.332	79.19
611.54	78.19
611.748	70.19
611.955	79.19
612.163	83.19
612.371	76.19
612.579	66.19
612.787	62.19
612.995	83.19
613.203	83.19
613.411	83.19
613.618	78.19
613.826	80.19
614.034	69.19
614.242	90.19
614.449	83.19
614.657	71.19
614.865	85.19
615.072	87.19
615.28	75.19
615.488	83.19
615.695	93.19
615.903	107.19
616.111	93.19
616.318	86.19
616.526	93.19
616.733	92.19
616.941	91.19
617.148	84.19
617.356	78.19
617.563	93.19
617.771	80.19
617.978	75.19
618.185	85.19
618.393	82.19
618.6	83.19
618.807	94.19
619.015	79.19
619.222	85.19
619.429	75.19
619.637	87.19
619.844	78.19
620.051	80.19
620.258	76.19
620.466	80.19
620.673	95.19
620.88	87.19
621.087	93.19
621.294	73.19
621.501	77.19
621.708	66.19
621.915	78.19
622.122	84.19
622.329	77.19
622.536	78.19
622.743	92.19
622.95	74.19
623.157	80.19
623.364	70.19
623.571	82.19
623.778	76.19
623.985	91.19
624.192	74.19
624.399	70.19
624.606	85.19
624.812	81.19
625.019	81.19
625.226	70.19
625.433	60.19
625.639	86.19
625.846	84.19
626.053	78.19
626.259	77.19
626.466	79.19
626.673	76.19
626.879	89.19
627.086	89.19
627.293	80.19
627.499	81.19
627.706	86.19
627.912	74.19
628.119	87.19
628.325	85.19
628.532	90.19
628.738	81.19
628.945	71.19
629.151	85.19
629.357	77.19
629.564	100.19
629.77	89.19
629.976	75.19
630.183	69.19
630.389	76.19
630.595	63.19
630.802	69.19
631.008	100.19
631.214	61.19
631.42	75.19
631.627	80.19
631.833	93.19
632.039	92.19
632.245	65.19
632.451	76.19
632.657	82.19
632.863	83.19
633.069	77.19
633.275	83.19
633.481	82.19
633.688	73.19
633.893	101.19
634.099	78.19
634.305	70.19
634.511	73.19
634.717	62.19
634.923	90.19
635.129	86.19
635.335	74.19
635.541	68.19
635.747	98.19
635.952	88.19
636.158	81.19
636.364	99.19
636.57	80.19
636.775	78.19
636.981	83.19
637.187	85.19
637.392	77.19
637.598	86.19
637.804	66.19
638.009	72.19
638.215	75.19
638.421	75.19
638.626	94.19
638.832	77.19
639.037	82.19
639.243	78.19
639.448	84.19
639.654	79.19
639.859	92.19
640.065	85.19
640.27	71.19
640.475	79.19
640.681	91.19
640.886	93.19
641.091	74.19
641.297	86.19
641.502	67.19
641.707	76.19
641.913	90.19
642.118	85.19
642.323	79.19
642.528	83.19
642.733	95.19
642.939	92.19
643.144	89.19
643.349	72.19
643.554	79.19
643.759	84.19
643.964	78.19
644.169	74.19
644.374	74.19
644.579	83.19
644.784	90.19
644.989	79.19
645.194	79.19
645.399	68.19
645.604	72.19
645.809	80.19
646.014	68.19
646.219	87.19
646.423	82.19
646.628	85.19
646.833	81.19
647.038	64.19
647.243	87.19
647.447	81.19
647.652	88.19
647.857	78.19
648.062	84.19
648.266	82.19
648.471	70.19
648.676	88.19
648.88	99.19
649.085	103.19
649.289	86.19
649.494	83.19
649.698	116.19
649.903	94.19
650.107	94.19
650.312	92.19
650.516	80.19
650.721	76.19
650.925	76.19
651.13	72.19
651.334	73.19
651.539	75.19
651.743	79.19
651.947	85.19
652.152	89.19
652.356	71.19
652.56	84.19
652.764	61.19
652.969	73.19
653.173	79.19
653.377	73.19
653.581	77.19
653.785	77.19
653.99	76.19
654.194	84.19
654.398	65.19
654.602	83.19
654.806	85.19
655.01	103.19
655.214	83.19
655.418	96.19
655.622	82.19
655.826	77.19
656.03	74.19
656.234	100.19
656.438	104.19
656.642	94.19
656.846	88.19
657.049	90.19
657.253	79.19
657.457	77.19
657.661	81.19
657.865	70.19
658.068	89.19
658.272	72.19
658.476	84.19
658.68	76.19
658.883	83.19
659.087	88.19
659.291	75.19
659.494	78.19
659.698	75.19
659.901	76.19
660.105	67.19
660.309	77.19
660.512	62.19
660.716	81.19
660.919	75.19
661.123	84.19
661.326	73.19
661.53	74.19
661.733	65.19
661.936	74.19
662.14	82.19
662.343	77.19
662.546	73.19
662.75	81.19
662.953	77.19
663.156	79.19
663.36	85.19
663.563	69.19
663.766	83.19
663.969	67.19
664.173	79.19
664.376	79.19
664.579	84.19
664.782	70.19
664.985	75.19
665.188	78.19
665.391	69.19
665.594	81.19
665.797	102.19
666	72.19
666.203	73.19
666.406	74.19
666.609	74.19
666.812	82.19
667.015	75.19
667.218	82.19
667.421	81.19
667.624	69.19
667.827	78.19
668.03	86.19
668.232	66.19
668.435	75.19
668.638	84.19
668.841	93.19
669.043	66.19
669.246	69.19
669.449	82.19
669.651	82.19
669.854	83.19
670.057	73.19
670.259	77.19
670.462	88.19
670.665	79.19
670.867	67.19
671.07	81.19
671.272	79.19
671.475	83.19
671.677	85.19
671.88	73.19
672.082	64.19
672.284	83.19
672.487	74.19
672.689	81.19
672.892	83.19
