Data from Uncirc_1998_H10_HRD10591_00094.txt Node
Date: Wed Jan 03 11:25:43 EST 2024
User: Yrep
Spectrometer: HR+D1059
Trigger mode: 1
Integration Time (sec): 1.000000E-1
Scans to average: 1
Electric dark correction enabled: true
Nonlinearity correction enabled: false
Boxcar width: 0
XAxis mode: Wavelengths
Number of Pixels in Spectrum: 2048
>>>>>Begin Spectral Data<<<<<
223.165	-23.81
223.4	-23.81
223.635	-23.81
223.869	-26.81
224.104	-6.81
224.338	-11.81
224.573	-6.81
224.808	-16.81
225.042	-3.81
225.277	-3.81
225.511	9.19
225.746	4.19
225.98	0.19
226.215	15.19
226.449	-15.81
226.683	27.19
226.918	31.19
227.152	29.19
227.387	32.19
227.621	47.19
227.856	49.19
228.09	43.19
228.324	49.19
228.559	52.19
228.793	62.19
229.027	67.19
229.262	73.19
229.496	58.19
229.73	79.19
229.964	86.19
230.199	61.19
230.433	66.19
230.667	83.19
230.901	79.19
231.136	79.19
231.37	94.19
231.604	66.19
231.838	78.19
232.072	92.19
232.306	79.19
232.541	77.19
232.775	86.19
233.009	88.19
233.243	82.19
233.477	74.19
233.711	78.19
233.945	73.19
234.179	62.19
234.413	95.19
234.647	88.19
234.881	63.19
235.115	76.19
235.349	79.19
235.583	86.19
235.817	73.19
236.051	65.19
236.285	75.19
236.519	89.19
236.753	96.19
236.987	81.19
237.221	91.19
237.455	84.19
237.689	91.19
237.922	77.19
238.156	87.19
238.39	80.19
238.624	75.19
238.858	92.19
239.091	83.19
239.325	91.19
239.559	86.19
239.793	74.19
240.027	87.19
240.26	95.19
240.494	76.19
240.728	71.19
240.961	82.19
241.195	75.19
241.429	90.19
241.662	78.19
241.896	75.19
242.13	81.19
242.363	83.19
242.597	80.19
242.83	79.19
243.064	77.19
243.298	82.19
243.531	81.19
243.765	70.19
243.998	78.19
244.232	97.19
244.465	92.19
244.699	94.19
244.932	79.19
245.166	76.19
245.399	86.19
245.633	84.19
245.866	74.19
246.099	80.19
246.333	78.19
246.566	80.19
246.8	77.19
247.033	93.19
247.266	65.19
247.5	78.19
247.733	69.19
247.966	77.19
248.2	76.19
248.433	81.19
248.666	75.19
248.899	90.19
249.133	87.19
249.366	89.19
249.599	100.19
249.832	85.19
250.066	81.19
250.299	65.19
250.532	74.19
250.765	83.19
250.998	80.19
251.231	81.19
251.465	87.19
251.698	84.19
251.931	73.19
252.164	93.19
252.397	88.19
252.63	97.19
252.863	75.19
253.096	89.19
253.329	85.19
253.562	74.19
253.795	79.19
254.028	75.19
254.261	64.19
254.494	92.19
254.727	83.19
254.96	79.19
255.193	68.19
255.426	101.19
255.659	85.19
255.892	88.19
256.124	61.19
256.357	89.19
256.59	80.19
256.823	92.19
257.056	87.19
257.289	66.19
257.521	75.19
257.754	78.19
257.987	79.19
258.22	75.19
258.452	87.19
258.685	88.19
258.918	76.19
259.151	83.19
259.383	92.19
259.616	77.19
259.849	79.19
260.081	85.19
260.314	64.19
260.547	86.19
260.779	80.19
261.012	71.19
261.244	85.19
261.477	91.19
261.71	95.19
261.942	122.19
262.175	105.19
262.407	88.19
262.64	89.19
262.872	82.19
263.105	93.19
263.337	100.19
263.57	91.19
263.802	69.19
264.035	93.19
264.267	86.19
264.499	78.19
264.732	75.19
264.964	76.19
265.197	82.19
265.429	91.19
265.661	87.19
265.894	73.19
266.126	74.19
266.358	77.19
266.591	71.19
266.823	87.19
267.055	82.19
267.287	87.19
267.52	87.19
267.752	93.19
267.984	82.19
268.216	84.19
268.448	82.19
268.681	73.19
268.913	82.19
269.145	89.19
269.377	87.19
269.609	79.19
269.841	94.19
270.073	94.19
270.306	82.19
270.538	89.19
270.77	85.19
271.002	84.19
271.234	89.19
271.466	75.19
271.698	92.19
271.93	96.19
272.162	82.19
272.394	78.19
272.626	66.19
272.858	78.19
273.09	89.19
273.322	73.19
273.553	97.19
273.785	88.19
274.017	108.19
274.249	94.19
274.481	76.19
274.713	71.19
274.945	76.19
275.176	80.19
275.408	80.19
275.64	83.19
275.872	79.19
276.104	93.19
276.335	84.19
276.567	100.19
276.799	116.19
277.031	92.19
277.262	82.19
277.494	105.19
277.726	91.19
277.957	87.19
278.189	100.19
278.421	95.19
278.652	98.19
278.884	81.19
279.115	77.19
279.347	80.19
279.579	80.19
279.81	92.19
280.042	82.19
280.273	62.19
280.505	84.19
280.736	92.19
280.968	73.19
281.199	92.19
281.431	84.19
281.662	104.19
281.894	83.19
282.125	111.19
282.356	100.19
282.588	118.19
282.819	112.19
283.051	100.19
283.282	84.19
283.513	89.19
283.745	90.19
283.976	94.19
284.207	78.19
284.439	90.19
284.67	86.19
284.901	88.19
285.132	77.19
285.364	90.19
285.595	80.19
285.826	89.19
286.057	84.19
286.288	92.19
286.52	84.19
286.751	83.19
286.982	98.19
287.213	98.19
287.444	90.19
287.675	91.19
287.906	104.19
288.138	103.19
288.369	85.19
288.6	86.19
288.831	84.19
289.062	87.19
289.293	98.19
289.524	83.19
289.755	92.19
289.986	88.19
290.217	86.19
290.448	91.19
290.679	101.19
290.91	100.19
291.141	95.19
291.371	92.19
291.602	97.19
291.833	95.19
292.064	92.19
292.295	102.19
292.526	92.19
292.757	82.19
292.987	91.19
293.218	88.19
293.449	88.19
293.68	92.19
293.91	83.19
294.141	95.19
294.372	90.19
294.603	93.19
294.833	76.19
295.064	91.19
295.295	85.19
295.525	90.19
295.756	109.19
295.987	104.19
296.217	119.19
296.448	108.19
296.679	87.19
296.909	82.19
297.14	91.19
297.37	91.19
297.601	74.19
297.831	99.19
298.062	88.19
298.292	91.19
298.523	87.19
298.753	77.19
298.984	100.19
299.214	84.19
299.445	85.19
299.675	82.19
299.905	80.19
300.136	84.19
300.366	96.19
300.597	84.19
300.827	93.19
301.057	103.19
301.288	102.19
301.518	100.19
301.748	81.19
301.979	85.19
302.209	82.19
302.439	91.19
302.669	94.19
302.9	88.19
303.13	107.19
303.36	101.19
303.59	102.19
303.82	92.19
304.051	95.19
304.281	94.19
304.511	105.19
304.741	92.19
304.971	83.19
305.201	102.19
305.431	99.19
305.661	99.19
305.891	97.19
306.121	104.19
306.352	109.19
306.582	99.19
306.812	96.19
307.042	91.19
307.272	99.19
307.502	102.19
307.731	91.19
307.961	85.19
308.191	94.19
308.421	92.19
308.651	95.19
308.881	89.19
309.111	84.19
309.341	90.19
309.571	108.19
309.8	106.19
310.03	88.19
310.26	93.19
310.49	92.19
310.72	106.19
310.949	90.19
311.179	84.19
311.409	87.19
311.639	98.19
311.868	87.19
312.098	102.19
312.328	85.19
312.557	91.19
312.787	101.19
313.017	98.19
313.246	91.19
313.476	100.19
313.706	96.19
313.935	97.19
314.165	98.19
314.394	93.19
314.624	97.19
314.853	97.19
315.083	87.19
315.312	95.19
315.542	77.19
315.771	109.19
316.001	77.19
316.23	91.19
316.46	81.19
316.689	88.19
316.919	89.19
317.148	95.19
317.377	105.19
317.607	91.19
317.836	85.19
318.065	88.19
318.295	93.19
318.524	98.19
318.753	83.19
318.983	88.19
319.212	88.19
319.441	123.19
319.67	105.19
319.9	99.19
320.129	95.19
320.358	89.19
320.587	95.19
320.816	97.19
321.046	99.19
321.275	92.19
321.504	90.19
321.733	97.19
321.962	111.19
322.191	97.19
322.42	87.19
322.649	104.19
322.878	112.19
323.108	119.19
323.337	124.19
323.566	136.19
323.795	163.19
324.024	184.19
324.253	365.19
324.482	775.19
324.71	1586.19
324.939	2018.19
325.168	739.19
325.397	226.19
325.626	152.19
325.855	123.19
326.084	123.19
326.313	127.19
326.542	164.19
326.77	227.19
326.999	451.19
327.228	891.19
327.457	1566.19
327.686	1249.19
327.914	352.19
328.143	183.19
328.372	151.19
328.6	116.19
328.829	118.19
329.058	127.19
329.287	127.19
329.515	119.19
329.744	103.19
329.972	90.19
330.201	109.19
330.43	110.19
330.658	121.19
330.887	138.19
331.115	113.19
331.344	93.19
331.572	105.19
331.801	106.19
332.03	104.19
332.258	102.19
332.486	96.19
332.715	85.19
332.943	82.19
333.172	88.19
333.4	93.19
333.629	90.19
333.857	106.19
334.085	119.19
334.314	92.19
334.542	90.19
334.771	94.19
334.999	78.19
335.227	89.19
335.455	96.19
335.684	107.19
335.912	95.19
336.14	107.19
336.369	95.19
336.597	98.19
336.825	109.19
337.053	99.19
337.281	80.19
337.51	84.19
337.738	106.19
337.966	101.19
338.194	93.19
338.422	92.19
338.65	87.19
338.878	101.19
339.106	91.19
339.334	87.19
339.562	82.19
339.79	103.19
340.018	95.19
340.246	93.19
340.474	103.19
340.702	100.19
340.93	81.19
341.158	96.19
341.386	99.19
341.614	93.19
341.842	88.19
342.07	87.19
342.298	84.19
342.526	84.19
342.754	89.19
342.981	88.19
343.209	86.19
343.437	101.19
343.665	96.19
343.893	101.19
344.12	77.19
344.348	90.19
344.576	84.19
344.804	96.19
345.031	105.19
345.259	104.19
345.487	85.19
345.714	94.19
345.942	84.19
346.17	96.19
346.397	87.19
346.625	89.19
346.853	88.19
347.08	94.19
347.308	92.19
347.535	94.19
347.763	108.19
347.99	123.19
348.218	108.19
348.445	96.19
348.673	89.19
348.9	97.19
349.128	92.19
349.355	80.19
349.583	93.19
349.81	96.19
350.037	105.19
350.265	109.19
350.492	103.19
350.72	101.19
350.947	103.19
351.174	96.19
351.402	107.19
351.629	107.19
351.856	107.19
352.083	108.19
352.311	97.19
352.538	104.19
352.765	106.19
352.992	101.19
353.22	113.19
353.447	111.19
353.674	93.19
353.901	109.19
354.128	93.19
354.355	99.19
354.583	92.19
354.81	106.19
355.037	94.19
355.264	96.19
355.491	99.19
355.718	101.19
355.945	105.19
356.172	99.19
356.399	106.19
356.626	90.19
356.853	88.19
357.08	104.19
357.307	97.19
357.534	92.19
357.761	82.19
357.988	82.19
358.215	95.19
358.441	88.19
358.668	84.19
358.895	92.19
359.122	81.19
359.349	97.19
359.576	97.19
359.802	108.19
360.029	104.19
360.256	108.19
360.483	102.19
360.709	90.19
360.936	103.19
361.163	88.19
361.39	101.19
361.616	107.19
361.843	93.19
362.07	107.19
362.296	104.19
362.523	93.19
362.749	98.19
362.976	83.19
363.203	93.19
363.429	93.19
363.656	89.19
363.882	92.19
364.109	101.19
364.335	93.19
364.562	83.19
364.788	91.19
365.015	108.19
365.241	95.19
365.468	95.19
365.694	116.19
365.92	96.19
366.147	87.19
366.373	98.19
366.599	95.19
366.826	102.19
367.052	88.19
367.278	96.19
367.505	76.19
367.731	80.19
367.957	87.19
368.184	96.19
368.41	85.19
368.636	127.19
368.862	115.19
369.089	107.19
369.315	93.19
369.541	95.19
369.767	97.19
369.993	98.19
370.219	93.19
370.445	103.19
370.672	75.19
370.898	87.19
371.124	80.19
371.35	81.19
371.576	85.19
371.802	92.19
372.028	85.19
372.254	79.19
372.48	91.19
372.706	89.19
372.932	95.19
373.158	80.19
373.384	80.19
373.61	90.19
373.835	102.19
374.061	85.19
374.287	89.19
374.513	95.19
374.739	91.19
374.965	93.19
375.191	91.19
375.416	92.19
375.642	92.19
375.868	92.19
376.094	96.19
376.319	105.19
376.545	84.19
376.771	92.19
376.997	101.19
377.222	86.19
377.448	96.19
377.674	94.19
377.899	98.19
378.125	78.19
378.35	82.19
378.576	107.19
378.802	94.19
379.027	94.19
379.253	103.19
379.478	94.19
379.704	95.19
379.929	95.19
380.155	108.19
380.38	99.19
380.606	89.19
380.831	84.19
381.057	99.19
381.282	91.19
381.507	92.19
381.733	93.19
381.958	89.19
382.184	106.19
382.409	114.19
382.634	104.19
382.86	103.19
383.085	103.19
383.31	97.19
383.535	98.19
383.761	100.19
383.986	100.19
384.211	88.19
384.436	69.19
384.662	102.19
384.887	92.19
385.112	96.19
385.337	88.19
385.562	111.19
385.787	104.19
386.013	116.19
386.238	105.19
386.463	104.19
386.688	100.19
386.913	95.19
387.138	117.19
387.363	87.19
387.588	105.19
387.813	100.19
388.038	90.19
388.263	95.19
388.488	101.19
388.713	100.19
388.938	108.19
389.163	99.19
389.387	91.19
389.612	106.19
389.837	84.19
390.062	93.19
390.287	95.19
390.512	98.19
390.736	99.19
390.961	93.19
391.186	87.19
391.411	96.19
391.636	92.19
391.86	93.19
392.085	81.19
392.31	83.19
392.534	103.19
392.759	83.19
392.984	97.19
393.208	95.19
393.433	104.19
393.658	96.19
393.882	90.19
394.107	84.19
394.331	89.19
394.556	89.19
394.78	89.19
395.005	97.19
395.229	81.19
395.454	87.19
395.678	87.19
395.903	97.19
396.127	96.19
396.352	95.19
396.576	86.19
396.801	85.19
397.025	86.19
397.249	92.19
397.474	93.19
397.698	99.19
397.922	76.19
398.147	80.19
398.371	77.19
398.595	99.19
398.82	89.19
399.044	79.19
399.268	83.19
399.492	91.19
399.717	87.19
399.941	87.19
400.165	92.19
400.389	81.19
400.613	80.19
400.837	89.19
401.062	86.19
401.286	91.19
401.51	89.19
401.734	83.19
401.958	98.19
402.182	116.19
402.406	146.19
402.63	105.19
402.854	98.19
403.078	86.19
403.302	85.19
403.526	91.19
403.75	96.19
403.974	88.19
404.198	90.19
404.422	97.19
404.645	86.19
404.869	77.19
405.093	98.19
405.317	88.19
405.541	110.19
405.765	109.19
405.988	117.19
406.212	163.19
406.436	221.19
406.66	140.19
406.883	105.19
407.107	88.19
407.331	101.19
407.555	93.19
407.778	111.19
408.002	87.19
408.226	85.19
408.449	90.19
408.673	91.19
408.896	108.19
409.12	96.19
409.344	95.19
409.567	99.19
409.791	71.19
410.014	86.19
410.238	101.19
410.461	95.19
410.685	99.19
410.908	109.19
411.132	127.19
411.355	104.19
411.578	105.19
411.802	81.19
412.025	77.19
412.249	78.19
412.472	82.19
412.695	90.19
412.919	84.19
413.142	88.19
413.365	97.19
413.589	101.19
413.812	93.19
414.035	92.19
414.258	91.19
414.482	82.19
414.705	88.19
414.928	96.19
415.151	91.19
415.374	116.19
415.597	87.19
415.821	87.19
416.044	83.19
416.267	91.19
416.49	86.19
416.713	94.19
416.936	87.19
417.159	89.19
417.382	88.19
417.605	96.19
417.828	106.19
418.051	90.19
418.274	82.19
418.497	85.19
418.72	92.19
418.943	97.19
419.166	97.19
419.389	77.19
419.611	81.19
419.834	88.19
420.057	84.19
420.28	89.19
420.503	90.19
420.726	77.19
420.948	77.19
421.171	88.19
421.394	96.19
421.617	85.19
421.839	99.19
422.062	98.19
422.285	90.19
422.507	92.19
422.73	103.19
422.953	95.19
423.175	92.19
423.398	81.19
423.621	103.19
423.843	104.19
424.066	98.19
424.288	96.19
424.511	93.19
424.733	92.19
424.956	114.19
425.178	81.19
425.401	98.19
425.623	90.19
425.846	95.19
426.068	92.19
426.291	86.19
426.513	107.19
426.735	88.19
426.958	113.19
427.18	123.19
427.402	129.19
427.625	147.19
427.847	124.19
428.069	89.19
428.292	96.19
428.514	88.19
428.736	95.19
428.958	102.19
429.181	74.19
429.403	87.19
429.625	95.19
429.847	72.19
430.069	98.19
430.292	94.19
430.514	80.19
430.736	82.19
430.958	93.19
431.18	78.19
431.402	91.19
431.624	94.19
431.846	83.19
432.068	83.19
432.29	81.19
432.512	95.19
432.734	79.19
432.956	90.19
433.178	91.19
433.4	109.19
433.622	89.19
433.844	85.19
434.066	95.19
434.287	81.19
434.509	90.19
434.731	75.19
434.953	88.19
435.175	86.19
435.397	97.19
435.618	95.19
435.84	92.19
436.062	117.19
436.284	117.19
436.505	93.19
436.727	109.19
436.949	99.19
437.17	94.19
437.392	93.19
437.614	95.19
437.835	105.19
438.057	110.19
438.278	115.19
438.5	108.19
438.721	102.19
438.943	111.19
439.165	80.19
439.386	88.19
439.608	89.19
439.829	94.19
440.05	125.19
440.272	131.19
440.493	100.19
440.715	81.19
440.936	75.19
441.158	79.19
441.379	101.19
441.6	100.19
441.822	100.19
442.043	93.19
442.264	93.19
442.486	104.19
442.707	98.19
442.928	104.19
443.149	135.19
443.371	119.19
443.592	110.19
443.813	96.19
444.034	117.19
444.255	102.19
444.476	93.19
444.698	91.19
444.919	88.19
445.14	123.19
445.361	125.19
445.582	92.19
445.803	128.19
446.024	127.19
446.245	130.19
446.466	97.19
446.687	94.19
446.908	87.19
447.129	83.19
447.35	81.19
447.571	88.19
447.792	86.19
448.013	105.19
448.234	90.19
448.455	106.19
448.675	111.19
448.896	114.19
449.117	93.19
449.338	105.19
449.559	123.19
449.779	129.19
450	102.19
450.221	93.19
450.442	82.19
450.662	105.19
450.883	104.19
451.104	117.19
451.324	94.19
451.545	88.19
451.766	102.19
451.986	100.19
452.207	81.19
452.428	104.19
452.648	99.19
452.869	107.19
453.089	119.19
453.31	122.19
453.53	94.19
453.751	87.19
453.971	108.19
454.192	96.19
454.412	96.19
454.633	89.19
454.853	85.19
455.073	88.19
455.294	89.19
455.514	93.19
455.734	96.19
455.955	92.19
456.175	85.19
456.395	92.19
456.616	85.19
456.836	85.19
457.056	87.19
457.276	84.19
457.497	75.19
457.717	81.19
457.937	81.19
458.157	81.19
458.377	84.19
458.598	99.19
458.818	138.19
459.038	151.19
459.258	110.19
459.478	92.19
459.698	73.19
459.918	84.19
460.138	99.19
460.358	77.19
460.578	96.19
460.798	81.19
461.018	89.19
461.238	86.19
461.458	99.19
461.678	96.19
461.898	72.19
462.118	88.19
462.338	87.19
462.558	95.19
462.777	80.19
462.997	75.19
463.217	95.19
463.437	82.19
463.657	82.19
463.876	103.19
464.096	92.19
464.316	84.19
464.536	84.19
464.755	96.19
464.975	108.19
465.195	152.19
465.414	147.19
465.634	105.19
465.854	81.19
466.073	97.19
466.293	75.19
466.512	89.19
466.732	90.19
466.951	80.19
467.171	89.19
467.391	104.19
467.61	99.19
467.829	95.19
468.049	100.19
468.268	98.19
468.488	90.19
468.707	103.19
468.927	84.19
469.146	83.19
469.365	93.19
469.585	98.19
469.804	91.19
470.023	98.19
470.243	87.19
470.462	104.19
470.681	107.19
470.901	79.19
471.12	81.19
471.339	86.19
471.558	81.19
471.777	92.19
471.997	103.19
472.216	108.19
472.435	110.19
472.654	97.19
472.873	97.19
473.092	79.19
473.311	82.19
473.53	90.19
473.749	86.19
473.968	95.19
474.187	98.19
474.406	85.19
474.625	82.19
474.844	89.19
475.063	92.19
475.282	92.19
475.501	87.19
475.72	75.19
475.939	102.19
476.158	82.19
476.377	87.19
476.596	83.19
476.814	85.19
477.033	86.19
477.252	93.19
477.471	85.19
477.69	92.19
477.908	102.19
478.127	81.19
478.346	94.19
478.564	80.19
478.783	87.19
479.002	93.19
479.22	105.19
479.439	101.19
479.658	110.19
479.876	98.19
480.095	98.19
480.313	99.19
480.532	91.19
480.751	92.19
480.969	107.19
481.188	112.19
481.406	106.19
481.624	88.19
481.843	89.19
482.061	90.19
482.28	77.19
482.498	92.19
482.717	93.19
482.935	90.19
483.153	81.19
483.372	86.19
483.59	76.19
483.808	90.19
484.027	100.19
484.245	98.19
484.463	93.19
484.681	111.19
484.9	87.19
485.118	84.19
485.336	100.19
485.554	98.19
485.772	99.19
485.99	115.19
486.209	101.19
486.427	114.19
486.645	106.19
486.863	110.19
487.081	97.19
487.299	98.19
487.517	91.19
487.735	96.19
487.953	88.19
488.171	100.19
488.389	107.19
488.607	108.19
488.825	92.19
489.043	90.19
489.261	105.19
489.479	99.19
489.696	96.19
489.914	98.19
490.132	87.19
490.35	87.19
490.568	96.19
490.786	101.19
491.003	97.19
491.221	101.19
491.439	91.19
491.657	100.19
491.874	85.19
492.092	82.19
492.31	93.19
492.527	97.19
492.745	95.19
492.963	92.19
493.18	91.19
493.398	90.19
493.615	88.19
493.833	86.19
494.05	88.19
494.268	83.19
494.485	94.19
494.703	87.19
494.92	95.19
495.138	95.19
495.355	99.19
495.573	94.19
495.79	92.19
496.008	96.19
496.225	88.19
496.442	93.19
496.66	90.19
496.877	95.19
497.094	82.19
497.312	100.19
497.529	99.19
497.746	98.19
497.963	94.19
498.181	99.19
498.398	98.19
498.615	106.19
498.832	106.19
499.049	95.19
499.267	101.19
499.484	100.19
499.701	89.19
499.918	99.19
500.135	84.19
500.352	85.19
500.569	93.19
500.786	97.19
501.003	102.19
501.22	101.19
501.437	99.19
501.654	104.19
501.871	96.19
502.088	99.19
502.305	94.19
502.522	90.19
502.739	104.19
502.956	94.19
503.172	88.19
503.389	99.19
503.606	97.19
503.823	91.19
504.04	97.19
504.256	98.19
504.473	98.19
504.69	88.19
504.907	99.19
505.123	96.19
505.34	101.19
505.557	101.19
505.773	94.19
505.99	98.19
506.207	101.19
506.423	91.19
506.64	87.19
506.856	90.19
507.073	90.19
507.289	85.19
507.506	102.19
507.722	101.19
507.939	103.19
508.155	91.19
508.372	99.19
508.588	100.19
508.805	103.19
509.021	99.19
509.238	104.19
509.454	90.19
509.67	101.19
509.887	112.19
510.103	124.19
510.319	201.19
510.536	698.19
510.752	2023.19
510.968	561.19
511.184	159.19
511.401	119.19
511.617	96.19
511.833	103.19
512.049	99.19
512.265	71.19
512.481	96.19
512.698	105.19
512.914	95.19
513.13	85.19
513.346	86.19
513.562	92.19
513.778	103.19
513.994	92.19
514.21	100.19
514.426	112.19
514.642	129.19
514.858	130.19
515.074	167.19
515.29	397.19
515.506	1189.19
515.721	460.19
515.937	135.19
516.153	99.19
516.369	98.19
516.585	97.19
516.801	90.19
517.016	80.19
517.232	82.19
517.448	82.19
517.664	90.19
517.879	92.19
518.095	103.19
518.311	99.19
518.527	101.19
518.742	92.19
518.958	90.19
519.173	99.19
519.389	87.19
519.605	99.19
519.82	100.19
520.036	104.19
520.251	110.19
520.467	111.19
520.682	106.19
520.898	108.19
521.113	113.19
521.329	127.19
521.544	179.19
521.76	505.19
521.975	2043.19
522.19	1188.19
522.406	269.19
522.621	130.19
522.836	93.19
523.052	102.19
523.267	98.19
523.482	87.19
523.698	93.19
523.913	103.19
524.128	101.19
524.343	89.19
524.559	87.19
524.774	90.19
524.989	108.19
525.204	104.19
525.419	99.19
525.634	100.19
525.849	97.19
526.064	85.19
526.28	95.19
526.495	88.19
526.71	79.19
526.925	96.19
527.14	74.19
527.355	97.19
527.57	96.19
527.785	92.19
527.999	80.19
528.214	90.19
528.429	89.19
528.644	89.19
528.859	94.19
529.074	87.19
529.289	116.19
529.503	172.19
529.718	88.19
529.933	100.19
530.148	89.19
530.363	98.19
530.577	83.19
530.792	89.19
531.007	86.19
531.221	98.19
531.436	89.19
531.651	94.19
531.865	84.19
532.08	105.19
532.295	101.19
532.509	100.19
532.724	115.19
532.938	93.19
533.153	101.19
533.367	85.19
533.582	103.19
533.796	96.19
534.011	81.19
534.225	95.19
534.44	100.19
534.654	98.19
534.868	95.19
535.083	93.19
535.297	92.19
535.511	113.19
535.726	85.19
535.94	92.19
536.154	98.19
536.369	75.19
536.583	102.19
536.797	103.19
537.011	96.19
537.225	91.19
537.44	84.19
537.654	85.19
537.868	99.19
538.082	106.19
538.296	94.19
538.51	93.19
538.724	94.19
538.938	85.19
539.153	94.19
539.367	81.19
539.581	82.19
539.795	94.19
540.009	97.19
540.222	95.19
540.436	88.19
540.65	86.19
540.864	92.19
541.078	110.19
541.292	89.19
541.506	86.19
541.72	83.19
541.934	84.19
542.147	80.19
542.361	93.19
542.575	91.19
542.789	80.19
543.002	81.19
543.216	98.19
543.43	108.19
543.644	95.19
543.857	87.19
544.071	85.19
544.285	100.19
544.498	90.19
544.712	85.19
544.925	76.19
545.139	100.19
545.352	93.19
545.566	97.19
545.779	87.19
545.993	81.19
546.206	97.19
546.42	84.19
546.633	100.19
546.847	91.19
547.06	98.19
547.274	91.19
547.487	90.19
547.7	92.19
547.914	88.19
548.127	84.19
548.34	101.19
548.554	92.19
548.767	89.19
548.98	89.19
549.193	83.19
549.407	98.19
549.62	100.19
549.833	93.19
550.046	97.19
550.259	87.19
550.473	101.19
550.686	89.19
550.899	97.19
551.112	95.19
551.325	98.19
551.538	92.19
551.751	112.19
551.964	92.19
552.177	105.19
552.39	101.19
552.603	93.19
552.816	101.19
553.029	92.19
553.242	85.19
553.455	108.19
553.667	109.19
553.88	97.19
554.093	80.19
554.306	106.19
554.519	93.19
554.732	89.19
554.944	96.19
555.157	82.19
555.37	96.19
555.583	80.19
555.795	79.19
556.008	101.19
556.221	81.19
556.433	89.19
556.646	98.19
556.859	88.19
557.071	92.19
557.284	97.19
557.496	85.19
557.709	96.19
557.921	86.19
558.134	90.19
558.346	99.19
558.559	96.19
558.771	88.19
558.984	97.19
559.196	92.19
559.409	88.19
559.621	94.19
559.833	88.19
560.046	84.19
560.258	88.19
560.47	90.19
560.683	89.19
560.895	91.19
561.107	100.19
561.32	95.19
561.532	91.19
561.744	101.19
561.956	102.19
562.168	98.19
562.381	93.19
562.593	87.19
562.805	88.19
563.017	93.19
563.229	86.19
563.441	86.19
563.653	100.19
563.865	92.19
564.077	97.19
564.289	83.19
564.501	80.19
564.713	92.19
564.925	106.19
565.137	105.19
565.349	96.19
565.561	112.19
565.773	91.19
565.985	94.19
566.197	85.19
566.408	84.19
566.62	73.19
566.832	88.19
567.044	84.19
567.255	89.19
567.467	87.19
567.679	89.19
567.891	95.19
568.102	87.19
568.314	90.19
568.526	75.19
568.737	99.19
568.949	80.19
569.161	82.19
569.372	96.19
569.584	79.19
569.795	91.19
570.007	114.19
570.218	226.19
570.43	138.19
570.641	97.19
570.853	87.19
571.064	90.19
571.276	75.19
571.487	65.19
571.698	97.19
571.91	92.19
572.121	85.19
572.333	85.19
572.544	99.19
572.755	106.19
572.966	89.19
573.178	91.19
573.389	92.19
573.6	87.19
573.811	87.19
574.023	87.19
574.234	94.19
574.445	84.19
574.656	77.19
574.867	100.19
575.078	96.19
575.289	78.19
575.501	88.19
575.712	83.19
575.923	81.19
576.134	92.19
576.345	80.19
576.556	106.19
576.767	85.19
576.978	83.19
577.188	95.19
577.399	80.19
577.61	106.19
577.821	98.19
578.032	118.19
578.243	257.19
578.454	652.19
578.665	203.19
578.875	112.19
579.086	87.19
579.297	96.19
579.508	77.19
579.718	99.19
579.929	76.19
580.14	81.19
580.35	81.19
580.561	88.19
580.772	87.19
580.982	99.19
581.193	91.19
581.403	103.19
581.614	102.19
581.825	87.19
582.035	100.19
582.246	92.19
582.456	72.19
582.667	89.19
582.877	76.19
583.087	84.19
583.298	87.19
583.508	91.19
583.719	87.19
583.929	95.19
584.139	81.19
584.35	83.19
584.56	83.19
584.77	80.19
584.981	78.19
585.191	95.19
585.401	96.19
585.611	88.19
585.821	85.19
586.032	80.19
586.242	79.19
586.452	92.19
586.662	85.19
586.872	84.19
587.082	100.19
587.292	96.19
587.502	93.19
587.713	87.19
587.923	83.19
588.133	83.19
588.343	90.19
588.553	93.19
588.762	94.19
588.972	91.19
589.182	69.19
589.392	79.19
589.602	79.19
589.812	83.19
590.022	81.19
590.232	92.19
590.441	91.19
590.651	89.19
590.861	89.19
591.071	92.19
591.281	77.19
591.49	77.19
591.7	96.19
591.91	90.19
592.119	92.19
592.329	89.19
592.539	92.19
592.748	92.19
592.958	90.19
593.167	79.19
593.377	73.19
593.587	92.19
593.796	92.19
594.006	96.19
594.215	89.19
594.424	96.19
594.634	101.19
594.843	75.19
595.053	97.19
595.262	89.19
595.472	98.19
595.681	91.19
595.89	97.19
596.1	87.19
596.309	91.19
596.518	84.19
596.727	95.19
596.937	81.19
597.146	95.19
597.355	84.19
597.564	84.19
597.774	94.19
597.983	82.19
598.192	83.19
598.401	88.19
598.61	89.19
598.819	88.19
599.028	89.19
599.237	82.19
599.446	65.19
599.655	94.19
599.864	92.19
600.073	104.19
600.282	95.19
600.491	86.19
600.7	83.19
600.909	84.19
601.118	96.19
601.327	89.19
601.536	83.19
601.745	99.19
601.953	86.19
602.162	90.19
602.371	83.19
602.58	100.19
602.789	84.19
602.997	74.19
603.206	93.19
603.415	96.19
603.623	99.19
603.832	101.19
604.041	90.19
604.249	89.19
604.458	96.19
604.666	104.19
604.875	97.19
605.084	87.19
605.292	78.19
605.501	84.19
605.709	97.19
605.918	89.19
606.126	97.19
606.334	88.19
606.543	83.19
606.751	94.19
606.96	84.19
607.168	98.19
607.376	89.19
607.585	90.19
607.793	93.19
608.001	87.19
608.21	87.19
608.418	80.19
608.626	80.19
608.834	105.19
609.043	86.19
609.251	99.19
609.459	84.19
609.667	90.19
609.875	84.19
610.083	91.19
610.291	95.19
610.499	82.19
610.707	81.19
610.916	79.19
611.124	85.19
611.332	90.19
611.54	82.19
611.748	81.19
611.955	81.19
612.163	91.19
612.371	92.19
612.579	80.19
612.787	84.19
612.995	88.19
613.203	86.19
613.411	82.19
613.618	91.19
613.826	88.19
614.034	84.19
614.242	92.19
614.449	93.19
614.657	84.19
614.865	87.19
615.072	82.19
615.28	96.19
615.488	95.19
615.695	100.19
615.903	99.19
616.111	99.19
616.318	107.19
616.526	91.19
616.733	97.19
616.941	87.19
617.148	90.19
617.356	79.19
617.563	92.19
617.771	109.19
617.978	82.19
618.185	84.19
618.393	92.19
618.6	74.19
618.807	90.19
619.015	80.19
619.222	93.19
619.429	79.19
619.637	81.19
619.844	96.19
620.051	81.19
620.258	82.19
620.466	91.19
620.673	95.19
620.88	86.19
621.087	79.19
621.294	82.19
621.501	75.19
621.708	71.19
621.915	74.19
622.122	88.19
622.329	93.19
622.536	80.19
622.743	87.19
622.95	86.19
623.157	93.19
623.364	80.19
623.571	84.19
623.778	95.19
623.985	93.19
624.192	85.19
624.399	67.19
624.606	88.19
624.812	75.19
625.019	73.19
625.226	75.19
625.433	86.19
625.639	79.19
625.846	87.19
626.053	95.19
626.259	83.19
626.466	90.19
626.673	96.19
626.879	90.19
627.086	63.19
627.293	84.19
627.499	89.19
627.706	93.19
627.912	76.19
628.119	74.19
628.325	75.19
628.532	80.19
628.738	95.19
628.945	91.19
629.151	83.19
629.357	75.19
629.564	79.19
629.77	84.19
629.976	76.19
630.183	82.19
630.389	74.19
630.595	77.19
630.802	92.19
631.008	84.19
631.214	85.19
631.42	88.19
631.627	93.19
631.833	98.19
632.039	88.19
632.245	79.19
632.451	89.19
632.657	87.19
632.863	76.19
633.069	89.19
633.275	81.19
633.481	108.19
633.688	95.19
633.893	93.19
634.099	98.19
634.305	90.19
634.511	90.19
634.717	108.19
634.923	72.19
635.129	79.19
635.335	72.19
635.541	81.19
635.747	91.19
635.952	99.19
636.158	80.19
636.364	84.19
636.57	99.19
636.775	88.19
636.981	67.19
637.187	82.19
637.392	88.19
637.598	79.19
637.804	98.19
638.009	90.19
638.215	87.19
638.421	97.19
638.626	92.19
638.832	91.19
639.037	94.19
639.243	98.19
639.448	76.19
639.654	95.19
639.859	95.19
640.065	98.19
640.27	88.19
640.475	75.19
640.681	75.19
640.886	90.19
641.091	91.19
641.297	87.19
641.502	86.19
641.707	72.19
641.913	91.19
642.118	95.19
642.323	92.19
642.528	85.19
642.733	98.19
642.939	82.19
643.144	93.19
643.349	87.19
643.554	84.19
643.759	106.19
643.964	84.19
644.169	88.19
644.374	79.19
644.579	83.19
644.784	71.19
644.989	85.19
645.194	93.19
645.399	88.19
645.604	87.19
645.809	78.19
646.014	87.19
646.219	87.19
646.423	89.19
646.628	88.19
646.833	82.19
647.038	93.19
647.243	97.19
647.447	103.19
647.652	90.19
647.857	96.19
648.062	87.19
648.266	86.19
648.471	80.19
648.676	91.19
648.88	90.19
649.085	87.19
649.289	95.19
649.494	104.19
649.698	120.19
649.903	87.19
650.107	82.19
650.312	90.19
650.516	90.19
650.721	100.19
650.925	75.19
651.13	89.19
651.334	73.19
651.539	89.19
651.743	79.19
651.947	89.19
652.152	81.19
652.356	80.19
652.56	82.19
652.764	91.19
652.969	95.19
653.173	72.19
653.377	92.19
653.581	79.19
653.785	84.19
653.99	82.19
654.194	80.19
654.398	78.19
654.602	76.19
654.806	91.19
655.01	97.19
655.214	91.19
655.418	89.19
655.622	79.19
655.826	92.19
656.03	95.19
656.234	100.19
656.438	93.19
656.642	96.19
656.846	86.19
657.049	89.19
657.253	97.19
657.457	95.19
657.661	91.19
657.865	94.19
658.068	81.19
658.272	79.19
658.476	88.19
658.68	86.19
658.883	81.19
659.087	84.19
659.291	84.19
659.494	80.19
659.698	91.19
659.901	80.19
660.105	85.19
660.309	97.19
660.512	68.19
660.716	101.19
660.919	83.19
661.123	92.19
661.326	73.19
661.53	74.19
661.733	90.19
661.936	71.19
662.14	84.19
662.343	72.19
662.546	86.19
662.75	110.19
662.953	82.19
663.156	78.19
663.36	91.19
663.563	83.19
663.766	78.19
663.969	80.19
664.173	89.19
664.376	71.19
664.579	82.19
664.782	86.19
664.985	83.19
665.188	78.19
665.391	73.19
665.594	64.19
665.797	79.19
666	74.19
666.203	75.19
666.406	80.19
666.609	87.19
666.812	94.19
667.015	85.19
667.218	81.19
667.421	93.19
667.624	87.19
667.827	77.19
668.03	83.19
668.232	86.19
668.435	87.19
668.638	68.19
668.841	78.19
669.043	95.19
669.246	84.19
669.449	75.19
669.651	73.19
669.854	88.19
670.057	80.19
670.259	89.19
670.462	81.19
670.665	65.19
670.867	92.19
671.07	86.19
671.272	76.19
671.475	81.19
671.677	93.19
671.88	83.19
672.082	84.19
672.284	90.19
672.487	89.19
672.689	86.19
672.892	71.19
