Data from Uncirc_1998_H10_HRD10591_00064.txt Node
Date: Wed Jan 03 11:25:37 EST 2024
User: Yrep
Spectrometer: HR+D1059
Trigger mode: 1
Integration Time (sec): 1.000000E-1
Scans to average: 1
Electric dark correction enabled: true
Nonlinearity correction enabled: false
Boxcar width: 0
XAxis mode: Wavelengths
Number of Pixels in Spectrum: 2048
>>>>>Begin Spectral Data<<<<<
223.165	-20.25
223.4	-20.25
223.635	-20.25
223.869	-22.25
224.104	-19.25
224.338	-26.25
224.573	-4.25
224.808	-24.25
225.042	-14.25
225.277	-7.25
225.511	12.75
225.746	0.75
225.98	9.75
226.215	13.75
226.449	23.75
226.683	34.75
226.918	22.75
227.152	19.75
227.387	38.75
227.621	23.75
227.856	33.75
228.09	34.75
228.324	45.75
228.559	42.75
228.793	58.75
229.027	61.75
229.262	62.75
229.496	71.75
229.73	73.75
229.964	88.75
230.199	80.75
230.433	70.75
230.667	84.75
230.901	84.75
231.136	72.75
231.37	70.75
231.604	87.75
231.838	76.75
232.072	75.75
232.306	85.75
232.541	83.75
232.775	75.75
233.009	82.75
233.243	69.75
233.477	62.75
233.711	67.75
233.945	69.75
234.179	70.75
234.413	89.75
234.647	92.75
234.881	75.75
235.115	58.75
235.349	65.75
235.583	87.75
235.817	87.75
236.051	78.75
236.285	87.75
236.519	71.75
236.753	80.75
236.987	70.75
237.221	78.75
237.455	82.75
237.689	58.75
237.922	64.75
238.156	81.75
238.39	94.75
238.624	74.75
238.858	80.75
239.091	79.75
239.325	78.75
239.559	85.75
239.793	81.75
240.027	75.75
240.26	69.75
240.494	85.75
240.728	80.75
240.961	86.75
241.195	80.75
241.429	68.75
241.662	78.75
241.896	83.75
242.13	72.75
242.363	76.75
242.597	61.75
242.83	69.75
243.064	72.75
243.298	67.75
243.531	73.75
243.765	69.75
243.998	93.75
244.232	75.75
244.465	103.75
244.699	80.75
244.932	75.75
245.166	87.75
245.399	81.75
245.633	76.75
245.866	85.75
246.099	70.75
246.333	76.75
246.566	83.75
246.8	71.75
247.033	71.75
247.266	80.75
247.5	78.75
247.733	78.75
247.966	76.75
248.2	71.75
248.433	77.75
248.666	57.75
248.899	87.75
249.133	80.75
249.366	87.75
249.599	100.75
249.832	72.75
250.066	83.75
250.299	80.75
250.532	74.75
250.765	95.75
250.998	75.75
251.231	86.75
251.465	85.75
251.698	83.75
251.931	77.75
252.164	68.75
252.397	71.75
252.63	83.75
252.863	74.75
253.096	79.75
253.329	78.75
253.562	74.75
253.795	78.75
254.028	75.75
254.261	83.75
254.494	74.75
254.727	79.75
254.96	71.75
255.193	77.75
255.426	68.75
255.659	81.75
255.892	92.75
256.124	69.75
256.357	79.75
256.59	89.75
256.823	79.75
257.056	88.75
257.289	81.75
257.521	81.75
257.754	76.75
257.987	78.75
258.22	94.75
258.452	78.75
258.685	80.75
258.918	94.75
259.151	89.75
259.383	61.75
259.616	89.75
259.849	72.75
260.081	85.75
260.314	81.75
260.547	77.75
260.779	82.75
261.012	88.75
261.244	94.75
261.477	87.75
261.71	89.75
261.942	103.75
262.175	114.75
262.407	90.75
262.64	81.75
262.872	71.75
263.105	87.75
263.337	89.75
263.57	89.75
263.802	93.75
264.035	83.75
264.267	84.75
264.499	74.75
264.732	76.75
264.964	79.75
265.197	83.75
265.429	75.75
265.661	77.75
265.894	91.75
266.126	92.75
266.358	85.75
266.591	79.75
266.823	70.75
267.055	79.75
267.287	83.75
267.52	84.75
267.752	78.75
267.984	73.75
268.216	80.75
268.448	94.75
268.681	82.75
268.913	92.75
269.145	92.75
269.377	77.75
269.609	90.75
269.841	73.75
270.073	86.75
270.306	84.75
270.538	85.75
270.77	77.75
271.002	87.75
271.234	86.75
271.466	88.75
271.698	84.75
271.93	76.75
272.162	89.75
272.394	93.75
272.626	87.75
272.858	75.75
273.09	89.75
273.322	92.75
273.553	94.75
273.785	86.75
274.017	81.75
274.249	71.75
274.481	76.75
274.713	86.75
274.945	87.75
275.176	82.75
275.408	79.75
275.64	90.75
275.872	84.75
276.104	88.75
276.335	96.75
276.567	87.75
276.799	94.75
277.031	105.75
277.262	88.75
277.494	85.75
277.726	95.75
277.957	83.75
278.189	82.75
278.421	69.75
278.652	85.75
278.884	88.75
279.115	78.75
279.347	104.75
279.579	88.75
279.81	87.75
280.042	78.75
280.273	80.75
280.505	89.75
280.736	84.75
280.968	79.75
281.199	65.75
281.431	87.75
281.662	86.75
281.894	75.75
282.125	92.75
282.356	107.75
282.588	119.75
282.819	116.75
283.051	86.75
283.282	73.75
283.513	87.75
283.745	80.75
283.976	84.75
284.207	77.75
284.439	84.75
284.67	90.75
284.901	83.75
285.132	83.75
285.364	79.75
285.595	90.75
285.826	84.75
286.057	96.75
286.288	78.75
286.52	80.75
286.751	94.75
286.982	84.75
287.213	68.75
287.444	85.75
287.675	96.75
287.906	91.75
288.138	77.75
288.369	92.75
288.6	100.75
288.831	92.75
289.062	85.75
289.293	92.75
289.524	89.75
289.755	81.75
289.986	80.75
290.217	79.75
290.448	91.75
290.679	85.75
290.91	81.75
291.141	87.75
291.371	99.75
291.602	85.75
291.833	76.75
292.064	74.75
292.295	74.75
292.526	83.75
292.757	82.75
292.987	93.75
293.218	86.75
293.449	88.75
293.68	79.75
293.91	81.75
294.141	95.75
294.372	96.75
294.603	72.75
294.833	90.75
295.064	84.75
295.295	86.75
295.525	79.75
295.756	91.75
295.987	104.75
296.217	112.75
296.448	109.75
296.679	80.75
296.909	91.75
297.14	93.75
297.37	87.75
297.601	84.75
297.831	96.75
298.062	86.75
298.292	76.75
298.523	74.75
298.753	105.75
298.984	100.75
299.214	96.75
299.445	100.75
299.675	89.75
299.905	95.75
300.136	77.75
300.366	84.75
300.597	98.75
300.827	92.75
301.057	82.75
301.288	97.75
301.518	93.75
301.748	97.75
301.979	101.75
302.209	83.75
302.439	84.75
302.669	67.75
302.9	93.75
303.13	81.75
303.36	95.75
303.59	99.75
303.82	94.75
304.051	100.75
304.281	86.75
304.511	98.75
304.741	95.75
304.971	101.75
305.201	97.75
305.431	98.75
305.661	84.75
305.891	92.75
306.121	90.75
306.352	71.75
306.582	114.75
306.812	89.75
307.042	92.75
307.272	104.75
307.502	93.75
307.731	97.75
307.961	85.75
308.191	76.75
308.421	85.75
308.651	101.75
308.881	91.75
309.111	83.75
309.341	97.75
309.571	93.75
309.8	103.75
310.03	103.75
310.26	95.75
310.49	84.75
310.72	77.75
310.949	88.75
311.179	100.75
311.409	97.75
311.639	92.75
311.868	85.75
312.098	78.75
312.328	77.75
312.557	94.75
312.787	109.75
313.017	97.75
313.246	94.75
313.476	103.75
313.706	83.75
313.935	91.75
314.165	86.75
314.394	87.75
314.624	98.75
314.853	97.75
315.083	87.75
315.312	85.75
315.542	89.75
315.771	94.75
316.001	90.75
316.23	91.75
316.46	87.75
316.689	86.75
316.919	83.75
317.148	95.75
317.377	88.75
317.607	87.75
317.836	101.75
318.065	98.75
318.295	93.75
318.524	83.75
318.753	93.75
318.983	88.75
319.212	104.75
319.441	127.75
319.67	100.75
319.9	84.75
320.129	94.75
320.358	88.75
320.587	74.75
320.816	106.75
321.046	95.75
321.275	102.75
321.504	77.75
321.733	88.75
321.962	108.75
322.191	100.75
322.42	89.75
322.649	102.75
322.878	105.75
323.108	120.75
323.337	115.75
323.566	133.75
323.795	143.75
324.024	197.75
324.253	343.75
324.482	768.75
324.71	1510.75
324.939	2079.75
325.168	749.75
325.397	237.75
325.626	127.75
325.855	117.75
326.084	138.75
326.313	143.75
326.542	140.75
326.77	207.75
326.999	434.75
327.228	908.75
327.457	1572.75
327.686	1261.75
327.914	339.75
328.143	183.75
328.372	147.75
328.6	103.75
328.829	93.75
329.058	112.75
329.287	110.75
329.515	94.75
329.744	100.75
329.972	96.75
330.201	89.75
330.43	117.75
330.658	122.75
330.887	128.75
331.115	119.75
331.344	102.75
331.572	105.75
331.801	110.75
332.03	107.75
332.258	103.75
332.486	91.75
332.715	97.75
332.943	94.75
333.172	87.75
333.4	100.75
333.629	101.75
333.857	95.75
334.085	99.75
334.314	87.75
334.542	114.75
334.771	89.75
334.999	95.75
335.227	93.75
335.455	104.75
335.684	91.75
335.912	103.75
336.14	91.75
336.369	99.75
336.597	100.75
336.825	92.75
337.053	80.75
337.281	98.75
337.51	107.75
337.738	94.75
337.966	90.75
338.194	87.75
338.422	82.75
338.65	91.75
338.878	96.75
339.106	100.75
339.334	86.75
339.562	91.75
339.79	96.75
340.018	87.75
340.246	84.75
340.474	80.75
340.702	88.75
340.93	95.75
341.158	95.75
341.386	81.75
341.614	89.75
341.842	86.75
342.07	90.75
342.298	106.75
342.526	90.75
342.754	73.75
342.981	66.75
343.209	92.75
343.437	103.75
343.665	78.75
343.893	90.75
344.12	82.75
344.348	92.75
344.576	88.75
344.804	81.75
345.031	89.75
345.259	75.75
345.487	95.75
345.714	102.75
345.942	103.75
346.17	95.75
346.397	95.75
346.625	92.75
346.853	88.75
347.08	84.75
347.308	93.75
347.535	94.75
347.763	92.75
347.99	97.75
348.218	108.75
348.445	96.75
348.673	91.75
348.9	87.75
349.128	92.75
349.355	94.75
349.583	89.75
349.81	84.75
350.037	109.75
350.265	89.75
350.492	76.75
350.72	87.75
350.947	97.75
351.174	104.75
351.402	102.75
351.629	77.75
351.856	106.75
352.083	91.75
352.311	88.75
352.538	99.75
352.765	92.75
352.992	112.75
353.22	94.75
353.447	100.75
353.674	89.75
353.901	91.75
354.128	86.75
354.355	87.75
354.583	91.75
354.81	90.75
355.037	88.75
355.264	78.75
355.491	90.75
355.718	87.75
355.945	88.75
356.172	95.75
356.399	82.75
356.626	81.75
356.853	91.75
357.08	88.75
357.307	100.75
357.534	97.75
357.761	96.75
357.988	83.75
358.215	87.75
358.441	76.75
358.668	82.75
358.895	88.75
359.122	87.75
359.349	79.75
359.576	94.75
359.802	84.75
360.029	101.75
360.256	107.75
360.483	99.75
360.709	92.75
360.936	97.75
361.163	87.75
361.39	85.75
361.616	104.75
361.843	78.75
362.07	85.75
362.296	87.75
362.523	78.75
362.749	97.75
362.976	87.75
363.203	84.75
363.429	63.75
363.656	83.75
363.882	89.75
364.109	86.75
364.335	104.75
364.562	97.75
364.788	85.75
365.015	78.75
365.241	98.75
365.468	101.75
365.694	110.75
365.92	81.75
366.147	93.75
366.373	91.75
366.599	94.75
366.826	92.75
367.052	91.75
367.278	89.75
367.505	85.75
367.731	92.75
367.957	93.75
368.184	92.75
368.41	101.75
368.636	98.75
368.862	120.75
369.089	92.75
369.315	83.75
369.541	87.75
369.767	84.75
369.993	85.75
370.219	76.75
370.445	81.75
370.672	96.75
370.898	84.75
371.124	94.75
371.35	79.75
371.576	89.75
371.802	86.75
372.028	85.75
372.254	93.75
372.48	91.75
372.706	89.75
372.932	87.75
373.158	85.75
373.384	95.75
373.61	72.75
373.835	96.75
374.061	80.75
374.287	78.75
374.513	89.75
374.739	87.75
374.965	96.75
375.191	99.75
375.416	91.75
375.642	78.75
375.868	93.75
376.094	85.75
376.319	84.75
376.545	79.75
376.771	78.75
376.997	92.75
377.222	83.75
377.448	80.75
377.674	81.75
377.899	88.75
378.125	87.75
378.35	86.75
378.576	86.75
378.802	96.75
379.027	101.75
379.253	94.75
379.478	100.75
379.704	86.75
379.929	77.75
380.155	87.75
380.38	79.75
380.606	101.75
380.831	89.75
381.057	95.75
381.282	86.75
381.507	92.75
381.733	83.75
381.958	88.75
382.184	88.75
382.409	93.75
382.634	97.75
382.86	84.75
383.085	108.75
383.31	100.75
383.535	109.75
383.761	112.75
383.986	84.75
384.211	98.75
384.436	102.75
384.662	85.75
384.887	92.75
385.112	76.75
385.337	102.75
385.562	96.75
385.787	91.75
386.013	106.75
386.238	112.75
386.463	101.75
386.688	105.75
386.913	100.75
387.138	109.75
387.363	104.75
387.588	92.75
387.813	95.75
388.038	96.75
388.263	126.75
388.488	106.75
388.713	96.75
388.938	95.75
389.163	103.75
389.387	101.75
389.612	85.75
389.837	88.75
390.062	87.75
390.287	81.75
390.512	93.75
390.736	85.75
390.961	88.75
391.186	91.75
391.411	93.75
391.636	78.75
391.86	103.75
392.085	82.75
392.31	77.75
392.534	91.75
392.759	78.75
392.984	96.75
393.208	89.75
393.433	81.75
393.658	85.75
393.882	87.75
394.107	85.75
394.331	88.75
394.556	85.75
394.78	90.75
395.005	97.75
395.229	90.75
395.454	92.75
395.678	89.75
395.903	92.75
396.127	84.75
396.352	77.75
396.576	85.75
396.801	90.75
397.025	91.75
397.249	75.75
397.474	85.75
397.698	73.75
397.922	88.75
398.147	81.75
398.371	91.75
398.595	78.75
398.82	73.75
399.044	96.75
399.268	72.75
399.492	81.75
399.717	88.75
399.941	75.75
400.165	89.75
400.389	79.75
400.613	72.75
400.837	91.75
401.062	92.75
401.286	83.75
401.51	89.75
401.734	82.75
401.958	88.75
402.182	111.75
402.406	150.75
402.63	116.75
402.854	88.75
403.078	86.75
403.302	93.75
403.526	90.75
403.75	83.75
403.974	76.75
404.198	71.75
404.422	86.75
404.645	86.75
404.869	87.75
405.093	94.75
405.317	97.75
405.541	104.75
405.765	84.75
405.988	112.75
406.212	157.75
406.436	212.75
406.66	142.75
406.883	111.75
407.107	86.75
407.331	96.75
407.555	85.75
407.778	101.75
408.002	95.75
408.226	84.75
408.449	80.75
408.673	93.75
408.896	93.75
409.12	84.75
409.344	82.75
409.567	83.75
409.791	94.75
410.014	72.75
410.238	94.75
410.461	96.75
410.685	93.75
410.908	95.75
411.132	87.75
411.355	100.75
411.578	88.75
411.802	83.75
412.025	90.75
412.249	94.75
412.472	83.75
412.695	84.75
412.919	84.75
413.142	91.75
413.365	83.75
413.589	76.75
413.812	72.75
414.035	87.75
414.258	84.75
414.482	96.75
414.705	79.75
414.928	93.75
415.151	103.75
415.374	89.75
415.597	91.75
415.821	93.75
416.044	85.75
416.267	85.75
416.49	85.75
416.713	90.75
416.936	79.75
417.159	80.75
417.382	68.75
417.605	89.75
417.828	97.75
418.051	85.75
418.274	84.75
418.497	92.75
418.72	84.75
418.943	72.75
419.166	86.75
419.389	79.75
419.611	72.75
419.834	81.75
420.057	83.75
420.28	91.75
420.503	87.75
420.726	88.75
420.948	85.75
421.171	83.75
421.394	84.75
421.617	87.75
421.839	83.75
422.062	79.75
422.285	93.75
422.507	105.75
422.73	102.75
422.953	94.75
423.175	96.75
423.398	94.75
423.621	72.75
423.843	87.75
424.066	91.75
424.288	91.75
424.511	94.75
424.733	94.75
424.956	104.75
425.178	80.75
425.401	96.75
425.623	97.75
425.846	93.75
426.068	94.75
426.291	97.75
426.513	94.75
426.735	73.75
426.958	89.75
427.18	100.75
427.402	122.75
427.625	148.75
427.847	120.75
428.069	100.75
428.292	91.75
428.514	80.75
428.736	90.75
428.958	72.75
429.181	77.75
429.403	76.75
429.625	88.75
429.847	88.75
430.069	95.75
430.292	71.75
430.514	79.75
430.736	87.75
430.958	77.75
431.18	84.75
431.402	88.75
431.624	80.75
431.846	73.75
432.068	84.75
432.29	79.75
432.512	83.75
432.734	83.75
432.956	102.75
433.178	94.75
433.4	99.75
433.622	89.75
433.844	92.75
434.066	78.75
434.287	76.75
434.509	97.75
434.731	76.75
434.953	79.75
435.175	87.75
435.397	80.75
435.618	94.75
435.84	109.75
436.062	107.75
436.284	104.75
436.505	90.75
436.727	91.75
436.949	91.75
437.17	88.75
437.392	83.75
437.614	93.75
437.835	98.75
438.057	109.75
438.278	105.75
438.5	102.75
438.721	122.75
438.943	96.75
439.165	92.75
439.386	93.75
439.608	83.75
439.829	91.75
440.05	97.75
440.272	128.75
440.493	93.75
440.715	83.75
440.936	83.75
441.158	96.75
441.379	64.75
441.6	85.75
441.822	70.75
442.043	81.75
442.264	103.75
442.486	89.75
442.707	96.75
442.928	116.75
443.149	120.75
443.371	104.75
443.592	109.75
443.813	98.75
444.034	109.75
444.255	85.75
444.476	97.75
444.698	95.75
444.919	86.75
445.14	124.75
445.361	114.75
445.582	114.75
445.803	121.75
446.024	126.75
446.245	122.75
446.466	111.75
446.687	88.75
446.908	81.75
447.129	75.75
447.35	97.75
447.571	85.75
447.792	102.75
448.013	102.75
448.234	104.75
448.455	96.75
448.675	109.75
448.896	134.75
449.117	113.75
449.338	112.75
449.559	128.75
449.779	132.75
450	107.75
450.221	87.75
450.442	93.75
450.662	86.75
450.883	97.75
451.104	104.75
451.324	91.75
451.545	95.75
451.766	72.75
451.986	69.75
452.207	72.75
452.428	85.75
452.648	91.75
452.869	93.75
453.089	104.75
453.31	105.75
453.53	81.75
453.751	100.75
453.971	93.75
454.192	83.75
454.412	106.75
454.633	86.75
454.853	89.75
455.073	81.75
455.294	80.75
455.514	93.75
455.734	68.75
455.955	81.75
456.175	73.75
456.395	85.75
456.616	72.75
456.836	76.75
457.056	84.75
457.276	79.75
457.497	85.75
457.717	85.75
457.937	87.75
458.157	85.75
458.377	83.75
458.598	103.75
458.818	125.75
459.038	139.75
459.258	109.75
459.478	86.75
459.698	83.75
459.918	85.75
460.138	93.75
460.358	72.75
460.578	85.75
460.798	94.75
461.018	97.75
461.238	75.75
461.458	96.75
461.678	92.75
461.898	84.75
462.118	76.75
462.338	77.75
462.558	91.75
462.777	86.75
462.997	87.75
463.217	81.75
463.437	70.75
463.657	72.75
463.876	95.75
464.096	91.75
464.316	87.75
464.536	92.75
464.755	90.75
464.975	92.75
465.195	126.75
465.414	137.75
465.634	83.75
465.854	79.75
466.073	87.75
466.293	94.75
466.512	99.75
466.732	81.75
466.951	85.75
467.171	80.75
467.391	88.75
467.61	96.75
467.829	87.75
468.049	92.75
468.268	81.75
468.488	99.75
468.707	87.75
468.927	80.75
469.146	80.75
469.365	80.75
469.585	85.75
469.804	101.75
470.023	79.75
470.243	85.75
470.462	86.75
470.681	87.75
470.901	88.75
471.12	97.75
471.339	87.75
471.558	88.75
471.777	83.75
471.997	76.75
472.216	89.75
472.435	96.75
472.654	94.75
472.873	76.75
473.092	82.75
473.311	78.75
473.53	86.75
473.749	84.75
473.968	90.75
474.187	99.75
474.406	93.75
474.625	60.75
474.844	84.75
475.063	71.75
475.282	76.75
475.501	81.75
475.72	101.75
475.939	83.75
476.158	84.75
476.377	89.75
476.596	77.75
476.814	86.75
477.033	86.75
477.252	88.75
477.471	87.75
477.69	94.75
477.908	83.75
478.127	75.75
478.346	84.75
478.564	89.75
478.783	86.75
479.002	90.75
479.22	73.75
479.439	101.75
479.658	106.75
479.876	88.75
480.095	84.75
480.313	102.75
480.532	85.75
480.751	88.75
480.969	91.75
481.188	93.75
481.406	108.75
481.624	88.75
481.843	80.75
482.061	80.75
482.28	84.75
482.498	83.75
482.717	68.75
482.935	78.75
483.153	85.75
483.372	94.75
483.59	96.75
483.808	93.75
484.027	81.75
484.245	81.75
484.463	73.75
484.681	77.75
484.9	89.75
485.118	83.75
485.336	93.75
485.554	94.75
485.772	104.75
485.99	96.75
486.209	102.75
486.427	97.75
486.645	96.75
486.863	110.75
487.081	87.75
487.299	98.75
487.517	99.75
487.735	93.75
487.953	91.75
488.171	98.75
488.389	87.75
488.607	87.75
488.825	96.75
489.043	75.75
489.261	85.75
489.479	83.75
489.696	88.75
489.914	83.75
490.132	87.75
490.35	90.75
490.568	97.75
490.786	86.75
491.003	86.75
491.221	91.75
491.439	81.75
491.657	81.75
491.874	89.75
492.092	86.75
492.31	92.75
492.527	88.75
492.745	84.75
492.963	80.75
493.18	83.75
493.398	99.75
493.615	110.75
493.833	84.75
494.05	89.75
494.268	79.75
494.485	80.75
494.703	89.75
494.92	89.75
495.138	97.75
495.355	88.75
495.573	92.75
495.79	73.75
496.008	85.75
496.225	81.75
496.442	85.75
496.66	93.75
496.877	90.75
497.094	89.75
497.312	87.75
497.529	83.75
497.746	85.75
497.963	80.75
498.181	80.75
498.398	89.75
498.615	100.75
498.832	104.75
499.049	82.75
499.267	87.75
499.484	78.75
499.701	94.75
499.918	89.75
500.135	80.75
500.352	99.75
500.569	86.75
500.786	79.75
501.003	89.75
501.22	83.75
501.437	89.75
501.654	86.75
501.871	91.75
502.088	77.75
502.305	100.75
502.522	92.75
502.739	95.75
502.956	74.75
503.172	84.75
503.389	102.75
503.606	91.75
503.823	93.75
504.04	79.75
504.256	80.75
504.473	90.75
504.69	85.75
504.907	93.75
505.123	79.75
505.34	83.75
505.557	85.75
505.773	94.75
505.99	83.75
506.207	95.75
506.423	87.75
506.64	80.75
506.856	99.75
507.073	94.75
507.289	87.75
507.506	94.75
507.722	101.75
507.939	108.75
508.155	93.75
508.372	73.75
508.588	87.75
508.805	91.75
509.021	96.75
509.238	91.75
509.454	85.75
509.67	103.75
509.887	103.75
510.103	135.75
510.319	206.75
510.536	700.75
510.752	2125.75
510.968	588.75
511.184	146.75
511.401	119.75
511.617	89.75
511.833	91.75
512.049	104.75
512.265	101.75
512.481	98.75
512.698	81.75
512.914	89.75
513.13	77.75
513.346	108.75
513.562	94.75
513.778	100.75
513.994	88.75
514.21	105.75
514.426	117.75
514.642	127.75
514.858	106.75
515.074	150.75
515.29	401.75
515.506	1311.75
515.721	489.75
515.937	140.75
516.153	103.75
516.369	94.75
516.585	101.75
516.801	87.75
517.016	74.75
517.232	84.75
517.448	75.75
517.664	94.75
517.879	95.75
518.095	77.75
518.311	90.75
518.527	88.75
518.742	101.75
518.958	77.75
519.173	97.75
519.389	97.75
519.605	90.75
519.82	86.75
520.036	107.75
520.251	117.75
520.467	111.75
520.682	111.75
520.898	77.75
521.113	111.75
521.329	134.75
521.544	188.75
521.76	512.75
521.975	2148.75
522.19	1327.75
522.406	278.75
522.621	126.75
522.836	95.75
523.052	92.75
523.267	94.75
523.482	85.75
523.698	101.75
523.913	122.75
524.128	104.75
524.343	99.75
524.559	98.75
524.774	80.75
524.989	94.75
525.204	97.75
525.419	87.75
525.634	96.75
525.849	84.75
526.064	75.75
526.28	97.75
526.495	92.75
526.71	83.75
526.925	85.75
527.14	70.75
527.355	87.75
527.57	71.75
527.785	88.75
527.999	87.75
528.214	106.75
528.429	95.75
528.644	92.75
528.859	85.75
529.074	100.75
529.289	119.75
529.503	161.75
529.718	85.75
529.933	93.75
530.148	81.75
530.363	87.75
530.577	79.75
530.792	86.75
531.007	96.75
531.221	85.75
531.436	92.75
531.651	96.75
531.865	93.75
532.08	88.75
532.295	105.75
532.509	86.75
532.724	93.75
532.938	108.75
533.153	91.75
533.367	77.75
533.582	98.75
533.796	84.75
534.011	98.75
534.225	90.75
534.44	79.75
534.654	92.75
534.868	96.75
535.083	83.75
535.297	94.75
535.511	85.75
535.726	88.75
535.94	91.75
536.154	88.75
536.369	86.75
536.583	88.75
536.797	81.75
537.011	85.75
537.225	81.75
537.44	92.75
537.654	89.75
537.868	86.75
538.082	100.75
538.296	90.75
538.51	79.75
538.724	91.75
538.938	90.75
539.153	84.75
539.367	87.75
539.581	98.75
539.795	99.75
540.009	94.75
540.222	81.75
540.436	88.75
540.65	86.75
540.864	88.75
541.078	96.75
541.292	93.75
541.506	94.75
541.72	81.75
541.934	85.75
542.147	92.75
542.361	76.75
542.575	88.75
542.789	64.75
543.002	74.75
543.216	83.75
543.43	95.75
543.644	89.75
543.857	93.75
544.071	83.75
544.285	87.75
544.498	79.75
544.712	92.75
544.925	88.75
545.139	86.75
545.352	71.75
545.566	86.75
545.779	73.75
545.993	80.75
546.206	85.75
546.42	84.75
546.633	96.75
546.847	91.75
547.06	78.75
547.274	85.75
547.487	84.75
547.7	87.75
547.914	85.75
548.127	86.75
548.34	96.75
548.554	81.75
548.767	88.75
548.98	85.75
549.193	94.75
549.407	90.75
549.62	97.75
549.833	73.75
550.046	68.75
550.259	94.75
550.473	87.75
550.686	85.75
550.899	77.75
551.112	89.75
551.325	73.75
551.538	96.75
551.751	95.75
551.964	86.75
552.177	88.75
552.39	92.75
552.603	92.75
552.816	85.75
553.029	90.75
553.242	88.75
553.455	97.75
553.667	96.75
553.88	104.75
554.093	100.75
554.306	101.75
554.519	92.75
554.732	75.75
554.944	100.75
555.157	93.75
555.37	79.75
555.583	89.75
555.795	90.75
556.008	85.75
556.221	89.75
556.433	76.75
556.646	88.75
556.859	100.75
557.071	94.75
557.284	91.75
557.496	89.75
557.709	88.75
557.921	96.75
558.134	76.75
558.346	93.75
558.559	92.75
558.771	86.75
558.984	87.75
559.196	94.75
559.409	91.75
559.621	87.75
559.833	89.75
560.046	61.75
560.258	75.75
560.47	81.75
560.683	84.75
560.895	92.75
561.107	78.75
561.32	88.75
561.532	87.75
561.744	95.75
561.956	91.75
562.168	95.75
562.381	84.75
562.593	71.75
562.805	98.75
563.017	103.75
563.229	88.75
563.441	79.75
563.653	87.75
563.865	73.75
564.077	81.75
564.289	73.75
564.501	88.75
564.713	95.75
564.925	100.75
565.137	97.75
565.349	89.75
565.561	95.75
565.773	79.75
565.985	71.75
566.197	92.75
566.408	88.75
566.62	76.75
566.832	97.75
567.044	96.75
567.255	72.75
567.467	74.75
567.679	93.75
567.891	101.75
568.102	81.75
568.314	83.75
568.526	88.75
568.737	88.75
568.949	78.75
569.161	85.75
569.372	85.75
569.584	74.75
569.795	104.75
570.007	122.75
570.218	245.75
570.43	122.75
570.641	91.75
570.853	82.75
571.064	88.75
571.276	93.75
571.487	80.75
571.698	91.75
571.91	99.75
572.121	93.75
572.333	105.75
572.544	68.75
572.755	91.75
572.966	79.75
573.178	72.75
573.389	86.75
573.6	94.75
573.811	91.75
574.023	81.75
574.234	86.75
574.445	81.75
574.656	78.75
574.867	66.75
575.078	86.75
575.289	79.75
575.501	79.75
575.712	94.75
575.923	81.75
576.134	91.75
576.345	82.75
576.556	96.75
576.767	93.75
576.978	75.75
577.188	86.75
577.399	93.75
577.61	91.75
577.821	96.75
578.032	117.75
578.243	249.75
578.454	716.75
578.665	196.75
578.875	100.75
579.086	88.75
579.297	103.75
579.508	91.75
579.718	92.75
579.929	90.75
580.14	86.75
580.35	90.75
580.561	77.75
580.772	78.75
580.982	78.75
581.193	79.75
581.403	96.75
581.614	79.75
581.825	73.75
582.035	77.75
582.246	98.75
582.456	78.75
582.667	86.75
582.877	76.75
583.087	87.75
583.298	92.75
583.508	85.75
583.719	93.75
583.929	81.75
584.139	97.75
584.35	81.75
584.56	89.75
584.77	94.75
584.981	86.75
585.191	92.75
585.401	88.75
585.611	95.75
585.821	72.75
586.032	78.75
586.242	80.75
586.452	75.75
586.662	77.75
586.872	84.75
587.082	83.75
587.292	83.75
587.502	92.75
587.713	75.75
587.923	73.75
588.133	89.75
588.343	94.75
588.553	94.75
588.762	106.75
588.972	75.75
589.182	81.75
589.392	93.75
589.602	76.75
589.812	78.75
590.022	83.75
590.232	101.75
590.441	79.75
590.651	86.75
590.861	79.75
591.071	88.75
591.281	87.75
591.49	86.75
591.7	91.75
591.91	77.75
592.119	77.75
592.329	87.75
592.539	96.75
592.748	104.75
592.958	68.75
593.167	95.75
593.377	82.75
593.587	77.75
593.796	77.75
594.006	93.75
594.215	78.75
594.424	86.75
594.634	83.75
594.843	87.75
595.053	88.75
595.262	90.75
595.472	68.75
595.681	96.75
595.89	107.75
596.1	86.75
596.309	107.75
596.518	87.75
596.727	102.75
596.937	100.75
597.146	100.75
597.355	91.75
597.564	83.75
597.774	81.75
597.983	83.75
598.192	92.75
598.401	78.75
598.61	93.75
598.819	73.75
599.028	82.75
599.237	72.75
599.446	83.75
599.655	88.75
599.864	96.75
600.073	87.75
600.282	77.75
600.491	94.75
600.7	81.75
600.909	100.75
601.118	92.75
601.327	89.75
601.536	87.75
601.745	76.75
601.953	75.75
602.162	81.75
602.371	69.75
602.58	80.75
602.789	86.75
602.997	89.75
603.206	88.75
603.415	91.75
603.623	75.75
603.832	84.75
604.041	85.75
604.249	73.75
604.458	93.75
604.666	73.75
604.875	83.75
605.084	76.75
605.292	89.75
605.501	85.75
605.709	93.75
605.918	77.75
606.126	88.75
606.334	91.75
606.543	97.75
606.751	89.75
606.96	59.75
607.168	73.75
607.376	83.75
607.585	64.75
607.793	87.75
608.001	77.75
608.21	91.75
608.418	76.75
608.626	76.75
608.834	76.75
609.043	71.75
609.251	87.75
609.459	83.75
609.667	91.75
609.875	78.75
610.083	86.75
610.291	80.75
610.499	89.75
610.707	98.75
610.916	92.75
611.124	88.75
611.332	83.75
611.54	69.75
611.748	60.75
611.955	73.75
612.163	94.75
612.371	91.75
612.579	76.75
612.787	101.75
612.995	103.75
613.203	100.75
613.411	91.75
613.618	83.75
613.826	92.75
614.034	80.75
614.242	83.75
614.449	69.75
614.657	105.75
614.865	82.75
615.072	83.75
615.28	93.75
615.488	92.75
615.695	88.75
615.903	92.75
616.111	96.75
616.318	96.75
616.526	96.75
616.733	79.75
616.941	84.75
617.148	82.75
617.356	78.75
617.563	98.75
617.771	95.75
617.978	82.75
618.185	85.75
618.393	91.75
618.6	92.75
618.807	83.75
619.015	91.75
619.222	81.75
619.429	84.75
619.637	85.75
619.844	80.75
620.051	83.75
620.258	91.75
620.466	87.75
620.673	89.75
620.88	86.75
621.087	86.75
621.294	88.75
621.501	80.75
621.708	82.75
621.915	101.75
622.122	92.75
622.329	78.75
622.536	71.75
622.743	83.75
622.95	78.75
623.157	86.75
623.364	83.75
623.571	84.75
623.778	90.75
623.985	81.75
624.192	80.75
624.399	91.75
624.606	86.75
624.812	90.75
625.019	92.75
625.226	79.75
625.433	83.75
625.639	75.75
625.846	79.75
626.053	99.75
626.259	64.75
626.466	81.75
626.673	87.75
626.879	76.75
627.086	94.75
627.293	77.75
627.499	86.75
627.706	85.75
627.912	86.75
628.119	70.75
628.325	81.75
628.532	83.75
628.738	95.75
628.945	101.75
629.151	83.75
629.357	79.75
629.564	94.75
629.77	83.75
629.976	89.75
630.183	83.75
630.389	93.75
630.595	86.75
630.802	85.75
631.008	85.75
631.214	86.75
631.42	67.75
631.627	82.75
631.833	77.75
632.039	80.75
632.245	88.75
632.451	85.75
632.657	84.75
632.863	91.75
633.069	94.75
633.275	97.75
633.481	71.75
633.688	77.75
633.893	84.75
634.099	78.75
634.305	90.75
634.511	78.75
634.717	85.75
634.923	79.75
635.129	74.75
635.335	90.75
635.541	78.75
635.747	94.75
635.952	80.75
636.158	78.75
636.364	86.75
636.57	79.75
636.775	97.75
636.981	87.75
637.187	79.75
637.392	92.75
637.598	89.75
637.804	89.75
638.009	76.75
638.215	86.75
638.421	83.75
638.626	74.75
638.832	99.75
639.037	69.75
639.243	89.75
639.448	80.75
639.654	84.75
639.859	88.75
640.065	87.75
640.27	89.75
640.475	80.75
640.681	85.75
640.886	90.75
641.091	79.75
641.297	82.75
641.502	82.75
641.707	86.75
641.913	75.75
642.118	85.75
642.323	81.75
642.528	95.75
642.733	92.75
642.939	87.75
643.144	78.75
643.349	80.75
643.554	79.75
643.759	84.75
643.964	77.75
644.169	75.75
644.374	101.75
644.579	84.75
644.784	64.75
644.989	76.75
645.194	81.75
645.399	80.75
645.604	80.75
645.809	98.75
646.014	84.75
646.219	93.75
646.423	106.75
646.628	87.75
646.833	93.75
647.038	77.75
647.243	72.75
647.447	79.75
647.652	87.75
647.857	93.75
648.062	73.75
648.266	79.75
648.471	96.75
648.676	78.75
648.88	84.75
649.085	85.75
649.289	94.75
649.494	86.75
649.698	121.75
649.903	96.75
650.107	87.75
650.312	84.75
650.516	79.75
650.721	76.75
650.925	81.75
651.13	87.75
651.334	85.75
651.539	75.75
651.743	92.75
651.947	101.75
652.152	76.75
652.356	91.75
652.56	77.75
652.764	78.75
652.969	83.75
653.173	84.75
653.377	78.75
653.581	73.75
653.785	87.75
653.99	84.75
654.194	94.75
654.398	60.75
654.602	64.75
654.806	74.75
655.01	93.75
655.214	86.75
655.418	86.75
655.622	71.75
655.826	88.75
656.03	83.75
656.234	91.75
656.438	85.75
656.642	79.75
656.846	84.75
657.049	90.75
657.253	81.75
657.457	89.75
657.661	74.75
657.865	71.75
658.068	88.75
658.272	72.75
658.476	78.75
658.68	89.75
658.883	79.75
659.087	80.75
659.291	85.75
659.494	84.75
659.698	84.75
659.901	87.75
660.105	74.75
660.309	88.75
660.512	79.75
660.716	93.75
660.919	86.75
661.123	77.75
661.326	83.75
661.53	73.75
661.733	76.75
661.936	76.75
662.14	70.75
662.343	78.75
662.546	73.75
662.75	87.75
662.953	87.75
663.156	83.75
663.36	72.75
663.563	70.75
663.766	80.75
663.969	72.75
664.173	88.75
664.376	78.75
664.579	85.75
664.782	86.75
664.985	88.75
665.188	90.75
665.391	85.75
665.594	78.75
665.797	88.75
666	88.75
666.203	84.75
666.406	79.75
666.609	89.75
666.812	84.75
667.015	84.75
667.218	80.75
667.421	83.75
667.624	79.75
667.827	85.75
668.03	83.75
668.232	71.75
668.435	80.75
668.638	82.75
668.841	63.75
669.043	84.75
669.246	71.75
669.449	73.75
669.651	74.75
669.854	79.75
670.057	76.75
670.259	80.75
670.462	74.75
670.665	72.75
670.867	73.75
671.07	75.75
671.272	88.75
671.475	83.75
671.677	81.75
671.88	79.75
672.082	71.75
672.284	79.75
672.487	80.75
672.689	89.75
672.892	76.75
