Data from Uncirc_1998_H10_HRD10591_00033.txt Node
Date: Wed Jan 03 11:25:31 EST 2024
User: Yrep
Spectrometer: HR+D1059
Trigger mode: 1
Integration Time (sec): 1.000000E-1
Scans to average: 1
Electric dark correction enabled: true
Nonlinearity correction enabled: false
Boxcar width: 0
XAxis mode: Wavelengths
Number of Pixels in Spectrum: 2048
>>>>>Begin Spectral Data<<<<<
223.165	-15.25
223.4	-15.25
223.635	-15.25
223.869	-18.25
224.104	-19.25
224.338	-13.25
224.573	-29.25
224.808	-18.25
225.042	-6.25
225.277	-3.25
225.511	0.75
225.746	3.75
225.98	0.75
226.215	8.75
226.449	20.75
226.683	24.75
226.918	24.75
227.152	38.75
227.387	47.75
227.621	28.75
227.856	43.75
228.09	41.75
228.324	58.75
228.559	57.75
228.793	70.75
229.027	62.75
229.262	67.75
229.496	65.75
229.73	72.75
229.964	80.75
230.199	73.75
230.433	76.75
230.667	77.75
230.901	85.75
231.136	59.75
231.37	79.75
231.604	81.75
231.838	72.75
232.072	75.75
232.306	71.75
232.541	69.75
232.775	82.75
233.009	74.75
233.243	82.75
233.477	83.75
233.711	76.75
233.945	75.75
234.179	69.75
234.413	71.75
234.647	80.75
234.881	80.75
235.115	73.75
235.349	70.75
235.583	76.75
235.817	85.75
236.051	87.75
236.285	74.75
236.519	73.75
236.753	68.75
236.987	71.75
237.221	79.75
237.455	83.75
237.689	84.75
237.922	76.75
238.156	83.75
238.39	82.75
238.624	74.75
238.858	70.75
239.091	81.75
239.325	83.75
239.559	69.75
239.793	69.75
240.027	72.75
240.26	65.75
240.494	80.75
240.728	73.75
240.961	71.75
241.195	84.75
241.429	64.75
241.662	77.75
241.896	77.75
242.13	67.75
242.363	68.75
242.597	65.75
242.83	82.75
243.064	83.75
243.298	91.75
243.531	83.75
243.765	79.75
243.998	77.75
244.232	81.75
244.465	60.75
244.699	62.75
244.932	70.75
245.166	71.75
245.399	83.75
245.633	73.75
245.866	68.75
246.099	75.75
246.333	69.75
246.566	80.75
246.8	73.75
247.033	72.75
247.266	73.75
247.5	73.75
247.733	83.75
247.966	77.75
248.2	79.75
248.433	85.75
248.666	74.75
248.899	80.75
249.133	71.75
249.366	90.75
249.599	84.75
249.832	88.75
250.066	84.75
250.299	88.75
250.532	71.75
250.765	91.75
250.998	87.75
251.231	79.75
251.465	82.75
251.698	71.75
251.931	75.75
252.164	73.75
252.397	73.75
252.63	62.75
252.863	64.75
253.096	69.75
253.329	73.75
253.562	80.75
253.795	82.75
254.028	79.75
254.261	85.75
254.494	82.75
254.727	76.75
254.96	78.75
255.193	72.75
255.426	76.75
255.659	84.75
255.892	63.75
256.124	67.75
256.357	79.75
256.59	70.75
256.823	88.75
257.056	79.75
257.289	76.75
257.521	78.75
257.754	88.75
257.987	73.75
258.22	93.75
258.452	89.75
258.685	86.75
258.918	73.75
259.151	77.75
259.383	75.75
259.616	77.75
259.849	87.75
260.081	94.75
260.314	87.75
260.547	87.75
260.779	75.75
261.012	84.75
261.244	81.75
261.477	90.75
261.71	103.75
261.942	104.75
262.175	89.75
262.407	87.75
262.64	67.75
262.872	78.75
263.105	82.75
263.337	65.75
263.57	85.75
263.802	85.75
264.035	87.75
264.267	89.75
264.499	90.75
264.732	85.75
264.964	82.75
265.197	83.75
265.429	81.75
265.661	65.75
265.894	92.75
266.126	83.75
266.358	91.75
266.591	92.75
266.823	85.75
267.055	78.75
267.287	72.75
267.52	78.75
267.752	74.75
267.984	73.75
268.216	83.75
268.448	92.75
268.681	81.75
268.913	84.75
269.145	82.75
269.377	84.75
269.609	80.75
269.841	92.75
270.073	77.75
270.306	79.75
270.538	88.75
270.77	85.75
271.002	84.75
271.234	86.75
271.466	91.75
271.698	84.75
271.93	90.75
272.162	80.75
272.394	80.75
272.626	81.75
272.858	85.75
273.09	82.75
273.322	83.75
273.553	90.75
273.785	71.75
274.017	80.75
274.249	79.75
274.481	73.75
274.713	75.75
274.945	66.75
275.176	74.75
275.408	86.75
275.64	87.75
275.872	77.75
276.104	80.75
276.335	100.75
276.567	97.75
276.799	97.75
277.031	77.75
277.262	84.75
277.494	87.75
277.726	76.75
277.957	85.75
278.189	85.75
278.421	74.75
278.652	81.75
278.884	77.75
279.115	84.75
279.347	88.75
279.579	90.75
279.81	83.75
280.042	87.75
280.273	77.75
280.505	78.75
280.736	79.75
280.968	78.75
281.199	78.75
281.431	79.75
281.662	76.75
281.894	81.75
282.125	83.75
282.356	100.75
282.588	116.75
282.819	108.75
283.051	79.75
283.282	76.75
283.513	72.75
283.745	84.75
283.976	97.75
284.207	84.75
284.439	88.75
284.67	86.75
284.901	75.75
285.132	72.75
285.364	80.75
285.595	70.75
285.826	88.75
286.057	92.75
286.288	88.75
286.52	101.75
286.751	78.75
286.982	100.75
287.213	78.75
287.444	75.75
287.675	83.75
287.906	83.75
288.138	97.75
288.369	87.75
288.6	100.75
288.831	86.75
289.062	74.75
289.293	94.75
289.524	85.75
289.755	77.75
289.986	84.75
290.217	89.75
290.448	82.75
290.679	91.75
290.91	91.75
291.141	88.75
291.371	88.75
291.602	100.75
291.833	92.75
292.064	72.75
292.295	89.75
292.526	88.75
292.757	91.75
292.987	85.75
293.218	90.75
293.449	84.75
293.68	88.75
293.91	77.75
294.141	88.75
294.372	81.75
294.603	87.75
294.833	88.75
295.064	94.75
295.295	93.75
295.525	82.75
295.756	82.75
295.987	103.75
296.217	116.75
296.448	116.75
296.679	87.75
296.909	84.75
297.14	84.75
297.37	81.75
297.601	90.75
297.831	69.75
298.062	84.75
298.292	91.75
298.523	84.75
298.753	92.75
298.984	87.75
299.214	94.75
299.445	92.75
299.675	93.75
299.905	88.75
300.136	89.75
300.366	85.75
300.597	91.75
300.827	84.75
301.057	92.75
301.288	87.75
301.518	83.75
301.748	97.75
301.979	89.75
302.209	92.75
302.439	91.75
302.669	84.75
302.9	83.75
303.13	84.75
303.36	88.75
303.59	81.75
303.82	88.75
304.051	80.75
304.281	76.75
304.511	91.75
304.741	90.75
304.971	84.75
305.201	80.75
305.431	89.75
305.661	79.75
305.891	81.75
306.121	100.75
306.352	97.75
306.582	88.75
306.812	105.75
307.042	84.75
307.272	96.75
307.502	100.75
307.731	89.75
307.961	85.75
308.191	81.75
308.421	74.75
308.651	89.75
308.881	93.75
309.111	92.75
309.341	95.75
309.571	84.75
309.8	89.75
310.03	89.75
310.26	79.75
310.49	83.75
310.72	108.75
310.949	91.75
311.179	90.75
311.409	87.75
311.639	85.75
311.868	62.75
312.098	82.75
312.328	94.75
312.557	74.75
312.787	105.75
313.017	97.75
313.246	94.75
313.476	76.75
313.706	90.75
313.935	98.75
314.165	95.75
314.394	97.75
314.624	93.75
314.853	104.75
315.083	84.75
315.312	97.75
315.542	90.75
315.771	83.75
316.001	89.75
316.23	96.75
316.46	82.75
316.689	96.75
316.919	89.75
317.148	84.75
317.377	88.75
317.607	76.75
317.836	97.75
318.065	86.75
318.295	99.75
318.524	91.75
318.753	94.75
318.983	93.75
319.212	93.75
319.441	96.75
319.67	85.75
319.9	88.75
320.129	79.75
320.358	84.75
320.587	92.75
320.816	105.75
321.046	93.75
321.275	103.75
321.504	85.75
321.733	90.75
321.962	93.75
322.191	98.75
322.42	94.75
322.649	117.75
322.878	107.75
323.108	108.75
323.337	110.75
323.566	124.75
323.795	136.75
324.024	182.75
324.253	314.75
324.482	664.75
324.71	1320.75
324.939	1711.75
325.168	637.75
325.397	201.75
325.626	130.75
325.855	120.75
326.084	140.75
326.313	124.75
326.542	126.75
326.77	203.75
326.999	401.75
327.228	776.75
327.457	1356.75
327.686	1087.75
327.914	317.75
328.143	165.75
328.372	128.75
328.6	113.75
328.829	109.75
329.058	115.75
329.287	111.75
329.515	87.75
329.744	100.75
329.972	92.75
330.201	94.75
330.43	107.75
330.658	120.75
330.887	117.75
331.115	115.75
331.344	86.75
331.572	93.75
331.801	99.75
332.03	102.75
332.258	96.75
332.486	79.75
332.715	88.75
332.943	79.75
333.172	86.75
333.4	91.75
333.629	87.75
333.857	97.75
334.085	88.75
334.314	101.75
334.542	107.75
334.771	100.75
334.999	75.75
335.227	79.75
335.455	85.75
335.684	79.75
335.912	88.75
336.14	93.75
336.369	79.75
336.597	103.75
336.825	88.75
337.053	79.75
337.281	97.75
337.51	96.75
337.738	89.75
337.966	88.75
338.194	96.75
338.422	95.75
338.65	96.75
338.878	96.75
339.106	94.75
339.334	86.75
339.562	85.75
339.79	95.75
340.018	94.75
340.246	90.75
340.474	97.75
340.702	79.75
340.93	82.75
341.158	89.75
341.386	86.75
341.614	97.75
341.842	93.75
342.07	87.75
342.298	86.75
342.526	81.75
342.754	97.75
342.981	95.75
343.209	87.75
343.437	102.75
343.665	90.75
343.893	80.75
344.12	94.75
344.348	92.75
344.576	81.75
344.804	96.75
345.031	91.75
345.259	88.75
345.487	95.75
345.714	93.75
345.942	97.75
346.17	89.75
346.397	100.75
346.625	95.75
346.853	83.75
347.08	97.75
347.308	90.75
347.535	86.75
347.763	88.75
347.99	88.75
348.218	87.75
348.445	94.75
348.673	95.75
348.9	105.75
349.128	103.75
349.355	104.75
349.583	91.75
349.81	103.75
350.037	85.75
350.265	100.75
350.492	100.75
350.72	97.75
350.947	112.75
351.174	86.75
351.402	103.75
351.629	91.75
351.856	91.75
352.083	101.75
352.311	105.75
352.538	105.75
352.765	102.75
352.992	116.75
353.22	112.75
353.447	99.75
353.674	91.75
353.901	99.75
354.128	95.75
354.355	90.75
354.583	76.75
354.81	89.75
355.037	97.75
355.264	95.75
355.491	81.75
355.718	86.75
355.945	91.75
356.172	78.75
356.399	91.75
356.626	94.75
356.853	96.75
357.08	88.75
357.307	94.75
357.534	90.75
357.761	92.75
357.988	85.75
358.215	83.75
358.441	81.75
358.668	93.75
358.895	92.75
359.122	74.75
359.349	101.75
359.576	97.75
359.802	106.75
360.029	103.75
360.256	93.75
360.483	92.75
360.709	84.75
360.936	88.75
361.163	87.75
361.39	86.75
361.616	84.75
361.843	77.75
362.07	83.75
362.296	86.75
362.523	72.75
362.749	90.75
362.976	83.75
363.203	87.75
363.429	80.75
363.656	78.75
363.882	80.75
364.109	93.75
364.335	76.75
364.562	88.75
364.788	85.75
365.015	103.75
365.241	91.75
365.468	82.75
365.694	95.75
365.92	89.75
366.147	83.75
366.373	99.75
366.599	77.75
366.826	75.75
367.052	71.75
367.278	85.75
367.505	81.75
367.731	95.75
367.957	74.75
368.184	78.75
368.41	104.75
368.636	108.75
368.862	105.75
369.089	95.75
369.315	97.75
369.541	78.75
369.767	77.75
369.993	85.75
370.219	86.75
370.445	87.75
370.672	89.75
370.898	78.75
371.124	94.75
371.35	61.75
371.576	90.75
371.802	85.75
372.028	80.75
372.254	90.75
372.48	85.75
372.706	81.75
372.932	82.75
373.158	81.75
373.384	78.75
373.61	84.75
373.835	90.75
374.061	79.75
374.287	87.75
374.513	92.75
374.739	87.75
374.965	85.75
375.191	85.75
375.416	85.75
375.642	73.75
375.868	88.75
376.094	95.75
376.319	80.75
376.545	92.75
376.771	95.75
376.997	87.75
377.222	90.75
377.448	86.75
377.674	83.75
377.899	83.75
378.125	98.75
378.35	96.75
378.576	96.75
378.802	89.75
379.027	90.75
379.253	91.75
379.478	97.75
379.704	86.75
379.929	89.75
380.155	92.75
380.38	80.75
380.606	86.75
380.831	86.75
381.057	82.75
381.282	90.75
381.507	91.75
381.733	103.75
381.958	96.75
382.184	90.75
382.409	93.75
382.634	109.75
382.86	101.75
383.085	84.75
383.31	76.75
383.535	95.75
383.761	76.75
383.986	93.75
384.211	97.75
384.436	90.75
384.662	98.75
384.887	96.75
385.112	89.75
385.337	96.75
385.562	93.75
385.787	91.75
386.013	98.75
386.238	105.75
386.463	92.75
386.688	107.75
386.913	102.75
387.138	112.75
387.363	93.75
387.588	86.75
387.813	86.75
388.038	105.75
388.263	93.75
388.488	103.75
388.713	92.75
388.938	78.75
389.163	95.75
389.387	89.75
389.612	92.75
389.837	88.75
390.062	80.75
390.287	86.75
390.512	97.75
390.736	88.75
390.961	91.75
391.186	99.75
391.411	101.75
391.636	94.75
391.86	87.75
392.085	89.75
392.31	80.75
392.534	84.75
392.759	92.75
392.984	87.75
393.208	96.75
393.433	93.75
393.658	83.75
393.882	80.75
394.107	76.75
394.331	91.75
394.556	87.75
394.78	82.75
395.005	80.75
395.229	79.75
395.454	86.75
395.678	85.75
395.903	75.75
396.127	85.75
396.352	83.75
396.576	83.75
396.801	77.75
397.025	76.75
397.249	83.75
397.474	83.75
397.698	99.75
397.922	88.75
398.147	87.75
398.371	96.75
398.595	87.75
398.82	79.75
399.044	86.75
399.268	86.75
399.492	80.75
399.717	94.75
399.941	97.75
400.165	91.75
400.389	87.75
400.613	74.75
400.837	89.75
401.062	84.75
401.286	99.75
401.51	79.75
401.734	76.75
401.958	82.75
402.182	104.75
402.406	125.75
402.63	109.75
402.854	81.75
403.078	76.75
403.302	91.75
403.526	88.75
403.75	80.75
403.974	83.75
404.198	79.75
404.422	91.75
404.645	80.75
404.869	87.75
405.093	79.75
405.317	95.75
405.541	89.75
405.765	98.75
405.988	112.75
406.212	151.75
406.436	169.75
406.66	126.75
406.883	95.75
407.107	95.75
407.331	104.75
407.555	88.75
407.778	96.75
408.002	84.75
408.226	88.75
408.449	77.75
408.673	94.75
408.896	100.75
409.12	93.75
409.344	81.75
409.567	94.75
409.791	92.75
410.014	101.75
410.238	95.75
410.461	79.75
410.685	88.75
410.908	95.75
411.132	91.75
411.355	73.75
411.578	92.75
411.802	89.75
412.025	87.75
412.249	92.75
412.472	69.75
412.695	88.75
412.919	100.75
413.142	87.75
413.365	97.75
413.589	85.75
413.812	81.75
414.035	95.75
414.258	68.75
414.482	79.75
414.705	89.75
414.928	79.75
415.151	96.75
415.374	76.75
415.597	91.75
415.821	83.75
416.044	80.75
416.267	85.75
416.49	74.75
416.713	87.75
416.936	83.75
417.159	78.75
417.382	92.75
417.605	79.75
417.828	94.75
418.051	74.75
418.274	79.75
418.497	88.75
418.72	73.75
418.943	82.75
419.166	88.75
419.389	85.75
419.611	94.75
419.834	95.75
420.057	79.75
420.28	70.75
420.503	89.75
420.726	78.75
420.948	85.75
421.171	97.75
421.394	89.75
421.617	89.75
421.839	93.75
422.062	84.75
422.285	90.75
422.507	96.75
422.73	88.75
422.953	97.75
423.175	88.75
423.398	74.75
423.621	86.75
423.843	86.75
424.066	82.75
424.288	64.75
424.511	81.75
424.733	86.75
424.956	80.75
425.178	89.75
425.401	105.75
425.623	93.75
425.846	86.75
426.068	83.75
426.291	93.75
426.513	84.75
426.735	89.75
426.958	107.75
427.18	105.75
427.402	125.75
427.625	147.75
427.847	105.75
428.069	96.75
428.292	84.75
428.514	83.75
428.736	83.75
428.958	82.75
429.181	80.75
429.403	87.75
429.625	84.75
429.847	89.75
430.069	91.75
430.292	83.75
430.514	72.75
430.736	89.75
430.958	93.75
431.18	79.75
431.402	82.75
431.624	77.75
431.846	80.75
432.068	70.75
432.29	83.75
432.512	90.75
432.734	81.75
432.956	85.75
433.178	93.75
433.4	79.75
433.622	79.75
433.844	78.75
434.066	87.75
434.287	88.75
434.509	92.75
434.731	92.75
434.953	88.75
435.175	72.75
435.397	85.75
435.618	78.75
435.84	97.75
436.062	117.75
436.284	109.75
436.505	103.75
436.727	97.75
436.949	99.75
437.17	83.75
437.392	76.75
437.614	89.75
437.835	94.75
438.057	99.75
438.278	106.75
438.5	102.75
438.721	113.75
438.943	95.75
439.165	75.75
439.386	80.75
439.608	83.75
439.829	89.75
440.05	115.75
440.272	112.75
440.493	83.75
440.715	96.75
440.936	91.75
441.158	76.75
441.379	93.75
441.6	83.75
441.822	81.75
442.043	98.75
442.264	97.75
442.486	86.75
442.707	90.75
442.928	111.75
443.149	119.75
443.371	102.75
443.592	102.75
443.813	100.75
444.034	98.75
444.255	87.75
444.476	79.75
444.698	87.75
444.919	89.75
445.14	119.75
445.361	103.75
445.582	111.75
445.803	106.75
446.024	113.75
446.245	115.75
446.466	100.75
446.687	90.75
446.908	97.75
447.129	79.75
447.35	82.75
447.571	87.75
447.792	96.75
448.013	91.75
448.234	111.75
448.455	93.75
448.675	100.75
448.896	100.75
449.117	98.75
449.338	94.75
449.559	127.75
449.779	112.75
450	86.75
450.221	100.75
450.442	93.75
450.662	95.75
450.883	96.75
451.104	106.75
451.324	89.75
451.545	91.75
451.766	84.75
451.986	81.75
452.207	81.75
452.428	85.75
452.648	91.75
452.869	100.75
453.089	105.75
453.31	112.75
453.53	80.75
453.751	87.75
453.971	89.75
454.192	91.75
454.412	87.75
454.633	82.75
454.853	88.75
455.073	95.75
455.294	65.75
455.514	87.75
455.734	88.75
455.955	87.75
456.175	91.75
456.395	100.75
456.616	79.75
456.836	85.75
457.056	104.75
457.276	90.75
457.497	87.75
457.717	69.75
457.937	87.75
458.157	90.75
458.377	91.75
458.598	108.75
458.818	121.75
459.038	131.75
459.258	110.75
459.478	81.75
459.698	85.75
459.918	77.75
460.138	86.75
460.358	77.75
460.578	75.75
460.798	90.75
461.018	85.75
461.238	70.75
461.458	79.75
461.678	89.75
461.898	100.75
462.118	79.75
462.338	81.75
462.558	72.75
462.777	77.75
462.997	91.75
463.217	96.75
463.437	90.75
463.657	92.75
463.876	87.75
464.096	79.75
464.316	91.75
464.536	95.75
464.755	104.75
464.975	103.75
465.195	143.75
465.414	134.75
465.634	88.75
465.854	67.75
466.073	75.75
466.293	71.75
466.512	88.75
466.732	85.75
466.951	94.75
467.171	89.75
467.391	90.75
467.61	83.75
467.829	89.75
468.049	74.75
468.268	80.75
468.488	88.75
468.707	69.75
468.927	75.75
469.146	77.75
469.365	75.75
469.585	80.75
469.804	92.75
470.023	92.75
470.243	86.75
470.462	107.75
470.681	104.75
470.901	99.75
471.12	90.75
471.339	79.75
471.558	79.75
471.777	78.75
471.997	84.75
472.216	87.75
472.435	79.75
472.654	97.75
472.873	92.75
473.092	89.75
473.311	86.75
473.53	89.75
473.749	94.75
473.968	87.75
474.187	86.75
474.406	81.75
474.625	76.75
474.844	83.75
475.063	81.75
475.282	90.75
475.501	82.75
475.72	89.75
475.939	73.75
476.158	89.75
476.377	86.75
476.596	88.75
476.814	85.75
477.033	92.75
477.252	92.75
477.471	92.75
477.69	73.75
477.908	81.75
478.127	96.75
478.346	101.75
478.564	101.75
478.783	104.75
479.002	92.75
479.22	85.75
479.439	92.75
479.658	76.75
479.876	91.75
480.095	86.75
480.313	79.75
480.532	91.75
480.751	94.75
480.969	94.75
481.188	110.75
481.406	92.75
481.624	88.75
481.843	87.75
482.061	71.75
482.28	85.75
482.498	91.75
482.717	94.75
482.935	90.75
483.153	88.75
483.372	81.75
483.59	83.75
483.808	93.75
484.027	96.75
484.245	102.75
484.463	88.75
484.681	98.75
484.9	84.75
485.118	105.75
485.336	104.75
485.554	91.75
485.772	101.75
485.99	94.75
486.209	99.75
486.427	91.75
486.645	110.75
486.863	102.75
487.081	96.75
487.299	98.75
487.517	100.75
487.735	95.75
487.953	91.75
488.171	85.75
488.389	89.75
488.607	77.75
488.825	101.75
489.043	95.75
489.261	84.75
489.479	90.75
489.696	87.75
489.914	80.75
490.132	90.75
490.35	101.75
490.568	91.75
490.786	101.75
491.003	96.75
491.221	96.75
491.439	95.75
491.657	95.75
491.874	103.75
492.092	85.75
492.31	83.75
492.527	95.75
492.745	87.75
492.963	84.75
493.18	85.75
493.398	92.75
493.615	87.75
493.833	96.75
494.05	78.75
494.268	79.75
494.485	94.75
494.703	89.75
494.92	95.75
495.138	99.75
495.355	79.75
495.573	87.75
495.79	81.75
496.008	91.75
496.225	73.75
496.442	87.75
496.66	82.75
496.877	90.75
497.094	89.75
497.312	89.75
497.529	88.75
497.746	95.75
497.963	84.75
498.181	102.75
498.398	90.75
498.615	102.75
498.832	112.75
499.049	79.75
499.267	75.75
499.484	77.75
499.701	90.75
499.918	72.75
500.135	87.75
500.352	83.75
500.569	93.75
500.786	91.75
501.003	90.75
501.22	80.75
501.437	83.75
501.654	96.75
501.871	95.75
502.088	84.75
502.305	103.75
502.522	92.75
502.739	81.75
502.956	73.75
503.172	107.75
503.389	81.75
503.606	92.75
503.823	97.75
504.04	79.75
504.256	95.75
504.473	90.75
504.69	76.75
504.907	95.75
505.123	82.75
505.34	91.75
505.557	77.75
505.773	100.75
505.99	100.75
506.207	84.75
506.423	98.75
506.64	79.75
506.856	92.75
507.073	103.75
507.289	99.75
507.506	94.75
507.722	87.75
507.939	90.75
508.155	95.75
508.372	96.75
508.588	106.75
508.805	96.75
509.021	88.75
509.238	85.75
509.454	100.75
509.67	104.75
509.887	102.75
510.103	112.75
510.319	192.75
510.536	607.75
510.752	1768.75
510.968	517.75
511.184	133.75
511.401	106.75
511.617	94.75
511.833	81.75
512.049	81.75
512.265	84.75
512.481	91.75
512.698	101.75
512.914	89.75
513.13	94.75
513.346	81.75
513.562	86.75
513.778	87.75
513.994	99.75
514.21	99.75
514.426	95.75
514.642	104.75
514.858	108.75
515.074	141.75
515.29	362.75
515.506	1061.75
515.721	416.75
515.937	128.75
516.153	88.75
516.369	87.75
516.585	77.75
516.801	103.75
517.016	95.75
517.232	91.75
517.448	91.75
517.664	103.75
517.879	85.75
518.095	93.75
518.311	89.75
518.527	92.75
518.742	99.75
518.958	105.75
519.173	95.75
519.389	90.75
519.605	77.75
519.82	100.75
520.036	116.75
520.251	115.75
520.467	103.75
520.682	100.75
520.898	106.75
521.113	101.75
521.329	126.75
521.544	176.75
521.76	420.75
521.975	1758.75
522.19	1071.75
522.406	238.75
522.621	118.75
522.836	104.75
523.052	86.75
523.267	95.75
523.482	94.75
523.698	93.75
523.913	110.75
524.128	110.75
524.343	69.75
524.559	92.75
524.774	95.75
524.989	96.75
525.204	85.75
525.419	85.75
525.634	91.75
525.849	73.75
526.064	77.75
526.28	88.75
526.495	90.75
526.71	89.75
526.925	100.75
527.14	86.75
527.355	77.75
527.57	83.75
527.785	91.75
527.999	85.75
528.214	82.75
528.429	91.75
528.644	96.75
528.859	77.75
529.074	100.75
529.289	110.75
529.503	141.75
529.718	103.75
529.933	91.75
530.148	76.75
530.363	99.75
530.577	98.75
530.792	96.75
531.007	102.75
531.221	89.75
531.436	87.75
531.651	99.75
531.865	84.75
532.08	96.75
532.295	90.75
532.509	90.75
532.724	88.75
532.938	92.75
533.153	81.75
533.367	96.75
533.582	94.75
533.796	93.75
534.011	84.75
534.225	96.75
534.44	85.75
534.654	88.75
534.868	92.75
535.083	76.75
535.297	83.75
535.511	88.75
535.726	91.75
535.94	91.75
536.154	76.75
536.369	93.75
536.583	76.75
536.797	92.75
537.011	93.75
537.225	82.75
537.44	95.75
537.654	83.75
537.868	83.75
538.082	91.75
538.296	79.75
538.51	95.75
538.724	76.75
538.938	113.75
539.153	91.75
539.367	105.75
539.581	79.75
539.795	94.75
540.009	82.75
540.222	85.75
540.436	79.75
540.65	90.75
540.864	93.75
541.078	95.75
541.292	97.75
541.506	80.75
541.72	92.75
541.934	80.75
542.147	82.75
542.361	86.75
542.575	83.75
542.789	87.75
543.002	95.75
543.216	81.75
543.43	88.75
543.644	90.75
543.857	85.75
544.071	100.75
544.285	85.75
544.498	83.75
544.712	90.75
544.925	92.75
545.139	94.75
545.352	75.75
545.566	95.75
545.779	96.75
545.993	87.75
546.206	76.75
546.42	78.75
546.633	88.75
546.847	88.75
547.06	95.75
547.274	86.75
547.487	80.75
547.7	93.75
547.914	89.75
548.127	80.75
548.34	85.75
548.554	91.75
548.767	87.75
548.98	82.75
549.193	83.75
549.407	90.75
549.62	97.75
549.833	81.75
550.046	85.75
550.259	93.75
550.473	81.75
550.686	90.75
550.899	85.75
551.112	89.75
551.325	85.75
551.538	90.75
551.751	87.75
551.964	75.75
552.177	88.75
552.39	80.75
552.603	81.75
552.816	95.75
553.029	85.75
553.242	89.75
553.455	87.75
553.667	89.75
553.88	91.75
554.093	92.75
554.306	95.75
554.519	93.75
554.732	92.75
554.944	89.75
555.157	78.75
555.37	94.75
555.583	83.75
555.795	93.75
556.008	89.75
556.221	85.75
556.433	92.75
556.646	86.75
556.859	89.75
557.071	86.75
557.284	97.75
557.496	83.75
557.709	96.75
557.921	92.75
558.134	93.75
558.346	84.75
558.559	90.75
558.771	92.75
558.984	85.75
559.196	88.75
559.409	88.75
559.621	99.75
559.833	97.75
560.046	96.75
560.258	86.75
560.47	90.75
560.683	84.75
560.895	90.75
561.107	89.75
561.32	92.75
561.532	87.75
561.744	93.75
561.956	89.75
562.168	92.75
562.381	87.75
562.593	95.75
562.805	91.75
563.017	81.75
563.229	93.75
563.441	92.75
563.653	78.75
563.865	87.75
564.077	69.75
564.289	94.75
564.501	84.75
564.713	88.75
564.925	84.75
565.137	104.75
565.349	95.75
565.561	73.75
565.773	80.75
565.985	77.75
566.197	87.75
566.408	94.75
566.62	71.75
566.832	87.75
567.044	96.75
567.255	96.75
567.467	86.75
567.679	81.75
567.891	86.75
568.102	82.75
568.314	101.75
568.526	83.75
568.737	94.75
568.949	91.75
569.161	82.75
569.372	96.75
569.584	99.75
569.795	89.75
570.007	109.75
570.218	218.75
570.43	115.75
570.641	91.75
570.853	91.75
571.064	83.75
571.276	83.75
571.487	83.75
571.698	75.75
571.91	94.75
572.121	79.75
572.333	71.75
572.544	81.75
572.755	88.75
572.966	91.75
573.178	77.75
573.389	96.75
573.6	84.75
573.811	74.75
574.023	86.75
574.234	95.75
574.445	91.75
574.656	81.75
574.867	86.75
575.078	75.75
575.289	71.75
575.501	85.75
575.712	86.75
575.923	94.75
576.134	81.75
576.345	87.75
576.556	99.75
576.767	67.75
576.978	85.75
577.188	104.75
577.399	84.75
577.61	99.75
577.821	97.75
578.032	101.75
578.243	226.75
578.454	592.75
578.665	178.75
578.875	91.75
579.086	90.75
579.297	83.75
579.508	88.75
579.718	91.75
579.929	88.75
580.14	95.75
580.35	91.75
580.561	86.75
580.772	95.75
580.982	78.75
581.193	67.75
581.403	80.75
581.614	97.75
581.825	92.75
582.035	94.75
582.246	88.75
582.456	90.75
582.667	73.75
582.877	84.75
583.087	79.75
583.298	77.75
583.508	84.75
583.719	93.75
583.929	80.75
584.139	80.75
584.35	80.75
584.56	86.75
584.77	72.75
584.981	89.75
585.191	89.75
585.401	79.75
585.611	83.75
585.821	88.75
586.032	73.75
586.242	79.75
586.452	104.75
586.662	77.75
586.872	93.75
587.082	83.75
587.292	80.75
587.502	87.75
587.713	62.75
587.923	94.75
588.133	97.75
588.343	86.75
588.553	91.75
588.762	69.75
588.972	87.75
589.182	81.75
589.392	75.75
589.602	83.75
589.812	94.75
590.022	84.75
590.232	84.75
590.441	85.75
590.651	91.75
590.861	79.75
591.071	94.75
591.281	90.75
591.49	81.75
591.7	79.75
591.91	86.75
592.119	91.75
592.329	83.75
592.539	106.75
592.748	86.75
592.958	88.75
593.167	79.75
593.377	74.75
593.587	87.75
593.796	84.75
594.006	94.75
594.215	88.75
594.424	80.75
594.634	96.75
594.843	88.75
595.053	87.75
595.262	84.75
595.472	77.75
595.681	80.75
595.89	88.75
596.1	95.75
596.309	66.75
596.518	86.75
596.727	88.75
596.937	76.75
597.146	82.75
597.355	89.75
597.564	87.75
597.774	87.75
597.983	92.75
598.192	77.75
598.401	91.75
598.61	85.75
598.819	79.75
599.028	95.75
599.237	80.75
599.446	64.75
599.655	72.75
599.864	99.75
600.073	88.75
600.282	81.75
600.491	86.75
600.7	79.75
600.909	86.75
601.118	73.75
601.327	73.75
601.536	85.75
601.745	86.75
601.953	86.75
602.162	97.75
602.371	79.75
602.58	71.75
602.789	90.75
602.997	87.75
603.206	69.75
603.415	87.75
603.623	90.75
603.832	95.75
604.041	83.75
604.249	92.75
604.458	92.75
604.666	73.75
604.875	87.75
605.084	88.75
605.292	71.75
605.501	76.75
605.709	80.75
605.918	80.75
606.126	88.75
606.334	91.75
606.543	91.75
606.751	93.75
606.96	76.75
607.168	81.75
607.376	78.75
607.585	80.75
607.793	76.75
608.001	82.75
608.21	74.75
608.418	92.75
608.626	99.75
608.834	81.75
609.043	78.75
609.251	81.75
609.459	73.75
609.667	74.75
609.875	75.75
610.083	88.75
610.291	92.75
610.499	75.75
610.707	64.75
610.916	77.75
611.124	80.75
611.332	81.75
611.54	81.75
611.748	80.75
611.955	84.75
612.163	83.75
612.371	68.75
612.579	87.75
612.787	89.75
612.995	90.75
613.203	88.75
613.411	72.75
613.618	99.75
613.826	91.75
614.034	77.75
614.242	88.75
614.449	85.75
614.657	78.75
614.865	86.75
615.072	84.75
615.28	91.75
615.488	71.75
615.695	90.75
615.903	88.75
616.111	91.75
616.318	95.75
616.526	98.75
616.733	97.75
616.941	99.75
617.148	90.75
617.356	84.75
617.563	82.75
617.771	87.75
617.978	80.75
618.185	78.75
618.393	69.75
618.6	83.75
618.807	76.75
619.015	78.75
619.222	87.75
619.429	87.75
619.637	87.75
619.844	84.75
620.051	79.75
620.258	81.75
620.466	77.75
620.673	69.75
620.88	76.75
621.087	68.75
621.294	82.75
621.501	85.75
621.708	75.75
621.915	78.75
622.122	77.75
622.329	85.75
622.536	71.75
622.743	89.75
622.95	77.75
623.157	96.75
623.364	79.75
623.571	79.75
623.778	90.75
623.985	83.75
624.192	56.75
624.399	79.75
624.606	93.75
624.812	72.75
625.019	81.75
625.226	88.75
625.433	76.75
625.639	83.75
625.846	74.75
626.053	91.75
626.259	84.75
626.466	87.75
626.673	79.75
626.879	87.75
627.086	84.75
627.293	75.75
627.499	96.75
627.706	84.75
627.912	77.75
628.119	95.75
628.325	85.75
628.532	73.75
628.738	90.75
628.945	71.75
629.151	83.75
629.357	91.75
629.564	100.75
629.77	80.75
629.976	80.75
630.183	88.75
630.389	77.75
630.595	90.75
630.802	67.75
631.008	79.75
631.214	69.75
631.42	79.75
631.627	84.75
631.833	68.75
632.039	81.75
632.245	64.75
632.451	92.75
632.657	85.75
632.863	92.75
633.069	73.75
633.275	79.75
633.481	70.75
633.688	71.75
633.893	89.75
634.099	77.75
634.305	60.75
634.511	73.75
634.717	85.75
634.923	75.75
635.129	89.75
635.335	71.75
635.541	86.75
635.747	93.75
635.952	83.75
636.158	64.75
636.364	72.75
636.57	87.75
636.775	83.75
636.981	89.75
637.187	80.75
637.392	92.75
637.598	88.75
637.804	88.75
638.009	84.75
638.215	73.75
638.421	82.75
638.626	65.75
638.832	87.75
639.037	85.75
639.243	68.75
639.448	90.75
639.654	80.75
639.859	107.75
640.065	83.75
640.27	82.75
640.475	81.75
640.681	88.75
640.886	77.75
641.091	81.75
641.297	78.75
641.502	71.75
641.707	89.75
641.913	89.75
642.118	83.75
642.323	74.75
642.528	85.75
642.733	75.75
642.939	85.75
643.144	81.75
643.349	85.75
643.554	87.75
643.759	85.75
643.964	74.75
644.169	72.75
644.374	77.75
644.579	75.75
644.784	83.75
644.989	81.75
645.194	68.75
645.399	65.75
645.604	79.75
645.809	90.75
646.014	77.75
646.219	74.75
646.423	82.75
646.628	79.75
646.833	82.75
647.038	93.75
647.243	75.75
647.447	69.75
647.652	69.75
647.857	86.75
648.062	85.75
648.266	94.75
648.471	85.75
648.676	82.75
648.88	94.75
649.085	98.75
649.289	93.75
649.494	94.75
649.698	116.75
649.903	97.75
650.107	71.75
650.312	77.75
650.516	70.75
650.721	93.75
650.925	84.75
651.13	83.75
651.334	85.75
651.539	84.75
651.743	64.75
651.947	72.75
652.152	86.75
652.356	72.75
652.56	76.75
652.764	76.75
652.969	63.75
653.173	71.75
653.377	85.75
653.581	76.75
653.785	91.75
653.99	77.75
654.194	92.75
654.398	92.75
654.602	88.75
654.806	86.75
655.01	110.75
655.214	95.75
655.418	90.75
655.622	79.75
655.826	83.75
656.03	90.75
656.234	93.75
656.438	96.75
656.642	96.75
656.846	91.75
657.049	92.75
657.253	64.75
657.457	84.75
657.661	85.75
657.865	92.75
658.068	69.75
658.272	86.75
658.476	80.75
658.68	69.75
658.883	81.75
659.087	75.75
659.291	76.75
659.494	78.75
659.698	77.75
659.901	88.75
660.105	85.75
660.309	84.75
660.512	81.75
660.716	85.75
660.919	78.75
661.123	61.75
661.326	75.75
661.53	78.75
661.733	89.75
661.936	84.75
662.14	76.75
662.343	81.75
662.546	73.75
662.75	71.75
662.953	86.75
663.156	77.75
663.36	79.75
663.563	74.75
663.766	88.75
663.969	70.75
664.173	73.75
664.376	94.75
664.579	91.75
664.782	75.75
664.985	72.75
665.188	88.75
665.391	91.75
665.594	83.75
665.797	68.75
666	67.75
666.203	84.75
666.406	70.75
666.609	84.75
666.812	89.75
667.015	77.75
667.218	76.75
667.421	73.75
667.624	79.75
667.827	73.75
668.03	65.75
668.232	71.75
668.435	83.75
668.638	87.75
668.841	93.75
669.043	73.75
669.246	84.75
669.449	84.75
669.651	81.75
669.854	65.75
670.057	77.75
670.259	88.75
670.462	85.75
670.665	71.75
670.867	88.75
671.07	82.75
671.272	83.75
671.475	87.75
671.677	81.75
671.88	74.75
672.082	82.75
672.284	72.75
672.487	83.75
672.689	80.75
672.892	82.75
