Data from Uncirc_1998_H10_HRD10591_00093.txt Node
Date: Wed Jan 03 11:25:43 EST 2024
User: Yrep
Spectrometer: HR+D1059
Trigger mode: 1
Integration Time (sec): 1.000000E-1
Scans to average: 1
Electric dark correction enabled: true
Nonlinearity correction enabled: false
Boxcar width: 0
XAxis mode: Wavelengths
Number of Pixels in Spectrum: 2048
>>>>>Begin Spectral Data<<<<<
223.165	-18.19
223.4	-18.19
223.635	-18.19
223.869	-32.19
224.104	-17.19
224.338	-18.19
224.573	-16.19
224.808	-4.19
225.042	-9.19
225.277	0.81
225.511	-2.19
225.746	17.81
225.98	4.81
226.215	8.81
226.449	14.81
226.683	10.81
226.918	20.81
227.152	38.81
227.387	37.81
227.621	40.81
227.856	57.81
228.09	52.81
228.324	55.81
228.559	48.81
228.793	57.81
229.027	73.81
229.262	72.81
229.496	76.81
229.73	76.81
229.964	84.81
230.199	87.81
230.433	85.81
230.667	72.81
230.901	87.81
231.136	72.81
231.37	92.81
231.604	77.81
231.838	76.81
232.072	81.81
232.306	80.81
232.541	86.81
232.775	77.81
233.009	81.81
233.243	95.81
233.477	85.81
233.711	94.81
233.945	83.81
234.179	78.81
234.413	80.81
234.647	75.81
234.881	64.81
235.115	79.81
235.349	87.81
235.583	82.81
235.817	83.81
236.051	75.81
236.285	86.81
236.519	68.81
236.753	79.81
236.987	86.81
237.221	82.81
237.455	73.81
237.689	77.81
237.922	79.81
238.156	90.81
238.39	68.81
238.624	76.81
238.858	78.81
239.091	76.81
239.325	84.81
239.559	87.81
239.793	73.81
240.027	78.81
240.26	62.81
240.494	91.81
240.728	77.81
240.961	89.81
241.195	85.81
241.429	75.81
241.662	64.81
241.896	84.81
242.13	81.81
242.363	76.81
242.597	84.81
242.83	79.81
243.064	82.81
243.298	82.81
243.531	83.81
243.765	76.81
243.998	75.81
244.232	71.81
244.465	79.81
244.699	92.81
244.932	82.81
245.166	74.81
245.399	77.81
245.633	79.81
245.866	73.81
246.099	77.81
246.333	88.81
246.566	78.81
246.8	92.81
247.033	74.81
247.266	75.81
247.5	73.81
247.733	90.81
247.966	82.81
248.2	60.81
248.433	71.81
248.666	67.81
248.899	63.81
249.133	85.81
249.366	100.81
249.599	106.81
249.832	80.81
250.066	84.81
250.299	94.81
250.532	80.81
250.765	90.81
250.998	79.81
251.231	91.81
251.465	87.81
251.698	90.81
251.931	89.81
252.164	87.81
252.397	74.81
252.63	81.81
252.863	69.81
253.096	75.81
253.329	75.81
253.562	64.81
253.795	82.81
254.028	93.81
254.261	84.81
254.494	75.81
254.727	86.81
254.96	90.81
255.193	71.81
255.426	93.81
255.659	81.81
255.892	88.81
256.124	71.81
256.357	83.81
256.59	80.81
256.823	87.81
257.056	90.81
257.289	81.81
257.521	88.81
257.754	80.81
257.987	78.81
258.22	76.81
258.452	96.81
258.685	82.81
258.918	84.81
259.151	86.81
259.383	73.81
259.616	87.81
259.849	80.81
260.081	77.81
260.314	90.81
260.547	85.81
260.779	83.81
261.012	69.81
261.244	94.81
261.477	80.81
261.71	98.81
261.942	101.81
262.175	108.81
262.407	98.81
262.64	83.81
262.872	94.81
263.105	90.81
263.337	92.81
263.57	81.81
263.802	81.81
264.035	91.81
264.267	82.81
264.499	79.81
264.732	85.81
264.964	86.81
265.197	88.81
265.429	78.81
265.661	83.81
265.894	93.81
266.126	93.81
266.358	87.81
266.591	80.81
266.823	88.81
267.055	95.81
267.287	85.81
267.52	77.81
267.752	85.81
267.984	92.81
268.216	91.81
268.448	104.81
268.681	73.81
268.913	85.81
269.145	85.81
269.377	92.81
269.609	78.81
269.841	84.81
270.073	68.81
270.306	78.81
270.538	77.81
270.77	83.81
271.002	83.81
271.234	88.81
271.466	88.81
271.698	88.81
271.93	99.81
272.162	86.81
272.394	81.81
272.626	78.81
272.858	97.81
273.09	87.81
273.322	94.81
273.553	93.81
273.785	88.81
274.017	91.81
274.249	80.81
274.481	82.81
274.713	80.81
274.945	83.81
275.176	95.81
275.408	86.81
275.64	84.81
275.872	89.81
276.104	103.81
276.335	84.81
276.567	103.81
276.799	108.81
277.031	97.81
277.262	93.81
277.494	115.81
277.726	98.81
277.957	89.81
278.189	84.81
278.421	73.81
278.652	85.81
278.884	92.81
279.115	82.81
279.347	92.81
279.579	88.81
279.81	69.81
280.042	96.81
280.273	87.81
280.505	79.81
280.736	87.81
280.968	85.81
281.199	89.81
281.431	100.81
281.662	87.81
281.894	84.81
282.125	105.81
282.356	109.81
282.588	133.81
282.819	96.81
283.051	95.81
283.282	89.81
283.513	93.81
283.745	101.81
283.976	87.81
284.207	94.81
284.439	99.81
284.67	72.81
284.901	102.81
285.132	94.81
285.364	95.81
285.595	91.81
285.826	85.81
286.057	85.81
286.288	73.81
286.52	91.81
286.751	85.81
286.982	79.81
287.213	83.81
287.444	84.81
287.675	67.81
287.906	96.81
288.138	94.81
288.369	77.81
288.6	87.81
288.831	108.81
289.062	78.81
289.293	77.81
289.524	83.81
289.755	96.81
289.986	73.81
290.217	74.81
290.448	91.81
290.679	94.81
290.91	81.81
291.141	81.81
291.371	82.81
291.602	79.81
291.833	97.81
292.064	96.81
292.295	100.81
292.526	93.81
292.757	89.81
292.987	99.81
293.218	92.81
293.449	87.81
293.68	96.81
293.91	95.81
294.141	107.81
294.372	93.81
294.603	86.81
294.833	96.81
295.064	89.81
295.295	90.81
295.525	99.81
295.756	111.81
295.987	121.81
296.217	130.81
296.448	121.81
296.679	101.81
296.909	90.81
297.14	87.81
297.37	88.81
297.601	92.81
297.831	87.81
298.062	96.81
298.292	94.81
298.523	97.81
298.753	84.81
298.984	85.81
299.214	93.81
299.445	96.81
299.675	99.81
299.905	81.81
300.136	93.81
300.366	84.81
300.597	92.81
300.827	93.81
301.057	104.81
301.288	104.81
301.518	106.81
301.748	78.81
301.979	98.81
302.209	91.81
302.439	88.81
302.669	107.81
302.9	92.81
303.13	73.81
303.36	89.81
303.59	100.81
303.82	96.81
304.051	105.81
304.281	92.81
304.511	103.81
304.741	91.81
304.971	93.81
305.201	73.81
305.431	85.81
305.661	89.81
305.891	91.81
306.121	120.81
306.352	114.81
306.582	101.81
306.812	97.81
307.042	103.81
307.272	98.81
307.502	90.81
307.731	83.81
307.961	91.81
308.191	75.81
308.421	99.81
308.651	93.81
308.881	90.81
309.111	78.81
309.341	100.81
309.571	107.81
309.8	97.81
310.03	91.81
310.26	112.81
310.49	97.81
310.72	95.81
310.949	105.81
311.179	105.81
311.409	100.81
311.639	99.81
311.868	94.81
312.098	94.81
312.328	92.81
312.557	99.81
312.787	99.81
313.017	109.81
313.246	114.81
313.476	85.81
313.706	89.81
313.935	101.81
314.165	89.81
314.394	109.81
314.624	90.81
314.853	108.81
315.083	86.81
315.312	93.81
315.542	101.81
315.771	102.81
316.001	98.81
316.23	90.81
316.46	101.81
316.689	105.81
316.919	106.81
317.148	100.81
317.377	99.81
317.607	92.81
317.836	104.81
318.065	116.81
318.295	94.81
318.524	89.81
318.753	100.81
318.983	92.81
319.212	100.81
319.441	103.81
319.67	100.81
319.9	100.81
320.129	105.81
320.358	88.81
320.587	81.81
320.816	101.81
321.046	101.81
321.275	93.81
321.504	114.81
321.733	106.81
321.962	101.81
322.191	99.81
322.42	102.81
322.649	119.81
322.878	111.81
323.108	99.81
323.337	120.81
323.566	128.81
323.795	140.81
324.024	205.81
324.253	385.81
324.482	810.81
324.71	1660.81
324.939	2187.81
325.168	806.81
325.397	245.81
325.626	158.81
325.855	143.81
326.084	122.81
326.313	137.81
326.542	153.81
326.77	228.81
326.999	439.81
327.228	968.81
327.457	1674.81
327.686	1314.81
327.914	364.81
328.143	191.81
328.372	139.81
328.6	145.81
328.829	114.81
329.058	122.81
329.287	123.81
329.515	113.81
329.744	98.81
329.972	90.81
330.201	102.81
330.43	112.81
330.658	129.81
330.887	137.81
331.115	125.81
331.344	92.81
331.572	104.81
331.801	111.81
332.03	105.81
332.258	96.81
332.486	99.81
332.715	98.81
332.943	94.81
333.172	85.81
333.4	98.81
333.629	110.81
333.857	113.81
334.085	110.81
334.314	97.81
334.542	94.81
334.771	115.81
334.999	101.81
335.227	92.81
335.455	96.81
335.684	107.81
335.912	106.81
336.14	89.81
336.369	99.81
336.597	91.81
336.825	90.81
337.053	90.81
337.281	80.81
337.51	82.81
337.738	87.81
337.966	80.81
338.194	109.81
338.422	114.81
338.65	104.81
338.878	84.81
339.106	95.81
339.334	105.81
339.562	93.81
339.79	89.81
340.018	95.81
340.246	78.81
340.474	96.81
340.702	89.81
340.93	98.81
341.158	96.81
341.386	92.81
341.614	102.81
341.842	79.81
342.07	92.81
342.298	94.81
342.526	100.81
342.754	100.81
342.981	82.81
343.209	90.81
343.437	101.81
343.665	103.81
343.893	92.81
344.12	97.81
344.348	99.81
344.576	77.81
344.804	97.81
345.031	104.81
345.259	92.81
345.487	102.81
345.714	94.81
345.942	105.81
346.17	101.81
346.397	101.81
346.625	82.81
346.853	91.81
347.08	81.81
347.308	95.81
347.535	95.81
347.763	120.81
347.99	106.81
348.218	106.81
348.445	107.81
348.673	97.81
348.9	91.81
349.128	98.81
349.355	109.81
349.583	95.81
349.81	104.81
350.037	103.81
350.265	92.81
350.492	100.81
350.72	86.81
350.947	108.81
351.174	120.81
351.402	122.81
351.629	90.81
351.856	101.81
352.083	104.81
352.311	105.81
352.538	102.81
352.765	109.81
352.992	115.81
353.22	116.81
353.447	113.81
353.674	105.81
353.901	109.81
354.128	96.81
354.355	104.81
354.583	102.81
354.81	99.81
355.037	95.81
355.264	95.81
355.491	101.81
355.718	94.81
355.945	102.81
356.172	103.81
356.399	105.81
356.626	100.81
356.853	79.81
357.08	98.81
357.307	86.81
357.534	103.81
357.761	93.81
357.988	87.81
358.215	92.81
358.441	86.81
358.668	98.81
358.895	93.81
359.122	89.81
359.349	79.81
359.576	95.81
359.802	98.81
360.029	95.81
360.256	108.81
360.483	114.81
360.709	97.81
360.936	99.81
361.163	79.81
361.39	87.81
361.616	91.81
361.843	92.81
362.07	93.81
362.296	83.81
362.523	95.81
362.749	96.81
362.976	96.81
363.203	94.81
363.429	105.81
363.656	88.81
363.882	103.81
364.109	93.81
364.335	100.81
364.562	94.81
364.788	94.81
365.015	90.81
365.241	107.81
365.468	104.81
365.694	107.81
365.92	85.81
366.147	81.81
366.373	75.81
366.599	90.81
366.826	98.81
367.052	96.81
367.278	95.81
367.505	93.81
367.731	93.81
367.957	82.81
368.184	99.81
368.41	89.81
368.636	120.81
368.862	114.81
369.089	103.81
369.315	89.81
369.541	94.81
369.767	98.81
369.993	100.81
370.219	90.81
370.445	83.81
370.672	77.81
370.898	86.81
371.124	84.81
371.35	91.81
371.576	85.81
371.802	89.81
372.028	75.81
372.254	89.81
372.48	95.81
372.706	91.81
372.932	83.81
373.158	94.81
373.384	89.81
373.61	85.81
373.835	84.81
374.061	92.81
374.287	84.81
374.513	85.81
374.739	89.81
374.965	94.81
375.191	99.81
375.416	91.81
375.642	84.81
375.868	88.81
376.094	91.81
376.319	93.81
376.545	84.81
376.771	93.81
376.997	88.81
377.222	101.81
377.448	94.81
377.674	108.81
377.899	93.81
378.125	92.81
378.35	93.81
378.576	100.81
378.802	98.81
379.027	89.81
379.253	102.81
379.478	98.81
379.704	90.81
379.929	80.81
380.155	93.81
380.38	96.81
380.606	104.81
380.831	91.81
381.057	105.81
381.282	81.81
381.507	104.81
381.733	103.81
381.958	105.81
382.184	91.81
382.409	105.81
382.634	93.81
382.86	86.81
383.085	108.81
383.31	108.81
383.535	100.81
383.761	98.81
383.986	95.81
384.211	98.81
384.436	90.81
384.662	89.81
384.887	101.81
385.112	99.81
385.337	90.81
385.562	96.81
385.787	95.81
386.013	109.81
386.238	117.81
386.463	94.81
386.688	111.81
386.913	98.81
387.138	95.81
387.363	92.81
387.588	105.81
387.813	93.81
388.038	110.81
388.263	101.81
388.488	98.81
388.713	96.81
388.938	100.81
389.163	106.81
389.387	101.81
389.612	99.81
389.837	93.81
390.062	82.81
390.287	88.81
390.512	91.81
390.736	86.81
390.961	86.81
391.186	77.81
391.411	104.81
391.636	100.81
391.86	83.81
392.085	80.81
392.31	90.81
392.534	90.81
392.759	107.81
392.984	90.81
393.208	79.81
393.433	91.81
393.658	93.81
393.882	76.81
394.107	96.81
394.331	97.81
394.556	96.81
394.78	88.81
395.005	88.81
395.229	85.81
395.454	95.81
395.678	95.81
395.903	82.81
396.127	84.81
396.352	92.81
396.576	95.81
396.801	79.81
397.025	78.81
397.249	89.81
397.474	102.81
397.698	108.81
397.922	84.81
398.147	84.81
398.371	83.81
398.595	96.81
398.82	88.81
399.044	93.81
399.268	80.81
399.492	87.81
399.717	98.81
399.941	106.81
400.165	82.81
400.389	84.81
400.613	86.81
400.837	89.81
401.062	87.81
401.286	86.81
401.51	89.81
401.734	89.81
401.958	92.81
402.182	125.81
402.406	165.81
402.63	110.81
402.854	93.81
403.078	72.81
403.302	91.81
403.526	96.81
403.75	98.81
403.974	87.81
404.198	92.81
404.422	80.81
404.645	84.81
404.869	90.81
405.093	93.81
405.317	104.81
405.541	100.81
405.765	93.81
405.988	95.81
406.212	154.81
406.436	222.81
406.66	138.81
406.883	101.81
407.107	95.81
407.331	97.81
407.555	100.81
407.778	102.81
408.002	90.81
408.226	84.81
408.449	100.81
408.673	95.81
408.896	93.81
409.12	109.81
409.344	100.81
409.567	103.81
409.791	95.81
410.014	87.81
410.238	87.81
410.461	107.81
410.685	95.81
410.908	95.81
411.132	118.81
411.355	111.81
411.578	89.81
411.802	90.81
412.025	92.81
412.249	86.81
412.472	103.81
412.695	90.81
412.919	85.81
413.142	88.81
413.365	90.81
413.589	91.81
413.812	85.81
414.035	95.81
414.258	102.81
414.482	89.81
414.705	88.81
414.928	95.81
415.151	83.81
415.374	100.81
415.597	91.81
415.821	81.81
416.044	83.81
416.267	87.81
416.49	93.81
416.713	76.81
416.936	89.81
417.159	82.81
417.382	100.81
417.605	89.81
417.828	90.81
418.051	92.81
418.274	97.81
418.497	86.81
418.72	80.81
418.943	94.81
419.166	106.81
419.389	89.81
419.611	77.81
419.834	87.81
420.057	77.81
420.28	80.81
420.503	81.81
420.726	93.81
420.948	92.81
421.171	95.81
421.394	96.81
421.617	96.81
421.839	96.81
422.062	96.81
422.285	91.81
422.507	111.81
422.73	104.81
422.953	83.81
423.175	81.81
423.398	79.81
423.621	96.81
423.843	89.81
424.066	94.81
424.288	86.81
424.511	90.81
424.733	108.81
424.956	117.81
425.178	100.81
425.401	95.81
425.623	105.81
425.846	96.81
426.068	87.81
426.291	107.81
426.513	94.81
426.735	87.81
426.958	99.81
427.18	115.81
427.402	127.81
427.625	152.81
427.847	115.81
428.069	116.81
428.292	96.81
428.514	74.81
428.736	88.81
428.958	99.81
429.181	78.81
429.403	95.81
429.625	77.81
429.847	90.81
430.069	102.81
430.292	96.81
430.514	76.81
430.736	87.81
430.958	88.81
431.18	85.81
431.402	82.81
431.624	85.81
431.846	79.81
432.068	81.81
432.29	96.81
432.512	94.81
432.734	95.81
432.956	88.81
433.178	94.81
433.4	87.81
433.622	76.81
433.844	95.81
434.066	95.81
434.287	97.81
434.509	99.81
434.731	86.81
434.953	84.81
435.175	79.81
435.397	87.81
435.618	92.81
435.84	123.81
436.062	115.81
436.284	128.81
436.505	119.81
436.727	89.81
436.949	101.81
437.17	98.81
437.392	95.81
437.614	103.81
437.835	92.81
438.057	122.81
438.278	105.81
438.5	93.81
438.721	120.81
438.943	108.81
439.165	87.81
439.386	88.81
439.608	95.81
439.829	100.81
440.05	127.81
440.272	135.81
440.493	91.81
440.715	87.81
440.936	94.81
441.158	92.81
441.379	75.81
441.6	82.81
441.822	87.81
442.043	101.81
442.264	104.81
442.486	100.81
442.707	90.81
442.928	107.81
443.149	122.81
443.371	125.81
443.592	108.81
443.813	113.81
444.034	103.81
444.255	100.81
444.476	103.81
444.698	97.81
444.919	101.81
445.14	139.81
445.361	111.81
445.582	118.81
445.803	127.81
446.024	132.81
446.245	114.81
446.466	117.81
446.687	105.81
446.908	88.81
447.129	83.81
447.35	98.81
447.571	87.81
447.792	89.81
448.013	98.81
448.234	103.81
448.455	121.81
448.675	112.81
448.896	107.81
449.117	89.81
449.338	92.81
449.559	132.81
449.779	130.81
450	106.81
450.221	103.81
450.442	83.81
450.662	95.81
450.883	90.81
451.104	115.81
451.324	81.81
451.545	93.81
451.766	81.81
451.986	90.81
452.207	82.81
452.428	91.81
452.648	113.81
452.869	95.81
453.089	106.81
453.31	114.81
453.53	101.81
453.751	92.81
453.971	112.81
454.192	104.81
454.412	65.81
454.633	107.81
454.853	74.81
455.073	85.81
455.294	81.81
455.514	98.81
455.734	93.81
455.955	87.81
456.175	79.81
456.395	77.81
456.616	90.81
456.836	99.81
457.056	86.81
457.276	96.81
457.497	87.81
457.717	91.81
457.937	76.81
458.157	96.81
458.377	84.81
458.598	90.81
458.818	132.81
459.038	149.81
459.258	108.81
459.478	83.81
459.698	80.81
459.918	97.81
460.138	85.81
460.358	95.81
460.578	93.81
460.798	94.81
461.018	89.81
461.238	100.81
461.458	83.81
461.678	88.81
461.898	82.81
462.118	81.81
462.338	78.81
462.558	95.81
462.777	97.81
462.997	88.81
463.217	93.81
463.437	81.81
463.657	94.81
463.876	95.81
464.096	90.81
464.316	67.81
464.536	99.81
464.755	101.81
464.975	110.81
465.195	166.81
465.414	154.81
465.634	96.81
465.854	85.81
466.073	99.81
466.293	94.81
466.512	91.81
466.732	88.81
466.951	91.81
467.171	106.81
467.391	92.81
467.61	111.81
467.829	98.81
468.049	81.81
468.268	73.81
468.488	87.81
468.707	80.81
468.927	80.81
469.146	90.81
469.365	77.81
469.585	100.81
469.804	94.81
470.023	87.81
470.243	101.81
470.462	113.81
470.681	104.81
470.901	95.81
471.12	75.81
471.339	89.81
471.558	85.81
471.777	87.81
471.997	90.81
472.216	82.81
472.435	85.81
472.654	93.81
472.873	76.81
473.092	87.81
473.311	83.81
473.53	72.81
473.749	88.81
473.968	99.81
474.187	108.81
474.406	99.81
474.625	87.81
474.844	95.81
475.063	91.81
475.282	99.81
475.501	99.81
475.72	104.81
475.939	86.81
476.158	80.81
476.377	84.81
476.596	81.81
476.814	83.81
477.033	100.81
477.252	89.81
477.471	85.81
477.69	82.81
477.908	82.81
478.127	101.81
478.346	94.81
478.564	100.81
478.783	97.81
479.002	80.81
479.22	100.81
479.439	86.81
479.658	99.81
479.876	84.81
480.095	96.81
480.313	93.81
480.532	104.81
480.751	95.81
480.969	97.81
481.188	114.81
481.406	97.81
481.624	92.81
481.843	93.81
482.061	85.81
482.28	83.81
482.498	87.81
482.717	92.81
482.935	96.81
483.153	92.81
483.372	85.81
483.59	91.81
483.808	91.81
484.027	86.81
484.245	108.81
484.463	98.81
484.681	85.81
484.9	82.81
485.118	82.81
485.336	90.81
485.554	98.81
485.772	113.81
485.99	89.81
486.209	85.81
486.427	92.81
486.645	108.81
486.863	113.81
487.081	113.81
487.299	91.81
487.517	83.81
487.735	98.81
487.953	101.81
488.171	87.81
488.389	98.81
488.607	100.81
488.825	101.81
489.043	68.81
489.261	92.81
489.479	80.81
489.696	96.81
489.914	88.81
490.132	89.81
490.35	83.81
490.568	88.81
490.786	107.81
491.003	91.81
491.221	94.81
491.439	91.81
491.657	100.81
491.874	94.81
492.092	95.81
492.31	83.81
492.527	99.81
492.745	87.81
492.963	92.81
493.18	102.81
493.398	103.81
493.615	104.81
493.833	103.81
494.05	110.81
494.268	93.81
494.485	87.81
494.703	99.81
494.92	83.81
495.138	80.81
495.355	104.81
495.573	106.81
495.79	88.81
496.008	106.81
496.225	71.81
496.442	91.81
496.66	113.81
496.877	104.81
497.094	110.81
497.312	98.81
497.529	87.81
497.746	92.81
497.963	83.81
498.181	95.81
498.398	93.81
498.615	97.81
498.832	88.81
499.049	90.81
499.267	86.81
499.484	95.81
499.701	92.81
499.918	77.81
500.135	74.81
500.352	93.81
500.569	82.81
500.786	82.81
501.003	102.81
501.22	89.81
501.437	89.81
501.654	77.81
501.871	96.81
502.088	80.81
502.305	95.81
502.522	94.81
502.739	95.81
502.956	95.81
503.172	86.81
503.389	93.81
503.606	101.81
503.823	103.81
504.04	95.81
504.256	96.81
504.473	80.81
504.69	83.81
504.907	101.81
505.123	94.81
505.34	89.81
505.557	82.81
505.773	101.81
505.99	78.81
506.207	84.81
506.423	79.81
506.64	91.81
506.856	87.81
507.073	106.81
507.289	80.81
507.506	94.81
507.722	100.81
507.939	116.81
508.155	88.81
508.372	100.81
508.588	82.81
508.805	101.81
509.021	100.81
509.238	100.81
509.454	100.81
509.67	105.81
509.887	116.81
510.103	142.81
510.319	222.81
510.536	744.81
510.752	2283.81
510.968	641.81
511.184	148.81
511.401	107.81
511.617	103.81
511.833	95.81
512.049	74.81
512.265	97.81
512.481	91.81
512.698	101.81
512.914	84.81
513.13	84.81
513.346	92.81
513.562	109.81
513.778	97.81
513.994	109.81
514.21	101.81
514.426	109.81
514.642	128.81
514.858	115.81
515.074	160.81
515.29	423.81
515.506	1346.81
515.721	520.81
515.937	147.81
516.153	124.81
516.369	107.81
516.585	100.81
516.801	97.81
517.016	111.81
517.232	94.81
517.448	86.81
517.664	91.81
517.879	97.81
518.095	90.81
518.311	89.81
518.527	92.81
518.742	101.81
518.958	107.81
519.173	80.81
519.389	101.81
519.605	99.81
519.82	101.81
520.036	105.81
520.251	110.81
520.467	107.81
520.682	110.81
520.898	107.81
521.113	117.81
521.329	140.81
521.544	193.81
521.76	543.81
521.975	2230.81
522.19	1375.81
522.406	299.81
522.621	121.81
522.836	98.81
523.052	101.81
523.267	105.81
523.482	93.81
523.698	98.81
523.913	109.81
524.128	120.81
524.343	108.81
524.559	95.81
524.774	85.81
524.989	105.81
525.204	101.81
525.419	92.81
525.634	100.81
525.849	93.81
526.064	97.81
526.28	98.81
526.495	98.81
526.71	84.81
526.925	105.81
527.14	101.81
527.355	89.81
527.57	91.81
527.785	79.81
527.999	98.81
528.214	112.81
528.429	97.81
528.644	95.81
528.859	103.81
529.074	99.81
529.289	127.81
529.503	162.81
529.718	120.81
529.933	100.81
530.148	101.81
530.363	81.81
530.577	104.81
530.792	88.81
531.007	85.81
531.221	93.81
531.436	96.81
531.651	100.81
531.865	72.81
532.08	86.81
532.295	107.81
532.509	91.81
532.724	91.81
532.938	90.81
533.153	97.81
533.367	101.81
533.582	105.81
533.796	95.81
534.011	89.81
534.225	85.81
534.44	88.81
534.654	93.81
534.868	102.81
535.083	103.81
535.297	90.81
535.511	99.81
535.726	93.81
535.94	105.81
536.154	93.81
536.369	93.81
536.583	99.81
536.797	103.81
537.011	77.81
537.225	90.81
537.44	84.81
537.654	100.81
537.868	93.81
538.082	92.81
538.296	93.81
538.51	102.81
538.724	96.81
538.938	87.81
539.153	89.81
539.367	116.81
539.581	92.81
539.795	84.81
540.009	97.81
540.222	99.81
540.436	89.81
540.65	99.81
540.864	85.81
541.078	99.81
541.292	86.81
541.506	89.81
541.72	83.81
541.934	100.81
542.147	83.81
542.361	83.81
542.575	88.81
542.789	98.81
543.002	93.81
543.216	82.81
543.43	112.81
543.644	97.81
543.857	103.81
544.071	89.81
544.285	99.81
544.498	105.81
544.712	75.81
544.925	85.81
545.139	96.81
545.352	104.81
545.566	85.81
545.779	92.81
545.993	95.81
546.206	82.81
546.42	84.81
546.633	93.81
546.847	96.81
547.06	79.81
547.274	76.81
547.487	92.81
547.7	87.81
547.914	97.81
548.127	95.81
548.34	96.81
548.554	89.81
548.767	80.81
548.98	89.81
549.193	83.81
549.407	101.81
549.62	87.81
549.833	96.81
550.046	73.81
550.259	98.81
550.473	95.81
550.686	92.81
550.899	93.81
551.112	90.81
551.325	92.81
551.538	91.81
551.751	84.81
551.964	92.81
552.177	97.81
552.39	92.81
552.603	89.81
552.816	73.81
553.029	88.81
553.242	88.81
553.455	111.81
553.667	107.81
553.88	99.81
554.093	93.81
554.306	94.81
554.519	95.81
554.732	84.81
554.944	83.81
555.157	81.81
555.37	96.81
555.583	99.81
555.795	90.81
556.008	85.81
556.221	95.81
556.433	90.81
556.646	93.81
556.859	93.81
557.071	104.81
557.284	77.81
557.496	89.81
557.709	95.81
557.921	98.81
558.134	88.81
558.346	99.81
558.559	102.81
558.771	94.81
558.984	103.81
559.196	78.81
559.409	96.81
559.621	93.81
559.833	82.81
560.046	99.81
560.258	101.81
560.47	91.81
560.683	82.81
560.895	106.81
561.107	93.81
561.32	92.81
561.532	80.81
561.744	83.81
561.956	93.81
562.168	97.81
562.381	90.81
562.593	83.81
562.805	93.81
563.017	83.81
563.229	87.81
563.441	86.81
563.653	92.81
563.865	75.81
564.077	91.81
564.289	92.81
564.501	98.81
564.713	99.81
564.925	99.81
565.137	102.81
565.349	96.81
565.561	83.81
565.773	87.81
565.985	96.81
566.197	88.81
566.408	83.81
566.62	84.81
566.832	86.81
567.044	88.81
567.255	101.81
567.467	86.81
567.679	94.81
567.891	78.81
568.102	79.81
568.314	102.81
568.526	93.81
568.737	96.81
568.949	101.81
569.161	95.81
569.372	105.81
569.584	92.81
569.795	100.81
570.007	126.81
570.218	235.81
570.43	138.81
570.641	113.81
570.853	78.81
571.064	81.81
571.276	83.81
571.487	90.81
571.698	110.81
571.91	87.81
572.121	93.81
572.333	97.81
572.544	91.81
572.755	90.81
572.966	107.81
573.178	96.81
573.389	105.81
573.6	87.81
573.811	90.81
574.023	91.81
574.234	97.81
574.445	93.81
574.656	74.81
574.867	94.81
575.078	79.81
575.289	92.81
575.501	105.81
575.712	97.81
575.923	99.81
576.134	92.81
576.345	93.81
576.556	88.81
576.767	92.81
576.978	98.81
577.188	94.81
577.399	97.81
577.61	98.81
577.821	105.81
578.032	127.81
578.243	288.81
578.454	749.81
578.665	228.81
578.875	90.81
579.086	101.81
579.297	91.81
579.508	94.81
579.718	95.81
579.929	99.81
580.14	71.81
580.35	78.81
580.561	92.81
580.772	100.81
580.982	85.81
581.193	72.81
581.403	93.81
581.614	90.81
581.825	101.81
582.035	89.81
582.246	88.81
582.456	91.81
582.667	75.81
582.877	82.81
583.087	96.81
583.298	98.81
583.508	82.81
583.719	76.81
583.929	93.81
584.139	92.81
584.35	81.81
584.56	92.81
584.77	103.81
584.981	92.81
585.191	89.81
585.401	96.81
585.611	105.81
585.821	98.81
586.032	101.81
586.242	96.81
586.452	83.81
586.662	97.81
586.872	100.81
587.082	96.81
587.292	83.81
587.502	89.81
587.713	89.81
587.923	78.81
588.133	90.81
588.343	92.81
588.553	80.81
588.762	91.81
588.972	74.81
589.182	95.81
589.392	84.81
589.602	89.81
589.812	86.81
590.022	94.81
590.232	95.81
590.441	85.81
590.651	93.81
590.861	99.81
591.071	96.81
591.281	84.81
591.49	94.81
591.7	92.81
591.91	88.81
592.119	78.81
592.329	96.81
592.539	95.81
592.748	96.81
592.958	89.81
593.167	95.81
593.377	91.81
593.587	97.81
593.796	78.81
594.006	74.81
594.215	84.81
594.424	84.81
594.634	97.81
594.843	98.81
595.053	85.81
595.262	87.81
595.472	101.81
595.681	92.81
595.89	92.81
596.1	94.81
596.309	93.81
596.518	82.81
596.727	94.81
596.937	87.81
597.146	68.81
597.355	98.81
597.564	83.81
597.774	90.81
597.983	83.81
598.192	101.81
598.401	97.81
598.61	89.81
598.819	89.81
599.028	97.81
599.237	80.81
599.446	88.81
599.655	90.81
599.864	82.81
600.073	90.81
600.282	90.81
600.491	88.81
600.7	87.81
600.909	97.81
601.118	86.81
601.327	80.81
601.536	94.81
601.745	86.81
601.953	104.81
602.162	99.81
602.371	98.81
602.58	94.81
602.789	109.81
602.997	107.81
603.206	84.81
603.415	83.81
603.623	78.81
603.832	87.81
604.041	83.81
604.249	88.81
604.458	92.81
604.666	80.81
604.875	93.81
605.084	79.81
605.292	88.81
605.501	82.81
605.709	104.81
605.918	89.81
606.126	84.81
606.334	91.81
606.543	80.81
606.751	99.81
606.96	79.81
607.168	92.81
607.376	92.81
607.585	96.81
607.793	92.81
608.001	84.81
608.21	79.81
608.418	77.81
608.626	88.81
608.834	79.81
609.043	99.81
609.251	81.81
609.459	88.81
609.667	97.81
609.875	80.81
610.083	75.81
610.291	83.81
610.499	92.81
610.707	96.81
610.916	75.81
611.124	81.81
611.332	84.81
611.54	95.81
611.748	99.81
611.955	92.81
612.163	77.81
612.371	80.81
612.579	90.81
612.787	88.81
612.995	77.81
613.203	95.81
613.411	85.81
613.618	101.81
613.826	94.81
614.034	98.81
614.242	72.81
614.449	89.81
614.657	83.81
614.865	95.81
615.072	83.81
615.28	81.81
615.488	74.81
615.695	87.81
615.903	100.81
616.111	92.81
616.318	91.81
616.526	103.81
616.733	100.81
616.941	76.81
617.148	78.81
617.356	84.81
617.563	82.81
617.771	92.81
617.978	79.81
618.185	84.81
618.393	93.81
618.6	88.81
618.807	97.81
619.015	84.81
619.222	74.81
619.429	90.81
619.637	97.81
619.844	89.81
620.051	99.81
620.258	83.81
620.466	78.81
620.673	99.81
620.88	83.81
621.087	81.81
621.294	94.81
621.501	89.81
621.708	82.81
621.915	89.81
622.122	90.81
622.329	77.81
622.536	99.81
622.743	99.81
622.95	84.81
623.157	92.81
623.364	87.81
623.571	91.81
623.778	81.81
623.985	75.81
624.192	90.81
624.399	87.81
624.606	83.81
624.812	82.81
625.019	95.81
625.226	90.81
625.433	88.81
625.639	89.81
625.846	84.81
626.053	91.81
626.259	69.81
626.466	98.81
626.673	94.81
626.879	87.81
627.086	86.81
627.293	85.81
627.499	93.81
627.706	102.81
627.912	92.81
628.119	94.81
628.325	89.81
628.532	79.81
628.738	88.81
628.945	79.81
629.151	80.81
629.357	81.81
629.564	96.81
629.77	84.81
629.976	73.81
630.183	82.81
630.389	85.81
630.595	119.81
630.802	77.81
631.008	97.81
631.214	86.81
631.42	85.81
631.627	87.81
631.833	84.81
632.039	88.81
632.245	79.81
632.451	83.81
632.657	88.81
632.863	88.81
633.069	83.81
633.275	95.81
633.481	76.81
633.688	80.81
633.893	77.81
634.099	81.81
634.305	74.81
634.511	102.81
634.717	85.81
634.923	101.81
635.129	95.81
635.335	85.81
635.541	81.81
635.747	83.81
635.952	74.81
636.158	75.81
636.364	76.81
636.57	87.81
636.775	82.81
636.981	99.81
637.187	79.81
637.392	77.81
637.598	96.81
637.804	81.81
638.009	89.81
638.215	93.81
638.421	91.81
638.626	96.81
638.832	92.81
639.037	101.81
639.243	78.81
639.448	83.81
639.654	89.81
639.859	94.81
640.065	83.81
640.27	91.81
640.475	93.81
640.681	89.81
640.886	85.81
641.091	91.81
641.297	96.81
641.502	79.81
641.707	78.81
641.913	84.81
642.118	99.81
642.323	85.81
642.528	91.81
642.733	85.81
642.939	92.81
643.144	89.81
643.349	93.81
643.554	90.81
643.759	83.81
643.964	91.81
644.169	83.81
644.374	85.81
644.579	87.81
644.784	98.81
644.989	91.81
645.194	85.81
645.399	87.81
645.604	79.81
645.809	81.81
646.014	94.81
646.219	86.81
646.423	89.81
646.628	92.81
646.833	87.81
647.038	84.81
647.243	89.81
647.447	82.81
647.652	84.81
647.857	83.81
648.062	77.81
648.266	97.81
648.471	87.81
648.676	103.81
648.88	100.81
649.085	98.81
649.289	84.81
649.494	116.81
649.698	142.81
649.903	96.81
650.107	96.81
650.312	83.81
650.516	84.81
650.721	79.81
650.925	87.81
651.13	92.81
651.334	87.81
651.539	86.81
651.743	95.81
651.947	90.81
652.152	84.81
652.356	91.81
652.56	87.81
652.764	82.81
652.969	81.81
653.173	88.81
653.377	93.81
653.581	73.81
653.785	89.81
653.99	87.81
654.194	86.81
654.398	76.81
654.602	87.81
654.806	77.81
655.01	117.81
655.214	82.81
655.418	71.81
655.622	74.81
655.826	87.81
656.03	106.81
656.234	93.81
656.438	98.81
656.642	100.81
656.846	89.81
657.049	86.81
657.253	98.81
657.457	91.81
657.661	88.81
657.865	84.81
658.068	75.81
658.272	70.81
658.476	71.81
658.68	82.81
658.883	87.81
659.087	71.81
659.291	79.81
659.494	83.81
659.698	72.81
659.901	88.81
660.105	81.81
660.309	67.81
660.512	90.81
660.716	85.81
660.919	85.81
661.123	86.81
661.326	83.81
661.53	81.81
661.733	80.81
661.936	90.81
662.14	87.81
662.343	81.81
662.546	83.81
662.75	82.81
662.953	78.81
663.156	84.81
663.36	89.81
663.563	87.81
663.766	83.81
663.969	72.81
664.173	79.81
664.376	87.81
664.579	87.81
664.782	102.81
664.985	78.81
665.188	72.81
665.391	87.81
665.594	75.81
665.797	74.81
666	68.81
666.203	74.81
666.406	88.81
666.609	86.81
666.812	96.81
667.015	84.81
667.218	90.81
667.421	77.81
667.624	91.81
667.827	91.81
668.03	86.81
668.232	92.81
668.435	81.81
668.638	89.81
668.841	75.81
669.043	95.81
669.246	67.81
669.449	80.81
669.651	85.81
669.854	94.81
670.057	79.81
670.259	85.81
670.462	76.81
670.665	88.81
670.867	91.81
671.07	79.81
671.272	95.81
671.475	66.81
671.677	76.81
671.88	87.81
672.082	75.81
672.284	80.81
672.487	81.81
672.689	77.81
672.892	81.81
