Data from Uncirc_1998_H10_HRD10591_00036.txt Node
Date: Wed Jan 03 11:25:32 EST 2024
User: Yrep
Spectrometer: HR+D1059
Trigger mode: 1
Integration Time (sec): 1.000000E-1
Scans to average: 1
Electric dark correction enabled: true
Nonlinearity correction enabled: false
Boxcar width: 0
XAxis mode: Wavelengths
Number of Pixels in Spectrum: 2048
>>>>>Begin Spectral Data<<<<<
223.165	-26.12
223.4	-26.12
223.635	-26.12
223.869	-17.12
224.104	-21.12
224.338	-22.12
224.573	-4.12
224.808	-6.12
225.042	7.88
225.277	-1.12
225.511	5.88
225.746	3.88
225.98	-13.12
226.215	-5.12
226.449	11.88
226.683	22.88
226.918	26.88
227.152	36.88
227.387	29.88
227.621	37.88
227.856	39.88
228.09	42.88
228.324	43.88
228.559	60.88
228.793	51.88
229.027	63.88
229.262	73.88
229.496	78.88
229.73	87.88
229.964	78.88
230.199	59.88
230.433	62.88
230.667	78.88
230.901	87.88
231.136	72.88
231.37	76.88
231.604	81.88
231.838	88.88
232.072	86.88
232.306	89.88
232.541	69.88
232.775	76.88
233.009	76.88
233.243	74.88
233.477	70.88
233.711	78.88
233.945	82.88
234.179	72.88
234.413	87.88
234.647	92.88
234.881	83.88
235.115	81.88
235.349	67.88
235.583	76.88
235.817	75.88
236.051	83.88
236.285	80.88
236.519	80.88
236.753	87.88
236.987	83.88
237.221	79.88
237.455	72.88
237.689	74.88
237.922	74.88
238.156	84.88
238.39	69.88
238.624	71.88
238.858	74.88
239.091	78.88
239.325	68.88
239.559	89.88
239.793	72.88
240.027	72.88
240.26	82.88
240.494	70.88
240.728	82.88
240.961	68.88
241.195	91.88
241.429	79.88
241.662	68.88
241.896	68.88
242.13	75.88
242.363	90.88
242.597	72.88
242.83	84.88
243.064	73.88
243.298	91.88
243.531	79.88
243.765	86.88
243.998	75.88
244.232	87.88
244.465	90.88
244.699	86.88
244.932	59.88
245.166	72.88
245.399	74.88
245.633	80.88
245.866	70.88
246.099	79.88
246.333	73.88
246.566	68.88
246.8	79.88
247.033	58.88
247.266	82.88
247.5	87.88
247.733	86.88
247.966	62.88
248.2	84.88
248.433	82.88
248.666	78.88
248.899	83.88
249.133	74.88
249.366	89.88
249.599	94.88
249.832	71.88
250.066	86.88
250.299	80.88
250.532	72.88
250.765	76.88
250.998	64.88
251.231	78.88
251.465	77.88
251.698	77.88
251.931	80.88
252.164	85.88
252.397	79.88
252.63	78.88
252.863	87.88
253.096	87.88
253.329	72.88
253.562	71.88
253.795	77.88
254.028	80.88
254.261	83.88
254.494	93.88
254.727	79.88
254.96	86.88
255.193	75.88
255.426	81.88
255.659	80.88
255.892	76.88
256.124	92.88
256.357	85.88
256.59	79.88
256.823	80.88
257.056	71.88
257.289	77.88
257.521	87.88
257.754	68.88
257.987	87.88
258.22	83.88
258.452	93.88
258.685	75.88
258.918	83.88
259.151	71.88
259.383	86.88
259.616	57.88
259.849	86.88
260.081	82.88
260.314	80.88
260.547	93.88
260.779	79.88
261.012	83.88
261.244	90.88
261.477	86.88
261.71	97.88
261.942	114.88
262.175	122.88
262.407	97.88
262.64	78.88
262.872	91.88
263.105	86.88
263.337	86.88
263.57	83.88
263.802	82.88
264.035	83.88
264.267	89.88
264.499	83.88
264.732	85.88
264.964	83.88
265.197	77.88
265.429	93.88
265.661	83.88
265.894	85.88
266.126	78.88
266.358	86.88
266.591	70.88
266.823	78.88
267.055	87.88
267.287	76.88
267.52	82.88
267.752	78.88
267.984	88.88
268.216	94.88
268.448	76.88
268.681	89.88
268.913	93.88
269.145	86.88
269.377	65.88
269.609	92.88
269.841	65.88
270.073	83.88
270.306	92.88
270.538	82.88
270.77	99.88
271.002	95.88
271.234	83.88
271.466	88.88
271.698	91.88
271.93	88.88
272.162	87.88
272.394	92.88
272.626	65.88
272.858	89.88
273.09	80.88
273.322	74.88
273.553	68.88
273.785	74.88
274.017	91.88
274.249	86.88
274.481	91.88
274.713	90.88
274.945	83.88
275.176	86.88
275.408	81.88
275.64	75.88
275.872	86.88
276.104	90.88
276.335	99.88
276.567	97.88
276.799	106.88
277.031	80.88
277.262	83.88
277.494	78.88
277.726	78.88
277.957	83.88
278.189	87.88
278.421	99.88
278.652	92.88
278.884	83.88
279.115	94.88
279.347	78.88
279.579	102.88
279.81	83.88
280.042	90.88
280.273	81.88
280.505	74.88
280.736	92.88
280.968	80.88
281.199	80.88
281.431	83.88
281.662	86.88
281.894	75.88
282.125	98.88
282.356	117.88
282.588	144.88
282.819	97.88
283.051	95.88
283.282	102.88
283.513	74.88
283.745	89.88
283.976	77.88
284.207	83.88
284.439	86.88
284.67	77.88
284.901	89.88
285.132	88.88
285.364	92.88
285.595	83.88
285.826	74.88
286.057	91.88
286.288	100.88
286.52	72.88
286.751	70.88
286.982	74.88
287.213	98.88
287.444	98.88
287.675	71.88
287.906	89.88
288.138	99.88
288.369	85.88
288.6	86.88
288.831	89.88
289.062	94.88
289.293	83.88
289.524	97.88
289.755	84.88
289.986	90.88
290.217	89.88
290.448	89.88
290.679	93.88
290.91	99.88
291.141	98.88
291.371	103.88
291.602	82.88
291.833	94.88
292.064	100.88
292.295	88.88
292.526	103.88
292.757	94.88
292.987	92.88
293.218	95.88
293.449	79.88
293.68	79.88
293.91	93.88
294.141	96.88
294.372	90.88
294.603	72.88
294.833	86.88
295.064	90.88
295.295	94.88
295.525	87.88
295.756	94.88
295.987	98.88
296.217	139.88
296.448	111.88
296.679	83.88
296.909	87.88
297.14	87.88
297.37	87.88
297.601	95.88
297.831	89.88
298.062	104.88
298.292	86.88
298.523	94.88
298.753	78.88
298.984	88.88
299.214	87.88
299.445	96.88
299.675	100.88
299.905	96.88
300.136	100.88
300.366	87.88
300.597	99.88
300.827	89.88
301.057	96.88
301.288	101.88
301.518	96.88
301.748	80.88
301.979	92.88
302.209	96.88
302.439	108.88
302.669	81.88
302.9	87.88
303.13	90.88
303.36	95.88
303.59	84.88
303.82	119.88
304.051	100.88
304.281	103.88
304.511	88.88
304.741	101.88
304.971	90.88
305.201	82.88
305.431	79.88
305.661	75.88
305.891	84.88
306.121	96.88
306.352	117.88
306.582	82.88
306.812	107.88
307.042	92.88
307.272	95.88
307.502	94.88
307.731	80.88
307.961	102.88
308.191	88.88
308.421	97.88
308.651	91.88
308.881	105.88
309.111	82.88
309.341	97.88
309.571	100.88
309.8	97.88
310.03	89.88
310.26	85.88
310.49	93.88
310.72	107.88
310.949	104.88
311.179	117.88
311.409	97.88
311.639	91.88
311.868	82.88
312.098	85.88
312.328	93.88
312.557	108.88
312.787	99.88
313.017	102.88
313.246	108.88
313.476	95.88
313.706	92.88
313.935	93.88
314.165	104.88
314.394	106.88
314.624	99.88
314.853	108.88
315.083	94.88
315.312	91.88
315.542	99.88
315.771	77.88
316.001	106.88
316.23	86.88
316.46	78.88
316.689	90.88
316.919	99.88
317.148	94.88
317.377	97.88
317.607	96.88
317.836	92.88
318.065	87.88
318.295	80.88
318.524	90.88
318.753	100.88
318.983	92.88
319.212	97.88
319.441	97.88
319.67	93.88
319.9	89.88
320.129	94.88
320.358	105.88
320.587	113.88
320.816	113.88
321.046	97.88
321.275	95.88
321.504	119.88
321.733	90.88
321.962	84.88
322.191	94.88
322.42	93.88
322.649	102.88
322.878	109.88
323.108	123.88
323.337	109.88
323.566	127.88
323.795	150.88
324.024	209.88
324.253	388.88
324.482	806.88
324.71	1668.88
324.939	2159.88
325.168	794.88
325.397	244.88
325.626	148.88
325.855	126.88
326.084	114.88
326.313	129.88
326.542	158.88
326.77	221.88
326.999	463.88
327.228	915.88
327.457	1744.88
327.686	1346.88
327.914	375.88
328.143	216.88
328.372	151.88
328.6	126.88
328.829	133.88
329.058	127.88
329.287	127.88
329.515	106.88
329.744	103.88
329.972	89.88
330.201	102.88
330.43	123.88
330.658	121.88
330.887	128.88
331.115	106.88
331.344	98.88
331.572	96.88
331.801	107.88
332.03	107.88
332.258	92.88
332.486	103.88
332.715	98.88
332.943	104.88
333.172	101.88
333.4	86.88
333.629	96.88
333.857	110.88
334.085	96.88
334.314	95.88
334.542	95.88
334.771	91.88
334.999	88.88
335.227	105.88
335.455	114.88
335.684	104.88
335.912	109.88
336.14	100.88
336.369	79.88
336.597	97.88
336.825	95.88
337.053	97.88
337.281	88.88
337.51	99.88
337.738	71.88
337.966	104.88
338.194	102.88
338.422	110.88
338.65	105.88
338.878	97.88
339.106	94.88
339.334	87.88
339.562	78.88
339.79	94.88
340.018	90.88
340.246	110.88
340.474	86.88
340.702	80.88
340.93	85.88
341.158	114.88
341.386	88.88
341.614	100.88
341.842	91.88
342.07	84.88
342.298	84.88
342.526	98.88
342.754	92.88
342.981	89.88
343.209	95.88
343.437	103.88
343.665	83.88
343.893	84.88
344.12	104.88
344.348	92.88
344.576	84.88
344.804	97.88
345.031	87.88
345.259	103.88
345.487	93.88
345.714	83.88
345.942	98.88
346.17	99.88
346.397	104.88
346.625	110.88
346.853	107.88
347.08	96.88
347.308	99.88
347.535	92.88
347.763	87.88
347.99	95.88
348.218	91.88
348.445	100.88
348.673	88.88
348.9	98.88
349.128	93.88
349.355	93.88
349.583	93.88
349.81	89.88
350.037	94.88
350.265	102.88
350.492	91.88
350.72	97.88
350.947	107.88
351.174	110.88
351.402	106.88
351.629	96.88
351.856	98.88
352.083	96.88
352.311	99.88
352.538	104.88
352.765	124.88
352.992	108.88
353.22	107.88
353.447	114.88
353.674	93.88
353.901	90.88
354.128	95.88
354.355	97.88
354.583	109.88
354.81	95.88
355.037	109.88
355.264	89.88
355.491	99.88
355.718	87.88
355.945	99.88
356.172	89.88
356.399	98.88
356.626	92.88
356.853	81.88
357.08	81.88
357.307	97.88
357.534	97.88
357.761	99.88
357.988	99.88
358.215	101.88
358.441	98.88
358.668	79.88
358.895	97.88
359.122	102.88
359.349	74.88
359.576	83.88
359.802	106.88
360.029	111.88
360.256	106.88
360.483	103.88
360.709	84.88
360.936	89.88
361.163	98.88
361.39	95.88
361.616	94.88
361.843	84.88
362.07	90.88
362.296	85.88
362.523	95.88
362.749	94.88
362.976	99.88
363.203	96.88
363.429	87.88
363.656	82.88
363.882	88.88
364.109	103.88
364.335	119.88
364.562	95.88
364.788	88.88
365.015	92.88
365.241	105.88
365.468	86.88
365.694	110.88
365.92	83.88
366.147	94.88
366.373	89.88
366.599	93.88
366.826	89.88
367.052	100.88
367.278	82.88
367.505	96.88
367.731	95.88
367.957	95.88
368.184	95.88
368.41	90.88
368.636	112.88
368.862	108.88
369.089	89.88
369.315	99.88
369.541	77.88
369.767	93.88
369.993	95.88
370.219	90.88
370.445	88.88
370.672	90.88
370.898	78.88
371.124	73.88
371.35	78.88
371.576	82.88
371.802	84.88
372.028	102.88
372.254	90.88
372.48	79.88
372.706	95.88
372.932	103.88
373.158	91.88
373.384	92.88
373.61	91.88
373.835	95.88
374.061	101.88
374.287	95.88
374.513	82.88
374.739	81.88
374.965	86.88
375.191	97.88
375.416	91.88
375.642	88.88
375.868	87.88
376.094	98.88
376.319	84.88
376.545	98.88
376.771	100.88
376.997	78.88
377.222	86.88
377.448	95.88
377.674	108.88
377.899	108.88
378.125	88.88
378.35	107.88
378.576	101.88
378.802	86.88
379.027	85.88
379.253	84.88
379.478	106.88
379.704	86.88
379.929	92.88
380.155	86.88
380.38	84.88
380.606	80.88
380.831	98.88
381.057	90.88
381.282	96.88
381.507	88.88
381.733	85.88
381.958	91.88
382.184	86.88
382.409	92.88
382.634	100.88
382.86	95.88
383.085	105.88
383.31	84.88
383.535	99.88
383.761	108.88
383.986	90.88
384.211	106.88
384.436	96.88
384.662	105.88
384.887	98.88
385.112	86.88
385.337	99.88
385.562	85.88
385.787	104.88
386.013	116.88
386.238	108.88
386.463	97.88
386.688	106.88
386.913	90.88
387.138	105.88
387.363	104.88
387.588	92.88
387.813	97.88
388.038	82.88
388.263	104.88
388.488	97.88
388.713	95.88
388.938	103.88
389.163	89.88
389.387	97.88
389.612	89.88
389.837	95.88
390.062	87.88
390.287	76.88
390.512	90.88
390.736	86.88
390.961	96.88
391.186	98.88
391.411	110.88
391.636	80.88
391.86	100.88
392.085	99.88
392.31	86.88
392.534	92.88
392.759	95.88
392.984	72.88
393.208	82.88
393.433	80.88
393.658	96.88
393.882	105.88
394.107	90.88
394.331	87.88
394.556	92.88
394.78	95.88
395.005	91.88
395.229	93.88
395.454	107.88
395.678	83.88
395.903	89.88
396.127	96.88
396.352	93.88
396.576	88.88
396.801	95.88
397.025	71.88
397.249	72.88
397.474	105.88
397.698	86.88
397.922	83.88
398.147	92.88
398.371	84.88
398.595	104.88
398.82	88.88
399.044	78.88
399.268	96.88
399.492	93.88
399.717	83.88
399.941	87.88
400.165	98.88
400.389	92.88
400.613	97.88
400.837	92.88
401.062	81.88
401.286	82.88
401.51	74.88
401.734	89.88
401.958	102.88
402.182	134.88
402.406	150.88
402.63	124.88
402.854	102.88
403.078	99.88
403.302	93.88
403.526	96.88
403.75	93.88
403.974	86.88
404.198	95.88
404.422	84.88
404.645	86.88
404.869	98.88
405.093	114.88
405.317	97.88
405.541	98.88
405.765	96.88
405.988	118.88
406.212	162.88
406.436	240.88
406.66	143.88
406.883	110.88
407.107	89.88
407.331	96.88
407.555	98.88
407.778	100.88
408.002	95.88
408.226	90.88
408.449	97.88
408.673	82.88
408.896	88.88
409.12	110.88
409.344	97.88
409.567	91.88
409.791	107.88
410.014	98.88
410.238	79.88
410.461	100.88
410.685	89.88
410.908	103.88
411.132	118.88
411.355	103.88
411.578	92.88
411.802	92.88
412.025	87.88
412.249	95.88
412.472	91.88
412.695	93.88
412.919	99.88
413.142	87.88
413.365	93.88
413.589	92.88
413.812	98.88
414.035	100.88
414.258	82.88
414.482	91.88
414.705	94.88
414.928	96.88
415.151	83.88
415.374	84.88
415.597	93.88
415.821	89.88
416.044	95.88
416.267	88.88
416.49	72.88
416.713	65.88
416.936	86.88
417.159	82.88
417.382	77.88
417.605	82.88
417.828	88.88
418.051	105.88
418.274	95.88
418.497	90.88
418.72	91.88
418.943	75.88
419.166	101.88
419.389	88.88
419.611	80.88
419.834	89.88
420.057	95.88
420.28	89.88
420.503	94.88
420.726	101.88
420.948	90.88
421.171	105.88
421.394	96.88
421.617	91.88
421.839	104.88
422.062	82.88
422.285	98.88
422.507	88.88
422.73	94.88
422.953	78.88
423.175	91.88
423.398	78.88
423.621	92.88
423.843	81.88
424.066	106.88
424.288	64.88
424.511	78.88
424.733	91.88
424.956	119.88
425.178	98.88
425.401	109.88
425.623	93.88
425.846	82.88
426.068	98.88
426.291	99.88
426.513	99.88
426.735	87.88
426.958	92.88
427.18	118.88
427.402	132.88
427.625	171.88
427.847	132.88
428.069	104.88
428.292	96.88
428.514	87.88
428.736	105.88
428.958	92.88
429.181	89.88
429.403	100.88
429.625	106.88
429.847	91.88
430.069	95.88
430.292	96.88
430.514	89.88
430.736	97.88
430.958	99.88
431.18	78.88
431.402	79.88
431.624	81.88
431.846	75.88
432.068	94.88
432.29	79.88
432.512	101.88
432.734	91.88
432.956	98.88
433.178	107.88
433.4	106.88
433.622	79.88
433.844	76.88
434.066	95.88
434.287	93.88
434.509	79.88
434.731	97.88
434.953	86.88
435.175	81.88
435.397	99.88
435.618	89.88
435.84	105.88
436.062	119.88
436.284	118.88
436.505	113.88
436.727	109.88
436.949	101.88
437.17	88.88
437.392	84.88
437.614	94.88
437.835	112.88
438.057	104.88
438.278	108.88
438.5	109.88
438.721	105.88
438.943	112.88
439.165	79.88
439.386	80.88
439.608	80.88
439.829	95.88
440.05	130.88
440.272	125.88
440.493	96.88
440.715	78.88
440.936	80.88
441.158	90.88
441.379	80.88
441.6	103.88
441.822	82.88
442.043	90.88
442.264	98.88
442.486	113.88
442.707	89.88
442.928	95.88
443.149	125.88
443.371	113.88
443.592	114.88
443.813	100.88
444.034	99.88
444.255	93.88
444.476	80.88
444.698	79.88
444.919	102.88
445.14	119.88
445.361	140.88
445.582	122.88
445.803	127.88
446.024	136.88
446.245	148.88
446.466	110.88
446.687	92.88
446.908	104.88
447.129	93.88
447.35	82.88
447.571	103.88
447.792	86.88
448.013	98.88
448.234	112.88
448.455	97.88
448.675	107.88
448.896	127.88
449.117	110.88
449.338	106.88
449.559	132.88
449.779	143.88
450	101.88
450.221	99.88
450.442	84.88
450.662	99.88
450.883	99.88
451.104	118.88
451.324	88.88
451.545	97.88
451.766	97.88
451.986	93.88
452.207	89.88
452.428	91.88
452.648	82.88
452.869	98.88
453.089	115.88
453.31	104.88
453.53	99.88
453.751	100.88
453.971	103.88
454.192	93.88
454.412	93.88
454.633	93.88
454.853	93.88
455.073	91.88
455.294	91.88
455.514	107.88
455.734	94.88
455.955	93.88
456.175	72.88
456.395	98.88
456.616	86.88
456.836	91.88
457.056	79.88
457.276	106.88
457.497	93.88
457.717	92.88
457.937	84.88
458.157	81.88
458.377	90.88
458.598	96.88
458.818	138.88
459.038	162.88
459.258	108.88
459.478	94.88
459.698	97.88
459.918	81.88
460.138	86.88
460.358	88.88
460.578	89.88
460.798	96.88
461.018	97.88
461.238	75.88
461.458	90.88
461.678	83.88
461.898	89.88
462.118	78.88
462.338	82.88
462.558	82.88
462.777	88.88
462.997	86.88
463.217	90.88
463.437	88.88
463.657	82.88
463.876	78.88
464.096	99.88
464.316	92.88
464.536	89.88
464.755	79.88
464.975	100.88
465.195	151.88
465.414	160.88
465.634	95.88
465.854	99.88
466.073	89.88
466.293	95.88
466.512	78.88
466.732	95.88
466.951	86.88
467.171	88.88
467.391	91.88
467.61	102.88
467.829	100.88
468.049	90.88
468.268	79.88
468.488	74.88
468.707	78.88
468.927	85.88
469.146	78.88
469.365	94.88
469.585	75.88
469.804	114.88
470.023	98.88
470.243	96.88
470.462	89.88
470.681	91.88
470.901	86.88
471.12	80.88
471.339	83.88
471.558	89.88
471.777	72.88
471.997	91.88
472.216	96.88
472.435	90.88
472.654	82.88
472.873	86.88
473.092	83.88
473.311	82.88
473.53	86.88
473.749	96.88
473.968	89.88
474.187	109.88
474.406	97.88
474.625	83.88
474.844	79.88
475.063	87.88
475.282	84.88
475.501	87.88
475.72	100.88
475.939	92.88
476.158	96.88
476.377	96.88
476.596	85.88
476.814	103.88
477.033	99.88
477.252	97.88
477.471	87.88
477.69	88.88
477.908	93.88
478.127	90.88
478.346	97.88
478.564	84.88
478.783	90.88
479.002	80.88
479.22	90.88
479.439	119.88
479.658	97.88
479.876	97.88
480.095	87.88
480.313	85.88
480.532	88.88
480.751	87.88
480.969	81.88
481.188	107.88
481.406	100.88
481.624	90.88
481.843	81.88
482.061	81.88
482.28	87.88
482.498	72.88
482.717	91.88
482.935	88.88
483.153	94.88
483.372	86.88
483.59	90.88
483.808	93.88
484.027	87.88
484.245	84.88
484.463	102.88
484.681	82.88
484.9	81.88
485.118	82.88
485.336	98.88
485.554	94.88
485.772	96.88
485.99	99.88
486.209	110.88
486.427	108.88
486.645	118.88
486.863	103.88
487.081	98.88
487.299	87.88
487.517	86.88
487.735	94.88
487.953	106.88
488.171	89.88
488.389	88.88
488.607	95.88
488.825	87.88
489.043	85.88
489.261	93.88
489.479	91.88
489.696	83.88
489.914	95.88
490.132	100.88
490.35	100.88
490.568	89.88
490.786	87.88
491.003	88.88
491.221	84.88
491.439	82.88
491.657	96.88
491.874	92.88
492.092	96.88
492.31	104.88
492.527	90.88
492.745	90.88
492.963	108.88
493.18	82.88
493.398	77.88
493.615	98.88
493.833	92.88
494.05	89.88
494.268	91.88
494.485	100.88
494.703	102.88
494.92	95.88
495.138	83.88
495.355	85.88
495.573	80.88
495.79	91.88
496.008	82.88
496.225	94.88
496.442	94.88
496.66	84.88
496.877	88.88
497.094	96.88
497.312	104.88
497.529	87.88
497.746	92.88
497.963	97.88
498.181	82.88
498.398	88.88
498.615	108.88
498.832	98.88
499.049	97.88
499.267	99.88
499.484	90.88
499.701	102.88
499.918	86.88
500.135	88.88
500.352	79.88
500.569	88.88
500.786	97.88
501.003	95.88
501.22	91.88
501.437	80.88
501.654	88.88
501.871	102.88
502.088	90.88
502.305	98.88
502.522	95.88
502.739	93.88
502.956	70.88
503.172	86.88
503.389	84.88
503.606	106.88
503.823	102.88
504.04	80.88
504.256	98.88
504.473	87.88
504.69	86.88
504.907	93.88
505.123	92.88
505.34	97.88
505.557	89.88
505.773	96.88
505.99	91.88
506.207	97.88
506.423	92.88
506.64	89.88
506.856	93.88
507.073	94.88
507.289	95.88
507.506	102.88
507.722	107.88
507.939	121.88
508.155	93.88
508.372	86.88
508.588	67.88
508.805	97.88
509.021	96.88
509.238	105.88
509.454	99.88
509.67	101.88
509.887	107.88
510.103	127.88
510.319	210.88
510.536	720.88
510.752	2302.88
510.968	618.88
511.184	154.88
511.401	108.88
511.617	101.88
511.833	92.88
512.049	78.88
512.265	102.88
512.481	91.88
512.698	90.88
512.914	85.88
513.13	91.88
513.346	102.88
513.562	94.88
513.778	103.88
513.994	106.88
514.21	112.88
514.426	102.88
514.642	129.88
514.858	134.88
515.074	166.88
515.29	441.88
515.506	1386.88
515.721	502.88
515.937	153.88
516.153	111.88
516.369	97.88
516.585	97.88
516.801	78.88
517.016	105.88
517.232	88.88
517.448	102.88
517.664	96.88
517.879	96.88
518.095	99.88
518.311	86.88
518.527	97.88
518.742	91.88
518.958	95.88
519.173	93.88
519.389	91.88
519.605	91.88
519.82	105.88
520.036	110.88
520.251	113.88
520.467	113.88
520.682	110.88
520.898	118.88
521.113	113.88
521.329	126.88
521.544	191.88
521.76	530.88
521.975	2382.88
522.19	1383.88
522.406	300.88
522.621	119.88
522.836	100.88
523.052	91.88
523.267	88.88
523.482	96.88
523.698	111.88
523.913	118.88
524.128	96.88
524.343	100.88
524.559	87.88
524.774	85.88
524.989	92.88
525.204	102.88
525.419	96.88
525.634	87.88
525.849	91.88
526.064	94.88
526.28	96.88
526.495	83.88
526.71	82.88
526.925	82.88
527.14	94.88
527.355	95.88
527.57	99.88
527.785	89.88
527.999	81.88
528.214	92.88
528.429	92.88
528.644	93.88
528.859	95.88
529.074	91.88
529.289	129.88
529.503	171.88
529.718	98.88
529.933	88.88
530.148	92.88
530.363	82.88
530.577	102.88
530.792	87.88
531.007	104.88
531.221	86.88
531.436	86.88
531.651	89.88
531.865	109.88
532.08	84.88
532.295	87.88
532.509	106.88
532.724	84.88
532.938	95.88
533.153	100.88
533.367	85.88
533.582	80.88
533.796	89.88
534.011	82.88
534.225	103.88
534.44	109.88
534.654	102.88
534.868	94.88
535.083	99.88
535.297	96.88
535.511	103.88
535.726	96.88
535.94	105.88
536.154	92.88
536.369	86.88
536.583	80.88
536.797	101.88
537.011	94.88
537.225	78.88
537.44	76.88
537.654	97.88
537.868	90.88
538.082	80.88
538.296	89.88
538.51	95.88
538.724	72.88
538.938	86.88
539.153	99.88
539.367	115.88
539.581	87.88
539.795	94.88
540.009	81.88
540.222	93.88
540.436	91.88
540.65	98.88
540.864	83.88
541.078	94.88
541.292	96.88
541.506	99.88
541.72	96.88
541.934	95.88
542.147	79.88
542.361	89.88
542.575	91.88
542.789	97.88
543.002	83.88
543.216	100.88
543.43	88.88
543.644	93.88
543.857	80.88
544.071	88.88
544.285	93.88
544.498	73.88
544.712	74.88
544.925	100.88
545.139	93.88
545.352	85.88
545.566	84.88
545.779	84.88
545.993	85.88
546.206	70.88
546.42	85.88
546.633	82.88
546.847	87.88
547.06	103.88
547.274	91.88
547.487	86.88
547.7	87.88
547.914	73.88
548.127	83.88
548.34	84.88
548.554	93.88
548.767	80.88
548.98	94.88
549.193	90.88
549.407	91.88
549.62	95.88
549.833	92.88
550.046	96.88
550.259	99.88
550.473	109.88
550.686	93.88
550.899	81.88
551.112	100.88
551.325	87.88
551.538	91.88
551.751	88.88
551.964	88.88
552.177	93.88
552.39	102.88
552.603	100.88
552.816	99.88
553.029	82.88
553.242	88.88
553.455	104.88
553.667	99.88
553.88	102.88
554.093	95.88
554.306	94.88
554.519	90.88
554.732	106.88
554.944	97.88
555.157	98.88
555.37	90.88
555.583	94.88
555.795	108.88
556.008	87.88
556.221	90.88
556.433	69.88
556.646	99.88
556.859	90.88
557.071	99.88
557.284	86.88
557.496	94.88
557.709	96.88
557.921	91.88
558.134	90.88
558.346	100.88
558.559	84.88
558.771	80.88
558.984	86.88
559.196	87.88
559.409	87.88
559.621	90.88
559.833	92.88
560.046	84.88
560.258	104.88
560.47	105.88
560.683	90.88
560.895	90.88
561.107	87.88
561.32	80.88
561.532	83.88
561.744	95.88
561.956	91.88
562.168	84.88
562.381	97.88
562.593	85.88
562.805	85.88
563.017	97.88
563.229	88.88
563.441	81.88
563.653	94.88
563.865	77.88
564.077	82.88
564.289	98.88
564.501	102.88
564.713	111.88
564.925	89.88
565.137	108.88
565.349	104.88
565.561	104.88
565.773	87.88
565.985	102.88
566.197	80.88
566.408	90.88
566.62	93.88
566.832	93.88
567.044	84.88
567.255	88.88
567.467	79.88
567.679	103.88
567.891	92.88
568.102	86.88
568.314	92.88
568.526	65.88
568.737	88.88
568.949	79.88
569.161	90.88
569.372	92.88
569.584	89.88
569.795	87.88
570.007	116.88
570.218	222.88
570.43	137.88
570.641	92.88
570.853	98.88
571.064	73.88
571.276	87.88
571.487	101.88
571.698	98.88
571.91	82.88
572.121	87.88
572.333	79.88
572.544	80.88
572.755	88.88
572.966	87.88
573.178	87.88
573.389	101.88
573.6	87.88
573.811	86.88
574.023	87.88
574.234	76.88
574.445	99.88
574.656	97.88
574.867	93.88
575.078	95.88
575.289	91.88
575.501	86.88
575.712	83.88
575.923	102.88
576.134	73.88
576.345	74.88
576.556	93.88
576.767	89.88
576.978	93.88
577.188	79.88
577.399	89.88
577.61	104.88
577.821	95.88
578.032	121.88
578.243	278.88
578.454	766.88
578.665	216.88
578.875	111.88
579.086	98.88
579.297	98.88
579.508	95.88
579.718	94.88
579.929	91.88
580.14	88.88
580.35	86.88
580.561	79.88
580.772	86.88
580.982	80.88
581.193	79.88
581.403	78.88
581.614	97.88
581.825	96.88
582.035	96.88
582.246	94.88
582.456	95.88
582.667	79.88
582.877	83.88
583.087	86.88
583.298	80.88
583.508	93.88
583.719	96.88
583.929	100.88
584.139	105.88
584.35	72.88
584.56	96.88
584.77	66.88
584.981	85.88
585.191	101.88
585.401	85.88
585.611	91.88
585.821	95.88
586.032	91.88
586.242	85.88
586.452	82.88
586.662	74.88
586.872	90.88
587.082	90.88
587.292	82.88
587.502	107.88
587.713	87.88
587.923	88.88
588.133	86.88
588.343	90.88
588.553	100.88
588.762	88.88
588.972	86.88
589.182	87.88
589.392	83.88
589.602	87.88
589.812	80.88
590.022	90.88
590.232	74.88
590.441	81.88
590.651	91.88
590.861	94.88
591.071	79.88
591.281	97.88
591.49	89.88
591.7	90.88
591.91	87.88
592.119	97.88
592.329	95.88
592.539	113.88
592.748	96.88
592.958	95.88
593.167	90.88
593.377	74.88
593.587	104.88
593.796	83.88
594.006	83.88
594.215	72.88
594.424	91.88
594.634	86.88
594.843	94.88
595.053	91.88
595.262	91.88
595.472	84.88
595.681	96.88
595.89	93.88
596.1	92.88
596.309	94.88
596.518	68.88
596.727	78.88
596.937	89.88
597.146	82.88
597.355	86.88
597.564	80.88
597.774	92.88
597.983	83.88
598.192	85.88
598.401	84.88
598.61	92.88
598.819	80.88
599.028	87.88
599.237	83.88
599.446	79.88
599.655	75.88
599.864	89.88
600.073	78.88
600.282	92.88
600.491	97.88
600.7	83.88
600.909	90.88
601.118	90.88
601.327	97.88
601.536	81.88
601.745	91.88
601.953	78.88
602.162	94.88
602.371	84.88
602.58	88.88
602.789	90.88
602.997	79.88
603.206	81.88
603.415	88.88
603.623	99.88
603.832	103.88
604.041	79.88
604.249	93.88
604.458	82.88
604.666	93.88
604.875	90.88
605.084	93.88
605.292	84.88
605.501	95.88
605.709	102.88
605.918	86.88
606.126	96.88
606.334	85.88
606.543	92.88
606.751	87.88
606.96	96.88
607.168	90.88
607.376	88.88
607.585	74.88
607.793	92.88
608.001	78.88
608.21	86.88
608.418	70.88
608.626	90.88
608.834	100.88
609.043	86.88
609.251	79.88
609.459	81.88
609.667	93.88
609.875	87.88
610.083	90.88
610.291	82.88
610.499	93.88
610.707	70.88
610.916	95.88
611.124	99.88
611.332	76.88
611.54	92.88
611.748	89.88
611.955	96.88
612.163	89.88
612.371	94.88
612.579	91.88
612.787	77.88
612.995	82.88
613.203	96.88
613.411	91.88
613.618	91.88
613.826	92.88
614.034	95.88
614.242	102.88
614.449	81.88
614.657	82.88
614.865	73.88
615.072	89.88
615.28	96.88
615.488	73.88
615.695	99.88
615.903	97.88
616.111	102.88
616.318	94.88
616.526	101.88
616.733	96.88
616.941	97.88
617.148	102.88
617.356	86.88
617.563	84.88
617.771	86.88
617.978	85.88
618.185	75.88
618.393	75.88
618.6	90.88
618.807	62.88
619.015	79.88
619.222	75.88
619.429	67.88
619.637	75.88
619.844	80.88
620.051	92.88
620.258	91.88
620.466	78.88
620.673	92.88
620.88	93.88
621.087	86.88
621.294	81.88
621.501	68.88
621.708	86.88
621.915	71.88
622.122	94.88
622.329	90.88
622.536	81.88
622.743	74.88
622.95	81.88
623.157	97.88
623.364	92.88
623.571	84.88
623.778	88.88
623.985	79.88
624.192	96.88
624.399	84.88
624.606	82.88
624.812	89.88
625.019	96.88
625.226	75.88
625.433	86.88
625.639	76.88
625.846	77.88
626.053	80.88
626.259	98.88
626.466	78.88
626.673	92.88
626.879	92.88
627.086	75.88
627.293	106.88
627.499	98.88
627.706	78.88
627.912	89.88
628.119	88.88
628.325	83.88
628.532	77.88
628.738	86.88
628.945	78.88
629.151	97.88
629.357	91.88
629.564	85.88
629.77	84.88
629.976	73.88
630.183	76.88
630.389	75.88
630.595	97.88
630.802	86.88
631.008	82.88
631.214	87.88
631.42	84.88
631.627	91.88
631.833	90.88
632.039	78.88
632.245	84.88
632.451	81.88
632.657	87.88
632.863	79.88
633.069	73.88
633.275	98.88
633.481	79.88
633.688	79.88
633.893	74.88
634.099	94.88
634.305	91.88
634.511	88.88
634.717	72.88
634.923	81.88
635.129	97.88
635.335	91.88
635.541	68.88
635.747	79.88
635.952	80.88
636.158	66.88
636.364	74.88
636.57	88.88
636.775	88.88
636.981	93.88
637.187	98.88
637.392	89.88
637.598	90.88
637.804	75.88
638.009	85.88
638.215	87.88
638.421	72.88
638.626	87.88
638.832	96.88
639.037	82.88
639.243	73.88
639.448	88.88
639.654	90.88
639.859	76.88
640.065	80.88
640.27	96.88
640.475	87.88
640.681	99.88
640.886	82.88
641.091	87.88
641.297	95.88
641.502	74.88
641.707	81.88
641.913	79.88
642.118	79.88
642.323	76.88
642.528	108.88
642.733	98.88
642.939	94.88
643.144	83.88
643.349	86.88
643.554	69.88
643.759	78.88
643.964	89.88
644.169	86.88
644.374	90.88
644.579	89.88
644.784	80.88
644.989	88.88
645.194	83.88
645.399	79.88
645.604	85.88
645.809	96.88
646.014	81.88
646.219	67.88
646.423	82.88
646.628	75.88
646.833	89.88
647.038	107.88
647.243	90.88
647.447	81.88
647.652	80.88
647.857	88.88
648.062	78.88
648.266	95.88
648.471	82.88
648.676	91.88
648.88	93.88
649.085	80.88
649.289	96.88
649.494	83.88
649.698	122.88
649.903	103.88
650.107	90.88
650.312	92.88
650.516	79.88
650.721	83.88
650.925	94.88
651.13	78.88
651.334	82.88
651.539	78.88
651.743	79.88
651.947	96.88
652.152	64.88
652.356	89.88
652.56	84.88
652.764	81.88
652.969	93.88
653.173	83.88
653.377	67.88
653.581	88.88
653.785	94.88
653.99	75.88
654.194	72.88
654.398	80.88
654.602	83.88
654.806	90.88
655.01	105.88
655.214	92.88
655.418	93.88
655.622	104.88
655.826	88.88
656.03	87.88
656.234	89.88
656.438	97.88
656.642	88.88
656.846	87.88
657.049	72.88
657.253	80.88
657.457	91.88
657.661	83.88
657.865	91.88
658.068	84.88
658.272	87.88
658.476	87.88
658.68	92.88
658.883	88.88
659.087	88.88
659.291	93.88
659.494	85.88
659.698	70.88
659.901	88.88
660.105	87.88
660.309	72.88
660.512	81.88
660.716	89.88
660.919	76.88
661.123	86.88
661.326	90.88
661.53	75.88
661.733	70.88
661.936	87.88
662.14	87.88
662.343	93.88
662.546	89.88
662.75	87.88
662.953	83.88
663.156	87.88
663.36	92.88
663.563	82.88
663.766	90.88
663.969	85.88
664.173	89.88
664.376	89.88
664.579	66.88
664.782	88.88
664.985	76.88
665.188	76.88
665.391	92.88
665.594	83.88
665.797	66.88
666	77.88
666.203	84.88
666.406	81.88
666.609	93.88
666.812	92.88
667.015	82.88
667.218	87.88
667.421	85.88
667.624	90.88
667.827	85.88
668.03	82.88
668.232	88.88
668.435	95.88
668.638	99.88
668.841	85.88
669.043	92.88
669.246	90.88
669.449	82.88
669.651	74.88
669.854	75.88
670.057	82.88
670.259	92.88
670.462	90.88
670.665	84.88
670.867	89.88
671.07	80.88
671.272	74.88
671.475	86.88
671.677	84.88
671.88	81.88
672.082	83.88
672.284	83.88
672.487	82.88
672.689	76.88
672.892	80.88
