Data from Lead_HRD10591_00038.txt Node
Date: Tue Feb 17 14:10:39 EST 2026
User: Yrep
Spectrometer: HR+D1059
Trigger mode: 1
Integration Time (sec): 1.000000E-1
Scans to average: 1
Electric dark correction enabled: true
Nonlinearity correction enabled: false
Boxcar width: 0
XAxis mode: Wavelengths
Number of Pixels in Spectrum: 2048
>>>>>Begin Spectral Data<<<<<
223.165	-16.5
223.4	-16.5
223.635	-16.5
223.869	-4.5
224.104	-5.5
224.338	-25.5
224.573	-24.5
224.808	5.5
225.042	-14.5
225.277	-11.5
225.511	2.5
225.746	6.5
225.98	10.5
226.215	2.5
226.449	3.5
226.683	21.5
226.918	20.5
227.152	29.5
227.387	28.5
227.621	44.5
227.856	47.5
228.09	34.5
228.324	61.5
228.559	53.5
228.793	52.5
229.027	55.5
229.262	76.5
229.496	79.5
229.73	66.5
229.964	62.5
230.199	67.5
230.433	80.5
230.667	72.5
230.901	73.5
231.136	74.5
231.37	77.5
231.604	75.5
231.838	91.5
232.072	85.5
232.306	79.5
232.541	88.5
232.775	93.5
233.009	80.5
233.243	65.5
233.477	85.5
233.711	84.5
233.945	83.5
234.179	69.5
234.413	84.5
234.647	78.5
234.881	77.5
235.115	62.5
235.349	83.5
235.583	89.5
235.817	83.5
236.051	72.5
236.285	65.5
236.519	67.5
236.753	73.5
236.987	80.5
237.221	97.5
237.455	78.5
237.689	79.5
237.922	73.5
238.156	85.5
238.39	70.5
238.624	90.5
238.858	63.5
239.091	74.5
239.325	72.5
239.559	79.5
239.793	91.5
240.027	91.5
240.26	80.5
240.494	64.5
240.728	84.5
240.961	65.5
241.195	71.5
241.429	74.5
241.662	67.5
241.896	79.5
242.13	83.5
242.363	67.5
242.597	61.5
242.83	78.5
243.064	74.5
243.298	72.5
243.531	75.5
243.765	67.5
243.998	75.5
244.232	93.5
244.465	65.5
244.699	75.5
244.932	73.5
245.166	63.5
245.399	83.5
245.633	79.5
245.866	76.5
246.099	78.5
246.333	82.5
246.566	75.5
246.8	67.5
247.033	78.5
247.266	76.5
247.5	80.5
247.733	80.5
247.966	75.5
248.2	74.5
248.433	77.5
248.666	86.5
248.899	79.5
249.133	79.5
249.366	87.5
249.599	82.5
249.832	73.5
250.066	86.5
250.299	76.5
250.532	93.5
250.765	74.5
250.998	82.5
251.231	86.5
251.465	93.5
251.698	79.5
251.931	91.5
252.164	83.5
252.397	82.5
252.63	77.5
252.863	89.5
253.096	65.5
253.329	83.5
253.562	89.5
253.795	85.5
254.028	93.5
254.261	80.5
254.494	79.5
254.727	83.5
254.96	70.5
255.193	77.5
255.426	71.5
255.659	71.5
255.892	86.5
256.124	70.5
256.357	75.5
256.59	67.5
256.823	81.5
257.056	74.5
257.289	73.5
257.521	87.5
257.754	95.5
257.987	80.5
258.22	78.5
258.452	74.5
258.685	82.5
258.918	86.5
259.151	80.5
259.383	70.5
259.616	96.5
259.849	84.5
260.081	91.5
260.314	95.5
260.547	71.5
260.779	77.5
261.012	85.5
261.244	92.5
261.477	115.5
261.71	96.5
261.942	79.5
262.175	79.5
262.407	66.5
262.64	82.5
262.872	75.5
263.105	92.5
263.337	95.5
263.57	80.5
263.802	80.5
264.035	84.5
264.267	87.5
264.499	99.5
264.732	87.5
264.964	74.5
265.197	96.5
265.429	95.5
265.661	85.5
265.894	92.5
266.126	89.5
266.358	85.5
266.591	90.5
266.823	79.5
267.055	89.5
267.287	69.5
267.52	89.5
267.752	85.5
267.984	87.5
268.216	93.5
268.448	83.5
268.681	81.5
268.913	75.5
269.145	83.5
269.377	85.5
269.609	85.5
269.841	89.5
270.073	99.5
270.306	80.5
270.538	89.5
270.77	82.5
271.002	76.5
271.234	94.5
271.466	88.5
271.698	83.5
271.93	93.5
272.162	86.5
272.394	81.5
272.626	83.5
272.858	81.5
273.09	67.5
273.322	68.5
273.553	85.5
273.785	73.5
274.017	94.5
274.249	80.5
274.481	79.5
274.713	93.5
274.945	80.5
275.176	65.5
275.408	80.5
275.64	87.5
275.872	85.5
276.104	73.5
276.335	84.5
276.567	76.5
276.799	69.5
277.031	85.5
277.262	77.5
277.494	86.5
277.726	89.5
277.957	75.5
278.189	79.5
278.421	91.5
278.652	81.5
278.884	83.5
279.115	74.5
279.347	76.5
279.579	79.5
279.81	88.5
280.042	101.5
280.273	139.5
280.505	123.5
280.736	98.5
280.968	81.5
281.199	84.5
281.431	70.5
281.662	79.5
281.894	89.5
282.125	81.5
282.356	98.5
282.588	93.5
282.819	100.5
283.051	87.5
283.282	130.5
283.513	125.5
283.745	116.5
283.976	103.5
284.207	87.5
284.439	81.5
284.67	81.5
284.901	95.5
285.132	87.5
285.364	87.5
285.595	81.5
285.826	75.5
286.057	71.5
286.288	72.5
286.52	91.5
286.751	88.5
286.982	105.5
287.213	93.5
287.444	111.5
287.675	95.5
287.906	111.5
288.138	89.5
288.369	97.5
288.6	79.5
288.831	87.5
289.062	82.5
289.293	74.5
289.524	88.5
289.755	90.5
289.986	72.5
290.217	84.5
290.448	89.5
290.679	90.5
290.91	81.5
291.141	75.5
291.371	86.5
291.602	76.5
291.833	73.5
292.064	87.5
292.295	88.5
292.526	95.5
292.757	86.5
292.987	84.5
293.218	88.5
293.449	81.5
293.68	88.5
293.91	84.5
294.141	82.5
294.372	82.5
294.603	79.5
294.833	81.5
295.064	95.5
295.295	84.5
295.525	75.5
295.756	87.5
295.987	81.5
296.217	80.5
296.448	79.5
296.679	77.5
296.909	90.5
297.14	81.5
297.37	93.5
297.601	80.5
297.831	64.5
298.062	96.5
298.292	87.5
298.523	69.5
298.753	79.5
298.984	83.5
299.214	86.5
299.445	84.5
299.675	80.5
299.905	74.5
300.136	76.5
300.366	94.5
300.597	87.5
300.827	75.5
301.057	82.5
301.288	89.5
301.518	74.5
301.748	73.5
301.979	97.5
302.209	85.5
302.439	85.5
302.669	97.5
302.9	80.5
303.13	70.5
303.36	85.5
303.59	94.5
303.82	86.5
304.051	88.5
304.281	76.5
304.511	85.5
304.741	75.5
304.971	80.5
305.201	95.5
305.431	90.5
305.661	84.5
305.891	94.5
306.121	75.5
306.352	98.5
306.582	96.5
306.812	85.5
307.042	74.5
307.272	88.5
307.502	70.5
307.731	91.5
307.961	93.5
308.191	94.5
308.421	117.5
308.651	78.5
308.881	102.5
309.111	101.5
309.341	111.5
309.571	125.5
309.8	90.5
310.03	82.5
310.26	89.5
310.49	81.5
310.72	79.5
310.949	78.5
311.179	60.5
311.409	78.5
311.639	83.5
311.868	83.5
312.098	95.5
312.328	76.5
312.557	89.5
312.787	83.5
313.017	82.5
313.246	91.5
313.476	84.5
313.706	71.5
313.935	91.5
314.165	84.5
314.394	76.5
314.624	74.5
314.853	86.5
315.083	63.5
315.312	76.5
315.542	94.5
315.771	82.5
316.001	81.5
316.23	89.5
316.46	80.5
316.689	80.5
316.919	90.5
317.148	99.5
317.377	106.5
317.607	103.5
317.836	91.5
318.065	93.5
318.295	81.5
318.524	94.5
318.753	83.5
318.983	83.5
319.212	75.5
319.441	90.5
319.67	78.5
319.9	72.5
320.129	73.5
320.358	87.5
320.587	90.5
320.816	72.5
321.046	89.5
321.275	87.5
321.504	87.5
321.733	86.5
321.962	89.5
322.191	90.5
322.42	105.5
322.649	84.5
322.878	94.5
323.108	84.5
323.337	88.5
323.566	73.5
323.795	74.5
324.024	73.5
324.253	84.5
324.482	95.5
324.71	94.5
324.939	94.5
325.168	92.5
325.397	86.5
325.626	85.5
325.855	105.5
326.084	83.5
326.313	105.5
326.542	91.5
326.77	72.5
326.999	95.5
327.228	90.5
327.457	102.5
327.686	93.5
327.914	75.5
328.143	81.5
328.372	74.5
328.6	78.5
328.829	75.5
329.058	79.5
329.287	83.5
329.515	66.5
329.744	75.5
329.972	75.5
330.201	89.5
330.43	91.5
330.658	88.5
330.887	77.5
331.115	88.5
331.344	89.5
331.572	87.5
331.801	90.5
332.03	73.5
332.258	88.5
332.486	89.5
332.715	74.5
332.943	94.5
333.172	83.5
333.4	71.5
333.629	90.5
333.857	74.5
334.085	77.5
334.314	90.5
334.542	81.5
334.771	74.5
334.999	79.5
335.227	76.5
335.455	92.5
335.684	80.5
335.912	87.5
336.14	81.5
336.369	87.5
336.597	75.5
336.825	86.5
337.053	70.5
337.281	97.5
337.51	80.5
337.738	68.5
337.966	79.5
338.194	69.5
338.422	87.5
338.65	92.5
338.878	76.5
339.106	83.5
339.334	77.5
339.562	82.5
339.79	77.5
340.018	76.5
340.246	69.5
340.474	72.5
340.702	85.5
340.93	74.5
341.158	83.5
341.386	83.5
341.614	91.5
341.842	94.5
342.07	75.5
342.298	92.5
342.526	79.5
342.754	96.5
342.981	81.5
343.209	87.5
343.437	106.5
343.665	99.5
343.893	82.5
344.12	87.5
344.348	81.5
344.576	69.5
344.804	84.5
345.031	85.5
345.259	76.5
345.487	66.5
345.714	68.5
345.942	89.5
346.17	76.5
346.397	82.5
346.625	74.5
346.853	86.5
347.08	81.5
347.308	86.5
347.535	74.5
347.763	81.5
347.99	81.5
348.218	78.5
348.445	82.5
348.673	87.5
348.9	79.5
349.128	78.5
349.355	85.5
349.583	78.5
349.81	79.5
350.037	69.5
350.265	70.5
350.492	80.5
350.72	75.5
350.947	99.5
351.174	94.5
351.402	86.5
351.629	78.5
351.856	96.5
352.083	80.5
352.311	83.5
352.538	88.5
352.765	89.5
352.992	97.5
353.22	81.5
353.447	92.5
353.674	91.5
353.901	89.5
354.128	86.5
354.355	71.5
354.583	83.5
354.81	76.5
355.037	87.5
355.264	93.5
355.491	89.5
355.718	74.5
355.945	95.5
356.172	77.5
356.399	81.5
356.626	95.5
356.853	118.5
357.08	154.5
357.307	180.5
357.534	160.5
357.761	89.5
357.988	103.5
358.215	84.5
358.441	81.5
358.668	83.5
358.895	82.5
359.122	74.5
359.349	87.5
359.576	79.5
359.802	89.5
360.029	89.5
360.256	80.5
360.483	83.5
360.709	73.5
360.936	82.5
361.163	89.5
361.39	81.5
361.616	70.5
361.843	77.5
362.07	73.5
362.296	73.5
362.523	76.5
362.749	76.5
362.976	92.5
363.203	104.5
363.429	109.5
363.656	166.5
363.882	236.5
364.109	257.5
364.335	138.5
364.562	88.5
364.788	89.5
365.015	80.5
365.241	88.5
365.468	89.5
365.694	85.5
365.92	95.5
366.147	72.5
366.373	94.5
366.599	94.5
366.826	88.5
367.052	109.5
367.278	123.5
367.505	105.5
367.731	121.5
367.957	149.5
368.184	255.5
368.41	351.5
368.636	253.5
368.862	129.5
369.089	99.5
369.315	75.5
369.541	85.5
369.767	88.5
369.993	91.5
370.219	85.5
370.445	79.5
370.672	84.5
370.898	80.5
371.124	77.5
371.35	84.5
371.576	89.5
371.802	70.5
372.028	83.5
372.254	93.5
372.48	85.5
372.706	83.5
372.932	81.5
373.158	76.5
373.384	90.5
373.61	117.5
373.835	151.5
374.061	161.5
374.287	126.5
374.513	89.5
374.739	77.5
374.965	83.5
375.191	96.5
375.416	94.5
375.642	81.5
375.868	81.5
376.094	78.5
376.319	82.5
376.545	89.5
376.771	87.5
376.997	96.5
377.222	72.5
377.448	82.5
377.674	91.5
377.899	92.5
378.125	84.5
378.35	85.5
378.576	104.5
378.802	79.5
379.027	80.5
379.253	81.5
379.478	88.5
379.704	73.5
379.929	94.5
380.155	91.5
380.38	83.5
380.606	76.5
380.831	92.5
381.057	84.5
381.282	63.5
381.507	96.5
381.733	95.5
381.958	84.5
382.184	78.5
382.409	84.5
382.634	94.5
382.86	82.5
383.085	79.5
383.31	85.5
383.535	103.5
383.761	75.5
383.986	77.5
384.211	101.5
384.436	90.5
384.662	74.5
384.887	72.5
385.112	71.5
385.337	83.5
385.562	83.5
385.787	96.5
386.013	80.5
386.238	95.5
386.463	83.5
386.688	105.5
386.913	81.5
387.138	78.5
387.363	69.5
387.588	85.5
387.813	96.5
388.038	88.5
388.263	89.5
388.488	69.5
388.713	97.5
388.938	70.5
389.163	94.5
389.387	74.5
389.612	85.5
389.837	80.5
390.062	78.5
390.287	93.5
390.512	90.5
390.736	63.5
390.961	85.5
391.186	78.5
391.411	90.5
391.636	77.5
391.86	78.5
392.085	73.5
392.31	84.5
392.534	93.5
392.759	83.5
392.984	95.5
393.208	96.5
393.433	113.5
393.658	95.5
393.882	85.5
394.107	122.5
394.331	191.5
394.556	180.5
394.78	122.5
395.005	95.5
395.229	82.5
395.454	87.5
395.678	98.5
395.903	139.5
396.127	215.5
396.352	211.5
396.576	121.5
396.801	105.5
397.025	94.5
397.249	87.5
397.474	90.5
397.698	76.5
397.922	82.5
398.147	74.5
398.371	89.5
398.595	81.5
398.82	88.5
399.044	63.5
399.268	79.5
399.492	85.5
399.717	95.5
399.941	82.5
400.165	99.5
400.389	90.5
400.613	85.5
400.837	84.5
401.062	80.5
401.286	76.5
401.51	80.5
401.734	96.5
401.958	106.5
402.182	112.5
402.406	82.5
402.63	79.5
402.854	84.5
403.078	87.5
403.302	81.5
403.526	97.5
403.75	84.5
403.974	89.5
404.198	110.5
404.422	137.5
404.645	127.5
404.869	125.5
405.093	115.5
405.317	137.5
405.541	287.5
405.765	503.5
405.988	551.5
406.212	262.5
406.436	145.5
406.66	92.5
406.883	87.5
407.107	92.5
407.331	90.5
407.555	85.5
407.778	81.5
408.002	82.5
408.226	75.5
408.449	79.5
408.673	86.5
408.896	81.5
409.12	82.5
409.344	71.5
409.567	75.5
409.791	80.5
410.014	78.5
410.238	78.5
410.461	90.5
410.685	69.5
410.908	69.5
411.132	79.5
411.355	79.5
411.578	93.5
411.802	88.5
412.025	67.5
412.249	79.5
412.472	71.5
412.695	71.5
412.919	80.5
413.142	73.5
413.365	75.5
413.589	66.5
413.812	63.5
414.035	75.5
414.258	84.5
414.482	81.5
414.705	73.5
414.928	78.5
415.151	74.5
415.374	89.5
415.597	81.5
415.821	79.5
416.044	79.5
416.267	85.5
416.49	80.5
416.713	82.5
416.936	88.5
417.159	85.5
417.382	70.5
417.605	80.5
417.828	87.5
418.051	86.5
418.274	79.5
418.497	88.5
418.72	74.5
418.943	94.5
419.166	89.5
419.389	80.5
419.611	87.5
419.834	76.5
420.057	87.5
420.28	94.5
420.503	86.5
420.726	94.5
420.948	85.5
421.171	74.5
421.394	88.5
421.617	79.5
421.839	63.5
422.062	86.5
422.285	71.5
422.507	101.5
422.73	123.5
422.953	109.5
423.175	81.5
423.398	76.5
423.621	82.5
423.843	81.5
424.066	79.5
424.288	80.5
424.511	98.5
424.733	89.5
424.956	89.5
425.178	88.5
425.401	81.5
425.623	76.5
425.846	70.5
426.068	79.5
426.291	81.5
426.513	82.5
426.735	76.5
426.958	82.5
427.18	74.5
427.402	73.5
427.625	84.5
427.847	91.5
428.069	85.5
428.292	73.5
428.514	100.5
428.736	66.5
428.958	79.5
429.181	93.5
429.403	82.5
429.625	67.5
429.847	76.5
430.069	92.5
430.292	81.5
430.514	83.5
430.736	72.5
430.958	85.5
431.18	83.5
431.402	91.5
431.624	85.5
431.846	81.5
432.068	68.5
432.29	63.5
432.512	83.5
432.734	87.5
432.956	85.5
433.178	80.5
433.4	67.5
433.622	93.5
433.844	87.5
434.066	79.5
434.287	78.5
434.509	88.5
434.731	87.5
434.953	85.5
435.175	75.5
435.397	90.5
435.618	73.5
435.84	87.5
436.062	72.5
436.284	75.5
436.505	85.5
436.727	90.5
436.949	97.5
437.17	81.5
437.392	86.5
437.614	81.5
437.835	77.5
438.057	87.5
438.278	71.5
438.5	80.5
438.721	104.5
438.943	76.5
439.165	80.5
439.386	82.5
439.608	84.5
439.829	82.5
440.05	68.5
440.272	63.5
440.493	76.5
440.715	78.5
440.936	97.5
441.158	85.5
441.379	102.5
441.6	85.5
441.822	69.5
442.043	64.5
442.264	78.5
442.486	84.5
442.707	76.5
442.928	79.5
443.149	77.5
443.371	69.5
443.592	71.5
443.813	81.5
444.034	89.5
444.255	84.5
444.476	86.5
444.698	75.5
444.919	81.5
445.14	146.5
445.361	127.5
445.582	77.5
445.803	87.5
446.024	78.5
446.245	96.5
446.466	79.5
446.687	81.5
446.908	93.5
447.129	88.5
447.35	74.5
447.571	87.5
447.792	76.5
448.013	69.5
448.234	95.5
448.455	88.5
448.675	77.5
448.896	82.5
449.117	89.5
449.338	85.5
449.559	93.5
449.779	91.5
450	88.5
450.221	76.5
450.442	81.5
450.662	69.5
450.883	93.5
451.104	92.5
451.324	95.5
451.545	78.5
451.766	70.5
451.986	82.5
452.207	86.5
452.428	82.5
452.648	79.5
452.869	80.5
453.089	72.5
453.31	86.5
453.53	89.5
453.751	74.5
453.971	82.5
454.192	83.5
454.412	63.5
454.633	87.5
454.853	78.5
455.073	94.5
455.294	81.5
455.514	73.5
455.734	69.5
455.955	69.5
456.175	81.5
456.395	88.5
456.616	84.5
456.836	77.5
457.056	75.5
457.276	78.5
457.497	81.5
457.717	88.5
457.937	90.5
458.157	81.5
458.377	72.5
458.598	74.5
458.818	87.5
459.038	82.5
459.258	81.5
459.478	85.5
459.698	79.5
459.918	75.5
460.138	80.5
460.358	79.5
460.578	89.5
460.798	96.5
461.018	74.5
461.238	82.5
461.458	75.5
461.678	69.5
461.898	81.5
462.118	76.5
462.338	79.5
462.558	83.5
462.777	75.5
462.997	77.5
463.217	81.5
463.437	81.5
463.657	74.5
463.876	77.5
464.096	86.5
464.316	90.5
464.536	78.5
464.755	81.5
464.975	89.5
465.195	86.5
465.414	79.5
465.634	73.5
465.854	68.5
466.073	79.5
466.293	83.5
466.512	77.5
466.732	99.5
466.951	80.5
467.171	74.5
467.391	64.5
467.61	71.5
467.829	69.5
468.049	82.5
468.268	81.5
468.488	87.5
468.707	89.5
468.927	69.5
469.146	66.5
469.365	85.5
469.585	91.5
469.804	83.5
470.023	74.5
470.243	70.5
470.462	86.5
470.681	92.5
470.901	91.5
471.12	84.5
471.339	81.5
471.558	81.5
471.777	81.5
471.997	82.5
472.216	94.5
472.435	97.5
472.654	87.5
472.873	83.5
473.092	95.5
473.311	91.5
473.53	77.5
473.749	84.5
473.968	76.5
474.187	89.5
474.406	85.5
474.625	95.5
474.844	79.5
475.063	99.5
475.282	80.5
475.501	69.5
475.72	90.5
475.939	85.5
476.158	90.5
476.377	79.5
476.596	79.5
476.814	75.5
477.033	86.5
477.252	83.5
477.471	78.5
477.69	95.5
477.908	84.5
478.127	86.5
478.346	85.5
478.564	82.5
478.783	95.5
479.002	89.5
479.22	81.5
479.439	83.5
479.658	85.5
479.876	87.5
480.095	92.5
480.313	85.5
480.532	83.5
480.751	83.5
480.969	100.5
481.188	91.5
481.406	86.5
481.624	78.5
481.843	92.5
482.061	86.5
482.28	90.5
482.498	79.5
482.717	96.5
482.935	99.5
483.153	82.5
483.372	95.5
483.59	100.5
483.808	90.5
484.027	74.5
484.245	92.5
484.463	88.5
484.681	96.5
484.9	80.5
485.118	76.5
485.336	66.5
485.554	85.5
485.772	81.5
485.99	71.5
486.209	85.5
486.427	81.5
486.645	75.5
486.863	84.5
487.081	85.5
487.299	84.5
487.517	97.5
487.735	91.5
487.953	90.5
488.171	85.5
488.389	92.5
488.607	77.5
488.825	89.5
489.043	84.5
489.261	91.5
489.479	69.5
489.696	84.5
489.914	83.5
490.132	95.5
490.35	88.5
490.568	95.5
490.786	73.5
491.003	81.5
491.221	79.5
491.439	80.5
491.657	73.5
491.874	87.5
492.092	84.5
492.31	86.5
492.527	84.5
492.745	78.5
492.963	93.5
493.18	78.5
493.398	75.5
493.615	81.5
493.833	83.5
494.05	93.5
494.268	83.5
494.485	89.5
494.703	87.5
494.92	93.5
495.138	81.5
495.355	93.5
495.573	91.5
495.79	79.5
496.008	93.5
496.225	88.5
496.442	75.5
496.66	95.5
496.877	81.5
497.094	85.5
497.312	94.5
497.529	80.5
497.746	97.5
497.963	71.5
498.181	95.5
498.398	90.5
498.615	86.5
498.832	83.5
499.049	87.5
499.267	86.5
499.484	87.5
499.701	96.5
499.918	82.5
500.135	65.5
500.352	101.5
500.569	118.5
500.786	148.5
501.003	103.5
501.22	100.5
501.437	80.5
501.654	79.5
501.871	89.5
502.088	83.5
502.305	83.5
502.522	78.5
502.739	77.5
502.956	101.5
503.172	88.5
503.389	82.5
503.606	84.5
503.823	80.5
504.04	89.5
504.256	74.5
504.473	85.5
504.69	83.5
504.907	102.5
505.123	73.5
505.34	79.5
505.557	82.5
505.773	91.5
505.99	90.5
506.207	79.5
506.423	84.5
506.64	90.5
506.856	84.5
507.073	78.5
507.289	79.5
507.506	91.5
507.722	83.5
507.939	89.5
508.155	87.5
508.372	86.5
508.588	74.5
508.805	96.5
509.021	80.5
509.238	94.5
509.454	87.5
509.67	85.5
509.887	85.5
510.103	94.5
510.319	93.5
510.536	85.5
510.752	86.5
510.968	93.5
511.184	96.5
511.401	93.5
511.617	74.5
511.833	81.5
512.049	98.5
512.265	98.5
512.481	82.5
512.698	100.5
512.914	97.5
513.13	92.5
513.346	79.5
513.562	93.5
513.778	88.5
513.994	81.5
514.21	90.5
514.426	91.5
514.642	75.5
514.858	71.5
515.074	75.5
515.29	89.5
515.506	87.5
515.721	71.5
515.937	87.5
516.153	93.5
516.369	84.5
516.585	81.5
516.801	75.5
517.016	68.5
517.232	79.5
517.448	80.5
517.664	91.5
517.879	107.5
518.095	79.5
518.311	73.5
518.527	82.5
518.742	79.5
518.958	94.5
519.173	86.5
519.389	87.5
519.605	77.5
519.82	96.5
520.036	83.5
520.251	89.5
520.467	83.5
520.682	83.5
520.898	86.5
521.113	113.5
521.329	81.5
521.544	88.5
521.76	88.5
521.975	82.5
522.19	86.5
522.406	75.5
522.621	96.5
522.836	99.5
523.052	104.5
523.267	95.5
523.482	76.5
523.698	69.5
523.913	95.5
524.128	85.5
524.343	80.5
524.559	84.5
524.774	74.5
524.989	99.5
525.204	81.5
525.419	78.5
525.634	85.5
525.849	90.5
526.064	95.5
526.28	83.5
526.495	77.5
526.71	89.5
526.925	88.5
527.14	72.5
527.355	86.5
527.57	82.5
527.785	80.5
527.999	89.5
528.214	81.5
528.429	81.5
528.644	86.5
528.859	75.5
529.074	76.5
529.289	73.5
529.503	89.5
529.718	71.5
529.933	77.5
530.148	79.5
530.363	72.5
530.577	74.5
530.792	76.5
531.007	81.5
531.221	89.5
531.436	67.5
531.651	78.5
531.865	96.5
532.08	85.5
532.295	89.5
532.509	78.5
532.724	98.5
532.938	77.5
533.153	87.5
533.367	87.5
533.582	95.5
533.796	93.5
534.011	84.5
534.225	83.5
534.44	91.5
534.654	99.5
534.868	96.5
535.083	90.5
535.297	73.5
535.511	90.5
535.726	83.5
535.94	104.5
536.154	95.5
536.369	78.5
536.583	89.5
536.797	74.5
537.011	95.5
537.225	72.5
537.44	79.5
537.654	71.5
537.868	81.5
538.082	88.5
538.296	73.5
538.51	109.5
538.724	87.5
538.938	87.5
539.153	92.5
539.367	83.5
539.581	78.5
539.795	80.5
540.009	80.5
540.222	87.5
540.436	100.5
540.65	93.5
540.864	76.5
541.078	93.5
541.292	90.5
541.506	85.5
541.72	64.5
541.934	91.5
542.147	92.5
542.361	81.5
542.575	85.5
542.789	83.5
543.002	86.5
543.216	71.5
543.43	94.5
543.644	91.5
543.857	82.5
544.071	87.5
544.285	82.5
544.498	85.5
544.712	90.5
544.925	96.5
545.139	69.5
545.352	93.5
545.566	71.5
545.779	86.5
545.993	75.5
546.206	98.5
546.42	82.5
546.633	84.5
546.847	84.5
547.06	85.5
547.274	104.5
547.487	75.5
547.7	78.5
547.914	85.5
548.127	73.5
548.34	85.5
548.554	79.5
548.767	85.5
548.98	86.5
549.193	88.5
549.407	100.5
549.62	99.5
549.833	103.5
550.046	89.5
550.259	82.5
550.473	86.5
550.686	80.5
550.899	79.5
551.112	93.5
551.325	67.5
551.538	74.5
551.751	78.5
551.964	78.5
552.177	86.5
552.39	84.5
552.603	74.5
552.816	98.5
553.029	87.5
553.242	81.5
553.455	88.5
553.667	82.5
553.88	98.5
554.093	85.5
554.306	81.5
554.519	73.5
554.732	82.5
554.944	76.5
555.157	101.5
555.37	95.5
555.583	69.5
555.795	99.5
556.008	89.5
556.221	91.5
556.433	85.5
556.646	91.5
556.859	82.5
557.071	68.5
557.284	85.5
557.496	70.5
557.709	81.5
557.921	87.5
558.134	92.5
558.346	83.5
558.559	76.5
558.771	87.5
558.984	89.5
559.196	77.5
559.409	71.5
559.621	105.5
559.833	71.5
560.046	109.5
560.258	87.5
560.47	102.5
560.683	109.5
560.895	114.5
561.107	89.5
561.32	76.5
561.532	83.5
561.744	87.5
561.956	81.5
562.168	98.5
562.381	75.5
562.593	95.5
562.805	90.5
563.017	76.5
563.229	65.5
563.441	102.5
563.653	87.5
563.865	78.5
564.077	81.5
564.289	87.5
564.501	85.5
564.713	87.5
564.925	80.5
565.137	85.5
565.349	88.5
565.561	73.5
565.773	74.5
565.985	95.5
566.197	90.5
566.408	80.5
566.62	100.5
566.832	73.5
567.044	94.5
567.255	111.5
567.467	89.5
567.679	89.5
567.891	94.5
568.102	98.5
568.314	85.5
568.526	103.5
568.737	93.5
568.949	96.5
569.161	84.5
569.372	85.5
569.584	72.5
569.795	87.5
570.007	89.5
570.218	93.5
570.43	85.5
570.641	85.5
570.853	70.5
571.064	85.5
571.276	87.5
571.487	92.5
571.698	85.5
571.91	83.5
572.121	71.5
572.333	87.5
572.544	90.5
572.755	87.5
572.966	96.5
573.178	81.5
573.389	82.5
573.6	61.5
573.811	89.5
574.023	98.5
574.234	76.5
574.445	90.5
574.656	74.5
574.867	84.5
575.078	70.5
575.289	79.5
575.501	85.5
575.712	82.5
575.923	73.5
576.134	85.5
576.345	90.5
576.556	89.5
576.767	98.5
576.978	75.5
577.188	81.5
577.399	81.5
577.61	89.5
577.821	95.5
578.032	88.5
578.243	84.5
578.454	97.5
578.665	93.5
578.875	94.5
579.086	90.5
579.297	84.5
579.508	95.5
579.718	81.5
579.929	91.5
580.14	92.5
580.35	83.5
580.561	87.5
580.772	90.5
580.982	75.5
581.193	96.5
581.403	85.5
581.614	86.5
581.825	84.5
582.035	80.5
582.246	102.5
582.456	80.5
582.667	83.5
582.877	74.5
583.087	78.5
583.298	90.5
583.508	90.5
583.719	91.5
583.929	87.5
584.139	68.5
584.35	76.5
584.56	91.5
584.77	74.5
584.981	87.5
585.191	71.5
585.401	74.5
585.611	86.5
585.821	68.5
586.032	78.5
586.242	65.5
586.452	87.5
586.662	81.5
586.872	67.5
587.082	90.5
587.292	87.5
587.502	84.5
587.713	87.5
587.923	96.5
588.133	89.5
588.343	84.5
588.553	109.5
588.762	107.5
588.972	237.5
589.182	627.5
589.392	349.5
589.602	251.5
589.812	505.5
590.022	226.5
590.232	101.5
590.441	99.5
590.651	89.5
590.861	92.5
591.071	87.5
591.281	69.5
591.49	89.5
591.7	85.5
591.91	81.5
592.119	87.5
592.329	93.5
592.539	81.5
592.748	88.5
592.958	87.5
593.167	70.5
593.377	67.5
593.587	111.5
593.796	65.5
594.006	89.5
594.215	93.5
594.424	84.5
594.634	74.5
594.843	83.5
595.053	75.5
595.262	91.5
595.472	90.5
595.681	101.5
595.89	84.5
596.1	79.5
596.309	77.5
596.518	99.5
596.727	89.5
596.937	88.5
597.146	85.5
597.355	89.5
597.564	75.5
597.774	85.5
597.983	78.5
598.192	75.5
598.401	73.5
598.61	88.5
598.819	79.5
599.028	85.5
599.237	81.5
599.446	85.5
599.655	78.5
599.864	71.5
600.073	88.5
600.282	98.5
600.491	94.5
600.7	84.5
600.909	71.5
601.118	88.5
601.327	83.5
601.536	81.5
601.745	74.5
601.953	80.5
602.162	93.5
602.371	95.5
602.58	84.5
602.789	88.5
602.997	86.5
603.206	86.5
603.415	96.5
603.623	85.5
603.832	89.5
604.041	83.5
604.249	86.5
604.458	80.5
604.666	71.5
604.875	89.5
605.084	81.5
605.292	83.5
605.501	89.5
605.709	109.5
605.918	73.5
606.126	89.5
606.334	72.5
606.543	79.5
606.751	82.5
606.96	96.5
607.168	62.5
607.376	85.5
607.585	82.5
607.793	75.5
608.001	85.5
608.21	81.5
608.418	90.5
608.626	97.5
608.834	85.5
609.043	91.5
609.251	90.5
609.459	71.5
609.667	85.5
609.875	89.5
610.083	77.5
610.291	73.5
610.499	93.5
610.707	83.5
610.916	77.5
611.124	85.5
611.332	85.5
611.54	94.5
611.748	83.5
611.955	80.5
612.163	85.5
612.371	81.5
612.579	82.5
612.787	88.5
612.995	80.5
613.203	78.5
613.411	82.5
613.618	77.5
613.826	77.5
614.034	81.5
614.242	86.5
614.449	70.5
614.657	75.5
614.865	78.5
615.072	78.5
615.28	84.5
615.488	84.5
615.695	70.5
615.903	88.5
616.111	75.5
616.318	82.5
616.526	95.5
616.733	80.5
616.941	85.5
617.148	89.5
617.356	84.5
617.563	87.5
617.771	83.5
617.978	88.5
618.185	87.5
618.393	97.5
618.6	83.5
618.807	67.5
619.015	80.5
619.222	85.5
619.429	71.5
619.637	81.5
619.844	86.5
620.051	85.5
620.258	73.5
620.466	77.5
620.673	81.5
620.88	84.5
621.087	79.5
621.294	80.5
621.501	81.5
621.708	89.5
621.915	83.5
622.122	92.5
622.329	82.5
622.536	83.5
622.743	87.5
622.95	84.5
623.157	94.5
623.364	69.5
623.571	75.5
623.778	72.5
623.985	93.5
624.192	80.5
624.399	80.5
624.606	91.5
624.812	83.5
625.019	89.5
625.226	77.5
625.433	93.5
625.639	69.5
625.846	84.5
626.053	74.5
626.259	75.5
626.466	81.5
626.673	72.5
626.879	81.5
627.086	88.5
627.293	102.5
627.499	87.5
627.706	82.5
627.912	75.5
628.119	77.5
628.325	78.5
628.532	67.5
628.738	84.5
628.945	81.5
629.151	85.5
629.357	82.5
629.564	83.5
629.77	95.5
629.976	86.5
630.183	69.5
630.389	91.5
630.595	90.5
630.802	85.5
631.008	78.5
631.214	79.5
631.42	82.5
631.627	90.5
631.833	80.5
632.039	79.5
632.245	83.5
632.451	84.5
632.657	79.5
632.863	83.5
633.069	70.5
633.275	92.5
633.481	91.5
633.688	75.5
633.893	91.5
634.099	92.5
634.305	71.5
634.511	80.5
634.717	83.5
634.923	89.5
635.129	73.5
635.335	69.5
635.541	76.5
635.747	88.5
635.952	80.5
636.158	75.5
636.364	71.5
636.57	81.5
636.775	74.5
636.981	85.5
637.187	90.5
637.392	97.5
637.598	85.5
637.804	77.5
638.009	79.5
638.215	78.5
638.421	81.5
638.626	85.5
638.832	98.5
639.037	95.5
639.243	82.5
639.448	90.5
639.654	90.5
639.859	84.5
640.065	90.5
640.27	94.5
640.475	87.5
640.681	73.5
640.886	90.5
641.091	71.5
641.297	71.5
641.502	78.5
641.707	69.5
641.913	97.5
642.118	81.5
642.323	80.5
642.528	83.5
642.733	82.5
642.939	79.5
643.144	80.5
643.349	90.5
643.554	69.5
643.759	87.5
643.964	78.5
644.169	76.5
644.374	84.5
644.579	74.5
644.784	68.5
644.989	81.5
645.194	81.5
645.399	74.5
645.604	75.5
645.809	91.5
646.014	84.5
646.219	91.5
646.423	78.5
646.628	76.5
646.833	80.5
647.038	78.5
647.243	88.5
647.447	76.5
647.652	72.5
647.857	83.5
648.062	81.5
648.266	95.5
648.471	84.5
648.676	83.5
648.88	83.5
649.085	63.5
649.289	87.5
649.494	75.5
649.698	76.5
649.903	79.5
650.107	74.5
650.312	80.5
650.516	90.5
650.721	90.5
650.925	66.5
651.13	81.5
651.334	75.5
651.539	92.5
651.743	87.5
651.947	69.5
652.152	81.5
652.356	82.5
652.56	68.5
652.764	69.5
652.969	88.5
653.173	89.5
653.377	81.5
653.581	90.5
653.785	74.5
653.99	78.5
654.194	69.5
654.398	79.5
654.602	68.5
654.806	83.5
655.01	81.5
655.214	81.5
655.418	93.5
655.622	71.5
655.826	82.5
656.03	76.5
656.234	78.5
656.438	67.5
656.642	83.5
656.846	69.5
657.049	73.5
657.253	73.5
657.457	86.5
657.661	86.5
657.865	67.5
658.068	77.5
658.272	67.5
658.476	86.5
658.68	84.5
658.883	66.5
659.087	81.5
659.291	83.5
659.494	79.5
659.698	62.5
659.901	68.5
660.105	81.5
660.309	75.5
660.512	72.5
660.716	74.5
660.919	74.5
661.123	82.5
661.326	80.5
661.53	67.5
661.733	76.5
661.936	82.5
662.14	83.5
662.343	85.5
662.546	74.5
662.75	75.5
662.953	81.5
663.156	88.5
663.36	74.5
663.563	71.5
663.766	85.5
663.969	81.5
664.173	68.5
664.376	81.5
664.579	76.5
664.782	83.5
664.985	88.5
665.188	71.5
665.391	89.5
665.594	93.5
665.797	72.5
666	84.5
666.203	71.5
666.406	63.5
666.609	83.5
666.812	79.5
667.015	76.5
667.218	74.5
667.421	68.5
667.624	70.5
667.827	78.5
668.03	70.5
668.232	81.5
668.435	82.5
668.638	81.5
668.841	78.5
669.043	74.5
669.246	77.5
669.449	71.5
669.651	74.5
669.854	70.5
670.057	84.5
670.259	82.5
670.462	62.5
670.665	74.5
670.867	88.5
671.07	72.5
671.272	70.5
671.475	82.5
671.677	85.5
671.88	79.5
672.082	63.5
672.284	75.5
672.487	71.5
672.689	82.5
672.892	83.5
