Data from Lead_HRD10591_00087.txt Node
Date: Tue Feb 17 14:10:55 EST 2026
User: Yrep
Spectrometer: HR+D1059
Trigger mode: 1
Integration Time (sec): 1.000000E-1
Scans to average: 1
Electric dark correction enabled: true
Nonlinearity correction enabled: false
Boxcar width: 0
XAxis mode: Wavelengths
Number of Pixels in Spectrum: 2048
>>>>>Begin Spectral Data<<<<<
223.165	-9.94
223.4	-9.94
223.635	-9.94
223.869	-27.94
224.104	-13.94
224.338	-24.94
224.573	-16.94
224.808	-16.94
225.042	-2.94
225.277	-8.94
225.511	-1.94
225.746	2.06
225.98	10.06
226.215	7.06
226.449	24.06
226.683	22.06
226.918	28.06
227.152	31.06
227.387	40.06
227.621	32.06
227.856	41.06
228.09	47.06
228.324	50.06
228.559	48.06
228.793	56.06
229.027	61.06
229.262	71.06
229.496	78.06
229.73	77.06
229.964	83.06
230.199	74.06
230.433	70.06
230.667	91.06
230.901	75.06
231.136	93.06
231.37	85.06
231.604	87.06
231.838	79.06
232.072	90.06
232.306	75.06
232.541	80.06
232.775	79.06
233.009	69.06
233.243	79.06
233.477	85.06
233.711	81.06
233.945	90.06
234.179	84.06
234.413	78.06
234.647	75.06
234.881	92.06
235.115	86.06
235.349	90.06
235.583	90.06
235.817	81.06
236.051	76.06
236.285	74.06
236.519	62.06
236.753	80.06
236.987	81.06
237.221	64.06
237.455	91.06
237.689	81.06
237.922	87.06
238.156	80.06
238.39	89.06
238.624	80.06
238.858	84.06
239.091	89.06
239.325	86.06
239.559	84.06
239.793	74.06
240.027	76.06
240.26	93.06
240.494	75.06
240.728	68.06
240.961	79.06
241.195	78.06
241.429	89.06
241.662	80.06
241.896	76.06
242.13	81.06
242.363	94.06
242.597	75.06
242.83	71.06
243.064	89.06
243.298	80.06
243.531	89.06
243.765	93.06
243.998	77.06
244.232	77.06
244.465	79.06
244.699	75.06
244.932	71.06
245.166	81.06
245.399	80.06
245.633	93.06
245.866	71.06
246.099	76.06
246.333	70.06
246.566	89.06
246.8	86.06
247.033	80.06
247.266	79.06
247.5	70.06
247.733	67.06
247.966	88.06
248.2	81.06
248.433	90.06
248.666	81.06
248.899	80.06
249.133	82.06
249.366	96.06
249.599	88.06
249.832	96.06
250.066	92.06
250.299	78.06
250.532	77.06
250.765	83.06
250.998	91.06
251.231	76.06
251.465	72.06
251.698	78.06
251.931	74.06
252.164	89.06
252.397	89.06
252.63	79.06
252.863	79.06
253.096	79.06
253.329	85.06
253.562	86.06
253.795	76.06
254.028	79.06
254.261	75.06
254.494	83.06
254.727	90.06
254.96	72.06
255.193	100.06
255.426	93.06
255.659	93.06
255.892	80.06
256.124	69.06
256.357	70.06
256.59	86.06
256.823	90.06
257.056	88.06
257.289	90.06
257.521	79.06
257.754	88.06
257.987	86.06
258.22	86.06
258.452	84.06
258.685	80.06
258.918	79.06
259.151	77.06
259.383	82.06
259.616	94.06
259.849	85.06
260.081	93.06
260.314	77.06
260.547	87.06
260.779	99.06
261.012	89.06
261.244	85.06
261.477	79.06
261.71	84.06
261.942	84.06
262.175	83.06
262.407	73.06
262.64	88.06
262.872	98.06
263.105	90.06
263.337	90.06
263.57	87.06
263.802	86.06
264.035	90.06
264.267	87.06
264.499	86.06
264.732	90.06
264.964	93.06
265.197	80.06
265.429	87.06
265.661	86.06
265.894	92.06
266.126	92.06
266.358	96.06
266.591	79.06
266.823	88.06
267.055	89.06
267.287	79.06
267.52	98.06
267.752	98.06
267.984	85.06
268.216	75.06
268.448	88.06
268.681	100.06
268.913	82.06
269.145	89.06
269.377	100.06
269.609	104.06
269.841	85.06
270.073	83.06
270.306	86.06
270.538	71.06
270.77	82.06
271.002	85.06
271.234	92.06
271.466	92.06
271.698	87.06
271.93	80.06
272.162	91.06
272.394	86.06
272.626	84.06
272.858	98.06
273.09	76.06
273.322	86.06
273.553	85.06
273.785	91.06
274.017	97.06
274.249	72.06
274.481	76.06
274.713	79.06
274.945	88.06
275.176	94.06
275.408	89.06
275.64	92.06
275.872	91.06
276.104	92.06
276.335	90.06
276.567	88.06
276.799	73.06
277.031	80.06
277.262	94.06
277.494	84.06
277.726	95.06
277.957	80.06
278.189	93.06
278.421	84.06
278.652	91.06
278.884	97.06
279.115	69.06
279.347	80.06
279.579	79.06
279.81	76.06
280.042	84.06
280.273	86.06
280.505	70.06
280.736	66.06
280.968	89.06
281.199	78.06
281.431	80.06
281.662	89.06
281.894	84.06
282.125	95.06
282.356	78.06
282.588	84.06
282.819	95.06
283.051	90.06
283.282	86.06
283.513	101.06
283.745	100.06
283.976	91.06
284.207	83.06
284.439	88.06
284.67	86.06
284.901	81.06
285.132	77.06
285.364	83.06
285.595	92.06
285.826	95.06
286.057	87.06
286.288	93.06
286.52	84.06
286.751	90.06
286.982	92.06
287.213	87.06
287.444	90.06
287.675	78.06
287.906	86.06
288.138	79.06
288.369	82.06
288.6	80.06
288.831	87.06
289.062	90.06
289.293	57.06
289.524	92.06
289.755	75.06
289.986	91.06
290.217	87.06
290.448	84.06
290.679	78.06
290.91	81.06
291.141	76.06
291.371	74.06
291.602	93.06
291.833	84.06
292.064	92.06
292.295	79.06
292.526	78.06
292.757	92.06
292.987	86.06
293.218	80.06
293.449	75.06
293.68	94.06
293.91	90.06
294.141	79.06
294.372	90.06
294.603	95.06
294.833	72.06
295.064	80.06
295.295	97.06
295.525	79.06
295.756	98.06
295.987	90.06
296.217	78.06
296.448	99.06
296.679	95.06
296.909	80.06
297.14	89.06
297.37	83.06
297.601	88.06
297.831	77.06
298.062	87.06
298.292	86.06
298.523	101.06
298.753	87.06
298.984	83.06
299.214	79.06
299.445	83.06
299.675	87.06
299.905	91.06
300.136	96.06
300.366	83.06
300.597	101.06
300.827	72.06
301.057	86.06
301.288	91.06
301.518	90.06
301.748	80.06
301.979	106.06
302.209	82.06
302.439	92.06
302.669	85.06
302.9	86.06
303.13	84.06
303.36	85.06
303.59	98.06
303.82	90.06
304.051	97.06
304.281	88.06
304.511	66.06
304.741	92.06
304.971	88.06
305.201	80.06
305.431	89.06
305.661	91.06
305.891	89.06
306.121	78.06
306.352	83.06
306.582	94.06
306.812	87.06
307.042	89.06
307.272	87.06
307.502	83.06
307.731	87.06
307.961	79.06
308.191	74.06
308.421	70.06
308.651	100.06
308.881	91.06
309.111	81.06
309.341	85.06
309.571	84.06
309.8	94.06
310.03	78.06
310.26	106.06
310.49	76.06
310.72	80.06
310.949	85.06
311.179	89.06
311.409	73.06
311.639	79.06
311.868	83.06
312.098	91.06
312.328	91.06
312.557	74.06
312.787	76.06
313.017	83.06
313.246	92.06
313.476	75.06
313.706	100.06
313.935	76.06
314.165	96.06
314.394	81.06
314.624	76.06
314.853	86.06
315.083	77.06
315.312	92.06
315.542	73.06
315.771	100.06
316.001	84.06
316.23	81.06
316.46	74.06
316.689	76.06
316.919	89.06
317.148	91.06
317.377	95.06
317.607	104.06
317.836	97.06
318.065	96.06
318.295	74.06
318.524	86.06
318.753	78.06
318.983	98.06
319.212	90.06
319.441	80.06
319.67	96.06
319.9	79.06
320.129	94.06
320.358	88.06
320.587	77.06
320.816	81.06
321.046	78.06
321.275	88.06
321.504	90.06
321.733	80.06
321.962	84.06
322.191	73.06
322.42	80.06
322.649	87.06
322.878	97.06
323.108	95.06
323.337	104.06
323.566	90.06
323.795	89.06
324.024	95.06
324.253	97.06
324.482	67.06
324.71	94.06
324.939	92.06
325.168	94.06
325.397	88.06
325.626	93.06
325.855	90.06
326.084	85.06
326.313	92.06
326.542	88.06
326.77	95.06
326.999	89.06
327.228	86.06
327.457	102.06
327.686	89.06
327.914	89.06
328.143	98.06
328.372	85.06
328.6	88.06
328.829	92.06
329.058	76.06
329.287	92.06
329.515	88.06
329.744	91.06
329.972	84.06
330.201	94.06
330.43	91.06
330.658	100.06
330.887	92.06
331.115	74.06
331.344	74.06
331.572	87.06
331.801	90.06
332.03	102.06
332.258	96.06
332.486	85.06
332.715	88.06
332.943	87.06
333.172	80.06
333.4	95.06
333.629	102.06
333.857	90.06
334.085	91.06
334.314	98.06
334.542	79.06
334.771	100.06
334.999	79.06
335.227	88.06
335.455	96.06
335.684	88.06
335.912	67.06
336.14	90.06
336.369	89.06
336.597	88.06
336.825	83.06
337.053	92.06
337.281	83.06
337.51	84.06
337.738	98.06
337.966	82.06
338.194	91.06
338.422	68.06
338.65	84.06
338.878	101.06
339.106	80.06
339.334	82.06
339.562	84.06
339.79	90.06
340.018	98.06
340.246	90.06
340.474	95.06
340.702	93.06
340.93	89.06
341.158	92.06
341.386	71.06
341.614	92.06
341.842	78.06
342.07	77.06
342.298	83.06
342.526	86.06
342.754	90.06
342.981	74.06
343.209	77.06
343.437	94.06
343.665	96.06
343.893	102.06
344.12	99.06
344.348	87.06
344.576	90.06
344.804	80.06
345.031	87.06
345.259	86.06
345.487	92.06
345.714	80.06
345.942	93.06
346.17	86.06
346.397	87.06
346.625	84.06
346.853	80.06
347.08	87.06
347.308	92.06
347.535	81.06
347.763	74.06
347.99	81.06
348.218	77.06
348.445	76.06
348.673	82.06
348.9	86.06
349.128	84.06
349.355	84.06
349.583	78.06
349.81	92.06
350.037	97.06
350.265	96.06
350.492	75.06
350.72	84.06
350.947	92.06
351.174	95.06
351.402	92.06
351.629	94.06
351.856	96.06
352.083	92.06
352.311	86.06
352.538	76.06
352.765	86.06
352.992	98.06
353.22	98.06
353.447	85.06
353.674	87.06
353.901	97.06
354.128	93.06
354.355	84.06
354.583	86.06
354.81	85.06
355.037	88.06
355.264	79.06
355.491	88.06
355.718	70.06
355.945	76.06
356.172	82.06
356.399	101.06
356.626	89.06
356.853	93.06
357.08	79.06
357.307	106.06
357.534	100.06
357.761	94.06
357.988	89.06
358.215	86.06
358.441	88.06
358.668	89.06
358.895	90.06
359.122	88.06
359.349	104.06
359.576	95.06
359.802	91.06
360.029	80.06
360.256	90.06
360.483	79.06
360.709	102.06
360.936	87.06
361.163	95.06
361.39	91.06
361.616	91.06
361.843	83.06
362.07	92.06
362.296	92.06
362.523	70.06
362.749	90.06
362.976	94.06
363.203	87.06
363.429	90.06
363.656	98.06
363.882	83.06
364.109	86.06
364.335	92.06
364.562	79.06
364.788	93.06
365.015	88.06
365.241	77.06
365.468	89.06
365.694	94.06
365.92	84.06
366.147	74.06
366.373	80.06
366.599	90.06
366.826	87.06
367.052	81.06
367.278	85.06
367.505	93.06
367.731	93.06
367.957	81.06
368.184	82.06
368.41	80.06
368.636	87.06
368.862	93.06
369.089	85.06
369.315	77.06
369.541	89.06
369.767	93.06
369.993	88.06
370.219	76.06
370.445	84.06
370.672	88.06
370.898	79.06
371.124	86.06
371.35	92.06
371.576	104.06
371.802	89.06
372.028	94.06
372.254	87.06
372.48	82.06
372.706	92.06
372.932	102.06
373.158	90.06
373.384	91.06
373.61	100.06
373.835	86.06
374.061	76.06
374.287	90.06
374.513	93.06
374.739	79.06
374.965	100.06
375.191	85.06
375.416	85.06
375.642	83.06
375.868	85.06
376.094	85.06
376.319	89.06
376.545	103.06
376.771	107.06
376.997	79.06
377.222	97.06
377.448	81.06
377.674	91.06
377.899	86.06
378.125	86.06
378.35	77.06
378.576	98.06
378.802	88.06
379.027	73.06
379.253	90.06
379.478	96.06
379.704	95.06
379.929	91.06
380.155	73.06
380.38	80.06
380.606	79.06
380.831	77.06
381.057	84.06
381.282	90.06
381.507	105.06
381.733	103.06
381.958	89.06
382.184	82.06
382.409	92.06
382.634	100.06
382.86	91.06
383.085	87.06
383.31	87.06
383.535	81.06
383.761	87.06
383.986	80.06
384.211	79.06
384.436	96.06
384.662	75.06
384.887	74.06
385.112	92.06
385.337	84.06
385.562	82.06
385.787	91.06
386.013	86.06
386.238	93.06
386.463	80.06
386.688	101.06
386.913	85.06
387.138	88.06
387.363	76.06
387.588	91.06
387.813	88.06
388.038	100.06
388.263	81.06
388.488	84.06
388.713	103.06
388.938	92.06
389.163	87.06
389.387	80.06
389.612	94.06
389.837	96.06
390.062	77.06
390.287	92.06
390.512	78.06
390.736	85.06
390.961	88.06
391.186	86.06
391.411	76.06
391.636	78.06
391.86	87.06
392.085	95.06
392.31	78.06
392.534	82.06
392.759	101.06
392.984	83.06
393.208	91.06
393.433	65.06
393.658	90.06
393.882	89.06
394.107	77.06
394.331	99.06
394.556	86.06
394.78	76.06
395.005	79.06
395.229	101.06
395.454	80.06
395.678	77.06
395.903	84.06
396.127	90.06
396.352	87.06
396.576	84.06
396.801	84.06
397.025	74.06
397.249	67.06
397.474	89.06
397.698	74.06
397.922	82.06
398.147	80.06
398.371	79.06
398.595	89.06
398.82	82.06
399.044	88.06
399.268	85.06
399.492	87.06
399.717	78.06
399.941	84.06
400.165	91.06
400.389	93.06
400.613	88.06
400.837	92.06
401.062	82.06
401.286	82.06
401.51	88.06
401.734	78.06
401.958	76.06
402.182	79.06
402.406	90.06
402.63	84.06
402.854	103.06
403.078	85.06
403.302	91.06
403.526	90.06
403.75	80.06
403.974	84.06
404.198	93.06
404.422	79.06
404.645	83.06
404.869	79.06
405.093	98.06
405.317	66.06
405.541	75.06
405.765	78.06
405.988	82.06
406.212	70.06
406.436	104.06
406.66	86.06
406.883	92.06
407.107	92.06
407.331	72.06
407.555	82.06
407.778	92.06
408.002	83.06
408.226	97.06
408.449	68.06
408.673	90.06
408.896	83.06
409.12	74.06
409.344	70.06
409.567	90.06
409.791	89.06
410.014	95.06
410.238	91.06
410.461	79.06
410.685	89.06
410.908	59.06
411.132	86.06
411.355	77.06
411.578	84.06
411.802	90.06
412.025	86.06
412.249	85.06
412.472	78.06
412.695	87.06
412.919	73.06
413.142	94.06
413.365	96.06
413.589	80.06
413.812	88.06
414.035	84.06
414.258	98.06
414.482	75.06
414.705	81.06
414.928	86.06
415.151	75.06
415.374	97.06
415.597	90.06
415.821	97.06
416.044	103.06
416.267	87.06
416.49	82.06
416.713	93.06
416.936	70.06
417.159	73.06
417.382	80.06
417.605	86.06
417.828	80.06
418.051	78.06
418.274	79.06
418.497	82.06
418.72	89.06
418.943	76.06
419.166	82.06
419.389	87.06
419.611	72.06
419.834	87.06
420.057	103.06
420.28	91.06
420.503	76.06
420.726	86.06
420.948	77.06
421.171	75.06
421.394	84.06
421.617	95.06
421.839	71.06
422.062	78.06
422.285	91.06
422.507	88.06
422.73	80.06
422.953	87.06
423.175	89.06
423.398	80.06
423.621	98.06
423.843	84.06
424.066	74.06
424.288	92.06
424.511	92.06
424.733	99.06
424.956	86.06
425.178	94.06
425.401	92.06
425.623	80.06
425.846	93.06
426.068	74.06
426.291	93.06
426.513	100.06
426.735	89.06
426.958	81.06
427.18	96.06
427.402	85.06
427.625	68.06
427.847	88.06
428.069	93.06
428.292	86.06
428.514	94.06
428.736	83.06
428.958	77.06
429.181	89.06
429.403	78.06
429.625	74.06
429.847	77.06
430.069	76.06
430.292	92.06
430.514	84.06
430.736	84.06
430.958	84.06
431.18	73.06
431.402	81.06
431.624	84.06
431.846	98.06
432.068	77.06
432.29	86.06
432.512	83.06
432.734	82.06
432.956	95.06
433.178	96.06
433.4	88.06
433.622	98.06
433.844	78.06
434.066	68.06
434.287	92.06
434.509	89.06
434.731	91.06
434.953	89.06
435.175	87.06
435.397	90.06
435.618	82.06
435.84	67.06
436.062	84.06
436.284	86.06
436.505	74.06
436.727	106.06
436.949	87.06
437.17	74.06
437.392	104.06
437.614	78.06
437.835	90.06
438.057	98.06
438.278	91.06
438.5	84.06
438.721	72.06
438.943	78.06
439.165	77.06
439.386	79.06
439.608	100.06
439.829	78.06
440.05	98.06
440.272	80.06
440.493	94.06
440.715	86.06
440.936	95.06
441.158	85.06
441.379	72.06
441.6	85.06
441.822	90.06
442.043	93.06
442.264	78.06
442.486	83.06
442.707	86.06
442.928	82.06
443.149	85.06
443.371	93.06
443.592	78.06
443.813	76.06
444.034	82.06
444.255	98.06
444.476	85.06
444.698	91.06
444.919	74.06
445.14	151.06
445.361	106.06
445.582	95.06
445.803	80.06
446.024	87.06
446.245	86.06
446.466	82.06
446.687	98.06
446.908	90.06
447.129	94.06
447.35	73.06
447.571	84.06
447.792	75.06
448.013	90.06
448.234	87.06
448.455	73.06
448.675	77.06
448.896	81.06
449.117	76.06
449.338	84.06
449.559	82.06
449.779	77.06
450	74.06
450.221	74.06
450.442	86.06
450.662	84.06
450.883	88.06
451.104	78.06
451.324	73.06
451.545	88.06
451.766	93.06
451.986	86.06
452.207	88.06
452.428	98.06
452.648	62.06
452.869	98.06
453.089	77.06
453.31	82.06
453.53	80.06
453.751	84.06
453.971	79.06
454.192	79.06
454.412	95.06
454.633	97.06
454.853	93.06
455.073	77.06
455.294	86.06
455.514	86.06
455.734	89.06
455.955	85.06
456.175	86.06
456.395	85.06
456.616	86.06
456.836	90.06
457.056	82.06
457.276	69.06
457.497	74.06
457.717	80.06
457.937	104.06
458.157	76.06
458.377	86.06
458.598	86.06
458.818	71.06
459.038	88.06
459.258	72.06
459.478	82.06
459.698	98.06
459.918	89.06
460.138	74.06
460.358	87.06
460.578	96.06
460.798	88.06
461.018	78.06
461.238	76.06
461.458	84.06
461.678	79.06
461.898	90.06
462.118	90.06
462.338	88.06
462.558	76.06
462.777	88.06
462.997	79.06
463.217	80.06
463.437	82.06
463.657	94.06
463.876	84.06
464.096	87.06
464.316	91.06
464.536	89.06
464.755	84.06
464.975	84.06
465.195	78.06
465.414	66.06
465.634	88.06
465.854	75.06
466.073	86.06
466.293	80.06
466.512	84.06
466.732	88.06
466.951	92.06
467.171	75.06
467.391	86.06
467.61	84.06
467.829	88.06
468.049	101.06
468.268	86.06
468.488	92.06
468.707	88.06
468.927	80.06
469.146	91.06
469.365	87.06
469.585	78.06
469.804	88.06
470.023	75.06
470.243	78.06
470.462	91.06
470.681	90.06
470.901	93.06
471.12	89.06
471.339	79.06
471.558	94.06
471.777	79.06
471.997	90.06
472.216	86.06
472.435	88.06
472.654	85.06
472.873	75.06
473.092	78.06
473.311	83.06
473.53	88.06
473.749	84.06
473.968	87.06
474.187	94.06
474.406	88.06
474.625	103.06
474.844	89.06
475.063	88.06
475.282	79.06
475.501	83.06
475.72	89.06
475.939	78.06
476.158	81.06
476.377	82.06
476.596	94.06
476.814	84.06
477.033	78.06
477.252	96.06
477.471	83.06
477.69	67.06
477.908	91.06
478.127	93.06
478.346	81.06
478.564	103.06
478.783	89.06
479.002	96.06
479.22	86.06
479.439	86.06
479.658	89.06
479.876	91.06
480.095	82.06
480.313	94.06
480.532	102.06
480.751	95.06
480.969	92.06
481.188	87.06
481.406	99.06
481.624	99.06
481.843	80.06
482.061	90.06
482.28	90.06
482.498	75.06
482.717	80.06
482.935	72.06
483.153	88.06
483.372	76.06
483.59	81.06
483.808	88.06
484.027	80.06
484.245	88.06
484.463	74.06
484.681	94.06
484.9	84.06
485.118	97.06
485.336	85.06
485.554	86.06
485.772	93.06
485.99	76.06
486.209	81.06
486.427	66.06
486.645	73.06
486.863	95.06
487.081	93.06
487.299	87.06
487.517	80.06
487.735	84.06
487.953	84.06
488.171	80.06
488.389	91.06
488.607	86.06
488.825	89.06
489.043	87.06
489.261	104.06
489.479	94.06
489.696	90.06
489.914	85.06
490.132	98.06
490.35	90.06
490.568	89.06
490.786	88.06
491.003	78.06
491.221	82.06
491.439	85.06
491.657	78.06
491.874	72.06
492.092	86.06
492.31	88.06
492.527	78.06
492.745	89.06
492.963	79.06
493.18	78.06
493.398	94.06
493.615	79.06
493.833	96.06
494.05	91.06
494.268	89.06
494.485	74.06
494.703	85.06
494.92	78.06
495.138	70.06
495.355	79.06
495.573	89.06
495.79	82.06
496.008	94.06
496.225	100.06
496.442	87.06
496.66	78.06
496.877	86.06
497.094	88.06
497.312	85.06
497.529	93.06
497.746	80.06
497.963	74.06
498.181	80.06
498.398	96.06
498.615	84.06
498.832	69.06
499.049	89.06
499.267	84.06
499.484	78.06
499.701	88.06
499.918	87.06
500.135	83.06
500.352	96.06
500.569	87.06
500.786	98.06
501.003	88.06
501.22	76.06
501.437	82.06
501.654	81.06
501.871	83.06
502.088	91.06
502.305	76.06
502.522	95.06
502.739	79.06
502.956	107.06
503.172	81.06
503.389	83.06
503.606	75.06
503.823	83.06
504.04	76.06
504.256	82.06
504.473	80.06
504.69	93.06
504.907	91.06
505.123	95.06
505.34	74.06
505.557	86.06
505.773	86.06
505.99	96.06
506.207	66.06
506.423	73.06
506.64	87.06
506.856	78.06
507.073	78.06
507.289	94.06
507.506	84.06
507.722	87.06
507.939	91.06
508.155	95.06
508.372	90.06
508.588	87.06
508.805	89.06
509.021	94.06
509.238	95.06
509.454	72.06
509.67	86.06
509.887	94.06
510.103	86.06
510.319	85.06
510.536	93.06
510.752	74.06
510.968	89.06
511.184	87.06
511.401	70.06
511.617	73.06
511.833	81.06
512.049	76.06
512.265	81.06
512.481	86.06
512.698	104.06
512.914	80.06
513.13	84.06
513.346	82.06
513.562	79.06
513.778	80.06
513.994	75.06
514.21	89.06
514.426	96.06
514.642	85.06
514.858	87.06
515.074	87.06
515.29	93.06
515.506	104.06
515.721	78.06
515.937	82.06
516.153	89.06
516.369	91.06
516.585	85.06
516.801	84.06
517.016	93.06
517.232	83.06
517.448	79.06
517.664	83.06
517.879	95.06
518.095	83.06
518.311	83.06
518.527	84.06
518.742	83.06
518.958	92.06
519.173	75.06
519.389	74.06
519.605	84.06
519.82	80.06
520.036	84.06
520.251	86.06
520.467	73.06
520.682	90.06
520.898	77.06
521.113	90.06
521.329	90.06
521.544	73.06
521.76	82.06
521.975	88.06
522.19	86.06
522.406	83.06
522.621	85.06
522.836	84.06
523.052	92.06
523.267	81.06
523.482	115.06
523.698	84.06
523.913	96.06
524.128	79.06
524.343	69.06
524.559	70.06
524.774	77.06
524.989	91.06
525.204	83.06
525.419	89.06
525.634	96.06
525.849	94.06
526.064	77.06
526.28	84.06
526.495	73.06
526.71	95.06
526.925	76.06
527.14	71.06
527.355	80.06
527.57	93.06
527.785	86.06
527.999	79.06
528.214	73.06
528.429	90.06
528.644	87.06
528.859	89.06
529.074	90.06
529.289	83.06
529.503	80.06
529.718	98.06
529.933	84.06
530.148	98.06
530.363	98.06
530.577	85.06
530.792	88.06
531.007	87.06
531.221	94.06
531.436	90.06
531.651	83.06
531.865	95.06
532.08	82.06
532.295	104.06
532.509	78.06
532.724	80.06
532.938	93.06
533.153	89.06
533.367	88.06
533.582	87.06
533.796	84.06
534.011	88.06
534.225	86.06
534.44	87.06
534.654	81.06
534.868	84.06
535.083	74.06
535.297	76.06
535.511	102.06
535.726	93.06
535.94	90.06
536.154	99.06
536.369	86.06
536.583	80.06
536.797	90.06
537.011	79.06
537.225	98.06
537.44	89.06
537.654	81.06
537.868	84.06
538.082	81.06
538.296	85.06
538.51	98.06
538.724	105.06
538.938	77.06
539.153	79.06
539.367	86.06
539.581	93.06
539.795	90.06
540.009	94.06
540.222	90.06
540.436	92.06
540.65	87.06
540.864	92.06
541.078	70.06
541.292	92.06
541.506	80.06
541.72	88.06
541.934	97.06
542.147	89.06
542.361	103.06
542.575	78.06
542.789	102.06
543.002	89.06
543.216	88.06
543.43	72.06
543.644	76.06
543.857	87.06
544.071	79.06
544.285	88.06
544.498	103.06
544.712	86.06
544.925	73.06
545.139	74.06
545.352	86.06
545.566	81.06
545.779	90.06
545.993	78.06
546.206	72.06
546.42	85.06
546.633	83.06
546.847	92.06
547.06	83.06
547.274	92.06
547.487	86.06
547.7	79.06
547.914	83.06
548.127	82.06
548.34	79.06
548.554	93.06
548.767	95.06
548.98	97.06
549.193	92.06
549.407	73.06
549.62	94.06
549.833	80.06
550.046	80.06
550.259	86.06
550.473	96.06
550.686	91.06
550.899	89.06
551.112	83.06
551.325	93.06
551.538	93.06
551.751	102.06
551.964	84.06
552.177	98.06
552.39	83.06
552.603	74.06
552.816	84.06
553.029	83.06
553.242	84.06
553.455	83.06
553.667	75.06
553.88	96.06
554.093	78.06
554.306	78.06
554.519	88.06
554.732	83.06
554.944	95.06
555.157	82.06
555.37	87.06
555.583	79.06
555.795	69.06
556.008	86.06
556.221	72.06
556.433	94.06
556.646	82.06
556.859	81.06
557.071	100.06
557.284	101.06
557.496	90.06
557.709	94.06
557.921	74.06
558.134	91.06
558.346	94.06
558.559	88.06
558.771	81.06
558.984	91.06
559.196	87.06
559.409	90.06
559.621	88.06
559.833	90.06
560.046	70.06
560.258	79.06
560.47	87.06
560.683	103.06
560.895	85.06
561.107	94.06
561.32	87.06
561.532	93.06
561.744	97.06
561.956	80.06
562.168	88.06
562.381	92.06
562.593	88.06
562.805	74.06
563.017	87.06
563.229	79.06
563.441	89.06
563.653	84.06
563.865	87.06
564.077	90.06
564.289	92.06
564.501	88.06
564.713	91.06
564.925	81.06
565.137	101.06
565.349	86.06
565.561	81.06
565.773	81.06
565.985	87.06
566.197	91.06
566.408	94.06
566.62	83.06
566.832	81.06
567.044	84.06
567.255	87.06
567.467	85.06
567.679	77.06
567.891	79.06
568.102	80.06
568.314	84.06
568.526	84.06
568.737	80.06
568.949	92.06
569.161	88.06
569.372	94.06
569.584	88.06
569.795	91.06
570.007	98.06
570.218	76.06
570.43	95.06
570.641	80.06
570.853	86.06
571.064	78.06
571.276	106.06
571.487	93.06
571.698	77.06
571.91	85.06
572.121	98.06
572.333	87.06
572.544	83.06
572.755	92.06
572.966	103.06
573.178	80.06
573.389	92.06
573.6	94.06
573.811	84.06
574.023	85.06
574.234	91.06
574.445	92.06
574.656	86.06
574.867	77.06
575.078	94.06
575.289	104.06
575.501	94.06
575.712	82.06
575.923	90.06
576.134	73.06
576.345	82.06
576.556	93.06
576.767	89.06
576.978	83.06
577.188	90.06
577.399	109.06
577.61	86.06
577.821	89.06
578.032	101.06
578.243	85.06
578.454	87.06
578.665	90.06
578.875	86.06
579.086	90.06
579.297	85.06
579.508	88.06
579.718	92.06
579.929	76.06
580.14	87.06
580.35	76.06
580.561	89.06
580.772	86.06
580.982	93.06
581.193	100.06
581.403	78.06
581.614	93.06
581.825	82.06
582.035	90.06
582.246	83.06
582.456	90.06
582.667	90.06
582.877	85.06
583.087	89.06
583.298	99.06
583.508	79.06
583.719	77.06
583.929	87.06
584.139	73.06
584.35	87.06
584.56	86.06
584.77	89.06
584.981	86.06
585.191	98.06
585.401	77.06
585.611	85.06
585.821	76.06
586.032	102.06
586.242	88.06
586.452	86.06
586.662	88.06
586.872	81.06
587.082	88.06
587.292	92.06
587.502	75.06
587.713	78.06
587.923	92.06
588.133	90.06
588.343	84.06
588.553	79.06
588.762	77.06
588.972	88.06
589.182	90.06
589.392	97.06
589.602	93.06
589.812	90.06
590.022	81.06
590.232	98.06
590.441	79.06
590.651	87.06
590.861	89.06
591.071	92.06
591.281	91.06
591.49	100.06
591.7	84.06
591.91	86.06
592.119	90.06
592.329	96.06
592.539	92.06
592.748	92.06
592.958	88.06
593.167	78.06
593.377	94.06
593.587	90.06
593.796	90.06
594.006	101.06
594.215	80.06
594.424	94.06
594.634	78.06
594.843	70.06
595.053	87.06
595.262	78.06
595.472	95.06
595.681	99.06
595.89	99.06
596.1	98.06
596.309	95.06
596.518	96.06
596.727	87.06
596.937	108.06
597.146	99.06
597.355	91.06
597.564	85.06
597.774	78.06
597.983	88.06
598.192	102.06
598.401	88.06
598.61	100.06
598.819	81.06
599.028	76.06
599.237	81.06
599.446	75.06
599.655	83.06
599.864	95.06
600.073	96.06
600.282	88.06
600.491	102.06
600.7	64.06
600.909	75.06
601.118	90.06
601.327	94.06
601.536	75.06
601.745	90.06
601.953	86.06
602.162	94.06
602.371	86.06
602.58	93.06
602.789	98.06
602.997	94.06
603.206	77.06
603.415	84.06
603.623	88.06
603.832	87.06
604.041	90.06
604.249	83.06
604.458	90.06
604.666	98.06
604.875	83.06
605.084	94.06
605.292	79.06
605.501	71.06
605.709	83.06
605.918	93.06
606.126	94.06
606.334	84.06
606.543	95.06
606.751	90.06
606.96	89.06
607.168	82.06
607.376	82.06
607.585	94.06
607.793	88.06
608.001	86.06
608.21	88.06
608.418	93.06
608.626	87.06
608.834	89.06
609.043	95.06
609.251	80.06
609.459	84.06
609.667	93.06
609.875	79.06
610.083	101.06
610.291	89.06
610.499	88.06
610.707	90.06
610.916	88.06
611.124	86.06
611.332	78.06
611.54	84.06
611.748	87.06
611.955	90.06
612.163	79.06
612.371	87.06
612.579	95.06
612.787	83.06
612.995	96.06
613.203	99.06
613.411	89.06
613.618	104.06
613.826	84.06
614.034	89.06
614.242	83.06
614.449	99.06
614.657	75.06
614.865	91.06
615.072	89.06
615.28	79.06
615.488	91.06
615.695	94.06
615.903	80.06
616.111	93.06
616.318	95.06
616.526	94.06
616.733	77.06
616.941	78.06
617.148	86.06
617.356	87.06
617.563	81.06
617.771	85.06
617.978	80.06
618.185	75.06
618.393	87.06
618.6	96.06
618.807	86.06
619.015	88.06
619.222	86.06
619.429	79.06
619.637	77.06
619.844	98.06
620.051	88.06
620.258	90.06
620.466	82.06
620.673	92.06
620.88	94.06
621.087	99.06
621.294	97.06
621.501	90.06
621.708	91.06
621.915	91.06
622.122	72.06
622.329	78.06
622.536	85.06
622.743	87.06
622.95	78.06
623.157	84.06
623.364	79.06
623.571	92.06
623.778	87.06
623.985	81.06
624.192	84.06
624.399	80.06
624.606	86.06
624.812	85.06
625.019	91.06
625.226	83.06
625.433	103.06
625.639	98.06
625.846	90.06
626.053	91.06
626.259	84.06
626.466	83.06
626.673	80.06
626.879	80.06
627.086	94.06
627.293	90.06
627.499	78.06
627.706	99.06
627.912	77.06
628.119	91.06
628.325	110.06
628.532	99.06
628.738	91.06
628.945	95.06
629.151	99.06
629.357	81.06
629.564	78.06
629.77	88.06
629.976	76.06
630.183	71.06
630.389	88.06
630.595	84.06
630.802	90.06
631.008	76.06
631.214	87.06
631.42	78.06
631.627	104.06
631.833	82.06
632.039	96.06
632.245	101.06
632.451	91.06
632.657	87.06
632.863	89.06
633.069	94.06
633.275	87.06
633.481	82.06
633.688	77.06
633.893	86.06
634.099	74.06
634.305	81.06
634.511	90.06
634.717	96.06
634.923	98.06
635.129	78.06
635.335	86.06
635.541	89.06
635.747	102.06
635.952	89.06
636.158	88.06
636.364	95.06
636.57	88.06
636.775	87.06
636.981	92.06
637.187	80.06
637.392	93.06
637.598	84.06
637.804	79.06
638.009	79.06
638.215	76.06
638.421	85.06
638.626	86.06
638.832	71.06
639.037	78.06
639.243	89.06
639.448	94.06
639.654	87.06
639.859	80.06
640.065	81.06
640.27	102.06
640.475	90.06
640.681	87.06
640.886	93.06
641.091	91.06
641.297	70.06
641.502	94.06
641.707	86.06
641.913	87.06
642.118	82.06
642.323	83.06
642.528	86.06
642.733	88.06
642.939	87.06
643.144	98.06
643.349	90.06
643.554	98.06
643.759	88.06
643.964	85.06
644.169	84.06
644.374	86.06
644.579	84.06
644.784	91.06
644.989	84.06
645.194	95.06
645.399	92.06
645.604	87.06
645.809	98.06
646.014	86.06
646.219	96.06
646.423	80.06
646.628	80.06
646.833	94.06
647.038	91.06
647.243	93.06
647.447	95.06
647.652	87.06
647.857	79.06
648.062	90.06
648.266	84.06
648.471	96.06
648.676	95.06
648.88	88.06
649.085	90.06
649.289	87.06
649.494	81.06
649.698	91.06
649.903	72.06
650.107	79.06
650.312	93.06
650.516	86.06
650.721	76.06
650.925	87.06
651.13	86.06
651.334	90.06
651.539	89.06
651.743	88.06
651.947	95.06
652.152	75.06
652.356	94.06
652.56	98.06
652.764	88.06
652.969	93.06
653.173	92.06
653.377	87.06
653.581	98.06
653.785	75.06
653.99	82.06
654.194	76.06
654.398	86.06
654.602	95.06
654.806	74.06
655.01	82.06
655.214	80.06
655.418	78.06
655.622	88.06
655.826	78.06
656.03	68.06
656.234	96.06
656.438	98.06
656.642	83.06
656.846	78.06
657.049	94.06
657.253	91.06
657.457	80.06
657.661	93.06
657.865	77.06
658.068	86.06
658.272	82.06
658.476	87.06
658.68	95.06
658.883	91.06
659.087	79.06
659.291	78.06
659.494	90.06
659.698	84.06
659.901	101.06
660.105	78.06
660.309	91.06
660.512	96.06
660.716	81.06
660.919	80.06
661.123	90.06
661.326	84.06
661.53	76.06
661.733	83.06
661.936	96.06
662.14	75.06
662.343	104.06
662.546	77.06
662.75	74.06
662.953	105.06
663.156	102.06
663.36	95.06
663.563	88.06
663.766	88.06
663.969	101.06
664.173	93.06
664.376	80.06
664.579	96.06
664.782	71.06
664.985	83.06
665.188	88.06
665.391	86.06
665.594	92.06
665.797	75.06
666	90.06
666.203	75.06
666.406	92.06
666.609	86.06
666.812	82.06
667.015	86.06
667.218	88.06
667.421	87.06
667.624	86.06
667.827	92.06
668.03	88.06
668.232	87.06
668.435	92.06
668.638	82.06
668.841	79.06
669.043	91.06
669.246	80.06
669.449	79.06
669.651	83.06
669.854	80.06
670.057	88.06
670.259	79.06
670.462	96.06
670.665	90.06
670.867	90.06
671.07	93.06
671.272	106.06
671.475	94.06
671.677	79.06
671.88	97.06
672.082	86.06
672.284	98.06
672.487	98.06
672.689	81.06
672.892	78.06
