Data from Circ_1980_H10_HRD10591_00062.txt Node
Date: Wed Jan 03 12:38:10 EST 2024
User: Yrep
Spectrometer: HR+D1059
Trigger mode: 1
Integration Time (sec): 1.000000E-1
Scans to average: 1
Electric dark correction enabled: true
Nonlinearity correction enabled: false
Boxcar width: 0
XAxis mode: Wavelengths
Number of Pixels in Spectrum: 2048
>>>>>Begin Spectral Data<<<<<
223.165	-31.88
223.4	-31.88
223.635	-31.88
223.869	-24.88
224.104	-23.88
224.338	-11.88
224.573	-11.88
224.808	-21.88
225.042	2.12
225.277	-0.88
225.511	-4.88
225.746	12.12
225.98	9.12
226.215	1.12
226.449	16.12
226.683	28.12
226.918	38.12
227.152	25.12
227.387	41.12
227.621	47.12
227.856	32.12
228.09	36.12
228.324	33.12
228.559	40.12
228.793	63.12
229.027	56.12
229.262	60.12
229.496	69.12
229.73	82.12
229.964	79.12
230.199	59.12
230.433	81.12
230.667	72.12
230.901	75.12
231.136	63.12
231.37	64.12
231.604	69.12
231.838	85.12
232.072	73.12
232.306	85.12
232.541	74.12
232.775	84.12
233.009	79.12
233.243	69.12
233.477	77.12
233.711	76.12
233.945	73.12
234.179	81.12
234.413	82.12
234.647	78.12
234.881	60.12
235.115	73.12
235.349	69.12
235.583	80.12
235.817	74.12
236.051	83.12
236.285	82.12
236.519	74.12
236.753	67.12
236.987	66.12
237.221	83.12
237.455	77.12
237.689	57.12
237.922	87.12
238.156	54.12
238.39	86.12
238.624	82.12
238.858	75.12
239.091	72.12
239.325	81.12
239.559	75.12
239.793	85.12
240.027	73.12
240.26	89.12
240.494	85.12
240.728	64.12
240.961	86.12
241.195	81.12
241.429	75.12
241.662	84.12
241.896	62.12
242.13	74.12
242.363	65.12
242.597	59.12
242.83	82.12
243.064	88.12
243.298	83.12
243.531	73.12
243.765	69.12
243.998	71.12
244.232	77.12
244.465	76.12
244.699	68.12
244.932	76.12
245.166	74.12
245.399	82.12
245.633	78.12
245.866	88.12
246.099	83.12
246.333	60.12
246.566	68.12
246.8	80.12
247.033	72.12
247.266	75.12
247.5	76.12
247.733	78.12
247.966	85.12
248.2	82.12
248.433	82.12
248.666	90.12
248.899	76.12
249.133	73.12
249.366	102.12
249.599	90.12
249.832	82.12
250.066	84.12
250.299	72.12
250.532	70.12
250.765	81.12
250.998	73.12
251.231	85.12
251.465	91.12
251.698	74.12
251.931	85.12
252.164	83.12
252.397	73.12
252.63	80.12
252.863	73.12
253.096	91.12
253.329	89.12
253.562	85.12
253.795	82.12
254.028	86.12
254.261	80.12
254.494	76.12
254.727	76.12
254.96	77.12
255.193	84.12
255.426	69.12
255.659	76.12
255.892	77.12
256.124	70.12
256.357	56.12
256.59	71.12
256.823	76.12
257.056	76.12
257.289	68.12
257.521	76.12
257.754	82.12
257.987	91.12
258.22	73.12
258.452	96.12
258.685	74.12
258.918	82.12
259.151	88.12
259.383	70.12
259.616	77.12
259.849	86.12
260.081	76.12
260.314	80.12
260.547	74.12
260.779	74.12
261.012	80.12
261.244	88.12
261.477	101.12
261.71	92.12
261.942	98.12
262.175	114.12
262.407	70.12
262.64	78.12
262.872	86.12
263.105	80.12
263.337	87.12
263.57	76.12
263.802	90.12
264.035	67.12
264.267	73.12
264.499	70.12
264.732	72.12
264.964	77.12
265.197	65.12
265.429	87.12
265.661	75.12
265.894	73.12
266.126	90.12
266.358	68.12
266.591	80.12
266.823	74.12
267.055	101.12
267.287	86.12
267.52	82.12
267.752	90.12
267.984	73.12
268.216	82.12
268.448	77.12
268.681	68.12
268.913	79.12
269.145	77.12
269.377	74.12
269.609	78.12
269.841	77.12
270.073	69.12
270.306	76.12
270.538	65.12
270.77	88.12
271.002	60.12
271.234	82.12
271.466	81.12
271.698	84.12
271.93	68.12
272.162	83.12
272.394	80.12
272.626	81.12
272.858	76.12
273.09	88.12
273.322	85.12
273.553	82.12
273.785	69.12
274.017	76.12
274.249	64.12
274.481	64.12
274.713	83.12
274.945	93.12
275.176	82.12
275.408	85.12
275.64	81.12
275.872	64.12
276.104	80.12
276.335	90.12
276.567	93.12
276.799	100.12
277.031	86.12
277.262	75.12
277.494	100.12
277.726	74.12
277.957	85.12
278.189	96.12
278.421	82.12
278.652	81.12
278.884	77.12
279.115	83.12
279.347	88.12
279.579	76.12
279.81	92.12
280.042	77.12
280.273	85.12
280.505	90.12
280.736	80.12
280.968	81.12
281.199	80.12
281.431	89.12
281.662	74.12
281.894	72.12
282.125	92.12
282.356	114.12
282.588	101.12
282.819	101.12
283.051	88.12
283.282	80.12
283.513	78.12
283.745	84.12
283.976	91.12
284.207	80.12
284.439	82.12
284.67	99.12
284.901	81.12
285.132	82.12
285.364	82.12
285.595	77.12
285.826	72.12
286.057	84.12
286.288	91.12
286.52	88.12
286.751	79.12
286.982	72.12
287.213	77.12
287.444	93.12
287.675	76.12
287.906	84.12
288.138	101.12
288.369	99.12
288.6	91.12
288.831	75.12
289.062	80.12
289.293	84.12
289.524	101.12
289.755	80.12
289.986	86.12
290.217	89.12
290.448	94.12
290.679	77.12
290.91	82.12
291.141	93.12
291.371	94.12
291.602	96.12
291.833	80.12
292.064	89.12
292.295	76.12
292.526	76.12
292.757	82.12
292.987	91.12
293.218	75.12
293.449	83.12
293.68	90.12
293.91	87.12
294.141	88.12
294.372	98.12
294.603	80.12
294.833	89.12
295.064	90.12
295.295	77.12
295.525	89.12
295.756	83.12
295.987	103.12
296.217	114.12
296.448	113.12
296.679	88.12
296.909	82.12
297.14	83.12
297.37	76.12
297.601	72.12
297.831	80.12
298.062	80.12
298.292	84.12
298.523	89.12
298.753	88.12
298.984	83.12
299.214	89.12
299.445	73.12
299.675	84.12
299.905	97.12
300.136	98.12
300.366	81.12
300.597	79.12
300.827	94.12
301.057	87.12
301.288	85.12
301.518	90.12
301.748	85.12
301.979	101.12
302.209	92.12
302.439	84.12
302.669	84.12
302.9	93.12
303.13	90.12
303.36	83.12
303.59	97.12
303.82	78.12
304.051	83.12
304.281	97.12
304.511	97.12
304.741	98.12
304.971	90.12
305.201	92.12
305.431	88.12
305.661	79.12
305.891	88.12
306.121	80.12
306.352	89.12
306.582	96.12
306.812	88.12
307.042	88.12
307.272	83.12
307.502	97.12
307.731	98.12
307.961	65.12
308.191	90.12
308.421	104.12
308.651	96.12
308.881	89.12
309.111	90.12
309.341	84.12
309.571	92.12
309.8	68.12
310.03	97.12
310.26	92.12
310.49	82.12
310.72	90.12
310.949	88.12
311.179	101.12
311.409	76.12
311.639	84.12
311.868	75.12
312.098	82.12
312.328	88.12
312.557	94.12
312.787	108.12
313.017	87.12
313.246	108.12
313.476	102.12
313.706	80.12
313.935	82.12
314.165	93.12
314.394	89.12
314.624	86.12
314.853	106.12
315.083	95.12
315.312	101.12
315.542	106.12
315.771	96.12
316.001	92.12
316.23	89.12
316.46	100.12
316.689	74.12
316.919	88.12
317.148	96.12
317.377	93.12
317.607	94.12
317.836	94.12
318.065	100.12
318.295	98.12
318.524	84.12
318.753	93.12
318.983	97.12
319.212	94.12
319.441	103.12
319.67	99.12
319.9	88.12
320.129	88.12
320.358	81.12
320.587	105.12
320.816	87.12
321.046	93.12
321.275	89.12
321.504	84.12
321.733	87.12
321.962	96.12
322.191	100.12
322.42	104.12
322.649	93.12
322.878	103.12
323.108	113.12
323.337	108.12
323.566	116.12
323.795	130.12
324.024	180.12
324.253	301.12
324.482	585.12
324.71	1174.12
324.939	1547.12
325.168	588.12
325.397	196.12
325.626	130.12
325.855	100.12
326.084	115.12
326.313	125.12
326.542	126.12
326.77	202.12
326.999	336.12
327.228	646.12
327.457	1204.12
327.686	960.12
327.914	284.12
328.143	150.12
328.372	126.12
328.6	113.12
328.829	101.12
329.058	110.12
329.287	112.12
329.515	98.12
329.744	104.12
329.972	102.12
330.201	120.12
330.43	121.12
330.658	130.12
330.887	117.12
331.115	115.12
331.344	96.12
331.572	96.12
331.801	89.12
332.03	94.12
332.258	95.12
332.486	94.12
332.715	93.12
332.943	81.12
333.172	98.12
333.4	90.12
333.629	98.12
333.857	114.12
334.085	100.12
334.314	106.12
334.542	109.12
334.771	114.12
334.999	91.12
335.227	114.12
335.455	88.12
335.684	92.12
335.912	99.12
336.14	105.12
336.369	92.12
336.597	115.12
336.825	92.12
337.053	93.12
337.281	83.12
337.51	96.12
337.738	93.12
337.966	84.12
338.194	85.12
338.422	84.12
338.65	106.12
338.878	92.12
339.106	80.12
339.334	92.12
339.562	85.12
339.79	83.12
340.018	86.12
340.246	86.12
340.474	77.12
340.702	89.12
340.93	98.12
341.158	89.12
341.386	87.12
341.614	97.12
341.842	89.12
342.07	77.12
342.298	92.12
342.526	80.12
342.754	81.12
342.981	87.12
343.209	84.12
343.437	96.12
343.665	98.12
343.893	68.12
344.12	77.12
344.348	90.12
344.576	78.12
344.804	90.12
345.031	98.12
345.259	70.12
345.487	82.12
345.714	101.12
345.942	92.12
346.17	89.12
346.397	96.12
346.625	108.12
346.853	91.12
347.08	89.12
347.308	92.12
347.535	86.12
347.763	102.12
347.99	95.12
348.218	87.12
348.445	105.12
348.673	92.12
348.9	80.12
349.128	96.12
349.355	83.12
349.583	98.12
349.81	96.12
350.037	87.12
350.265	82.12
350.492	99.12
350.72	104.12
350.947	74.12
351.174	97.12
351.402	89.12
351.629	95.12
351.856	106.12
352.083	99.12
352.311	102.12
352.538	111.12
352.765	98.12
352.992	112.12
353.22	111.12
353.447	90.12
353.674	97.12
353.901	94.12
354.128	86.12
354.355	104.12
354.583	80.12
354.81	100.12
355.037	80.12
355.264	80.12
355.491	93.12
355.718	92.12
355.945	101.12
356.172	86.12
356.399	90.12
356.626	96.12
356.853	96.12
357.08	109.12
357.307	104.12
357.534	84.12
357.761	91.12
357.988	98.12
358.215	108.12
358.441	96.12
358.668	85.12
358.895	90.12
359.122	88.12
359.349	91.12
359.576	89.12
359.802	91.12
360.029	97.12
360.256	89.12
360.483	97.12
360.709	98.12
360.936	92.12
361.163	87.12
361.39	91.12
361.616	93.12
361.843	85.12
362.07	100.12
362.296	88.12
362.523	92.12
362.749	82.12
362.976	86.12
363.203	81.12
363.429	90.12
363.656	92.12
363.882	89.12
364.109	97.12
364.335	89.12
364.562	105.12
364.788	91.12
365.015	93.12
365.241	98.12
365.468	101.12
365.694	98.12
365.92	90.12
366.147	72.12
366.373	88.12
366.599	92.12
366.826	75.12
367.052	101.12
367.278	97.12
367.505	92.12
367.731	80.12
367.957	96.12
368.184	86.12
368.41	94.12
368.636	102.12
368.862	106.12
369.089	104.12
369.315	77.12
369.541	91.12
369.767	87.12
369.993	90.12
370.219	80.12
370.445	91.12
370.672	77.12
370.898	97.12
371.124	104.12
371.35	82.12
371.576	87.12
371.802	87.12
372.028	84.12
372.254	82.12
372.48	90.12
372.706	86.12
372.932	86.12
373.158	99.12
373.384	90.12
373.61	92.12
373.835	81.12
374.061	82.12
374.287	98.12
374.513	85.12
374.739	90.12
374.965	90.12
375.191	86.12
375.416	92.12
375.642	79.12
375.868	84.12
376.094	90.12
376.319	98.12
376.545	97.12
376.771	84.12
376.997	73.12
377.222	95.12
377.448	85.12
377.674	105.12
377.899	86.12
378.125	84.12
378.35	81.12
378.576	94.12
378.802	85.12
379.027	72.12
379.253	103.12
379.478	88.12
379.704	89.12
379.929	88.12
380.155	88.12
380.38	101.12
380.606	80.12
380.831	90.12
381.057	104.12
381.282	84.12
381.507	84.12
381.733	108.12
381.958	98.12
382.184	93.12
382.409	105.12
382.634	103.12
382.86	98.12
383.085	115.12
383.31	103.12
383.535	96.12
383.761	96.12
383.986	100.12
384.211	103.12
384.436	100.12
384.662	101.12
384.887	101.12
385.112	109.12
385.337	99.12
385.562	86.12
385.787	106.12
386.013	102.12
386.238	123.12
386.463	108.12
386.688	132.12
386.913	100.12
387.138	102.12
387.363	106.12
387.588	113.12
387.813	114.12
388.038	88.12
388.263	102.12
388.488	102.12
388.713	101.12
388.938	82.12
389.163	90.12
389.387	98.12
389.612	94.12
389.837	98.12
390.062	89.12
390.287	98.12
390.512	85.12
390.736	99.12
390.961	102.12
391.186	92.12
391.411	75.12
391.636	94.12
391.86	84.12
392.085	81.12
392.31	87.12
392.534	82.12
392.759	94.12
392.984	87.12
393.208	75.12
393.433	89.12
393.658	101.12
393.882	73.12
394.107	83.12
394.331	97.12
394.556	84.12
394.78	98.12
395.005	95.12
395.229	77.12
395.454	86.12
395.678	73.12
395.903	84.12
396.127	80.12
396.352	83.12
396.576	68.12
396.801	87.12
397.025	79.12
397.249	74.12
397.474	96.12
397.698	75.12
397.922	68.12
398.147	91.12
398.371	94.12
398.595	92.12
398.82	95.12
399.044	88.12
399.268	92.12
399.492	103.12
399.717	95.12
399.941	84.12
400.165	88.12
400.389	91.12
400.613	101.12
400.837	96.12
401.062	81.12
401.286	76.12
401.51	66.12
401.734	88.12
401.958	80.12
402.182	99.12
402.406	124.12
402.63	106.12
402.854	84.12
403.078	92.12
403.302	73.12
403.526	84.12
403.75	97.12
403.974	80.12
404.198	80.12
404.422	87.12
404.645	94.12
404.869	84.12
405.093	96.12
405.317	93.12
405.541	90.12
405.765	89.12
405.988	101.12
406.212	133.12
406.436	168.12
406.66	112.12
406.883	84.12
407.107	97.12
407.331	94.12
407.555	92.12
407.778	93.12
408.002	96.12
408.226	87.12
408.449	92.12
408.673	77.12
408.896	86.12
409.12	96.12
409.344	77.12
409.567	84.12
409.791	90.12
410.014	95.12
410.238	97.12
410.461	102.12
410.685	102.12
410.908	93.12
411.132	94.12
411.355	89.12
411.578	93.12
411.802	85.12
412.025	85.12
412.249	75.12
412.472	98.12
412.695	98.12
412.919	106.12
413.142	90.12
413.365	75.12
413.589	74.12
413.812	88.12
414.035	83.12
414.258	89.12
414.482	80.12
414.705	85.12
414.928	91.12
415.151	98.12
415.374	86.12
415.597	92.12
415.821	89.12
416.044	88.12
416.267	72.12
416.49	90.12
416.713	95.12
416.936	100.12
417.159	69.12
417.382	69.12
417.605	78.12
417.828	80.12
418.051	92.12
418.274	84.12
418.497	77.12
418.72	84.12
418.943	82.12
419.166	97.12
419.389	98.12
419.611	95.12
419.834	91.12
420.057	89.12
420.28	75.12
420.503	75.12
420.726	90.12
420.948	87.12
421.171	71.12
421.394	87.12
421.617	81.12
421.839	83.12
422.062	93.12
422.285	90.12
422.507	85.12
422.73	80.12
422.953	91.12
423.175	96.12
423.398	76.12
423.621	78.12
423.843	92.12
424.066	88.12
424.288	90.12
424.511	91.12
424.733	102.12
424.956	104.12
425.178	93.12
425.401	102.12
425.623	105.12
425.846	93.12
426.068	92.12
426.291	88.12
426.513	92.12
426.735	93.12
426.958	89.12
427.18	96.12
427.402	125.12
427.625	126.12
427.847	108.12
428.069	83.12
428.292	88.12
428.514	77.12
428.736	82.12
428.958	92.12
429.181	84.12
429.403	90.12
429.625	71.12
429.847	96.12
430.069	92.12
430.292	89.12
430.514	94.12
430.736	89.12
430.958	105.12
431.18	83.12
431.402	99.12
431.624	67.12
431.846	91.12
432.068	85.12
432.29	85.12
432.512	83.12
432.734	93.12
432.956	90.12
433.178	101.12
433.4	91.12
433.622	89.12
433.844	87.12
434.066	100.12
434.287	97.12
434.509	79.12
434.731	94.12
434.953	82.12
435.175	83.12
435.397	83.12
435.618	82.12
435.84	100.12
436.062	123.12
436.284	105.12
436.505	84.12
436.727	100.12
436.949	77.12
437.17	88.12
437.392	83.12
437.614	92.12
437.835	96.12
438.057	122.12
438.278	98.12
438.5	81.12
438.721	106.12
438.943	111.12
439.165	82.12
439.386	92.12
439.608	82.12
439.829	74.12
440.05	114.12
440.272	119.12
440.493	87.12
440.715	97.12
440.936	86.12
441.158	87.12
441.379	77.12
441.6	86.12
441.822	100.12
442.043	92.12
442.264	104.12
442.486	98.12
442.707	89.12
442.928	93.12
443.149	87.12
443.371	97.12
443.592	104.12
443.813	98.12
444.034	105.12
444.255	94.12
444.476	77.12
444.698	89.12
444.919	85.12
445.14	131.12
445.361	102.12
445.582	96.12
445.803	119.12
446.024	112.12
446.245	108.12
446.466	83.12
446.687	78.12
446.908	83.12
447.129	91.12
447.35	69.12
447.571	84.12
447.792	91.12
448.013	83.12
448.234	105.12
448.455	90.12
448.675	94.12
448.896	104.12
449.117	94.12
449.338	91.12
449.559	124.12
449.779	110.12
450	91.12
450.221	95.12
450.442	85.12
450.662	95.12
450.883	88.12
451.104	91.12
451.324	80.12
451.545	86.12
451.766	71.12
451.986	68.12
452.207	81.12
452.428	93.12
452.648	99.12
452.869	102.12
453.089	108.12
453.31	100.12
453.53	81.12
453.751	74.12
453.971	90.12
454.192	98.12
454.412	95.12
454.633	84.12
454.853	81.12
455.073	76.12
455.294	86.12
455.514	80.12
455.734	85.12
455.955	90.12
456.175	92.12
456.395	80.12
456.616	77.12
456.836	86.12
457.056	96.12
457.276	78.12
457.497	70.12
457.717	67.12
457.937	68.12
458.157	93.12
458.377	90.12
458.598	90.12
458.818	120.12
459.038	130.12
459.258	96.12
459.478	77.12
459.698	81.12
459.918	96.12
460.138	88.12
460.358	87.12
460.578	90.12
460.798	82.12
461.018	77.12
461.238	73.12
461.458	85.12
461.678	92.12
461.898	72.12
462.118	85.12
462.338	83.12
462.558	65.12
462.777	82.12
462.997	63.12
463.217	88.12
463.437	70.12
463.657	80.12
463.876	90.12
464.096	91.12
464.316	76.12
464.536	81.12
464.755	90.12
464.975	106.12
465.195	125.12
465.414	130.12
465.634	98.12
465.854	83.12
466.073	85.12
466.293	95.12
466.512	75.12
466.732	81.12
466.951	89.12
467.171	97.12
467.391	85.12
467.61	78.12
467.829	98.12
468.049	96.12
468.268	95.12
468.488	62.12
468.707	100.12
468.927	107.12
469.146	73.12
469.365	102.12
469.585	84.12
469.804	94.12
470.023	93.12
470.243	105.12
470.462	92.12
470.681	103.12
470.901	93.12
471.12	74.12
471.339	82.12
471.558	78.12
471.777	86.12
471.997	101.12
472.216	108.12
472.435	124.12
472.654	98.12
472.873	82.12
473.092	90.12
473.311	80.12
473.53	75.12
473.749	74.12
473.968	83.12
474.187	98.12
474.406	84.12
474.625	78.12
474.844	94.12
475.063	86.12
475.282	103.12
475.501	91.12
475.72	89.12
475.939	79.12
476.158	97.12
476.377	82.12
476.596	63.12
476.814	89.12
477.033	85.12
477.252	84.12
477.471	71.12
477.69	80.12
477.908	88.12
478.127	96.12
478.346	75.12
478.564	94.12
478.783	98.12
479.002	101.12
479.22	80.12
479.439	90.12
479.658	99.12
479.876	86.12
480.095	77.12
480.313	83.12
480.532	79.12
480.751	81.12
480.969	95.12
481.188	176.12
481.406	151.12
481.624	94.12
481.843	77.12
482.061	80.12
482.28	78.12
482.498	88.12
482.717	96.12
482.935	80.12
483.153	95.12
483.372	84.12
483.59	80.12
483.808	90.12
484.027	93.12
484.245	69.12
484.463	94.12
484.681	93.12
484.9	99.12
485.118	84.12
485.336	94.12
485.554	104.12
485.772	97.12
485.99	97.12
486.209	101.12
486.427	97.12
486.645	103.12
486.863	109.12
487.081	100.12
487.299	100.12
487.517	98.12
487.735	97.12
487.953	93.12
488.171	88.12
488.389	88.12
488.607	92.12
488.825	101.12
489.043	88.12
489.261	84.12
489.479	90.12
489.696	93.12
489.914	92.12
490.132	76.12
490.35	96.12
490.568	92.12
490.786	98.12
491.003	91.12
491.221	97.12
491.439	77.12
491.657	91.12
491.874	92.12
492.092	96.12
492.31	89.12
492.527	94.12
492.745	96.12
492.963	94.12
493.18	98.12
493.398	103.12
493.615	100.12
493.833	94.12
494.05	88.12
494.268	102.12
494.485	111.12
494.703	71.12
494.92	79.12
495.138	94.12
495.355	69.12
495.573	88.12
495.79	90.12
496.008	91.12
496.225	93.12
496.442	84.12
496.66	101.12
496.877	85.12
497.094	83.12
497.312	85.12
497.529	89.12
497.746	79.12
497.963	75.12
498.181	88.12
498.398	95.12
498.615	101.12
498.832	89.12
499.049	87.12
499.267	107.12
499.484	85.12
499.701	100.12
499.918	98.12
500.135	92.12
500.352	90.12
500.569	86.12
500.786	98.12
501.003	83.12
501.22	84.12
501.437	73.12
501.654	94.12
501.871	89.12
502.088	75.12
502.305	96.12
502.522	98.12
502.739	75.12
502.956	79.12
503.172	86.12
503.389	88.12
503.606	100.12
503.823	85.12
504.04	84.12
504.256	91.12
504.473	89.12
504.69	87.12
504.907	93.12
505.123	93.12
505.34	90.12
505.557	88.12
505.773	97.12
505.99	86.12
506.207	101.12
506.423	94.12
506.64	78.12
506.856	89.12
507.073	92.12
507.289	93.12
507.506	81.12
507.722	100.12
507.939	99.12
508.155	87.12
508.372	90.12
508.588	101.12
508.805	103.12
509.021	101.12
509.238	86.12
509.454	79.12
509.67	108.12
509.887	96.12
510.103	116.12
510.319	158.12
510.536	532.12
510.752	1701.12
510.968	474.12
511.184	130.12
511.401	94.12
511.617	88.12
511.833	88.12
512.049	89.12
512.265	77.12
512.481	84.12
512.698	85.12
512.914	104.12
513.13	86.12
513.346	91.12
513.562	84.12
513.778	82.12
513.994	82.12
514.21	96.12
514.426	108.12
514.642	86.12
514.858	105.12
515.074	126.12
515.29	330.12
515.506	996.12
515.721	378.12
515.937	121.12
516.153	104.12
516.369	101.12
516.585	86.12
516.801	81.12
517.016	92.12
517.232	84.12
517.448	81.12
517.664	85.12
517.879	94.12
518.095	90.12
518.311	101.12
518.527	89.12
518.742	95.12
518.958	80.12
519.173	98.12
519.389	71.12
519.605	90.12
519.82	98.12
520.036	102.12
520.251	112.12
520.467	92.12
520.682	100.12
520.898	80.12
521.113	98.12
521.329	121.12
521.544	166.12
521.76	377.12
521.975	1548.12
522.19	944.12
522.406	219.12
522.621	96.12
522.836	89.12
523.052	90.12
523.267	99.12
523.482	91.12
523.698	98.12
523.913	115.12
524.128	96.12
524.343	103.12
524.559	93.12
524.774	107.12
524.989	85.12
525.204	100.12
525.419	93.12
525.634	90.12
525.849	84.12
526.064	86.12
526.28	77.12
526.495	93.12
526.71	92.12
526.925	89.12
527.14	97.12
527.355	86.12
527.57	86.12
527.785	85.12
527.999	81.12
528.214	87.12
528.429	79.12
528.644	76.12
528.859	85.12
529.074	104.12
529.289	110.12
529.503	144.12
529.718	120.12
529.933	86.12
530.148	89.12
530.363	87.12
530.577	88.12
530.792	83.12
531.007	90.12
531.221	89.12
531.436	96.12
531.651	95.12
531.865	81.12
532.08	81.12
532.295	88.12
532.509	96.12
532.724	83.12
532.938	86.12
533.153	89.12
533.367	80.12
533.582	93.12
533.796	85.12
534.011	84.12
534.225	92.12
534.44	89.12
534.654	89.12
534.868	77.12
535.083	86.12
535.297	94.12
535.511	86.12
535.726	101.12
535.94	86.12
536.154	82.12
536.369	75.12
536.583	78.12
536.797	89.12
537.011	76.12
537.225	84.12
537.44	87.12
537.654	97.12
537.868	88.12
538.082	86.12
538.296	80.12
538.51	69.12
538.724	91.12
538.938	87.12
539.153	91.12
539.367	83.12
539.581	81.12
539.795	88.12
540.009	69.12
540.222	92.12
540.436	88.12
540.65	94.12
540.864	75.12
541.078	88.12
541.292	92.12
541.506	87.12
541.72	92.12
541.934	86.12
542.147	93.12
542.361	97.12
542.575	82.12
542.789	75.12
543.002	92.12
543.216	82.12
543.43	80.12
543.644	85.12
543.857	92.12
544.071	94.12
544.285	107.12
544.498	84.12
544.712	82.12
544.925	82.12
545.139	80.12
545.352	92.12
545.566	95.12
545.779	88.12
545.993	96.12
546.206	84.12
546.42	99.12
546.633	97.12
546.847	94.12
547.06	75.12
547.274	86.12
547.487	82.12
547.7	83.12
547.914	84.12
548.127	87.12
548.34	85.12
548.554	72.12
548.767	78.12
548.98	91.12
549.193	101.12
549.407	92.12
549.62	75.12
549.833	83.12
550.046	92.12
550.259	85.12
550.473	99.12
550.686	84.12
550.899	87.12
551.112	94.12
551.325	73.12
551.538	80.12
551.751	80.12
551.964	88.12
552.177	85.12
552.39	77.12
552.603	82.12
552.816	78.12
553.029	98.12
553.242	72.12
553.455	90.12
553.667	94.12
553.88	93.12
554.093	86.12
554.306	70.12
554.519	94.12
554.732	93.12
554.944	83.12
555.157	84.12
555.37	93.12
555.583	90.12
555.795	85.12
556.008	93.12
556.221	85.12
556.433	96.12
556.646	91.12
556.859	73.12
557.071	98.12
557.284	80.12
557.496	88.12
557.709	82.12
557.921	88.12
558.134	85.12
558.346	84.12
558.559	82.12
558.771	87.12
558.984	89.12
559.196	98.12
559.409	78.12
559.621	92.12
559.833	75.12
560.046	82.12
560.258	80.12
560.47	99.12
560.683	79.12
560.895	80.12
561.107	84.12
561.32	99.12
561.532	83.12
561.744	95.12
561.956	80.12
562.168	96.12
562.381	83.12
562.593	90.12
562.805	72.12
563.017	88.12
563.229	88.12
563.441	100.12
563.653	93.12
563.865	70.12
564.077	80.12
564.289	93.12
564.501	90.12
564.713	82.12
564.925	93.12
565.137	84.12
565.349	100.12
565.561	89.12
565.773	68.12
565.985	74.12
566.197	88.12
566.408	97.12
566.62	81.12
566.832	96.12
567.044	76.12
567.255	100.12
567.467	99.12
567.679	76.12
567.891	84.12
568.102	82.12
568.314	75.12
568.526	75.12
568.737	102.12
568.949	94.12
569.161	73.12
569.372	98.12
569.584	88.12
569.795	93.12
570.007	96.12
570.218	194.12
570.43	121.12
570.641	96.12
570.853	99.12
571.064	83.12
571.276	89.12
571.487	72.12
571.698	81.12
571.91	85.12
572.121	96.12
572.333	86.12
572.544	90.12
572.755	88.12
572.966	76.12
573.178	80.12
573.389	78.12
573.6	90.12
573.811	83.12
574.023	93.12
574.234	87.12
574.445	100.12
574.656	85.12
574.867	85.12
575.078	94.12
575.289	94.12
575.501	82.12
575.712	94.12
575.923	104.12
576.134	85.12
576.345	91.12
576.556	91.12
576.767	93.12
576.978	80.12
577.188	92.12
577.399	98.12
577.61	90.12
577.821	80.12
578.032	96.12
578.243	200.12
578.454	523.12
578.665	164.12
578.875	96.12
579.086	93.12
579.297	84.12
579.508	104.12
579.718	92.12
579.929	88.12
580.14	93.12
580.35	89.12
580.561	81.12
580.772	85.12
580.982	75.12
581.193	88.12
581.403	86.12
581.614	92.12
581.825	77.12
582.035	96.12
582.246	92.12
582.456	77.12
582.667	74.12
582.877	81.12
583.087	80.12
583.298	94.12
583.508	93.12
583.719	76.12
583.929	99.12
584.139	90.12
584.35	75.12
584.56	83.12
584.77	88.12
584.981	88.12
585.191	91.12
585.401	75.12
585.611	76.12
585.821	79.12
586.032	80.12
586.242	71.12
586.452	81.12
586.662	81.12
586.872	81.12
587.082	82.12
587.292	80.12
587.502	84.12
587.713	75.12
587.923	77.12
588.133	73.12
588.343	83.12
588.553	90.12
588.762	99.12
588.972	92.12
589.182	131.12
589.392	100.12
589.602	104.12
589.812	113.12
590.022	94.12
590.232	81.12
590.441	75.12
590.651	90.12
590.861	77.12
591.071	84.12
591.281	86.12
591.49	68.12
591.7	89.12
591.91	91.12
592.119	81.12
592.329	82.12
592.539	88.12
592.748	77.12
592.958	101.12
593.167	87.12
593.377	84.12
593.587	91.12
593.796	84.12
594.006	72.12
594.215	78.12
594.424	85.12
594.634	79.12
594.843	97.12
595.053	77.12
595.262	72.12
595.472	82.12
595.681	86.12
595.89	87.12
596.1	88.12
596.309	108.12
596.518	78.12
596.727	82.12
596.937	76.12
597.146	77.12
597.355	90.12
597.564	102.12
597.774	86.12
597.983	68.12
598.192	70.12
598.401	82.12
598.61	88.12
598.819	92.12
599.028	75.12
599.237	92.12
599.446	85.12
599.655	88.12
599.864	83.12
600.073	87.12
600.282	86.12
600.491	101.12
600.7	96.12
600.909	83.12
601.118	78.12
601.327	88.12
601.536	84.12
601.745	80.12
601.953	96.12
602.162	82.12
602.371	76.12
602.58	84.12
602.789	76.12
602.997	88.12
603.206	92.12
603.415	75.12
603.623	86.12
603.832	98.12
604.041	84.12
604.249	78.12
604.458	82.12
604.666	82.12
604.875	76.12
605.084	73.12
605.292	83.12
605.501	82.12
605.709	80.12
605.918	83.12
606.126	98.12
606.334	82.12
606.543	77.12
606.751	74.12
606.96	77.12
607.168	101.12
607.376	90.12
607.585	84.12
607.793	82.12
608.001	87.12
608.21	74.12
608.418	80.12
608.626	91.12
608.834	91.12
609.043	85.12
609.251	88.12
609.459	81.12
609.667	89.12
609.875	81.12
610.083	71.12
610.291	72.12
610.499	100.12
610.707	84.12
610.916	77.12
611.124	82.12
611.332	82.12
611.54	82.12
611.748	81.12
611.955	78.12
612.163	71.12
612.371	94.12
612.579	92.12
612.787	69.12
612.995	89.12
613.203	81.12
613.411	74.12
613.618	84.12
613.826	84.12
614.034	77.12
614.242	95.12
614.449	93.12
614.657	94.12
614.865	73.12
615.072	92.12
615.28	84.12
615.488	90.12
615.695	99.12
615.903	93.12
616.111	92.12
616.318	102.12
616.526	100.12
616.733	82.12
616.941	88.12
617.148	91.12
617.356	90.12
617.563	97.12
617.771	87.12
617.978	94.12
618.185	80.12
618.393	84.12
618.6	78.12
618.807	87.12
619.015	94.12
619.222	77.12
619.429	87.12
619.637	82.12
619.844	78.12
620.051	90.12
620.258	92.12
620.466	78.12
620.673	89.12
620.88	82.12
621.087	77.12
621.294	76.12
621.501	86.12
621.708	88.12
621.915	81.12
622.122	88.12
622.329	71.12
622.536	93.12
622.743	92.12
622.95	90.12
623.157	98.12
623.364	81.12
623.571	92.12
623.778	74.12
623.985	86.12
624.192	89.12
624.399	101.12
624.606	81.12
624.812	78.12
625.019	75.12
625.226	74.12
625.433	78.12
625.639	77.12
625.846	81.12
626.053	94.12
626.259	86.12
626.466	81.12
626.673	67.12
626.879	83.12
627.086	96.12
627.293	69.12
627.499	75.12
627.706	87.12
627.912	82.12
628.119	73.12
628.325	93.12
628.532	78.12
628.738	80.12
628.945	77.12
629.151	92.12
629.357	91.12
629.564	90.12
629.77	78.12
629.976	85.12
630.183	89.12
630.389	91.12
630.595	90.12
630.802	82.12
631.008	89.12
631.214	76.12
631.42	75.12
631.627	72.12
631.833	77.12
632.039	81.12
632.245	53.12
632.451	77.12
632.657	69.12
632.863	69.12
633.069	84.12
633.275	88.12
633.481	71.12
633.688	81.12
633.893	81.12
634.099	63.12
634.305	88.12
634.511	97.12
634.717	88.12
634.923	84.12
635.129	66.12
635.335	76.12
635.541	82.12
635.747	68.12
635.952	74.12
636.158	92.12
636.364	89.12
636.57	87.12
636.775	94.12
636.981	93.12
637.187	83.12
637.392	72.12
637.598	85.12
637.804	85.12
638.009	89.12
638.215	81.12
638.421	79.12
638.626	76.12
638.832	76.12
639.037	79.12
639.243	77.12
639.448	81.12
639.654	93.12
639.859	76.12
640.065	82.12
640.27	90.12
640.475	86.12
640.681	93.12
640.886	81.12
641.091	88.12
641.297	73.12
641.502	74.12
641.707	77.12
641.913	96.12
642.118	86.12
642.323	89.12
642.528	107.12
642.733	82.12
642.939	87.12
643.144	93.12
643.349	57.12
643.554	72.12
643.759	81.12
643.964	88.12
644.169	86.12
644.374	89.12
644.579	89.12
644.784	84.12
644.989	85.12
645.194	77.12
645.399	70.12
645.604	88.12
645.809	92.12
646.014	74.12
646.219	80.12
646.423	80.12
646.628	86.12
646.833	96.12
647.038	82.12
647.243	82.12
647.447	84.12
647.652	90.12
647.857	78.12
648.062	98.12
648.266	85.12
648.471	89.12
648.676	92.12
648.88	85.12
649.085	82.12
649.289	86.12
649.494	94.12
649.698	112.12
649.903	96.12
650.107	86.12
650.312	74.12
650.516	93.12
650.721	82.12
650.925	73.12
651.13	71.12
651.334	92.12
651.539	84.12
651.743	86.12
651.947	82.12
652.152	72.12
652.356	78.12
652.56	77.12
652.764	74.12
652.969	84.12
653.173	94.12
653.377	76.12
653.581	84.12
653.785	81.12
653.99	83.12
654.194	80.12
654.398	69.12
654.602	72.12
654.806	75.12
655.01	103.12
655.214	96.12
655.418	80.12
655.622	87.12
655.826	86.12
656.03	78.12
656.234	92.12
656.438	93.12
656.642	97.12
656.846	79.12
657.049	86.12
657.253	94.12
657.457	73.12
657.661	88.12
657.865	84.12
658.068	82.12
658.272	75.12
658.476	93.12
658.68	95.12
658.883	83.12
659.087	73.12
659.291	77.12
659.494	80.12
659.698	82.12
659.901	77.12
660.105	86.12
660.309	87.12
660.512	90.12
660.716	88.12
660.919	61.12
661.123	72.12
661.326	92.12
661.53	76.12
661.733	80.12
661.936	70.12
662.14	87.12
662.343	82.12
662.546	71.12
662.75	84.12
662.953	88.12
663.156	72.12
663.36	68.12
663.563	84.12
663.766	75.12
663.969	60.12
664.173	84.12
664.376	80.12
664.579	73.12
664.782	86.12
664.985	70.12
665.188	74.12
665.391	71.12
665.594	76.12
665.797	80.12
666	84.12
666.203	85.12
666.406	79.12
666.609	96.12
666.812	88.12
667.015	91.12
667.218	84.12
667.421	74.12
667.624	72.12
667.827	67.12
668.03	66.12
668.232	76.12
668.435	76.12
668.638	68.12
668.841	89.12
669.043	84.12
669.246	80.12
669.449	83.12
669.651	83.12
669.854	95.12
670.057	81.12
670.259	70.12
670.462	75.12
670.665	68.12
670.867	89.12
671.07	84.12
671.272	85.12
671.475	84.12
671.677	84.12
671.88	76.12
672.082	76.12
672.284	69.12
672.487	75.12
672.689	72.12
672.892	87.12
