Data from Circ_1980_H10_HRD10591_00035.txt Node
Date: Wed Jan 03 12:38:05 EST 2024
User: Yrep
Spectrometer: HR+D1059
Trigger mode: 1
Integration Time (sec): 1.000000E-1
Scans to average: 1
Electric dark correction enabled: true
Nonlinearity correction enabled: false
Boxcar width: 0
XAxis mode: Wavelengths
Number of Pixels in Spectrum: 2048
>>>>>Begin Spectral Data<<<<<
223.165	-19.69
223.4	-19.69
223.635	-19.69
223.869	-19.69
224.104	-10.69
224.338	-12.69
224.573	-11.69
224.808	-14.69
225.042	-6.69
225.277	-3.69
225.511	-8.69
225.746	10.31
225.98	-0.69
226.215	-9.69
226.449	21.31
226.683	20.31
226.918	32.31
227.152	34.31
227.387	27.31
227.621	34.31
227.856	45.31
228.09	41.31
228.324	50.31
228.559	59.31
228.793	52.31
229.027	59.31
229.262	59.31
229.496	64.31
229.73	68.31
229.964	81.31
230.199	62.31
230.433	61.31
230.667	77.31
230.901	76.31
231.136	80.31
231.37	64.31
231.604	90.31
231.838	75.31
232.072	71.31
232.306	80.31
232.541	95.31
232.775	79.31
233.009	79.31
233.243	73.31
233.477	70.31
233.711	81.31
233.945	81.31
234.179	83.31
234.413	82.31
234.647	91.31
234.881	92.31
235.115	86.31
235.349	85.31
235.583	79.31
235.817	64.31
236.051	74.31
236.285	83.31
236.519	88.31
236.753	79.31
236.987	72.31
237.221	79.31
237.455	87.31
237.689	72.31
237.922	69.31
238.156	83.31
238.39	79.31
238.624	72.31
238.858	76.31
239.091	73.31
239.325	83.31
239.559	91.31
239.793	74.31
240.027	62.31
240.26	57.31
240.494	70.31
240.728	66.31
240.961	71.31
241.195	73.31
241.429	74.31
241.662	70.31
241.896	75.31
242.13	79.31
242.363	64.31
242.597	71.31
242.83	81.31
243.064	68.31
243.298	79.31
243.531	74.31
243.765	90.31
243.998	77.31
244.232	74.31
244.465	84.31
244.699	84.31
244.932	79.31
245.166	71.31
245.399	63.31
245.633	74.31
245.866	71.31
246.099	67.31
246.333	83.31
246.566	79.31
246.8	70.31
247.033	72.31
247.266	75.31
247.5	75.31
247.733	64.31
247.966	63.31
248.2	61.31
248.433	83.31
248.666	87.31
248.899	89.31
249.133	72.31
249.366	102.31
249.599	76.31
249.832	85.31
250.066	61.31
250.299	69.31
250.532	84.31
250.765	77.31
250.998	83.31
251.231	79.31
251.465	69.31
251.698	74.31
251.931	75.31
252.164	95.31
252.397	75.31
252.63	87.31
252.863	83.31
253.096	74.31
253.329	89.31
253.562	82.31
253.795	74.31
254.028	81.31
254.261	86.31
254.494	63.31
254.727	83.31
254.96	90.31
255.193	91.31
255.426	76.31
255.659	80.31
255.892	86.31
256.124	88.31
256.357	69.31
256.59	85.31
256.823	73.31
257.056	83.31
257.289	65.31
257.521	82.31
257.754	65.31
257.987	88.31
258.22	81.31
258.452	74.31
258.685	85.31
258.918	82.31
259.151	88.31
259.383	78.31
259.616	65.31
259.849	85.31
260.081	79.31
260.314	87.31
260.547	85.31
260.779	70.31
261.012	89.31
261.244	81.31
261.477	80.31
261.71	83.31
261.942	105.31
262.175	106.31
262.407	91.31
262.64	69.31
262.872	74.31
263.105	69.31
263.337	85.31
263.57	87.31
263.802	83.31
264.035	79.31
264.267	76.31
264.499	67.31
264.732	81.31
264.964	85.31
265.197	90.31
265.429	74.31
265.661	89.31
265.894	69.31
266.126	87.31
266.358	63.31
266.591	88.31
266.823	95.31
267.055	80.31
267.287	89.31
267.52	66.31
267.752	92.31
267.984	73.31
268.216	66.31
268.448	79.31
268.681	73.31
268.913	91.31
269.145	89.31
269.377	83.31
269.609	73.31
269.841	87.31
270.073	74.31
270.306	85.31
270.538	87.31
270.77	87.31
271.002	96.31
271.234	93.31
271.466	80.31
271.698	84.31
271.93	81.31
272.162	87.31
272.394	80.31
272.626	83.31
272.858	75.31
273.09	82.31
273.322	79.31
273.553	84.31
273.785	94.31
274.017	70.31
274.249	67.31
274.481	81.31
274.713	95.31
274.945	87.31
275.176	85.31
275.408	91.31
275.64	90.31
275.872	87.31
276.104	89.31
276.335	93.31
276.567	97.31
276.799	88.31
277.031	85.31
277.262	84.31
277.494	88.31
277.726	85.31
277.957	91.31
278.189	76.31
278.421	83.31
278.652	76.31
278.884	83.31
279.115	92.31
279.347	91.31
279.579	89.31
279.81	76.31
280.042	84.31
280.273	68.31
280.505	94.31
280.736	87.31
280.968	89.31
281.199	93.31
281.431	76.31
281.662	79.31
281.894	85.31
282.125	89.31
282.356	104.31
282.588	120.31
282.819	101.31
283.051	89.31
283.282	95.31
283.513	93.31
283.745	69.31
283.976	79.31
284.207	99.31
284.439	73.31
284.67	87.31
284.901	93.31
285.132	86.31
285.364	82.31
285.595	85.31
285.826	89.31
286.057	85.31
286.288	74.31
286.52	80.31
286.751	89.31
286.982	90.31
287.213	80.31
287.444	76.31
287.675	73.31
287.906	74.31
288.138	78.31
288.369	83.31
288.6	82.31
288.831	84.31
289.062	87.31
289.293	79.31
289.524	82.31
289.755	81.31
289.986	83.31
290.217	95.31
290.448	71.31
290.679	75.31
290.91	88.31
291.141	92.31
291.371	78.31
291.602	83.31
291.833	83.31
292.064	90.31
292.295	91.31
292.526	74.31
292.757	70.31
292.987	84.31
293.218	95.31
293.449	89.31
293.68	87.31
293.91	96.31
294.141	80.31
294.372	82.31
294.603	97.31
294.833	84.31
295.064	77.31
295.295	88.31
295.525	89.31
295.756	99.31
295.987	113.31
296.217	111.31
296.448	107.31
296.679	79.31
296.909	95.31
297.14	74.31
297.37	75.31
297.601	106.31
297.831	91.31
298.062	82.31
298.292	95.31
298.523	86.31
298.753	93.31
298.984	69.31
299.214	95.31
299.445	93.31
299.675	83.31
299.905	94.31
300.136	90.31
300.366	83.31
300.597	66.31
300.827	86.31
301.057	97.31
301.288	101.31
301.518	85.31
301.748	98.31
301.979	101.31
302.209	100.31
302.439	88.31
302.669	91.31
302.9	95.31
303.13	81.31
303.36	89.31
303.59	96.31
303.82	109.31
304.051	97.31
304.281	82.31
304.511	91.31
304.741	100.31
304.971	72.31
305.201	89.31
305.431	91.31
305.661	100.31
305.891	95.31
306.121	103.31
306.352	89.31
306.582	86.31
306.812	77.31
307.042	78.31
307.272	85.31
307.502	95.31
307.731	93.31
307.961	92.31
308.191	90.31
308.421	91.31
308.651	91.31
308.881	90.31
309.111	78.31
309.341	92.31
309.571	89.31
309.8	94.31
310.03	100.31
310.26	91.31
310.49	96.31
310.72	100.31
310.949	92.31
311.179	85.31
311.409	92.31
311.639	76.31
311.868	82.31
312.098	91.31
312.328	92.31
312.557	102.31
312.787	89.31
313.017	87.31
313.246	91.31
313.476	91.31
313.706	83.31
313.935	104.31
314.165	101.31
314.394	92.31
314.624	89.31
314.853	90.31
315.083	92.31
315.312	97.31
315.542	68.31
315.771	91.31
316.001	104.31
316.23	102.31
316.46	102.31
316.689	73.31
316.919	77.31
317.148	82.31
317.377	91.31
317.607	89.31
317.836	93.31
318.065	87.31
318.295	88.31
318.524	93.31
318.753	88.31
318.983	81.31
319.212	87.31
319.441	93.31
319.67	101.31
319.9	93.31
320.129	99.31
320.358	105.31
320.587	87.31
320.816	95.31
321.046	99.31
321.275	80.31
321.504	102.31
321.733	87.31
321.962	93.31
322.191	99.31
322.42	93.31
322.649	105.31
322.878	112.31
323.108	98.31
323.337	116.31
323.566	99.31
323.795	130.31
324.024	163.31
324.253	319.31
324.482	656.31
324.71	1347.31
324.939	1752.31
325.168	646.31
325.397	198.31
325.626	130.31
325.855	119.31
326.084	115.31
326.313	112.31
326.542	142.31
326.77	195.31
326.999	380.31
327.228	759.31
327.457	1410.31
327.686	1095.31
327.914	311.31
328.143	170.31
328.372	143.31
328.6	128.31
328.829	105.31
329.058	104.31
329.287	124.31
329.515	91.31
329.744	85.31
329.972	116.31
330.201	111.31
330.43	117.31
330.658	113.31
330.887	111.31
331.115	106.31
331.344	91.31
331.572	88.31
331.801	77.31
332.03	95.31
332.258	87.31
332.486	90.31
332.715	96.31
332.943	76.31
333.172	97.31
333.4	89.31
333.629	89.31
333.857	104.31
334.085	98.31
334.314	104.31
334.542	120.31
334.771	122.31
334.999	102.31
335.227	89.31
335.455	92.31
335.684	72.31
335.912	99.31
336.14	105.31
336.369	92.31
336.597	88.31
336.825	89.31
337.053	89.31
337.281	91.31
337.51	74.31
337.738	91.31
337.966	73.31
338.194	91.31
338.422	95.31
338.65	85.31
338.878	88.31
339.106	97.31
339.334	91.31
339.562	98.31
339.79	86.31
340.018	100.31
340.246	99.31
340.474	91.31
340.702	90.31
340.93	86.31
341.158	91.31
341.386	95.31
341.614	94.31
341.842	85.31
342.07	76.31
342.298	91.31
342.526	93.31
342.754	89.31
342.981	81.31
343.209	77.31
343.437	92.31
343.665	85.31
343.893	87.31
344.12	106.31
344.348	91.31
344.576	92.31
344.804	85.31
345.031	96.31
345.259	100.31
345.487	89.31
345.714	92.31
345.942	85.31
346.17	91.31
346.397	102.31
346.625	83.31
346.853	87.31
347.08	83.31
347.308	94.31
347.535	92.31
347.763	91.31
347.99	92.31
348.218	106.31
348.445	97.31
348.673	99.31
348.9	75.31
349.128	91.31
349.355	94.31
349.583	101.31
349.81	97.31
350.037	93.31
350.265	86.31
350.492	73.31
350.72	91.31
350.947	95.31
351.174	95.31
351.402	104.31
351.629	93.31
351.856	101.31
352.083	93.31
352.311	100.31
352.538	100.31
352.765	111.31
352.992	105.31
353.22	94.31
353.447	105.31
353.674	101.31
353.901	99.31
354.128	97.31
354.355	104.31
354.583	105.31
354.81	108.31
355.037	95.31
355.264	89.31
355.491	88.31
355.718	92.31
355.945	88.31
356.172	92.31
356.399	90.31
356.626	92.31
356.853	77.31
357.08	95.31
357.307	87.31
357.534	91.31
357.761	101.31
357.988	103.31
358.215	92.31
358.441	84.31
358.668	93.31
358.895	88.31
359.122	90.31
359.349	90.31
359.576	88.31
359.802	89.31
360.029	100.31
360.256	103.31
360.483	103.31
360.709	87.31
360.936	83.31
361.163	88.31
361.39	92.31
361.616	91.31
361.843	87.31
362.07	81.31
362.296	82.31
362.523	95.31
362.749	97.31
362.976	81.31
363.203	85.31
363.429	93.31
363.656	91.31
363.882	86.31
364.109	100.31
364.335	91.31
364.562	103.31
364.788	95.31
365.015	90.31
365.241	94.31
365.468	95.31
365.694	98.31
365.92	72.31
366.147	85.31
366.373	91.31
366.599	90.31
366.826	76.31
367.052	85.31
367.278	81.31
367.505	100.31
367.731	93.31
367.957	85.31
368.184	84.31
368.41	95.31
368.636	98.31
368.862	108.31
369.089	114.31
369.315	89.31
369.541	94.31
369.767	75.31
369.993	89.31
370.219	87.31
370.445	75.31
370.672	97.31
370.898	79.31
371.124	85.31
371.35	83.31
371.576	95.31
371.802	83.31
372.028	79.31
372.254	82.31
372.48	89.31
372.706	92.31
372.932	80.31
373.158	87.31
373.384	73.31
373.61	94.31
373.835	102.31
374.061	93.31
374.287	87.31
374.513	86.31
374.739	93.31
374.965	88.31
375.191	80.31
375.416	84.31
375.642	89.31
375.868	84.31
376.094	88.31
376.319	89.31
376.545	83.31
376.771	96.31
376.997	92.31
377.222	88.31
377.448	101.31
377.674	81.31
377.899	102.31
378.125	87.31
378.35	84.31
378.576	72.31
378.802	76.31
379.027	90.31
379.253	91.31
379.478	83.31
379.704	85.31
379.929	97.31
380.155	103.31
380.38	83.31
380.606	88.31
380.831	98.31
381.057	94.31
381.282	90.31
381.507	103.31
381.733	90.31
381.958	97.31
382.184	98.31
382.409	122.31
382.634	95.31
382.86	104.31
383.085	97.31
383.31	85.31
383.535	96.31
383.761	96.31
383.986	89.31
384.211	97.31
384.436	88.31
384.662	98.31
384.887	107.31
385.112	101.31
385.337	105.31
385.562	93.31
385.787	102.31
386.013	102.31
386.238	92.31
386.463	101.31
386.688	108.31
386.913	111.31
387.138	102.31
387.363	113.31
387.588	103.31
387.813	96.31
388.038	108.31
388.263	120.31
388.488	114.31
388.713	92.31
388.938	97.31
389.163	90.31
389.387	90.31
389.612	96.31
389.837	84.31
390.062	99.31
390.287	91.31
390.512	76.31
390.736	100.31
390.961	93.31
391.186	87.31
391.411	91.31
391.636	91.31
391.86	87.31
392.085	76.31
392.31	81.31
392.534	79.31
392.759	93.31
392.984	85.31
393.208	89.31
393.433	85.31
393.658	85.31
393.882	91.31
394.107	74.31
394.331	80.31
394.556	87.31
394.78	93.31
395.005	96.31
395.229	90.31
395.454	82.31
395.678	76.31
395.903	91.31
396.127	94.31
396.352	91.31
396.576	97.31
396.801	85.31
397.025	90.31
397.249	90.31
397.474	79.31
397.698	87.31
397.922	99.31
398.147	88.31
398.371	83.31
398.595	87.31
398.82	91.31
399.044	83.31
399.268	69.31
399.492	76.31
399.717	84.31
399.941	95.31
400.165	85.31
400.389	80.31
400.613	85.31
400.837	96.31
401.062	72.31
401.286	69.31
401.51	70.31
401.734	95.31
401.958	89.31
402.182	116.31
402.406	124.31
402.63	103.31
402.854	82.31
403.078	85.31
403.302	84.31
403.526	87.31
403.75	89.31
403.974	90.31
404.198	83.31
404.422	88.31
404.645	77.31
404.869	94.31
405.093	90.31
405.317	93.31
405.541	93.31
405.765	81.31
405.988	95.31
406.212	147.31
406.436	183.31
406.66	130.31
406.883	95.31
407.107	81.31
407.331	87.31
407.555	77.31
407.778	79.31
408.002	91.31
408.226	77.31
408.449	89.31
408.673	96.31
408.896	92.31
409.12	85.31
409.344	91.31
409.567	91.31
409.791	87.31
410.014	77.31
410.238	89.31
410.461	81.31
410.685	82.31
410.908	86.31
411.132	81.31
411.355	87.31
411.578	83.31
411.802	90.31
412.025	92.31
412.249	94.31
412.472	97.31
412.695	100.31
412.919	79.31
413.142	98.31
413.365	88.31
413.589	91.31
413.812	106.31
414.035	83.31
414.258	97.31
414.482	92.31
414.705	90.31
414.928	81.31
415.151	84.31
415.374	98.31
415.597	91.31
415.821	86.31
416.044	83.31
416.267	95.31
416.49	71.31
416.713	79.31
416.936	79.31
417.159	86.31
417.382	88.31
417.605	80.31
417.828	83.31
418.051	75.31
418.274	85.31
418.497	80.31
418.72	95.31
418.943	88.31
419.166	90.31
419.389	90.31
419.611	94.31
419.834	81.31
420.057	91.31
420.28	95.31
420.503	76.31
420.726	79.31
420.948	85.31
421.171	74.31
421.394	89.31
421.617	82.31
421.839	97.31
422.062	83.31
422.285	95.31
422.507	93.31
422.73	98.31
422.953	95.31
423.175	98.31
423.398	87.31
423.621	77.31
423.843	70.31
424.066	81.31
424.288	90.31
424.511	94.31
424.733	83.31
424.956	86.31
425.178	79.31
425.401	67.31
425.623	89.31
425.846	89.31
426.068	87.31
426.291	93.31
426.513	73.31
426.735	94.31
426.958	84.31
427.18	84.31
427.402	101.31
427.625	133.31
427.847	99.31
428.069	97.31
428.292	63.31
428.514	84.31
428.736	74.31
428.958	71.31
429.181	88.31
429.403	81.31
429.625	75.31
429.847	95.31
430.069	108.31
430.292	96.31
430.514	84.31
430.736	86.31
430.958	87.31
431.18	87.31
431.402	84.31
431.624	77.31
431.846	85.31
432.068	87.31
432.29	89.31
432.512	88.31
432.734	92.31
432.956	97.31
433.178	92.31
433.4	86.31
433.622	81.31
433.844	83.31
434.066	88.31
434.287	83.31
434.509	77.31
434.731	91.31
434.953	84.31
435.175	83.31
435.397	84.31
435.618	92.31
435.84	86.31
436.062	103.31
436.284	111.31
436.505	88.31
436.727	95.31
436.949	77.31
437.17	80.31
437.392	73.31
437.614	95.31
437.835	87.31
438.057	90.31
438.278	97.31
438.5	89.31
438.721	102.31
438.943	102.31
439.165	85.31
439.386	72.31
439.608	92.31
439.829	92.31
440.05	94.31
440.272	139.31
440.493	103.31
440.715	91.31
440.936	97.31
441.158	67.31
441.379	68.31
441.6	83.31
441.822	101.31
442.043	83.31
442.264	98.31
442.486	91.31
442.707	98.31
442.928	97.31
443.149	111.31
443.371	124.31
443.592	99.31
443.813	93.31
444.034	97.31
444.255	84.31
444.476	97.31
444.698	91.31
444.919	92.31
445.14	127.31
445.361	125.31
445.582	107.31
445.803	105.31
446.024	129.31
446.245	117.31
446.466	115.31
446.687	94.31
446.908	85.31
447.129	77.31
447.35	95.31
447.571	85.31
447.792	100.31
448.013	85.31
448.234	92.31
448.455	89.31
448.675	93.31
448.896	94.31
449.117	107.31
449.338	89.31
449.559	107.31
449.779	126.31
450	91.31
450.221	79.31
450.442	93.31
450.662	95.31
450.883	105.31
451.104	96.31
451.324	91.31
451.545	75.31
451.766	101.31
451.986	91.31
452.207	81.31
452.428	84.31
452.648	94.31
452.869	91.31
453.089	107.31
453.31	89.31
453.53	87.31
453.751	89.31
453.971	79.31
454.192	87.31
454.412	83.31
454.633	79.31
454.853	82.31
455.073	84.31
455.294	84.31
455.514	92.31
455.734	90.31
455.955	88.31
456.175	80.31
456.395	86.31
456.616	76.31
456.836	85.31
457.056	88.31
457.276	87.31
457.497	76.31
457.717	72.31
457.937	82.31
458.157	81.31
458.377	84.31
458.598	92.31
458.818	114.31
459.038	132.31
459.258	93.31
459.478	95.31
459.698	91.31
459.918	81.31
460.138	85.31
460.358	101.31
460.578	81.31
460.798	82.31
461.018	99.31
461.238	83.31
461.458	77.31
461.678	87.31
461.898	99.31
462.118	86.31
462.338	87.31
462.558	87.31
462.777	85.31
462.997	80.31
463.217	99.31
463.437	77.31
463.657	77.31
463.876	85.31
464.096	86.31
464.316	79.31
464.536	92.31
464.755	88.31
464.975	88.31
465.195	130.31
465.414	124.31
465.634	90.31
465.854	85.31
466.073	79.31
466.293	75.31
466.512	71.31
466.732	82.31
466.951	80.31
467.171	94.31
467.391	81.31
467.61	93.31
467.829	95.31
468.049	98.31
468.268	91.31
468.488	79.31
468.707	97.31
468.927	74.31
469.146	77.31
469.365	89.31
469.585	93.31
469.804	115.31
470.023	89.31
470.243	94.31
470.462	95.31
470.681	103.31
470.901	81.31
471.12	73.31
471.339	83.31
471.558	82.31
471.777	91.31
471.997	96.31
472.216	113.31
472.435	135.31
472.654	93.31
472.873	104.31
473.092	76.31
473.311	91.31
473.53	100.31
473.749	92.31
473.968	84.31
474.187	94.31
474.406	91.31
474.625	61.31
474.844	85.31
475.063	85.31
475.282	76.31
475.501	65.31
475.72	92.31
475.939	85.31
476.158	68.31
476.377	87.31
476.596	73.31
476.814	82.31
477.033	83.31
477.252	73.31
477.471	95.31
477.69	95.31
477.908	92.31
478.127	84.31
478.346	77.31
478.564	83.31
478.783	85.31
479.002	88.31
479.22	86.31
479.439	87.31
479.658	91.31
479.876	81.31
480.095	80.31
480.313	84.31
480.532	89.31
480.751	82.31
480.969	117.31
481.188	185.31
481.406	137.31
481.624	87.31
481.843	93.31
482.061	89.31
482.28	90.31
482.498	84.31
482.717	79.31
482.935	90.31
483.153	96.31
483.372	88.31
483.59	87.31
483.808	85.31
484.027	91.31
484.245	88.31
484.463	98.31
484.681	105.31
484.9	80.31
485.118	81.31
485.336	97.31
485.554	88.31
485.772	101.31
485.99	115.31
486.209	120.31
486.427	102.31
486.645	112.31
486.863	114.31
487.081	103.31
487.299	103.31
487.517	81.31
487.735	82.31
487.953	83.31
488.171	96.31
488.389	91.31
488.607	85.31
488.825	107.31
489.043	89.31
489.261	107.31
489.479	72.31
489.696	72.31
489.914	90.31
490.132	95.31
490.35	88.31
490.568	94.31
490.786	87.31
491.003	79.31
491.221	102.31
491.439	99.31
491.657	94.31
491.874	88.31
492.092	89.31
492.31	92.31
492.527	82.31
492.745	92.31
492.963	84.31
493.18	79.31
493.398	89.31
493.615	114.31
493.833	95.31
494.05	77.31
494.268	102.31
494.485	104.31
494.703	112.31
494.92	84.31
495.138	77.31
495.355	87.31
495.573	82.31
495.79	77.31
496.008	82.31
496.225	95.31
496.442	81.31
496.66	99.31
496.877	76.31
497.094	79.31
497.312	84.31
497.529	87.31
497.746	87.31
497.963	98.31
498.181	88.31
498.398	101.31
498.615	117.31
498.832	89.31
499.049	95.31
499.267	97.31
499.484	90.31
499.701	83.31
499.918	88.31
500.135	91.31
500.352	92.31
500.569	88.31
500.786	89.31
501.003	75.31
501.22	91.31
501.437	89.31
501.654	95.31
501.871	95.31
502.088	70.31
502.305	92.31
502.522	83.31
502.739	92.31
502.956	81.31
503.172	91.31
503.389	97.31
503.606	98.31
503.823	72.31
504.04	85.31
504.256	101.31
504.473	103.31
504.69	85.31
504.907	99.31
505.123	97.31
505.34	85.31
505.557	78.31
505.773	97.31
505.99	84.31
506.207	85.31
506.423	89.31
506.64	85.31
506.856	68.31
507.073	91.31
507.289	98.31
507.506	99.31
507.722	97.31
507.939	99.31
508.155	71.31
508.372	73.31
508.588	100.31
508.805	80.31
509.021	90.31
509.238	91.31
509.454	89.31
509.67	109.31
509.887	110.31
510.103	123.31
510.319	169.31
510.536	584.31
510.752	1775.31
510.968	492.31
511.184	136.31
511.401	103.31
511.617	88.31
511.833	90.31
512.049	89.31
512.265	85.31
512.481	79.31
512.698	95.31
512.914	97.31
513.13	86.31
513.346	89.31
513.562	77.31
513.778	103.31
513.994	95.31
514.21	93.31
514.426	89.31
514.642	119.31
514.858	111.31
515.074	147.31
515.29	328.31
515.506	1046.31
515.721	389.31
515.937	145.31
516.153	111.31
516.369	72.31
516.585	103.31
516.801	84.31
517.016	98.31
517.232	76.31
517.448	91.31
517.664	87.31
517.879	85.31
518.095	68.31
518.311	94.31
518.527	81.31
518.742	99.31
518.958	92.31
519.173	93.31
519.389	97.31
519.605	97.31
519.82	82.31
520.036	100.31
520.251	106.31
520.467	104.31
520.682	99.31
520.898	97.31
521.113	101.31
521.329	117.31
521.544	172.31
521.76	405.31
521.975	1668.31
522.19	1007.31
522.406	213.31
522.621	102.31
522.836	93.31
523.052	93.31
523.267	84.31
523.482	95.31
523.698	87.31
523.913	120.31
524.128	95.31
524.343	87.31
524.559	79.31
524.774	81.31
524.989	84.31
525.204	101.31
525.419	99.31
525.634	88.31
525.849	84.31
526.064	87.31
526.28	87.31
526.495	98.31
526.71	82.31
526.925	89.31
527.14	72.31
527.355	88.31
527.57	81.31
527.785	91.31
527.999	93.31
528.214	101.31
528.429	93.31
528.644	95.31
528.859	91.31
529.074	92.31
529.289	113.31
529.503	159.31
529.718	107.31
529.933	82.31
530.148	86.31
530.363	94.31
530.577	99.31
530.792	96.31
531.007	82.31
531.221	75.31
531.436	94.31
531.651	86.31
531.865	92.31
532.08	92.31
532.295	93.31
532.509	93.31
532.724	107.31
532.938	79.31
533.153	93.31
533.367	89.31
533.582	97.31
533.796	92.31
534.011	85.31
534.225	93.31
534.44	88.31
534.654	86.31
534.868	83.31
535.083	95.31
535.297	93.31
535.511	99.31
535.726	101.31
535.94	92.31
536.154	75.31
536.369	91.31
536.583	94.31
536.797	87.31
537.011	85.31
537.225	74.31
537.44	99.31
537.654	95.31
537.868	96.31
538.082	84.31
538.296	84.31
538.51	85.31
538.724	95.31
538.938	74.31
539.153	86.31
539.367	85.31
539.581	91.31
539.795	88.31
540.009	82.31
540.222	99.31
540.436	92.31
540.65	82.31
540.864	79.31
541.078	92.31
541.292	105.31
541.506	89.31
541.72	72.31
541.934	78.31
542.147	85.31
542.361	92.31
542.575	91.31
542.789	76.31
543.002	83.31
543.216	84.31
543.43	92.31
543.644	90.31
543.857	106.31
544.071	104.31
544.285	98.31
544.498	87.31
544.712	83.31
544.925	82.31
545.139	95.31
545.352	86.31
545.566	96.31
545.779	103.31
545.993	84.31
546.206	68.31
546.42	73.31
546.633	88.31
546.847	103.31
547.06	87.31
547.274	88.31
547.487	99.31
547.7	86.31
547.914	93.31
548.127	87.31
548.34	96.31
548.554	83.31
548.767	80.31
548.98	92.31
549.193	68.31
549.407	95.31
549.62	101.31
549.833	83.31
550.046	82.31
550.259	88.31
550.473	83.31
550.686	95.31
550.899	71.31
551.112	71.31
551.325	94.31
551.538	90.31
551.751	75.31
551.964	84.31
552.177	73.31
552.39	94.31
552.603	85.31
552.816	84.31
553.029	97.31
553.242	74.31
553.455	97.31
553.667	99.31
553.88	93.31
554.093	93.31
554.306	87.31
554.519	98.31
554.732	91.31
554.944	92.31
555.157	90.31
555.37	89.31
555.583	95.31
555.795	88.31
556.008	76.31
556.221	81.31
556.433	91.31
556.646	76.31
556.859	92.31
557.071	92.31
557.284	93.31
557.496	91.31
557.709	91.31
557.921	97.31
558.134	73.31
558.346	92.31
558.559	90.31
558.771	103.31
558.984	92.31
559.196	101.31
559.409	87.31
559.621	80.31
559.833	98.31
560.046	83.31
560.258	85.31
560.47	85.31
560.683	86.31
560.895	85.31
561.107	97.31
561.32	91.31
561.532	98.31
561.744	92.31
561.956	95.31
562.168	91.31
562.381	97.31
562.593	88.31
562.805	89.31
563.017	90.31
563.229	80.31
563.441	88.31
563.653	69.31
563.865	72.31
564.077	89.31
564.289	114.31
564.501	89.31
564.713	76.31
564.925	85.31
565.137	102.31
565.349	85.31
565.561	80.31
565.773	84.31
565.985	86.31
566.197	79.31
566.408	82.31
566.62	72.31
566.832	81.31
567.044	81.31
567.255	78.31
567.467	77.31
567.679	82.31
567.891	77.31
568.102	91.31
568.314	85.31
568.526	90.31
568.737	86.31
568.949	84.31
569.161	83.31
569.372	84.31
569.584	79.31
569.795	87.31
570.007	107.31
570.218	199.31
570.43	125.31
570.641	94.31
570.853	91.31
571.064	86.31
571.276	87.31
571.487	95.31
571.698	87.31
571.91	87.31
572.121	84.31
572.333	89.31
572.544	84.31
572.755	86.31
572.966	89.31
573.178	99.31
573.389	80.31
573.6	70.31
573.811	88.31
574.023	89.31
574.234	86.31
574.445	88.31
574.656	96.31
574.867	97.31
575.078	90.31
575.289	98.31
575.501	76.31
575.712	83.31
575.923	73.31
576.134	80.31
576.345	91.31
576.556	87.31
576.767	81.31
576.978	99.31
577.188	69.31
577.399	75.31
577.61	92.31
577.821	93.31
578.032	102.31
578.243	215.31
578.454	551.31
578.665	167.31
578.875	93.31
579.086	99.31
579.297	82.31
579.508	82.31
579.718	92.31
579.929	83.31
580.14	81.31
580.35	93.31
580.561	83.31
580.772	79.31
580.982	83.31
581.193	80.31
581.403	79.31
581.614	77.31
581.825	89.31
582.035	69.31
582.246	97.31
582.456	81.31
582.667	83.31
582.877	101.31
583.087	90.31
583.298	82.31
583.508	93.31
583.719	80.31
583.929	90.31
584.139	95.31
584.35	84.31
584.56	76.31
584.77	66.31
584.981	75.31
585.191	78.31
585.401	91.31
585.611	81.31
585.821	76.31
586.032	93.31
586.242	77.31
586.452	91.31
586.662	91.31
586.872	79.31
587.082	87.31
587.292	84.31
587.502	71.31
587.713	90.31
587.923	79.31
588.133	88.31
588.343	85.31
588.553	84.31
588.762	92.31
588.972	82.31
589.182	139.31
589.392	103.31
589.602	101.31
589.812	122.31
590.022	90.31
590.232	88.31
590.441	84.31
590.651	87.31
590.861	83.31
591.071	80.31
591.281	83.31
591.49	73.31
591.7	81.31
591.91	80.31
592.119	83.31
592.329	82.31
592.539	99.31
592.748	83.31
592.958	90.31
593.167	86.31
593.377	80.31
593.587	88.31
593.796	90.31
594.006	87.31
594.215	73.31
594.424	90.31
594.634	89.31
594.843	79.31
595.053	85.31
595.262	79.31
595.472	93.31
595.681	91.31
595.89	83.31
596.1	77.31
596.309	85.31
596.518	84.31
596.727	88.31
596.937	98.31
597.146	93.31
597.355	90.31
597.564	87.31
597.774	79.31
597.983	86.31
598.192	79.31
598.401	100.31
598.61	89.31
598.819	97.31
599.028	83.31
599.237	84.31
599.446	91.31
599.655	100.31
599.864	72.31
600.073	92.31
600.282	75.31
600.491	86.31
600.7	79.31
600.909	88.31
601.118	82.31
601.327	73.31
601.536	87.31
601.745	86.31
601.953	76.31
602.162	89.31
602.371	83.31
602.58	79.31
602.789	93.31
602.997	76.31
603.206	83.31
603.415	85.31
603.623	89.31
603.832	83.31
604.041	89.31
604.249	82.31
604.458	80.31
604.666	83.31
604.875	95.31
605.084	105.31
605.292	79.31
605.501	67.31
605.709	90.31
605.918	75.31
606.126	88.31
606.334	81.31
606.543	92.31
606.751	91.31
606.96	85.31
607.168	69.31
607.376	97.31
607.585	86.31
607.793	88.31
608.001	90.31
608.21	99.31
608.418	75.31
608.626	64.31
608.834	71.31
609.043	99.31
609.251	90.31
609.459	77.31
609.667	85.31
609.875	93.31
610.083	75.31
610.291	71.31
610.499	85.31
610.707	72.31
610.916	93.31
611.124	78.31
611.332	84.31
611.54	91.31
611.748	87.31
611.955	80.31
612.163	79.31
612.371	85.31
612.579	83.31
612.787	83.31
612.995	90.31
613.203	80.31
613.411	87.31
613.618	81.31
613.826	87.31
614.034	72.31
614.242	87.31
614.449	91.31
614.657	83.31
614.865	73.31
615.072	75.31
615.28	81.31
615.488	79.31
615.695	86.31
615.903	109.31
616.111	104.31
616.318	91.31
616.526	102.31
616.733	96.31
616.941	92.31
617.148	89.31
617.356	89.31
617.563	77.31
617.771	81.31
617.978	81.31
618.185	89.31
618.393	89.31
618.6	92.31
618.807	75.31
619.015	77.31
619.222	79.31
619.429	75.31
619.637	82.31
619.844	87.31
620.051	84.31
620.258	79.31
620.466	92.31
620.673	83.31
620.88	78.31
621.087	89.31
621.294	99.31
621.501	81.31
621.708	79.31
621.915	84.31
622.122	90.31
622.329	96.31
622.536	80.31
622.743	98.31
622.95	68.31
623.157	100.31
623.364	102.31
623.571	93.31
623.778	81.31
623.985	81.31
624.192	81.31
624.399	93.31
624.606	94.31
624.812	74.31
625.019	73.31
625.226	61.31
625.433	92.31
625.639	81.31
625.846	77.31
626.053	99.31
626.259	87.31
626.466	76.31
626.673	77.31
626.879	82.31
627.086	85.31
627.293	90.31
627.499	92.31
627.706	86.31
627.912	81.31
628.119	69.31
628.325	86.31
628.532	83.31
628.738	70.31
628.945	85.31
629.151	79.31
629.357	74.31
629.564	67.31
629.77	76.31
629.976	84.31
630.183	80.31
630.389	93.31
630.595	83.31
630.802	87.31
631.008	83.31
631.214	79.31
631.42	87.31
631.627	88.31
631.833	75.31
632.039	71.31
632.245	74.31
632.451	77.31
632.657	88.31
632.863	82.31
633.069	88.31
633.275	75.31
633.481	84.31
633.688	88.31
633.893	85.31
634.099	80.31
634.305	75.31
634.511	68.31
634.717	85.31
634.923	79.31
635.129	85.31
635.335	83.31
635.541	82.31
635.747	88.31
635.952	72.31
636.158	83.31
636.364	87.31
636.57	77.31
636.775	75.31
636.981	74.31
637.187	89.31
637.392	76.31
637.598	88.31
637.804	88.31
638.009	87.31
638.215	83.31
638.421	94.31
638.626	72.31
638.832	86.31
639.037	75.31
639.243	77.31
639.448	81.31
639.654	87.31
639.859	85.31
640.065	75.31
640.27	91.31
640.475	90.31
640.681	86.31
640.886	92.31
641.091	100.31
641.297	89.31
641.502	75.31
641.707	101.31
641.913	74.31
642.118	76.31
642.323	81.31
642.528	75.31
642.733	75.31
642.939	81.31
643.144	68.31
643.349	84.31
643.554	99.31
643.759	75.31
643.964	77.31
644.169	83.31
644.374	92.31
644.579	81.31
644.784	83.31
644.989	91.31
645.194	96.31
645.399	83.31
645.604	77.31
645.809	99.31
646.014	82.31
646.219	76.31
646.423	83.31
646.628	64.31
646.833	87.31
647.038	82.31
647.243	75.31
647.447	81.31
647.652	80.31
647.857	74.31
648.062	87.31
648.266	94.31
648.471	95.31
648.676	90.31
648.88	88.31
649.085	91.31
649.289	90.31
649.494	99.31
649.698	112.31
649.903	84.31
650.107	83.31
650.312	95.31
650.516	87.31
650.721	81.31
650.925	83.31
651.13	68.31
651.334	86.31
651.539	81.31
651.743	71.31
651.947	79.31
652.152	85.31
652.356	76.31
652.56	77.31
652.764	77.31
652.969	75.31
653.173	76.31
653.377	84.31
653.581	70.31
653.785	77.31
653.99	92.31
654.194	83.31
654.398	85.31
654.602	74.31
654.806	95.31
655.01	91.31
655.214	99.31
655.418	74.31
655.622	68.31
655.826	90.31
656.03	88.31
656.234	100.31
656.438	93.31
656.642	85.31
656.846	86.31
657.049	87.31
657.253	76.31
657.457	85.31
657.661	89.31
657.865	88.31
658.068	85.31
658.272	80.31
658.476	75.31
658.68	70.31
658.883	71.31
659.087	68.31
659.291	75.31
659.494	79.31
659.698	79.31
659.901	87.31
660.105	68.31
660.309	51.31
660.512	72.31
660.716	69.31
660.919	72.31
661.123	81.31
661.326	80.31
661.53	80.31
661.733	84.31
661.936	94.31
662.14	89.31
662.343	101.31
662.546	76.31
662.75	83.31
662.953	84.31
663.156	59.31
663.36	87.31
663.563	81.31
663.766	90.31
663.969	84.31
664.173	83.31
664.376	86.31
664.579	89.31
664.782	81.31
664.985	76.31
665.188	67.31
665.391	81.31
665.594	72.31
665.797	69.31
666	76.31
666.203	91.31
666.406	80.31
666.609	71.31
666.812	80.31
667.015	87.31
667.218	71.31
667.421	85.31
667.624	91.31
667.827	67.31
668.03	87.31
668.232	85.31
668.435	89.31
668.638	80.31
668.841	80.31
669.043	83.31
669.246	80.31
669.449	84.31
669.651	75.31
669.854	79.31
670.057	56.31
670.259	75.31
670.462	84.31
670.665	72.31
670.867	73.31
671.07	77.31
671.272	89.31
671.475	73.31
671.677	81.31
671.88	56.31
672.082	68.31
672.284	98.31
672.487	77.31
672.689	71.31
672.892	85.31
