Data from Circ_1980_H10_HRD10591_00015.txt Node
Date: Wed Jan 03 12:38:01 EST 2024
User: Yrep
Spectrometer: HR+D1059
Trigger mode: 1
Integration Time (sec): 1.000000E-1
Scans to average: 1
Electric dark correction enabled: true
Nonlinearity correction enabled: false
Boxcar width: 0
XAxis mode: Wavelengths
Number of Pixels in Spectrum: 2048
>>>>>Begin Spectral Data<<<<<
223.165	2.38
223.4	2.38
223.635	2.38
223.869	-13.62
224.104	-16.62
224.338	-18.62
224.573	-32.62
224.808	-15.62
225.042	-12.62
225.277	3.38
225.511	1.38
225.746	17.38
225.98	12.38
226.215	-0.62
226.449	1.38
226.683	14.38
226.918	21.38
227.152	36.38
227.387	29.38
227.621	40.38
227.856	49.38
228.09	40.38
228.324	54.38
228.559	60.38
228.793	46.38
229.027	58.38
229.262	61.38
229.496	61.38
229.73	82.38
229.964	71.38
230.199	81.38
230.433	63.38
230.667	82.38
230.901	70.38
231.136	60.38
231.37	75.38
231.604	67.38
231.838	83.38
232.072	76.38
232.306	91.38
232.541	78.38
232.775	66.38
233.009	68.38
233.243	72.38
233.477	92.38
233.711	95.38
233.945	94.38
234.179	83.38
234.413	81.38
234.647	72.38
234.881	85.38
235.115	83.38
235.349	80.38
235.583	79.38
235.817	83.38
236.051	80.38
236.285	70.38
236.519	66.38
236.753	76.38
236.987	76.38
237.221	71.38
237.455	89.38
237.689	74.38
237.922	78.38
238.156	81.38
238.39	64.38
238.624	89.38
238.858	74.38
239.091	81.38
239.325	73.38
239.559	72.38
239.793	74.38
240.027	75.38
240.26	85.38
240.494	70.38
240.728	64.38
240.961	62.38
241.195	73.38
241.429	61.38
241.662	83.38
241.896	71.38
242.13	85.38
242.363	69.38
242.597	69.38
242.83	80.38
243.064	74.38
243.298	85.38
243.531	68.38
243.765	87.38
243.998	79.38
244.232	64.38
244.465	94.38
244.699	84.38
244.932	79.38
245.166	79.38
245.399	84.38
245.633	71.38
245.866	87.38
246.099	78.38
246.333	64.38
246.566	74.38
246.8	67.38
247.033	71.38
247.266	68.38
247.5	85.38
247.733	76.38
247.966	81.38
248.2	69.38
248.433	71.38
248.666	65.38
248.899	77.38
249.133	80.38
249.366	86.38
249.599	82.38
249.832	87.38
250.066	81.38
250.299	88.38
250.532	84.38
250.765	77.38
250.998	75.38
251.231	82.38
251.465	83.38
251.698	80.38
251.931	71.38
252.164	77.38
252.397	87.38
252.63	87.38
252.863	85.38
253.096	85.38
253.329	72.38
253.562	89.38
253.795	94.38
254.028	79.38
254.261	81.38
254.494	84.38
254.727	82.38
254.96	66.38
255.193	83.38
255.426	75.38
255.659	83.38
255.892	87.38
256.124	77.38
256.357	85.38
256.59	75.38
256.823	89.38
257.056	69.38
257.289	70.38
257.521	79.38
257.754	76.38
257.987	62.38
258.22	81.38
258.452	89.38
258.685	88.38
258.918	79.38
259.151	77.38
259.383	65.38
259.616	83.38
259.849	76.38
260.081	86.38
260.314	87.38
260.547	76.38
260.779	72.38
261.012	76.38
261.244	71.38
261.477	82.38
261.71	91.38
261.942	101.38
262.175	101.38
262.407	86.38
262.64	75.38
262.872	81.38
263.105	87.38
263.337	90.38
263.57	83.38
263.802	71.38
264.035	93.38
264.267	92.38
264.499	82.38
264.732	80.38
264.964	93.38
265.197	64.38
265.429	82.38
265.661	92.38
265.894	70.38
266.126	82.38
266.358	76.38
266.591	83.38
266.823	73.38
267.055	76.38
267.287	72.38
267.52	89.38
267.752	73.38
267.984	88.38
268.216	81.38
268.448	85.38
268.681	73.38
268.913	76.38
269.145	73.38
269.377	85.38
269.609	90.38
269.841	79.38
270.073	68.38
270.306	79.38
270.538	77.38
270.77	82.38
271.002	89.38
271.234	80.38
271.466	87.38
271.698	89.38
271.93	75.38
272.162	67.38
272.394	83.38
272.626	66.38
272.858	85.38
273.09	83.38
273.322	85.38
273.553	92.38
273.785	83.38
274.017	89.38
274.249	76.38
274.481	74.38
274.713	80.38
274.945	90.38
275.176	68.38
275.408	84.38
275.64	88.38
275.872	89.38
276.104	71.38
276.335	77.38
276.567	90.38
276.799	95.38
277.031	86.38
277.262	85.38
277.494	91.38
277.726	77.38
277.957	76.38
278.189	77.38
278.421	69.38
278.652	86.38
278.884	90.38
279.115	93.38
279.347	81.38
279.579	88.38
279.81	89.38
280.042	86.38
280.273	79.38
280.505	65.38
280.736	89.38
280.968	87.38
281.199	82.38
281.431	88.38
281.662	91.38
281.894	81.38
282.125	85.38
282.356	106.38
282.588	113.38
282.819	98.38
283.051	83.38
283.282	83.38
283.513	83.38
283.745	96.38
283.976	82.38
284.207	103.38
284.439	87.38
284.67	83.38
284.901	91.38
285.132	88.38
285.364	92.38
285.595	83.38
285.826	95.38
286.057	84.38
286.288	84.38
286.52	76.38
286.751	76.38
286.982	87.38
287.213	82.38
287.444	79.38
287.675	89.38
287.906	84.38
288.138	91.38
288.369	96.38
288.6	90.38
288.831	83.38
289.062	77.38
289.293	84.38
289.524	92.38
289.755	79.38
289.986	83.38
290.217	85.38
290.448	85.38
290.679	82.38
290.91	81.38
291.141	85.38
291.371	99.38
291.602	93.38
291.833	83.38
292.064	115.38
292.295	91.38
292.526	104.38
292.757	86.38
292.987	84.38
293.218	85.38
293.449	73.38
293.68	77.38
293.91	87.38
294.141	91.38
294.372	94.38
294.603	82.38
294.833	94.38
295.064	91.38
295.295	84.38
295.525	90.38
295.756	91.38
295.987	116.38
296.217	113.38
296.448	102.38
296.679	90.38
296.909	86.38
297.14	78.38
297.37	89.38
297.601	85.38
297.831	84.38
298.062	106.38
298.292	86.38
298.523	87.38
298.753	101.38
298.984	84.38
299.214	74.38
299.445	84.38
299.675	81.38
299.905	86.38
300.136	88.38
300.366	100.38
300.597	84.38
300.827	89.38
301.057	92.38
301.288	102.38
301.518	105.38
301.748	87.38
301.979	101.38
302.209	81.38
302.439	91.38
302.669	81.38
302.9	76.38
303.13	72.38
303.36	84.38
303.59	99.38
303.82	103.38
304.051	88.38
304.281	69.38
304.511	91.38
304.741	96.38
304.971	89.38
305.201	79.38
305.431	101.38
305.661	100.38
305.891	88.38
306.121	94.38
306.352	105.38
306.582	95.38
306.812	63.38
307.042	88.38
307.272	92.38
307.502	97.38
307.731	93.38
307.961	96.38
308.191	89.38
308.421	99.38
308.651	81.38
308.881	80.38
309.111	86.38
309.341	91.38
309.571	98.38
309.8	81.38
310.03	96.38
310.26	84.38
310.49	93.38
310.72	95.38
310.949	89.38
311.179	96.38
311.409	97.38
311.639	98.38
311.868	94.38
312.098	83.38
312.328	85.38
312.557	104.38
312.787	100.38
313.017	86.38
313.246	84.38
313.476	77.38
313.706	82.38
313.935	102.38
314.165	90.38
314.394	94.38
314.624	90.38
314.853	93.38
315.083	79.38
315.312	79.38
315.542	74.38
315.771	95.38
316.001	81.38
316.23	91.38
316.46	81.38
316.689	95.38
316.919	92.38
317.148	91.38
317.377	91.38
317.607	83.38
317.836	87.38
318.065	89.38
318.295	73.38
318.524	98.38
318.753	97.38
318.983	75.38
319.212	106.38
319.441	104.38
319.67	97.38
319.9	106.38
320.129	88.38
320.358	94.38
320.587	83.38
320.816	95.38
321.046	102.38
321.275	95.38
321.504	88.38
321.733	105.38
321.962	89.38
322.191	106.38
322.42	96.38
322.649	100.38
322.878	94.38
323.108	117.38
323.337	117.38
323.566	115.38
323.795	127.38
324.024	152.38
324.253	293.38
324.482	561.38
324.71	1125.38
324.939	1489.38
325.168	567.38
325.397	186.38
325.626	128.38
325.855	114.38
326.084	107.38
326.313	114.38
326.542	124.38
326.77	196.38
326.999	333.38
327.228	657.38
327.457	1189.38
327.686	939.38
327.914	291.38
328.143	147.38
328.372	136.38
328.6	110.38
328.829	104.38
329.058	93.38
329.287	104.38
329.515	107.38
329.744	104.38
329.972	100.38
330.201	110.38
330.43	126.38
330.658	111.38
330.887	137.38
331.115	91.38
331.344	87.38
331.572	101.38
331.801	102.38
332.03	86.38
332.258	99.38
332.486	93.38
332.715	79.38
332.943	97.38
333.172	100.38
333.4	90.38
333.629	93.38
333.857	98.38
334.085	93.38
334.314	108.38
334.542	120.38
334.771	115.38
334.999	104.38
335.227	100.38
335.455	95.38
335.684	97.38
335.912	98.38
336.14	97.38
336.369	92.38
336.597	98.38
336.825	103.38
337.053	89.38
337.281	91.38
337.51	98.38
337.738	90.38
337.966	103.38
338.194	108.38
338.422	87.38
338.65	97.38
338.878	122.38
339.106	89.38
339.334	89.38
339.562	72.38
339.79	92.38
340.018	93.38
340.246	101.38
340.474	88.38
340.702	85.38
340.93	84.38
341.158	73.38
341.386	85.38
341.614	94.38
341.842	89.38
342.07	83.38
342.298	86.38
342.526	84.38
342.754	89.38
342.981	82.38
343.209	85.38
343.437	92.38
343.665	89.38
343.893	81.38
344.12	89.38
344.348	85.38
344.576	85.38
344.804	84.38
345.031	82.38
345.259	101.38
345.487	87.38
345.714	87.38
345.942	91.38
346.17	74.38
346.397	99.38
346.625	104.38
346.853	77.38
347.08	88.38
347.308	79.38
347.535	88.38
347.763	99.38
347.99	97.38
348.218	102.38
348.445	96.38
348.673	98.38
348.9	90.38
349.128	88.38
349.355	82.38
349.583	83.38
349.81	91.38
350.037	97.38
350.265	81.38
350.492	93.38
350.72	102.38
350.947	93.38
351.174	100.38
351.402	109.38
351.629	96.38
351.856	99.38
352.083	109.38
352.311	103.38
352.538	90.38
352.765	105.38
352.992	101.38
353.22	89.38
353.447	94.38
353.674	102.38
353.901	94.38
354.128	87.38
354.355	100.38
354.583	100.38
354.81	96.38
355.037	86.38
355.264	84.38
355.491	93.38
355.718	95.38
355.945	89.38
356.172	98.38
356.399	83.38
356.626	100.38
356.853	101.38
357.08	83.38
357.307	82.38
357.534	90.38
357.761	77.38
357.988	87.38
358.215	91.38
358.441	105.38
358.668	98.38
358.895	85.38
359.122	87.38
359.349	72.38
359.576	70.38
359.802	93.38
360.029	91.38
360.256	104.38
360.483	94.38
360.709	75.38
360.936	93.38
361.163	101.38
361.39	80.38
361.616	75.38
361.843	88.38
362.07	85.38
362.296	83.38
362.523	103.38
362.749	93.38
362.976	89.38
363.203	74.38
363.429	87.38
363.656	77.38
363.882	79.38
364.109	100.38
364.335	87.38
364.562	92.38
364.788	91.38
365.015	90.38
365.241	88.38
365.468	99.38
365.694	91.38
365.92	88.38
366.147	80.38
366.373	96.38
366.599	82.38
366.826	79.38
367.052	88.38
367.278	92.38
367.505	88.38
367.731	86.38
367.957	83.38
368.184	92.38
368.41	91.38
368.636	86.38
368.862	116.38
369.089	99.38
369.315	100.38
369.541	100.38
369.767	93.38
369.993	95.38
370.219	97.38
370.445	88.38
370.672	82.38
370.898	70.38
371.124	76.38
371.35	74.38
371.576	73.38
371.802	65.38
372.028	84.38
372.254	103.38
372.48	94.38
372.706	81.38
372.932	83.38
373.158	83.38
373.384	91.38
373.61	91.38
373.835	96.38
374.061	73.38
374.287	93.38
374.513	96.38
374.739	92.38
374.965	87.38
375.191	95.38
375.416	88.38
375.642	80.38
375.868	92.38
376.094	99.38
376.319	80.38
376.545	82.38
376.771	104.38
376.997	83.38
377.222	97.38
377.448	107.38
377.674	92.38
377.899	95.38
378.125	95.38
378.35	90.38
378.576	91.38
378.802	87.38
379.027	93.38
379.253	79.38
379.478	89.38
379.704	90.38
379.929	83.38
380.155	89.38
380.38	97.38
380.606	95.38
380.831	95.38
381.057	107.38
381.282	89.38
381.507	92.38
381.733	99.38
381.958	90.38
382.184	99.38
382.409	99.38
382.634	88.38
382.86	99.38
383.085	93.38
383.31	109.38
383.535	107.38
383.761	101.38
383.986	107.38
384.211	107.38
384.436	101.38
384.662	115.38
384.887	105.38
385.112	119.38
385.337	112.38
385.562	93.38
385.787	101.38
386.013	122.38
386.238	109.38
386.463	116.38
386.688	123.38
386.913	113.38
387.138	107.38
387.363	102.38
387.588	97.38
387.813	87.38
388.038	105.38
388.263	143.38
388.488	117.38
388.713	95.38
388.938	97.38
389.163	85.38
389.387	95.38
389.612	86.38
389.837	95.38
390.062	87.38
390.287	95.38
390.512	93.38
390.736	77.38
390.961	85.38
391.186	97.38
391.411	98.38
391.636	99.38
391.86	83.38
392.085	93.38
392.31	91.38
392.534	97.38
392.759	85.38
392.984	69.38
393.208	84.38
393.433	92.38
393.658	85.38
393.882	84.38
394.107	83.38
394.331	85.38
394.556	90.38
394.78	90.38
395.005	79.38
395.229	75.38
395.454	87.38
395.678	86.38
395.903	89.38
396.127	81.38
396.352	86.38
396.576	85.38
396.801	84.38
397.025	77.38
397.249	87.38
397.474	83.38
397.698	83.38
397.922	91.38
398.147	82.38
398.371	96.38
398.595	84.38
398.82	93.38
399.044	60.38
399.268	84.38
399.492	73.38
399.717	95.38
399.941	96.38
400.165	98.38
400.389	82.38
400.613	103.38
400.837	86.38
401.062	82.38
401.286	93.38
401.51	88.38
401.734	90.38
401.958	80.38
402.182	115.38
402.406	131.38
402.63	85.38
402.854	97.38
403.078	88.38
403.302	79.38
403.526	71.38
403.75	85.38
403.974	70.38
404.198	83.38
404.422	77.38
404.645	88.38
404.869	77.38
405.093	91.38
405.317	93.38
405.541	103.38
405.765	99.38
405.988	99.38
406.212	127.38
406.436	171.38
406.66	109.38
406.883	97.38
407.107	83.38
407.331	92.38
407.555	88.38
407.778	93.38
408.002	80.38
408.226	92.38
408.449	91.38
408.673	95.38
408.896	93.38
409.12	86.38
409.344	102.38
409.567	84.38
409.791	95.38
410.014	76.38
410.238	104.38
410.461	103.38
410.685	105.38
410.908	100.38
411.132	94.38
411.355	92.38
411.578	97.38
411.802	89.38
412.025	84.38
412.249	90.38
412.472	85.38
412.695	90.38
412.919	91.38
413.142	91.38
413.365	91.38
413.589	84.38
413.812	72.38
414.035	95.38
414.258	92.38
414.482	85.38
414.705	65.38
414.928	93.38
415.151	87.38
415.374	85.38
415.597	91.38
415.821	85.38
416.044	94.38
416.267	83.38
416.49	97.38
416.713	89.38
416.936	85.38
417.159	77.38
417.382	80.38
417.605	91.38
417.828	88.38
418.051	96.38
418.274	95.38
418.497	93.38
418.72	87.38
418.943	89.38
419.166	88.38
419.389	75.38
419.611	95.38
419.834	92.38
420.057	74.38
420.28	87.38
420.503	85.38
420.726	84.38
420.948	89.38
421.171	86.38
421.394	91.38
421.617	97.38
421.839	80.38
422.062	93.38
422.285	96.38
422.507	76.38
422.73	83.38
422.953	97.38
423.175	84.38
423.398	98.38
423.621	92.38
423.843	93.38
424.066	95.38
424.288	98.38
424.511	101.38
424.733	87.38
424.956	84.38
425.178	100.38
425.401	99.38
425.623	99.38
425.846	74.38
426.068	99.38
426.291	81.38
426.513	103.38
426.735	95.38
426.958	85.38
427.18	101.38
427.402	110.38
427.625	119.38
427.847	105.38
428.069	95.38
428.292	87.38
428.514	81.38
428.736	74.38
428.958	93.38
429.181	77.38
429.403	71.38
429.625	74.38
429.847	93.38
430.069	96.38
430.292	89.38
430.514	68.38
430.736	81.38
430.958	79.38
431.18	78.38
431.402	80.38
431.624	85.38
431.846	74.38
432.068	88.38
432.29	76.38
432.512	84.38
432.734	102.38
432.956	92.38
433.178	91.38
433.4	98.38
433.622	98.38
433.844	103.38
434.066	83.38
434.287	71.38
434.509	89.38
434.731	74.38
434.953	83.38
435.175	98.38
435.397	92.38
435.618	74.38
435.84	91.38
436.062	85.38
436.284	88.38
436.505	86.38
436.727	91.38
436.949	101.38
437.17	82.38
437.392	74.38
437.614	77.38
437.835	92.38
438.057	92.38
438.278	104.38
438.5	91.38
438.721	109.38
438.943	96.38
439.165	78.38
439.386	91.38
439.608	86.38
439.829	96.38
440.05	108.38
440.272	117.38
440.493	92.38
440.715	76.38
440.936	90.38
441.158	98.38
441.379	106.38
441.6	100.38
441.822	87.38
442.043	96.38
442.264	91.38
442.486	105.38
442.707	80.38
442.928	107.38
443.149	101.38
443.371	120.38
443.592	83.38
443.813	85.38
444.034	84.38
444.255	88.38
444.476	76.38
444.698	91.38
444.919	90.38
445.14	131.38
445.361	105.38
445.582	111.38
445.803	117.38
446.024	97.38
446.245	119.38
446.466	109.38
446.687	92.38
446.908	88.38
447.129	87.38
447.35	90.38
447.571	90.38
447.792	91.38
448.013	104.38
448.234	99.38
448.455	92.38
448.675	103.38
448.896	111.38
449.117	98.38
449.338	97.38
449.559	102.38
449.779	118.38
450	93.38
450.221	66.38
450.442	85.38
450.662	98.38
450.883	95.38
451.104	93.38
451.324	87.38
451.545	91.38
451.766	78.38
451.986	84.38
452.207	94.38
452.428	76.38
452.648	99.38
452.869	113.38
453.089	87.38
453.31	79.38
453.53	96.38
453.751	92.38
453.971	92.38
454.192	76.38
454.412	89.38
454.633	93.38
454.853	82.38
455.073	75.38
455.294	91.38
455.514	97.38
455.734	89.38
455.955	84.38
456.175	76.38
456.395	82.38
456.616	85.38
456.836	86.38
457.056	87.38
457.276	77.38
457.497	103.38
457.717	80.38
457.937	93.38
458.157	81.38
458.377	103.38
458.598	99.38
458.818	106.38
459.038	111.38
459.258	101.38
459.478	68.38
459.698	85.38
459.918	73.38
460.138	95.38
460.358	79.38
460.578	84.38
460.798	80.38
461.018	81.38
461.238	90.38
461.458	71.38
461.678	80.38
461.898	84.38
462.118	67.38
462.338	82.38
462.558	89.38
462.777	87.38
462.997	91.38
463.217	92.38
463.437	83.38
463.657	84.38
463.876	88.38
464.096	77.38
464.316	76.38
464.536	67.38
464.755	82.38
464.975	90.38
465.195	131.38
465.414	119.38
465.634	93.38
465.854	90.38
466.073	85.38
466.293	85.38
466.512	69.38
466.732	82.38
466.951	103.38
467.171	93.38
467.391	82.38
467.61	98.38
467.829	91.38
468.049	87.38
468.268	102.38
468.488	102.38
468.707	95.38
468.927	84.38
469.146	75.38
469.365	89.38
469.585	77.38
469.804	85.38
470.023	90.38
470.243	89.38
470.462	87.38
470.681	106.38
470.901	95.38
471.12	62.38
471.339	67.38
471.558	71.38
471.777	80.38
471.997	95.38
472.216	104.38
472.435	139.38
472.654	93.38
472.873	67.38
473.092	78.38
473.311	74.38
473.53	82.38
473.749	86.38
473.968	95.38
474.187	103.38
474.406	80.38
474.625	88.38
474.844	81.38
475.063	74.38
475.282	75.38
475.501	93.38
475.72	97.38
475.939	88.38
476.158	80.38
476.377	82.38
476.596	92.38
476.814	83.38
477.033	93.38
477.252	85.38
477.471	79.38
477.69	85.38
477.908	86.38
478.127	82.38
478.346	95.38
478.564	83.38
478.783	84.38
479.002	91.38
479.22	95.38
479.439	72.38
479.658	96.38
479.876	102.38
480.095	89.38
480.313	83.38
480.532	99.38
480.751	94.38
480.969	107.38
481.188	163.38
481.406	119.38
481.624	93.38
481.843	90.38
482.061	74.38
482.28	68.38
482.498	90.38
482.717	79.38
482.935	87.38
483.153	84.38
483.372	97.38
483.59	89.38
483.808	92.38
484.027	88.38
484.245	100.38
484.463	84.38
484.681	91.38
484.9	100.38
485.118	81.38
485.336	108.38
485.554	102.38
485.772	100.38
485.99	90.38
486.209	107.38
486.427	89.38
486.645	106.38
486.863	115.38
487.081	104.38
487.299	96.38
487.517	90.38
487.735	104.38
487.953	110.38
488.171	87.38
488.389	101.38
488.607	93.38
488.825	78.38
489.043	90.38
489.261	100.38
489.479	85.38
489.696	76.38
489.914	85.38
490.132	84.38
490.35	84.38
490.568	91.38
490.786	81.38
491.003	83.38
491.221	86.38
491.439	77.38
491.657	90.38
491.874	83.38
492.092	83.38
492.31	74.38
492.527	88.38
492.745	88.38
492.963	87.38
493.18	69.38
493.398	89.38
493.615	106.38
493.833	73.38
494.05	89.38
494.268	81.38
494.485	98.38
494.703	75.38
494.92	99.38
495.138	96.38
495.355	91.38
495.573	100.38
495.79	91.38
496.008	87.38
496.225	97.38
496.442	82.38
496.66	95.38
496.877	81.38
497.094	67.38
497.312	81.38
497.529	90.38
497.746	96.38
497.963	99.38
498.181	87.38
498.398	89.38
498.615	98.38
498.832	97.38
499.049	85.38
499.267	89.38
499.484	96.38
499.701	84.38
499.918	89.38
500.135	87.38
500.352	88.38
500.569	75.38
500.786	82.38
501.003	88.38
501.22	83.38
501.437	91.38
501.654	97.38
501.871	85.38
502.088	92.38
502.305	95.38
502.522	93.38
502.739	82.38
502.956	97.38
503.172	104.38
503.389	84.38
503.606	97.38
503.823	93.38
504.04	89.38
504.256	65.38
504.473	92.38
504.69	87.38
504.907	92.38
505.123	98.38
505.34	84.38
505.557	86.38
505.773	84.38
505.99	100.38
506.207	92.38
506.423	88.38
506.64	84.38
506.856	99.38
507.073	80.38
507.289	75.38
507.506	89.38
507.722	95.38
507.939	101.38
508.155	84.38
508.372	92.38
508.588	93.38
508.805	107.38
509.021	95.38
509.238	90.38
509.454	96.38
509.67	89.38
509.887	94.38
510.103	117.38
510.319	170.38
510.536	525.38
510.752	1561.38
510.968	458.38
511.184	134.38
511.401	117.38
511.617	99.38
511.833	96.38
512.049	99.38
512.265	89.38
512.481	91.38
512.698	83.38
512.914	75.38
513.13	89.38
513.346	89.38
513.562	92.38
513.778	83.38
513.994	79.38
514.21	89.38
514.426	111.38
514.642	113.38
514.858	110.38
515.074	124.38
515.29	311.38
515.506	881.38
515.721	348.38
515.937	141.38
516.153	108.38
516.369	86.38
516.585	96.38
516.801	82.38
517.016	91.38
517.232	93.38
517.448	94.38
517.664	97.38
517.879	105.38
518.095	84.38
518.311	94.38
518.527	104.38
518.742	95.38
518.958	89.38
519.173	95.38
519.389	95.38
519.605	82.38
519.82	89.38
520.036	104.38
520.251	95.38
520.467	119.38
520.682	95.38
520.898	99.38
521.113	105.38
521.329	113.38
521.544	140.38
521.76	355.38
521.975	1500.38
522.19	900.38
522.406	212.38
522.621	108.38
522.836	84.38
523.052	88.38
523.267	85.38
523.482	102.38
523.698	95.38
523.913	107.38
524.128	99.38
524.343	86.38
524.559	96.38
524.774	90.38
524.989	84.38
525.204	85.38
525.419	86.38
525.634	85.38
525.849	85.38
526.064	77.38
526.28	90.38
526.495	107.38
526.71	76.38
526.925	92.38
527.14	89.38
527.355	93.38
527.57	93.38
527.785	91.38
527.999	91.38
528.214	84.38
528.429	96.38
528.644	88.38
528.859	97.38
529.074	91.38
529.289	89.38
529.503	131.38
529.718	86.38
529.933	87.38
530.148	95.38
530.363	104.38
530.577	83.38
530.792	90.38
531.007	84.38
531.221	96.38
531.436	77.38
531.651	102.38
531.865	89.38
532.08	81.38
532.295	84.38
532.509	99.38
532.724	85.38
532.938	87.38
533.153	92.38
533.367	92.38
533.582	82.38
533.796	99.38
534.011	86.38
534.225	103.38
534.44	70.38
534.654	106.38
534.868	87.38
535.083	81.38
535.297	84.38
535.511	84.38
535.726	98.38
535.94	87.38
536.154	81.38
536.369	89.38
536.583	85.38
536.797	87.38
537.011	93.38
537.225	76.38
537.44	78.38
537.654	86.38
537.868	96.38
538.082	95.38
538.296	98.38
538.51	88.38
538.724	99.38
538.938	77.38
539.153	92.38
539.367	99.38
539.581	99.38
539.795	93.38
540.009	99.38
540.222	88.38
540.436	88.38
540.65	83.38
540.864	106.38
541.078	95.38
541.292	96.38
541.506	84.38
541.72	95.38
541.934	95.38
542.147	105.38
542.361	85.38
542.575	75.38
542.789	95.38
543.002	92.38
543.216	93.38
543.43	92.38
543.644	90.38
543.857	74.38
544.071	89.38
544.285	87.38
544.498	85.38
544.712	73.38
544.925	89.38
545.139	91.38
545.352	77.38
545.566	95.38
545.779	94.38
545.993	92.38
546.206	90.38
546.42	83.38
546.633	87.38
546.847	92.38
547.06	85.38
547.274	83.38
547.487	95.38
547.7	89.38
547.914	94.38
548.127	80.38
548.34	84.38
548.554	87.38
548.767	95.38
548.98	84.38
549.193	89.38
549.407	87.38
549.62	87.38
549.833	76.38
550.046	84.38
550.259	83.38
550.473	79.38
550.686	101.38
550.899	75.38
551.112	92.38
551.325	98.38
551.538	93.38
551.751	97.38
551.964	89.38
552.177	91.38
552.39	91.38
552.603	88.38
552.816	87.38
553.029	78.38
553.242	80.38
553.455	102.38
553.667	93.38
553.88	89.38
554.093	84.38
554.306	83.38
554.519	89.38
554.732	95.38
554.944	86.38
555.157	89.38
555.37	105.38
555.583	88.38
555.795	98.38
556.008	75.38
556.221	85.38
556.433	91.38
556.646	90.38
556.859	95.38
557.071	94.38
557.284	102.38
557.496	95.38
557.709	85.38
557.921	91.38
558.134	97.38
558.346	87.38
558.559	88.38
558.771	94.38
558.984	84.38
559.196	74.38
559.409	72.38
559.621	87.38
559.833	74.38
560.046	87.38
560.258	84.38
560.47	73.38
560.683	90.38
560.895	105.38
561.107	96.38
561.32	97.38
561.532	82.38
561.744	91.38
561.956	90.38
562.168	103.38
562.381	85.38
562.593	101.38
562.805	92.38
563.017	83.38
563.229	91.38
563.441	81.38
563.653	82.38
563.865	87.38
564.077	70.38
564.289	80.38
564.501	79.38
564.713	95.38
564.925	85.38
565.137	95.38
565.349	80.38
565.561	85.38
565.773	91.38
565.985	77.38
566.197	84.38
566.408	84.38
566.62	82.38
566.832	93.38
567.044	83.38
567.255	79.38
567.467	100.38
567.679	92.38
567.891	84.38
568.102	83.38
568.314	74.38
568.526	79.38
568.737	87.38
568.949	88.38
569.161	81.38
569.372	96.38
569.584	103.38
569.795	87.38
570.007	97.38
570.218	191.38
570.43	127.38
570.641	92.38
570.853	92.38
571.064	97.38
571.276	83.38
571.487	88.38
571.698	93.38
571.91	76.38
572.121	66.38
572.333	93.38
572.544	82.38
572.755	96.38
572.966	82.38
573.178	95.38
573.389	85.38
573.6	79.38
573.811	94.38
574.023	87.38
574.234	89.38
574.445	84.38
574.656	86.38
574.867	91.38
575.078	78.38
575.289	89.38
575.501	95.38
575.712	89.38
575.923	95.38
576.134	87.38
576.345	81.38
576.556	94.38
576.767	82.38
576.978	78.38
577.188	75.38
577.399	91.38
577.61	79.38
577.821	94.38
578.032	100.38
578.243	204.38
578.454	488.38
578.665	163.38
578.875	95.38
579.086	91.38
579.297	89.38
579.508	88.38
579.718	97.38
579.929	89.38
580.14	88.38
580.35	85.38
580.561	89.38
580.772	89.38
580.982	75.38
581.193	86.38
581.403	80.38
581.614	82.38
581.825	86.38
582.035	95.38
582.246	93.38
582.456	87.38
582.667	85.38
582.877	82.38
583.087	89.38
583.298	80.38
583.508	87.38
583.719	84.38
583.929	91.38
584.139	92.38
584.35	87.38
584.56	75.38
584.77	90.38
584.981	90.38
585.191	90.38
585.401	79.38
585.611	83.38
585.821	106.38
586.032	87.38
586.242	89.38
586.452	71.38
586.662	81.38
586.872	89.38
587.082	83.38
587.292	88.38
587.502	94.38
587.713	82.38
587.923	85.38
588.133	87.38
588.343	97.38
588.553	86.38
588.762	84.38
588.972	101.38
589.182	185.38
589.392	114.38
589.602	95.38
589.812	130.38
590.022	109.38
590.232	91.38
590.441	99.38
590.651	110.38
590.861	90.38
591.071	74.38
591.281	78.38
591.49	75.38
591.7	83.38
591.91	87.38
592.119	82.38
592.329	83.38
592.539	91.38
592.748	75.38
592.958	94.38
593.167	87.38
593.377	82.38
593.587	89.38
593.796	89.38
594.006	84.38
594.215	94.38
594.424	86.38
594.634	87.38
594.843	65.38
595.053	87.38
595.262	94.38
595.472	92.38
595.681	90.38
595.89	94.38
596.1	75.38
596.309	81.38
596.518	91.38
596.727	76.38
596.937	82.38
597.146	96.38
597.355	80.38
597.564	71.38
597.774	84.38
597.983	91.38
598.192	85.38
598.401	69.38
598.61	76.38
598.819	85.38
599.028	75.38
599.237	91.38
599.446	66.38
599.655	94.38
599.864	90.38
600.073	84.38
600.282	91.38
600.491	72.38
600.7	106.38
600.909	95.38
601.118	89.38
601.327	92.38
601.536	96.38
601.745	85.38
601.953	90.38
602.162	83.38
602.371	62.38
602.58	75.38
602.789	85.38
602.997	91.38
603.206	83.38
603.415	87.38
603.623	82.38
603.832	74.38
604.041	84.38
604.249	71.38
604.458	75.38
604.666	76.38
604.875	72.38
605.084	87.38
605.292	76.38
605.501	89.38
605.709	71.38
605.918	82.38
606.126	83.38
606.334	98.38
606.543	91.38
606.751	98.38
606.96	82.38
607.168	88.38
607.376	70.38
607.585	84.38
607.793	91.38
608.001	81.38
608.21	83.38
608.418	96.38
608.626	79.38
608.834	93.38
609.043	85.38
609.251	80.38
609.459	83.38
609.667	87.38
609.875	88.38
610.083	92.38
610.291	87.38
610.499	98.38
610.707	91.38
610.916	92.38
611.124	85.38
611.332	72.38
611.54	80.38
611.748	89.38
611.955	83.38
612.163	97.38
612.371	82.38
612.579	80.38
612.787	96.38
612.995	88.38
613.203	88.38
613.411	86.38
613.618	87.38
613.826	69.38
614.034	93.38
614.242	84.38
614.449	90.38
614.657	72.38
614.865	85.38
615.072	91.38
615.28	90.38
615.488	75.38
615.695	79.38
615.903	96.38
616.111	111.38
616.318	109.38
616.526	92.38
616.733	88.38
616.941	74.38
617.148	72.38
617.356	85.38
617.563	86.38
617.771	91.38
617.978	93.38
618.185	109.38
618.393	99.38
618.6	100.38
618.807	79.38
619.015	86.38
619.222	65.38
619.429	86.38
619.637	87.38
619.844	83.38
620.051	97.38
620.258	83.38
620.466	103.38
620.673	75.38
620.88	100.38
621.087	85.38
621.294	74.38
621.501	92.38
621.708	93.38
621.915	74.38
622.122	89.38
622.329	91.38
622.536	80.38
622.743	68.38
622.95	68.38
623.157	75.38
623.364	83.38
623.571	85.38
623.778	73.38
623.985	83.38
624.192	83.38
624.399	71.38
624.606	64.38
624.812	83.38
625.019	98.38
625.226	75.38
625.433	79.38
625.639	83.38
625.846	95.38
626.053	87.38
626.259	85.38
626.466	73.38
626.673	80.38
626.879	91.38
627.086	83.38
627.293	81.38
627.499	93.38
627.706	84.38
627.912	78.38
628.119	66.38
628.325	77.38
628.532	75.38
628.738	79.38
628.945	85.38
629.151	78.38
629.357	93.38
629.564	68.38
629.77	74.38
629.976	69.38
630.183	91.38
630.389	79.38
630.595	89.38
630.802	74.38
631.008	74.38
631.214	84.38
631.42	79.38
631.627	73.38
631.833	65.38
632.039	71.38
632.245	68.38
632.451	72.38
632.657	69.38
632.863	81.38
633.069	84.38
633.275	86.38
633.481	87.38
633.688	85.38
633.893	85.38
634.099	83.38
634.305	91.38
634.511	89.38
634.717	98.38
634.923	91.38
635.129	83.38
635.335	90.38
635.541	73.38
635.747	71.38
635.952	83.38
636.158	80.38
636.364	89.38
636.57	91.38
636.775	84.38
636.981	82.38
637.187	79.38
637.392	85.38
637.598	59.38
637.804	83.38
638.009	86.38
638.215	82.38
638.421	83.38
638.626	88.38
638.832	73.38
639.037	82.38
639.243	88.38
639.448	81.38
639.654	92.38
639.859	81.38
640.065	69.38
640.27	71.38
640.475	71.38
640.681	73.38
640.886	83.38
641.091	86.38
641.297	91.38
641.502	79.38
641.707	88.38
641.913	81.38
642.118	94.38
642.323	58.38
642.528	76.38
642.733	77.38
642.939	82.38
643.144	73.38
643.349	99.38
643.554	81.38
643.759	83.38
643.964	80.38
644.169	74.38
644.374	84.38
644.579	90.38
644.784	96.38
644.989	92.38
645.194	80.38
645.399	86.38
645.604	74.38
645.809	85.38
646.014	76.38
646.219	72.38
646.423	80.38
646.628	63.38
646.833	84.38
647.038	73.38
647.243	91.38
647.447	70.38
647.652	77.38
647.857	83.38
648.062	84.38
648.266	71.38
648.471	87.38
648.676	88.38
648.88	86.38
649.085	75.38
649.289	92.38
649.494	97.38
649.698	104.38
649.903	80.38
650.107	87.38
650.312	68.38
650.516	75.38
650.721	90.38
650.925	99.38
651.13	80.38
651.334	74.38
651.539	83.38
651.743	67.38
651.947	79.38
652.152	70.38
652.356	83.38
652.56	84.38
652.764	94.38
652.969	79.38
653.173	83.38
653.377	80.38
653.581	75.38
653.785	87.38
653.99	76.38
654.194	90.38
654.398	72.38
654.602	83.38
654.806	83.38
655.01	94.38
655.214	79.38
655.418	77.38
655.622	83.38
655.826	92.38
656.03	85.38
656.234	86.38
656.438	102.38
656.642	99.38
656.846	92.38
657.049	84.38
657.253	87.38
657.457	95.38
657.661	91.38
657.865	79.38
658.068	81.38
658.272	75.38
658.476	76.38
658.68	82.38
658.883	75.38
659.087	74.38
659.291	84.38
659.494	79.38
659.698	82.38
659.901	75.38
660.105	68.38
660.309	73.38
660.512	85.38
660.716	83.38
660.919	75.38
661.123	79.38
661.326	74.38
661.53	81.38
661.733	83.38
661.936	79.38
662.14	76.38
662.343	86.38
662.546	77.38
662.75	72.38
662.953	70.38
663.156	78.38
663.36	74.38
663.563	67.38
663.766	79.38
663.969	81.38
664.173	80.38
664.376	69.38
664.579	77.38
664.782	71.38
664.985	89.38
665.188	93.38
665.391	88.38
665.594	83.38
665.797	90.38
666	84.38
666.203	73.38
666.406	99.38
666.609	89.38
666.812	76.38
667.015	74.38
667.218	74.38
667.421	82.38
667.624	79.38
667.827	79.38
668.03	64.38
668.232	65.38
668.435	82.38
668.638	73.38
668.841	92.38
669.043	68.38
669.246	75.38
669.449	87.38
669.651	74.38
669.854	85.38
670.057	77.38
670.259	79.38
670.462	65.38
670.665	91.38
670.867	83.38
671.07	63.38
671.272	79.38
671.475	81.38
671.677	87.38
671.88	84.38
672.082	72.38
672.284	69.38
672.487	72.38
672.689	84.38
672.892	76.38
