Data from Background_3_HRD10591_00083.txt Node
Date: Wed Nov 05 14:50:01 EST 2025
User: Yrep
Spectrometer: HR+D1059
Trigger mode: 1
Integration Time (sec): 1.000000E-1
Scans to average: 1
Electric dark correction enabled: true
Nonlinearity correction enabled: false
Boxcar width: 0
XAxis mode: Wavelengths
Number of Pixels in Spectrum: 2048
>>>>>Begin Spectral Data<<<<<
223.165	-21.62
223.4	-21.62
223.635	-21.62
223.869	-15.62
224.104	-32.62
224.338	-15.62
224.573	-10.62
224.808	-12.62
225.042	7.38
225.277	-10.62
225.511	-0.62
225.746	-8.62
225.98	12.38
226.215	6.38
226.449	23.38
226.683	18.38
226.918	27.38
227.152	33.38
227.387	22.38
227.621	29.38
227.856	39.38
228.09	44.38
228.324	48.38
228.559	52.38
228.793	77.38
229.027	68.38
229.262	63.38
229.496	67.38
229.73	65.38
229.964	55.38
230.199	87.38
230.433	85.38
230.667	67.38
230.901	80.38
231.136	76.38
231.37	65.38
231.604	67.38
231.838	84.38
232.072	79.38
232.306	80.38
232.541	78.38
232.775	65.38
233.009	75.38
233.243	82.38
233.477	86.38
233.711	64.38
233.945	67.38
234.179	81.38
234.413	89.38
234.647	94.38
234.881	78.38
235.115	85.38
235.349	75.38
235.583	84.38
235.817	80.38
236.051	77.38
236.285	76.38
236.519	67.38
236.753	77.38
236.987	84.38
237.221	79.38
237.455	68.38
237.689	66.38
237.922	84.38
238.156	74.38
238.39	72.38
238.624	64.38
238.858	63.38
239.091	53.38
239.325	82.38
239.559	65.38
239.793	72.38
240.027	76.38
240.26	79.38
240.494	74.38
240.728	69.38
240.961	59.38
241.195	81.38
241.429	68.38
241.662	75.38
241.896	81.38
242.13	70.38
242.363	80.38
242.597	76.38
242.83	71.38
243.064	79.38
243.298	76.38
243.531	77.38
243.765	77.38
243.998	72.38
244.232	83.38
244.465	73.38
244.699	75.38
244.932	77.38
245.166	62.38
245.399	75.38
245.633	72.38
245.866	95.38
246.099	89.38
246.333	75.38
246.566	76.38
246.8	76.38
247.033	61.38
247.266	68.38
247.5	80.38
247.733	69.38
247.966	61.38
248.2	75.38
248.433	68.38
248.666	63.38
248.899	87.38
249.133	88.38
249.366	88.38
249.599	75.38
249.832	69.38
250.066	81.38
250.299	79.38
250.532	67.38
250.765	65.38
250.998	59.38
251.231	68.38
251.465	86.38
251.698	83.38
251.931	70.38
252.164	66.38
252.397	85.38
252.63	74.38
252.863	80.38
253.096	75.38
253.329	74.38
253.562	79.38
253.795	68.38
254.028	83.38
254.261	77.38
254.494	67.38
254.727	72.38
254.96	73.38
255.193	83.38
255.426	76.38
255.659	79.38
255.892	88.38
256.124	72.38
256.357	69.38
256.59	87.38
256.823	78.38
257.056	90.38
257.289	77.38
257.521	75.38
257.754	75.38
257.987	79.38
258.22	84.38
258.452	81.38
258.685	67.38
258.918	80.38
259.151	71.38
259.383	71.38
259.616	80.38
259.849	77.38
260.081	85.38
260.314	89.38
260.547	87.38
260.779	91.38
261.012	92.38
261.244	65.38
261.477	88.38
261.71	78.38
261.942	80.38
262.175	78.38
262.407	61.38
262.64	92.38
262.872	83.38
263.105	91.38
263.337	73.38
263.57	78.38
263.802	85.38
264.035	77.38
264.267	76.38
264.499	85.38
264.732	81.38
264.964	80.38
265.197	79.38
265.429	85.38
265.661	81.38
265.894	91.38
266.126	82.38
266.358	76.38
266.591	73.38
266.823	77.38
267.055	67.38
267.287	75.38
267.52	73.38
267.752	92.38
267.984	82.38
268.216	69.38
268.448	77.38
268.681	74.38
268.913	75.38
269.145	83.38
269.377	97.38
269.609	70.38
269.841	76.38
270.073	76.38
270.306	79.38
270.538	95.38
270.77	72.38
271.002	79.38
271.234	64.38
271.466	75.38
271.698	84.38
271.93	80.38
272.162	81.38
272.394	73.38
272.626	78.38
272.858	73.38
273.09	75.38
273.322	92.38
273.553	72.38
273.785	88.38
274.017	84.38
274.249	67.38
274.481	84.38
274.713	67.38
274.945	76.38
275.176	75.38
275.408	95.38
275.64	76.38
275.872	75.38
276.104	75.38
276.335	69.38
276.567	71.38
276.799	71.38
277.031	87.38
277.262	75.38
277.494	78.38
277.726	75.38
277.957	85.38
278.189	80.38
278.421	89.38
278.652	84.38
278.884	72.38
279.115	96.38
279.347	75.38
279.579	91.38
279.81	83.38
280.042	87.38
280.273	81.38
280.505	85.38
280.736	82.38
280.968	84.38
281.199	89.38
281.431	82.38
281.662	80.38
281.894	89.38
282.125	76.38
282.356	89.38
282.588	81.38
282.819	78.38
283.051	91.38
283.282	74.38
283.513	75.38
283.745	87.38
283.976	94.38
284.207	72.38
284.439	75.38
284.67	77.38
284.901	82.38
285.132	83.38
285.364	87.38
285.595	77.38
285.826	76.38
286.057	74.38
286.288	80.38
286.52	77.38
286.751	90.38
286.982	81.38
287.213	87.38
287.444	83.38
287.675	89.38
287.906	94.38
288.138	84.38
288.369	75.38
288.6	76.38
288.831	77.38
289.062	92.38
289.293	82.38
289.524	81.38
289.755	79.38
289.986	74.38
290.217	78.38
290.448	83.38
290.679	77.38
290.91	84.38
291.141	80.38
291.371	86.38
291.602	78.38
291.833	66.38
292.064	81.38
292.295	83.38
292.526	77.38
292.757	71.38
292.987	77.38
293.218	87.38
293.449	80.38
293.68	77.38
293.91	79.38
294.141	86.38
294.372	89.38
294.603	79.38
294.833	72.38
295.064	82.38
295.295	89.38
295.525	92.38
295.756	87.38
295.987	85.38
296.217	76.38
296.448	83.38
296.679	77.38
296.909	87.38
297.14	81.38
297.37	84.38
297.601	75.38
297.831	82.38
298.062	78.38
298.292	84.38
298.523	93.38
298.753	81.38
298.984	79.38
299.214	87.38
299.445	92.38
299.675	80.38
299.905	86.38
300.136	84.38
300.366	83.38
300.597	74.38
300.827	83.38
301.057	84.38
301.288	92.38
301.518	87.38
301.748	87.38
301.979	93.38
302.209	61.38
302.439	72.38
302.669	73.38
302.9	85.38
303.13	87.38
303.36	94.38
303.59	91.38
303.82	82.38
304.051	77.38
304.281	89.38
304.511	89.38
304.741	84.38
304.971	94.38
305.201	79.38
305.431	72.38
305.661	95.38
305.891	87.38
306.121	94.38
306.352	88.38
306.582	84.38
306.812	94.38
307.042	85.38
307.272	91.38
307.502	80.38
307.731	83.38
307.961	85.38
308.191	85.38
308.421	76.38
308.651	79.38
308.881	76.38
309.111	80.38
309.341	85.38
309.571	82.38
309.8	91.38
310.03	75.38
310.26	81.38
310.49	77.38
310.72	88.38
310.949	77.38
311.179	77.38
311.409	84.38
311.639	73.38
311.868	81.38
312.098	75.38
312.328	83.38
312.557	80.38
312.787	97.38
313.017	80.38
313.246	96.38
313.476	91.38
313.706	85.38
313.935	77.38
314.165	78.38
314.394	79.38
314.624	77.38
314.853	91.38
315.083	81.38
315.312	74.38
315.542	89.38
315.771	74.38
316.001	78.38
316.23	78.38
316.46	76.38
316.689	83.38
316.919	78.38
317.148	86.38
317.377	76.38
317.607	88.38
317.836	82.38
318.065	87.38
318.295	85.38
318.524	79.38
318.753	85.38
318.983	88.38
319.212	83.38
319.441	65.38
319.67	79.38
319.9	64.38
320.129	77.38
320.358	83.38
320.587	82.38
320.816	78.38
321.046	79.38
321.275	83.38
321.504	67.38
321.733	81.38
321.962	76.38
322.191	75.38
322.42	84.38
322.649	86.38
322.878	76.38
323.108	92.38
323.337	79.38
323.566	77.38
323.795	78.38
324.024	74.38
324.253	86.38
324.482	79.38
324.71	92.38
324.939	84.38
325.168	83.38
325.397	95.38
325.626	80.38
325.855	80.38
326.084	71.38
326.313	84.38
326.542	78.38
326.77	86.38
326.999	82.38
327.228	80.38
327.457	85.38
327.686	83.38
327.914	80.38
328.143	86.38
328.372	81.38
328.6	67.38
328.829	82.38
329.058	82.38
329.287	86.38
329.515	85.38
329.744	84.38
329.972	73.38
330.201	70.38
330.43	75.38
330.658	63.38
330.887	85.38
331.115	73.38
331.344	90.38
331.572	85.38
331.801	76.38
332.03	76.38
332.258	77.38
332.486	69.38
332.715	89.38
332.943	84.38
333.172	85.38
333.4	81.38
333.629	87.38
333.857	88.38
334.085	92.38
334.314	75.38
334.542	74.38
334.771	75.38
334.999	98.38
335.227	76.38
335.455	81.38
335.684	76.38
335.912	82.38
336.14	80.38
336.369	91.38
336.597	75.38
336.825	75.38
337.053	79.38
337.281	75.38
337.51	89.38
337.738	72.38
337.966	83.38
338.194	87.38
338.422	69.38
338.65	71.38
338.878	67.38
339.106	81.38
339.334	92.38
339.562	81.38
339.79	68.38
340.018	87.38
340.246	80.38
340.474	84.38
340.702	92.38
340.93	83.38
341.158	80.38
341.386	75.38
341.614	95.38
341.842	67.38
342.07	85.38
342.298	92.38
342.526	83.38
342.754	88.38
342.981	85.38
343.209	86.38
343.437	69.38
343.665	57.38
343.893	64.38
344.12	78.38
344.348	80.38
344.576	81.38
344.804	73.38
345.031	66.38
345.259	75.38
345.487	81.38
345.714	87.38
345.942	66.38
346.17	92.38
346.397	75.38
346.625	74.38
346.853	72.38
347.08	79.38
347.308	80.38
347.535	74.38
347.763	79.38
347.99	95.38
348.218	90.38
348.445	90.38
348.673	81.38
348.9	81.38
349.128	85.38
349.355	89.38
349.583	72.38
349.81	88.38
350.037	69.38
350.265	68.38
350.492	81.38
350.72	73.38
350.947	75.38
351.174	71.38
351.402	96.38
351.629	88.38
351.856	81.38
352.083	91.38
352.311	77.38
352.538	69.38
352.765	64.38
352.992	90.38
353.22	83.38
353.447	79.38
353.674	90.38
353.901	96.38
354.128	74.38
354.355	79.38
354.583	84.38
354.81	79.38
355.037	87.38
355.264	74.38
355.491	84.38
355.718	81.38
355.945	83.38
356.172	83.38
356.399	90.38
356.626	83.38
356.853	83.38
357.08	82.38
357.307	78.38
357.534	91.38
357.761	97.38
357.988	68.38
358.215	68.38
358.441	76.38
358.668	74.38
358.895	91.38
359.122	91.38
359.349	76.38
359.576	85.38
359.802	71.38
360.029	83.38
360.256	65.38
360.483	89.38
360.709	81.38
360.936	81.38
361.163	84.38
361.39	91.38
361.616	79.38
361.843	83.38
362.07	75.38
362.296	80.38
362.523	79.38
362.749	81.38
362.976	75.38
363.203	83.38
363.429	88.38
363.656	97.38
363.882	84.38
364.109	91.38
364.335	78.38
364.562	97.38
364.788	65.38
365.015	79.38
365.241	83.38
365.468	82.38
365.694	78.38
365.92	81.38
366.147	78.38
366.373	79.38
366.599	70.38
366.826	82.38
367.052	94.38
367.278	80.38
367.505	70.38
367.731	77.38
367.957	78.38
368.184	69.38
368.41	64.38
368.636	71.38
368.862	75.38
369.089	75.38
369.315	85.38
369.541	81.38
369.767	94.38
369.993	76.38
370.219	92.38
370.445	72.38
370.672	77.38
370.898	80.38
371.124	74.38
371.35	75.38
371.576	87.38
371.802	65.38
372.028	66.38
372.254	83.38
372.48	81.38
372.706	79.38
372.932	84.38
373.158	76.38
373.384	80.38
373.61	73.38
373.835	84.38
374.061	84.38
374.287	89.38
374.513	67.38
374.739	92.38
374.965	71.38
375.191	74.38
375.416	72.38
375.642	83.38
375.868	71.38
376.094	80.38
376.319	75.38
376.545	84.38
376.771	94.38
376.997	89.38
377.222	72.38
377.448	82.38
377.674	66.38
377.899	87.38
378.125	87.38
378.35	80.38
378.576	79.38
378.802	73.38
379.027	76.38
379.253	93.38
379.478	71.38
379.704	75.38
379.929	83.38
380.155	74.38
380.38	73.38
380.606	85.38
380.831	67.38
381.057	83.38
381.282	96.38
381.507	95.38
381.733	91.38
381.958	80.38
382.184	87.38
382.409	89.38
382.634	72.38
382.86	69.38
383.085	70.38
383.31	75.38
383.535	77.38
383.761	82.38
383.986	72.38
384.211	70.38
384.436	84.38
384.662	83.38
384.887	77.38
385.112	84.38
385.337	75.38
385.562	80.38
385.787	75.38
386.013	89.38
386.238	75.38
386.463	66.38
386.688	82.38
386.913	76.38
387.138	78.38
387.363	88.38
387.588	84.38
387.813	83.38
388.038	73.38
388.263	68.38
388.488	68.38
388.713	88.38
388.938	73.38
389.163	84.38
389.387	75.38
389.612	83.38
389.837	86.38
390.062	68.38
390.287	77.38
390.512	76.38
390.736	88.38
390.961	79.38
391.186	69.38
391.411	72.38
391.636	93.38
391.86	81.38
392.085	73.38
392.31	76.38
392.534	70.38
392.759	74.38
392.984	70.38
393.208	76.38
393.433	71.38
393.658	69.38
393.882	79.38
394.107	84.38
394.331	80.38
394.556	78.38
394.78	87.38
395.005	74.38
395.229	77.38
395.454	82.38
395.678	79.38
395.903	77.38
396.127	89.38
396.352	71.38
396.576	75.38
396.801	77.38
397.025	78.38
397.249	93.38
397.474	70.38
397.698	82.38
397.922	83.38
398.147	81.38
398.371	72.38
398.595	96.38
398.82	75.38
399.044	73.38
399.268	84.38
399.492	67.38
399.717	68.38
399.941	77.38
400.165	78.38
400.389	75.38
400.613	79.38
400.837	69.38
401.062	77.38
401.286	71.38
401.51	81.38
401.734	72.38
401.958	80.38
402.182	87.38
402.406	82.38
402.63	75.38
402.854	84.38
403.078	77.38
403.302	73.38
403.526	75.38
403.75	72.38
403.974	65.38
404.198	76.38
404.422	87.38
404.645	69.38
404.869	81.38
405.093	65.38
405.317	80.38
405.541	72.38
405.765	83.38
405.988	76.38
406.212	94.38
406.436	96.38
406.66	77.38
406.883	76.38
407.107	81.38
407.331	81.38
407.555	79.38
407.778	76.38
408.002	79.38
408.226	75.38
408.449	80.38
408.673	71.38
408.896	66.38
409.12	79.38
409.344	79.38
409.567	80.38
409.791	76.38
410.014	73.38
410.238	76.38
410.461	64.38
410.685	79.38
410.908	82.38
411.132	93.38
411.355	76.38
411.578	82.38
411.802	84.38
412.025	90.38
412.249	85.38
412.472	81.38
412.695	82.38
412.919	72.38
413.142	80.38
413.365	90.38
413.589	92.38
413.812	87.38
414.035	77.38
414.258	77.38
414.482	88.38
414.705	68.38
414.928	87.38
415.151	70.38
415.374	71.38
415.597	85.38
415.821	73.38
416.044	73.38
416.267	66.38
416.49	72.38
416.713	85.38
416.936	81.38
417.159	86.38
417.382	71.38
417.605	68.38
417.828	81.38
418.051	89.38
418.274	75.38
418.497	78.38
418.72	86.38
418.943	82.38
419.166	94.38
419.389	79.38
419.611	71.38
419.834	77.38
420.057	68.38
420.28	81.38
420.503	59.38
420.726	74.38
420.948	75.38
421.171	75.38
421.394	93.38
421.617	81.38
421.839	73.38
422.062	77.38
422.285	77.38
422.507	89.38
422.73	72.38
422.953	86.38
423.175	78.38
423.398	88.38
423.621	76.38
423.843	85.38
424.066	73.38
424.288	87.38
424.511	67.38
424.733	84.38
424.956	79.38
425.178	77.38
425.401	70.38
425.623	69.38
425.846	82.38
426.068	81.38
426.291	82.38
426.513	84.38
426.735	85.38
426.958	74.38
427.18	72.38
427.402	95.38
427.625	74.38
427.847	88.38
428.069	87.38
428.292	81.38
428.514	85.38
428.736	89.38
428.958	79.38
429.181	77.38
429.403	84.38
429.625	75.38
429.847	81.38
430.069	81.38
430.292	98.38
430.514	88.38
430.736	83.38
430.958	81.38
431.18	76.38
431.402	77.38
431.624	81.38
431.846	81.38
432.068	89.38
432.29	77.38
432.512	74.38
432.734	87.38
432.956	87.38
433.178	80.38
433.4	82.38
433.622	79.38
433.844	83.38
434.066	76.38
434.287	69.38
434.509	77.38
434.731	71.38
434.953	74.38
435.175	77.38
435.397	95.38
435.618	72.38
435.84	81.38
436.062	89.38
436.284	84.38
436.505	77.38
436.727	76.38
436.949	75.38
437.17	80.38
437.392	73.38
437.614	97.38
437.835	73.38
438.057	70.38
438.278	74.38
438.5	75.38
438.721	65.38
438.943	90.38
439.165	83.38
439.386	69.38
439.608	73.38
439.829	89.38
440.05	82.38
440.272	90.38
440.493	81.38
440.715	64.38
440.936	96.38
441.158	65.38
441.379	74.38
441.6	82.38
441.822	75.38
442.043	88.38
442.264	75.38
442.486	80.38
442.707	84.38
442.928	75.38
443.149	75.38
443.371	81.38
443.592	68.38
443.813	74.38
444.034	69.38
444.255	87.38
444.476	88.38
444.698	72.38
444.919	78.38
445.14	164.38
445.361	124.38
445.582	88.38
445.803	62.38
446.024	84.38
446.245	71.38
446.466	84.38
446.687	77.38
446.908	73.38
447.129	91.38
447.35	77.38
447.571	72.38
447.792	77.38
448.013	88.38
448.234	83.38
448.455	66.38
448.675	69.38
448.896	81.38
449.117	80.38
449.338	77.38
449.559	84.38
449.779	74.38
450	76.38
450.221	81.38
450.442	78.38
450.662	72.38
450.883	70.38
451.104	75.38
451.324	81.38
451.545	77.38
451.766	67.38
451.986	82.38
452.207	69.38
452.428	82.38
452.648	75.38
452.869	67.38
453.089	68.38
453.31	76.38
453.53	83.38
453.751	74.38
453.971	83.38
454.192	76.38
454.412	73.38
454.633	77.38
454.853	75.38
455.073	72.38
455.294	75.38
455.514	77.38
455.734	90.38
455.955	80.38
456.175	87.38
456.395	82.38
456.616	75.38
456.836	80.38
457.056	70.38
457.276	68.38
457.497	69.38
457.717	85.38
457.937	75.38
458.157	90.38
458.377	62.38
458.598	70.38
458.818	63.38
459.038	81.38
459.258	80.38
459.478	89.38
459.698	68.38
459.918	87.38
460.138	73.38
460.358	85.38
460.578	81.38
460.798	80.38
461.018	70.38
461.238	76.38
461.458	69.38
461.678	85.38
461.898	66.38
462.118	79.38
462.338	70.38
462.558	67.38
462.777	71.38
462.997	72.38
463.217	89.38
463.437	88.38
463.657	70.38
463.876	67.38
464.096	80.38
464.316	68.38
464.536	94.38
464.755	79.38
464.975	79.38
465.195	77.38
465.414	73.38
465.634	88.38
465.854	80.38
466.073	85.38
466.293	77.38
466.512	83.38
466.732	87.38
466.951	84.38
467.171	76.38
467.391	76.38
467.61	77.38
467.829	69.38
468.049	58.38
468.268	83.38
468.488	76.38
468.707	77.38
468.927	72.38
469.146	84.38
469.365	77.38
469.585	79.38
469.804	72.38
470.023	79.38
470.243	78.38
470.462	73.38
470.681	72.38
470.901	82.38
471.12	72.38
471.339	73.38
471.558	89.38
471.777	80.38
471.997	86.38
472.216	66.38
472.435	88.38
472.654	85.38
472.873	75.38
473.092	85.38
473.311	80.38
473.53	68.38
473.749	76.38
473.968	85.38
474.187	82.38
474.406	76.38
474.625	74.38
474.844	74.38
475.063	82.38
475.282	83.38
475.501	79.38
475.72	100.38
475.939	83.38
476.158	81.38
476.377	80.38
476.596	83.38
476.814	64.38
477.033	69.38
477.252	77.38
477.471	79.38
477.69	87.38
477.908	71.38
478.127	96.38
478.346	93.38
478.564	67.38
478.783	77.38
479.002	83.38
479.22	72.38
479.439	76.38
479.658	83.38
479.876	76.38
480.095	83.38
480.313	84.38
480.532	83.38
480.751	68.38
480.969	65.38
481.188	71.38
481.406	89.38
481.624	77.38
481.843	83.38
482.061	81.38
482.28	80.38
482.498	71.38
482.717	82.38
482.935	79.38
483.153	76.38
483.372	70.38
483.59	73.38
483.808	70.38
484.027	89.38
484.245	85.38
484.463	75.38
484.681	87.38
484.9	81.38
485.118	83.38
485.336	75.38
485.554	80.38
485.772	80.38
485.99	75.38
486.209	79.38
486.427	80.38
486.645	64.38
486.863	82.38
487.081	66.38
487.299	72.38
487.517	81.38
487.735	78.38
487.953	78.38
488.171	86.38
488.389	88.38
488.607	74.38
488.825	80.38
489.043	82.38
489.261	73.38
489.479	73.38
489.696	88.38
489.914	76.38
490.132	84.38
490.35	73.38
490.568	89.38
490.786	76.38
491.003	80.38
491.221	77.38
491.439	77.38
491.657	76.38
491.874	87.38
492.092	82.38
492.31	83.38
492.527	80.38
492.745	74.38
492.963	81.38
493.18	69.38
493.398	87.38
493.615	88.38
493.833	87.38
494.05	88.38
494.268	79.38
494.485	87.38
494.703	97.38
494.92	78.38
495.138	78.38
495.355	74.38
495.573	76.38
495.79	56.38
496.008	92.38
496.225	93.38
496.442	81.38
496.66	85.38
496.877	81.38
497.094	91.38
497.312	75.38
497.529	66.38
497.746	80.38
497.963	72.38
498.181	79.38
498.398	71.38
498.615	88.38
498.832	67.38
499.049	89.38
499.267	74.38
499.484	92.38
499.701	86.38
499.918	77.38
500.135	73.38
500.352	83.38
500.569	89.38
500.786	77.38
501.003	74.38
501.22	79.38
501.437	69.38
501.654	82.38
501.871	76.38
502.088	82.38
502.305	81.38
502.522	83.38
502.739	89.38
502.956	81.38
503.172	89.38
503.389	84.38
503.606	69.38
503.823	85.38
504.04	83.38
504.256	85.38
504.473	93.38
504.69	86.38
504.907	72.38
505.123	70.38
505.34	63.38
505.557	89.38
505.773	81.38
505.99	69.38
506.207	77.38
506.423	73.38
506.64	77.38
506.856	76.38
507.073	75.38
507.289	82.38
507.506	94.38
507.722	72.38
507.939	86.38
508.155	82.38
508.372	67.38
508.588	77.38
508.805	75.38
509.021	76.38
509.238	91.38
509.454	65.38
509.67	86.38
509.887	87.38
510.103	77.38
510.319	73.38
510.536	81.38
510.752	88.38
510.968	80.38
511.184	88.38
511.401	86.38
511.617	83.38
511.833	77.38
512.049	80.38
512.265	73.38
512.481	75.38
512.698	83.38
512.914	75.38
513.13	76.38
513.346	74.38
513.562	95.38
513.778	75.38
513.994	76.38
514.21	84.38
514.426	80.38
514.642	89.38
514.858	87.38
515.074	79.38
515.29	69.38
515.506	96.38
515.721	82.38
515.937	67.38
516.153	73.38
516.369	81.38
516.585	76.38
516.801	86.38
517.016	92.38
517.232	99.38
517.448	82.38
517.664	83.38
517.879	76.38
518.095	79.38
518.311	75.38
518.527	80.38
518.742	81.38
518.958	94.38
519.173	92.38
519.389	72.38
519.605	82.38
519.82	85.38
520.036	80.38
520.251	74.38
520.467	78.38
520.682	75.38
520.898	91.38
521.113	84.38
521.329	75.38
521.544	69.38
521.76	67.38
521.975	82.38
522.19	94.38
522.406	73.38
522.621	73.38
522.836	88.38
523.052	78.38
523.267	77.38
523.482	90.38
523.698	79.38
523.913	75.38
524.128	75.38
524.343	78.38
524.559	79.38
524.774	78.38
524.989	82.38
525.204	73.38
525.419	91.38
525.634	65.38
525.849	74.38
526.064	83.38
526.28	81.38
526.495	85.38
526.71	69.38
526.925	66.38
527.14	83.38
527.355	70.38
527.57	80.38
527.785	63.38
527.999	69.38
528.214	80.38
528.429	85.38
528.644	78.38
528.859	66.38
529.074	79.38
529.289	75.38
529.503	90.38
529.718	72.38
529.933	83.38
530.148	86.38
530.363	87.38
530.577	87.38
530.792	73.38
531.007	72.38
531.221	78.38
531.436	81.38
531.651	70.38
531.865	69.38
532.08	83.38
532.295	83.38
532.509	82.38
532.724	72.38
532.938	78.38
533.153	65.38
533.367	82.38
533.582	73.38
533.796	83.38
534.011	93.38
534.225	82.38
534.44	79.38
534.654	71.38
534.868	78.38
535.083	84.38
535.297	75.38
535.511	92.38
535.726	91.38
535.94	81.38
536.154	93.38
536.369	69.38
536.583	87.38
536.797	83.38
537.011	100.38
537.225	77.38
537.44	72.38
537.654	80.38
537.868	83.38
538.082	74.38
538.296	82.38
538.51	89.38
538.724	71.38
538.938	84.38
539.153	80.38
539.367	73.38
539.581	93.38
539.795	88.38
540.009	73.38
540.222	84.38
540.436	88.38
540.65	84.38
540.864	80.38
541.078	75.38
541.292	88.38
541.506	83.38
541.72	79.38
541.934	74.38
542.147	82.38
542.361	78.38
542.575	73.38
542.789	77.38
543.002	88.38
543.216	76.38
543.43	68.38
543.644	100.38
543.857	83.38
544.071	68.38
544.285	88.38
544.498	88.38
544.712	75.38
544.925	74.38
545.139	82.38
545.352	82.38
545.566	73.38
545.779	71.38
545.993	75.38
546.206	74.38
546.42	72.38
546.633	82.38
546.847	81.38
547.06	93.38
547.274	86.38
547.487	81.38
547.7	67.38
547.914	74.38
548.127	79.38
548.34	86.38
548.554	76.38
548.767	81.38
548.98	84.38
549.193	77.38
549.407	76.38
549.62	70.38
549.833	69.38
550.046	62.38
550.259	72.38
550.473	81.38
550.686	82.38
550.899	76.38
551.112	76.38
551.325	69.38
551.538	90.38
551.751	77.38
551.964	80.38
552.177	89.38
552.39	69.38
552.603	80.38
552.816	86.38
553.029	83.38
553.242	76.38
553.455	75.38
553.667	81.38
553.88	84.38
554.093	85.38
554.306	79.38
554.519	67.38
554.732	80.38
554.944	80.38
555.157	76.38
555.37	77.38
555.583	91.38
555.795	69.38
556.008	68.38
556.221	89.38
556.433	68.38
556.646	73.38
556.859	77.38
557.071	62.38
557.284	94.38
557.496	85.38
557.709	87.38
557.921	77.38
558.134	82.38
558.346	73.38
558.559	72.38
558.771	69.38
558.984	82.38
559.196	75.38
559.409	73.38
559.621	88.38
559.833	86.38
560.046	75.38
560.258	79.38
560.47	75.38
560.683	72.38
560.895	79.38
561.107	83.38
561.32	81.38
561.532	92.38
561.744	78.38
561.956	88.38
562.168	89.38
562.381	79.38
562.593	73.38
562.805	80.38
563.017	75.38
563.229	95.38
563.441	89.38
563.653	79.38
563.865	75.38
564.077	79.38
564.289	79.38
564.501	75.38
564.713	83.38
564.925	87.38
565.137	83.38
565.349	81.38
565.561	80.38
565.773	91.38
565.985	71.38
566.197	83.38
566.408	66.38
566.62	82.38
566.832	73.38
567.044	76.38
567.255	68.38
567.467	77.38
567.679	96.38
567.891	97.38
568.102	72.38
568.314	76.38
568.526	75.38
568.737	77.38
568.949	62.38
569.161	84.38
569.372	87.38
569.584	79.38
569.795	68.38
570.007	74.38
570.218	81.38
570.43	78.38
570.641	82.38
570.853	87.38
571.064	84.38
571.276	84.38
571.487	69.38
571.698	70.38
571.91	77.38
572.121	82.38
572.333	69.38
572.544	91.38
572.755	95.38
572.966	82.38
573.178	76.38
573.389	69.38
573.6	82.38
573.811	75.38
574.023	76.38
574.234	69.38
574.445	74.38
574.656	65.38
574.867	84.38
575.078	88.38
575.289	83.38
575.501	87.38
575.712	70.38
575.923	84.38
576.134	86.38
576.345	83.38
576.556	87.38
576.767	91.38
576.978	87.38
577.188	80.38
577.399	80.38
577.61	92.38
577.821	75.38
578.032	76.38
578.243	90.38
578.454	95.38
578.665	79.38
578.875	72.38
579.086	83.38
579.297	73.38
579.508	89.38
579.718	82.38
579.929	82.38
580.14	95.38
580.35	88.38
580.561	83.38
580.772	79.38
580.982	82.38
581.193	71.38
581.403	87.38
581.614	81.38
581.825	74.38
582.035	89.38
582.246	78.38
582.456	79.38
582.667	85.38
582.877	83.38
583.087	83.38
583.298	81.38
583.508	74.38
583.719	78.38
583.929	76.38
584.139	83.38
584.35	83.38
584.56	82.38
584.77	87.38
584.981	82.38
585.191	92.38
585.401	81.38
585.611	75.38
585.821	80.38
586.032	75.38
586.242	82.38
586.452	84.38
586.662	81.38
586.872	82.38
587.082	69.38
587.292	73.38
587.502	85.38
587.713	83.38
587.923	84.38
588.133	83.38
588.343	75.38
588.553	72.38
588.762	100.38
588.972	97.38
589.182	73.38
589.392	74.38
589.602	88.38
589.812	81.38
590.022	79.38
590.232	72.38
590.441	69.38
590.651	77.38
590.861	83.38
591.071	82.38
591.281	98.38
591.49	72.38
591.7	72.38
591.91	78.38
592.119	79.38
592.329	100.38
592.539	81.38
592.748	81.38
592.958	85.38
593.167	80.38
593.377	83.38
593.587	88.38
593.796	85.38
594.006	97.38
594.215	72.38
594.424	98.38
594.634	87.38
594.843	67.38
595.053	76.38
595.262	87.38
595.472	83.38
595.681	90.38
595.89	80.38
596.1	85.38
596.309	77.38
596.518	75.38
596.727	69.38
596.937	69.38
597.146	90.38
597.355	73.38
597.564	66.38
597.774	83.38
597.983	100.38
598.192	72.38
598.401	83.38
598.61	74.38
598.819	72.38
599.028	87.38
599.237	80.38
599.446	98.38
599.655	85.38
599.864	88.38
600.073	84.38
600.282	67.38
600.491	78.38
600.7	86.38
600.909	84.38
601.118	79.38
601.327	75.38
601.536	71.38
601.745	90.38
601.953	75.38
602.162	75.38
602.371	81.38
602.58	92.38
602.789	79.38
602.997	83.38
603.206	85.38
603.415	79.38
603.623	66.38
603.832	79.38
604.041	91.38
604.249	70.38
604.458	77.38
604.666	64.38
604.875	79.38
605.084	78.38
605.292	72.38
605.501	73.38
605.709	96.38
605.918	85.38
606.126	87.38
606.334	78.38
606.543	84.38
606.751	76.38
606.96	82.38
607.168	75.38
607.376	83.38
607.585	85.38
607.793	74.38
608.001	67.38
608.21	66.38
608.418	79.38
608.626	76.38
608.834	80.38
609.043	82.38
609.251	88.38
609.459	80.38
609.667	80.38
609.875	68.38
610.083	72.38
610.291	80.38
610.499	76.38
610.707	71.38
610.916	98.38
611.124	78.38
611.332	85.38
611.54	83.38
611.748	73.38
611.955	74.38
612.163	91.38
612.371	79.38
612.579	88.38
612.787	89.38
612.995	83.38
613.203	78.38
613.411	84.38
613.618	82.38
613.826	95.38
614.034	84.38
614.242	87.38
614.449	81.38
614.657	86.38
614.865	89.38
615.072	73.38
615.28	88.38
615.488	75.38
615.695	80.38
615.903	83.38
616.111	73.38
616.318	95.38
616.526	91.38
616.733	81.38
616.941	73.38
617.148	80.38
617.356	72.38
617.563	88.38
617.771	87.38
617.978	83.38
618.185	85.38
618.393	76.38
618.6	75.38
618.807	81.38
619.015	77.38
619.222	86.38
619.429	81.38
619.637	66.38
619.844	81.38
620.051	68.38
620.258	81.38
620.466	89.38
620.673	72.38
620.88	75.38
621.087	98.38
621.294	92.38
621.501	77.38
621.708	81.38
621.915	81.38
622.122	77.38
622.329	67.38
622.536	76.38
622.743	77.38
622.95	72.38
623.157	82.38
623.364	70.38
623.571	74.38
623.778	72.38
623.985	89.38
624.192	87.38
624.399	80.38
624.606	78.38
624.812	86.38
625.019	77.38
625.226	98.38
625.433	65.38
625.639	83.38
625.846	96.38
626.053	85.38
626.259	82.38
626.466	72.38
626.673	71.38
626.879	88.38
627.086	83.38
627.293	80.38
627.499	83.38
627.706	82.38
627.912	81.38
628.119	80.38
628.325	76.38
628.532	71.38
628.738	81.38
628.945	76.38
629.151	69.38
629.357	69.38
629.564	87.38
629.77	87.38
629.976	76.38
630.183	79.38
630.389	73.38
630.595	77.38
630.802	77.38
631.008	84.38
631.214	88.38
631.42	94.38
631.627	79.38
631.833	83.38
632.039	83.38
632.245	80.38
632.451	82.38
632.657	83.38
632.863	89.38
633.069	68.38
633.275	90.38
633.481	80.38
633.688	81.38
633.893	90.38
634.099	78.38
634.305	98.38
634.511	76.38
634.717	75.38
634.923	84.38
635.129	94.38
635.335	77.38
635.541	65.38
635.747	64.38
635.952	69.38
636.158	86.38
636.364	89.38
636.57	76.38
636.775	82.38
636.981	77.38
637.187	77.38
637.392	83.38
637.598	71.38
637.804	61.38
638.009	69.38
638.215	80.38
638.421	91.38
638.626	99.38
638.832	79.38
639.037	80.38
639.243	68.38
639.448	81.38
639.654	65.38
639.859	80.38
640.065	82.38
640.27	97.38
640.475	80.38
640.681	91.38
640.886	91.38
641.091	82.38
641.297	88.38
641.502	71.38
641.707	84.38
641.913	78.38
642.118	70.38
642.323	76.38
642.528	73.38
642.733	77.38
642.939	95.38
643.144	78.38
643.349	94.38
643.554	75.38
643.759	67.38
643.964	83.38
644.169	82.38
644.374	77.38
644.579	82.38
644.784	80.38
644.989	83.38
645.194	63.38
645.399	79.38
645.604	87.38
645.809	68.38
646.014	83.38
646.219	96.38
646.423	89.38
646.628	77.38
646.833	84.38
647.038	91.38
647.243	81.38
647.447	92.38
647.652	73.38
647.857	72.38
648.062	87.38
648.266	89.38
648.471	74.38
648.676	89.38
648.88	74.38
649.085	80.38
649.289	69.38
649.494	87.38
649.698	79.38
649.903	82.38
650.107	84.38
650.312	87.38
650.516	90.38
650.721	69.38
650.925	93.38
651.13	72.38
651.334	68.38
651.539	82.38
651.743	65.38
651.947	83.38
652.152	92.38
652.356	70.38
652.56	63.38
652.764	88.38
652.969	77.38
653.173	73.38
653.377	68.38
653.581	73.38
653.785	79.38
653.99	84.38
654.194	83.38
654.398	89.38
654.602	85.38
654.806	84.38
655.01	79.38
655.214	71.38
655.418	89.38
655.622	86.38
655.826	91.38
656.03	83.38
656.234	63.38
656.438	61.38
656.642	76.38
656.846	84.38
657.049	79.38
657.253	81.38
657.457	74.38
657.661	77.38
657.865	84.38
658.068	71.38
658.272	75.38
658.476	95.38
658.68	62.38
658.883	80.38
659.087	82.38
659.291	80.38
659.494	77.38
659.698	79.38
659.901	59.38
660.105	88.38
660.309	77.38
660.512	81.38
660.716	79.38
660.919	69.38
661.123	73.38
661.326	79.38
661.53	82.38
661.733	66.38
661.936	70.38
662.14	63.38
662.343	60.38
662.546	66.38
662.75	71.38
662.953	84.38
663.156	72.38
663.36	80.38
663.563	74.38
663.766	77.38
663.969	80.38
664.173	89.38
664.376	84.38
664.579	85.38
664.782	69.38
664.985	86.38
665.188	87.38
665.391	83.38
665.594	73.38
665.797	75.38
666	76.38
666.203	84.38
666.406	90.38
666.609	78.38
666.812	87.38
667.015	64.38
667.218	67.38
667.421	75.38
667.624	93.38
667.827	90.38
668.03	75.38
668.232	80.38
668.435	76.38
668.638	90.38
668.841	84.38
669.043	83.38
669.246	82.38
669.449	89.38
669.651	108.38
669.854	97.38
670.057	82.38
670.259	84.38
670.462	74.38
670.665	68.38
670.867	67.38
671.07	81.38
671.272	77.38
671.475	81.38
671.677	78.38
671.88	77.38
672.082	61.38
672.284	77.38
672.487	80.38
672.689	83.38
672.892	68.38
