Data from Background_3_HRD10591_00040.txt Node
Date: Wed Nov 05 14:49:39 EST 2025
User: Yrep
Spectrometer: HR+D1059
Trigger mode: 1
Integration Time (sec): 1.000000E-1
Scans to average: 1
Electric dark correction enabled: true
Nonlinearity correction enabled: false
Boxcar width: 0
XAxis mode: Wavelengths
Number of Pixels in Spectrum: 2048
>>>>>Begin Spectral Data<<<<<
223.165	-27.56
223.4	-27.56
223.635	-27.56
223.869	-37.56
224.104	-9.56
224.338	-4.56
224.573	-15.56
224.808	-22.56
225.042	-10.56
225.277	0.44
225.511	-0.56
225.746	1.44
225.98	7.44
226.215	19.44
226.449	17.44
226.683	25.44
226.918	22.44
227.152	34.44
227.387	32.44
227.621	28.44
227.856	46.44
228.09	47.44
228.324	57.44
228.559	64.44
228.793	55.44
229.027	71.44
229.262	55.44
229.496	51.44
229.73	66.44
229.964	65.44
230.199	70.44
230.433	68.44
230.667	77.44
230.901	78.44
231.136	73.44
231.37	81.44
231.604	91.44
231.838	92.44
232.072	69.44
232.306	78.44
232.541	79.44
232.775	83.44
233.009	92.44
233.243	83.44
233.477	83.44
233.711	83.44
233.945	71.44
234.179	81.44
234.413	85.44
234.647	81.44
234.881	75.44
235.115	76.44
235.349	75.44
235.583	85.44
235.817	98.44
236.051	90.44
236.285	71.44
236.519	66.44
236.753	73.44
236.987	85.44
237.221	76.44
237.455	71.44
237.689	69.44
237.922	79.44
238.156	93.44
238.39	79.44
238.624	77.44
238.858	70.44
239.091	78.44
239.325	90.44
239.559	90.44
239.793	73.44
240.027	78.44
240.26	98.44
240.494	81.44
240.728	77.44
240.961	92.44
241.195	77.44
241.429	87.44
241.662	64.44
241.896	71.44
242.13	71.44
242.363	75.44
242.597	73.44
242.83	77.44
243.064	81.44
243.298	74.44
243.531	78.44
243.765	72.44
243.998	75.44
244.232	68.44
244.465	84.44
244.699	79.44
244.932	74.44
245.166	84.44
245.399	76.44
245.633	80.44
245.866	71.44
246.099	81.44
246.333	86.44
246.566	78.44
246.8	79.44
247.033	70.44
247.266	91.44
247.5	81.44
247.733	68.44
247.966	76.44
248.2	88.44
248.433	73.44
248.666	78.44
248.899	85.44
249.133	77.44
249.366	91.44
249.599	74.44
249.832	77.44
250.066	84.44
250.299	60.44
250.532	72.44
250.765	81.44
250.998	83.44
251.231	62.44
251.465	80.44
251.698	74.44
251.931	78.44
252.164	82.44
252.397	72.44
252.63	88.44
252.863	77.44
253.096	84.44
253.329	82.44
253.562	78.44
253.795	75.44
254.028	74.44
254.261	77.44
254.494	90.44
254.727	79.44
254.96	83.44
255.193	82.44
255.426	93.44
255.659	85.44
255.892	81.44
256.124	79.44
256.357	93.44
256.59	90.44
256.823	64.44
257.056	78.44
257.289	81.44
257.521	85.44
257.754	90.44
257.987	77.44
258.22	75.44
258.452	70.44
258.685	82.44
258.918	94.44
259.151	84.44
259.383	85.44
259.616	83.44
259.849	85.44
260.081	72.44
260.314	75.44
260.547	70.44
260.779	87.44
261.012	91.44
261.244	86.44
261.477	85.44
261.71	81.44
261.942	81.44
262.175	83.44
262.407	85.44
262.64	84.44
262.872	77.44
263.105	90.44
263.337	92.44
263.57	79.44
263.802	86.44
264.035	79.44
264.267	85.44
264.499	75.44
264.732	73.44
264.964	76.44
265.197	83.44
265.429	91.44
265.661	77.44
265.894	83.44
266.126	93.44
266.358	87.44
266.591	66.44
266.823	91.44
267.055	93.44
267.287	81.44
267.52	74.44
267.752	85.44
267.984	75.44
268.216	71.44
268.448	83.44
268.681	94.44
268.913	68.44
269.145	90.44
269.377	86.44
269.609	85.44
269.841	86.44
270.073	74.44
270.306	82.44
270.538	80.44
270.77	83.44
271.002	78.44
271.234	68.44
271.466	93.44
271.698	85.44
271.93	77.44
272.162	70.44
272.394	85.44
272.626	77.44
272.858	84.44
273.09	76.44
273.322	72.44
273.553	93.44
273.785	81.44
274.017	90.44
274.249	63.44
274.481	74.44
274.713	88.44
274.945	80.44
275.176	74.44
275.408	91.44
275.64	74.44
275.872	80.44
276.104	89.44
276.335	73.44
276.567	89.44
276.799	74.44
277.031	66.44
277.262	82.44
277.494	88.44
277.726	70.44
277.957	81.44
278.189	83.44
278.421	80.44
278.652	98.44
278.884	81.44
279.115	75.44
279.347	86.44
279.579	89.44
279.81	61.44
280.042	82.44
280.273	74.44
280.505	76.44
280.736	89.44
280.968	86.44
281.199	83.44
281.431	63.44
281.662	70.44
281.894	86.44
282.125	89.44
282.356	93.44
282.588	70.44
282.819	103.44
283.051	71.44
283.282	70.44
283.513	92.44
283.745	81.44
283.976	84.44
284.207	84.44
284.439	89.44
284.67	77.44
284.901	95.44
285.132	93.44
285.364	77.44
285.595	85.44
285.826	79.44
286.057	87.44
286.288	96.44
286.52	86.44
286.751	85.44
286.982	78.44
287.213	77.44
287.444	91.44
287.675	86.44
287.906	84.44
288.138	81.44
288.369	76.44
288.6	89.44
288.831	83.44
289.062	86.44
289.293	88.44
289.524	86.44
289.755	79.44
289.986	69.44
290.217	95.44
290.448	95.44
290.679	76.44
290.91	82.44
291.141	93.44
291.371	71.44
291.602	72.44
291.833	75.44
292.064	75.44
292.295	70.44
292.526	86.44
292.757	92.44
292.987	76.44
293.218	72.44
293.449	79.44
293.68	85.44
293.91	76.44
294.141	81.44
294.372	94.44
294.603	63.44
294.833	82.44
295.064	75.44
295.295	89.44
295.525	84.44
295.756	89.44
295.987	96.44
296.217	95.44
296.448	79.44
296.679	71.44
296.909	94.44
297.14	95.44
297.37	106.44
297.601	77.44
297.831	79.44
298.062	75.44
298.292	84.44
298.523	79.44
298.753	82.44
298.984	73.44
299.214	86.44
299.445	90.44
299.675	82.44
299.905	92.44
300.136	82.44
300.366	75.44
300.597	68.44
300.827	87.44
301.057	94.44
301.288	84.44
301.518	83.44
301.748	84.44
301.979	87.44
302.209	90.44
302.439	85.44
302.669	83.44
302.9	95.44
303.13	93.44
303.36	70.44
303.59	82.44
303.82	81.44
304.051	83.44
304.281	88.44
304.511	81.44
304.741	84.44
304.971	88.44
305.201	93.44
305.431	83.44
305.661	79.44
305.891	83.44
306.121	82.44
306.352	87.44
306.582	93.44
306.812	90.44
307.042	92.44
307.272	79.44
307.502	83.44
307.731	87.44
307.961	93.44
308.191	77.44
308.421	71.44
308.651	94.44
308.881	82.44
309.111	85.44
309.341	90.44
309.571	96.44
309.8	81.44
310.03	89.44
310.26	88.44
310.49	88.44
310.72	82.44
310.949	90.44
311.179	88.44
311.409	88.44
311.639	82.44
311.868	93.44
312.098	80.44
312.328	61.44
312.557	79.44
312.787	93.44
313.017	95.44
313.246	82.44
313.476	72.44
313.706	71.44
313.935	88.44
314.165	80.44
314.394	78.44
314.624	81.44
314.853	93.44
315.083	82.44
315.312	87.44
315.542	69.44
315.771	88.44
316.001	69.44
316.23	79.44
316.46	75.44
316.689	103.44
316.919	85.44
317.148	75.44
317.377	92.44
317.607	82.44
317.836	86.44
318.065	74.44
318.295	91.44
318.524	86.44
318.753	92.44
318.983	81.44
319.212	91.44
319.441	94.44
319.67	70.44
319.9	74.44
320.129	87.44
320.358	80.44
320.587	78.44
320.816	87.44
321.046	101.44
321.275	79.44
321.504	88.44
321.733	93.44
321.962	78.44
322.191	75.44
322.42	73.44
322.649	71.44
322.878	105.44
323.108	85.44
323.337	83.44
323.566	96.44
323.795	71.44
324.024	88.44
324.253	85.44
324.482	87.44
324.71	66.44
324.939	77.44
325.168	73.44
325.397	74.44
325.626	82.44
325.855	72.44
326.084	80.44
326.313	96.44
326.542	86.44
326.77	83.44
326.999	81.44
327.228	72.44
327.457	85.44
327.686	81.44
327.914	88.44
328.143	85.44
328.372	80.44
328.6	69.44
328.829	77.44
329.058	79.44
329.287	92.44
329.515	90.44
329.744	79.44
329.972	89.44
330.201	95.44
330.43	96.44
330.658	83.44
330.887	85.44
331.115	85.44
331.344	86.44
331.572	82.44
331.801	92.44
332.03	69.44
332.258	85.44
332.486	76.44
332.715	72.44
332.943	78.44
333.172	95.44
333.4	75.44
333.629	78.44
333.857	89.44
334.085	88.44
334.314	67.44
334.542	96.44
334.771	85.44
334.999	80.44
335.227	96.44
335.455	80.44
335.684	90.44
335.912	87.44
336.14	91.44
336.369	85.44
336.597	92.44
336.825	87.44
337.053	79.44
337.281	83.44
337.51	77.44
337.738	94.44
337.966	70.44
338.194	86.44
338.422	97.44
338.65	95.44
338.878	84.44
339.106	89.44
339.334	93.44
339.562	87.44
339.79	76.44
340.018	75.44
340.246	82.44
340.474	81.44
340.702	98.44
340.93	95.44
341.158	85.44
341.386	83.44
341.614	81.44
341.842	85.44
342.07	86.44
342.298	77.44
342.526	87.44
342.754	93.44
342.981	76.44
343.209	83.44
343.437	101.44
343.665	88.44
343.893	91.44
344.12	82.44
344.348	83.44
344.576	73.44
344.804	90.44
345.031	93.44
345.259	93.44
345.487	82.44
345.714	83.44
345.942	82.44
346.17	83.44
346.397	92.44
346.625	92.44
346.853	84.44
347.08	78.44
347.308	74.44
347.535	78.44
347.763	78.44
347.99	76.44
348.218	85.44
348.445	76.44
348.673	83.44
348.9	95.44
349.128	85.44
349.355	85.44
349.583	81.44
349.81	91.44
350.037	79.44
350.265	87.44
350.492	100.44
350.72	99.44
350.947	87.44
351.174	86.44
351.402	89.44
351.629	84.44
351.856	85.44
352.083	85.44
352.311	98.44
352.538	101.44
352.765	81.44
352.992	89.44
353.22	94.44
353.447	85.44
353.674	89.44
353.901	93.44
354.128	81.44
354.355	78.44
354.583	86.44
354.81	78.44
355.037	98.44
355.264	79.44
355.491	90.44
355.718	81.44
355.945	94.44
356.172	72.44
356.399	77.44
356.626	92.44
356.853	71.44
357.08	84.44
357.307	87.44
357.534	82.44
357.761	87.44
357.988	84.44
358.215	87.44
358.441	82.44
358.668	87.44
358.895	71.44
359.122	85.44
359.349	84.44
359.576	87.44
359.802	78.44
360.029	76.44
360.256	85.44
360.483	85.44
360.709	91.44
360.936	77.44
361.163	79.44
361.39	77.44
361.616	76.44
361.843	69.44
362.07	71.44
362.296	79.44
362.523	71.44
362.749	77.44
362.976	89.44
363.203	101.44
363.429	76.44
363.656	95.44
363.882	86.44
364.109	83.44
364.335	100.44
364.562	82.44
364.788	74.44
365.015	91.44
365.241	89.44
365.468	84.44
365.694	79.44
365.92	85.44
366.147	87.44
366.373	86.44
366.599	86.44
366.826	87.44
367.052	80.44
367.278	83.44
367.505	81.44
367.731	86.44
367.957	88.44
368.184	79.44
368.41	83.44
368.636	92.44
368.862	78.44
369.089	92.44
369.315	85.44
369.541	89.44
369.767	83.44
369.993	79.44
370.219	77.44
370.445	76.44
370.672	91.44
370.898	75.44
371.124	74.44
371.35	73.44
371.576	95.44
371.802	98.44
372.028	83.44
372.254	83.44
372.48	90.44
372.706	68.44
372.932	75.44
373.158	79.44
373.384	90.44
373.61	91.44
373.835	82.44
374.061	77.44
374.287	91.44
374.513	79.44
374.739	80.44
374.965	95.44
375.191	89.44
375.416	90.44
375.642	81.44
375.868	83.44
376.094	82.44
376.319	89.44
376.545	74.44
376.771	87.44
376.997	85.44
377.222	91.44
377.448	76.44
377.674	68.44
377.899	77.44
378.125	79.44
378.35	82.44
378.576	82.44
378.802	81.44
379.027	87.44
379.253	83.44
379.478	76.44
379.704	76.44
379.929	76.44
380.155	76.44
380.38	94.44
380.606	83.44
380.831	68.44
381.057	77.44
381.282	71.44
381.507	92.44
381.733	63.44
381.958	78.44
382.184	79.44
382.409	92.44
382.634	89.44
382.86	103.44
383.085	81.44
383.31	71.44
383.535	76.44
383.761	84.44
383.986	86.44
384.211	75.44
384.436	94.44
384.662	83.44
384.887	80.44
385.112	92.44
385.337	75.44
385.562	76.44
385.787	89.44
386.013	72.44
386.238	91.44
386.463	78.44
386.688	105.44
386.913	89.44
387.138	82.44
387.363	84.44
387.588	100.44
387.813	90.44
388.038	78.44
388.263	94.44
388.488	87.44
388.713	85.44
388.938	89.44
389.163	65.44
389.387	84.44
389.612	86.44
389.837	74.44
390.062	87.44
390.287	82.44
390.512	92.44
390.736	75.44
390.961	82.44
391.186	89.44
391.411	66.44
391.636	68.44
391.86	79.44
392.085	81.44
392.31	82.44
392.534	80.44
392.759	86.44
392.984	81.44
393.208	62.44
393.433	78.44
393.658	88.44
393.882	85.44
394.107	79.44
394.331	94.44
394.556	74.44
394.78	81.44
395.005	73.44
395.229	79.44
395.454	78.44
395.678	81.44
395.903	80.44
396.127	100.44
396.352	101.44
396.576	86.44
396.801	77.44
397.025	81.44
397.249	81.44
397.474	71.44
397.698	92.44
397.922	72.44
398.147	70.44
398.371	72.44
398.595	80.44
398.82	84.44
399.044	76.44
399.268	83.44
399.492	79.44
399.717	92.44
399.941	82.44
400.165	90.44
400.389	70.44
400.613	67.44
400.837	83.44
401.062	77.44
401.286	79.44
401.51	99.44
401.734	93.44
401.958	79.44
402.182	70.44
402.406	84.44
402.63	79.44
402.854	71.44
403.078	78.44
403.302	71.44
403.526	80.44
403.75	79.44
403.974	81.44
404.198	65.44
404.422	88.44
404.645	71.44
404.869	94.44
405.093	66.44
405.317	86.44
405.541	97.44
405.765	77.44
405.988	76.44
406.212	72.44
406.436	74.44
406.66	89.44
406.883	77.44
407.107	78.44
407.331	83.44
407.555	77.44
407.778	86.44
408.002	87.44
408.226	80.44
408.449	83.44
408.673	82.44
408.896	87.44
409.12	85.44
409.344	105.44
409.567	96.44
409.791	81.44
410.014	88.44
410.238	92.44
410.461	98.44
410.685	61.44
410.908	78.44
411.132	88.44
411.355	81.44
411.578	82.44
411.802	70.44
412.025	71.44
412.249	73.44
412.472	80.44
412.695	78.44
412.919	81.44
413.142	77.44
413.365	85.44
413.589	89.44
413.812	92.44
414.035	83.44
414.258	67.44
414.482	89.44
414.705	85.44
414.928	86.44
415.151	57.44
415.374	86.44
415.597	97.44
415.821	95.44
416.044	75.44
416.267	88.44
416.49	91.44
416.713	75.44
416.936	68.44
417.159	86.44
417.382	79.44
417.605	65.44
417.828	89.44
418.051	91.44
418.274	84.44
418.497	79.44
418.72	76.44
418.943	78.44
419.166	82.44
419.389	69.44
419.611	77.44
419.834	93.44
420.057	72.44
420.28	85.44
420.503	76.44
420.726	93.44
420.948	84.44
421.171	77.44
421.394	81.44
421.617	67.44
421.839	83.44
422.062	74.44
422.285	81.44
422.507	90.44
422.73	68.44
422.953	78.44
423.175	75.44
423.398	87.44
423.621	69.44
423.843	72.44
424.066	78.44
424.288	61.44
424.511	68.44
424.733	80.44
424.956	80.44
425.178	70.44
425.401	80.44
425.623	87.44
425.846	85.44
426.068	79.44
426.291	81.44
426.513	88.44
426.735	71.44
426.958	79.44
427.18	97.44
427.402	75.44
427.625	86.44
427.847	77.44
428.069	79.44
428.292	74.44
428.514	84.44
428.736	77.44
428.958	81.44
429.181	82.44
429.403	79.44
429.625	85.44
429.847	74.44
430.069	91.44
430.292	87.44
430.514	64.44
430.736	81.44
430.958	80.44
431.18	82.44
431.402	89.44
431.624	75.44
431.846	82.44
432.068	79.44
432.29	80.44
432.512	83.44
432.734	67.44
432.956	93.44
433.178	83.44
433.4	75.44
433.622	61.44
433.844	88.44
434.066	80.44
434.287	81.44
434.509	82.44
434.731	62.44
434.953	81.44
435.175	63.44
435.397	78.44
435.618	83.44
435.84	75.44
436.062	92.44
436.284	85.44
436.505	89.44
436.727	82.44
436.949	77.44
437.17	69.44
437.392	77.44
437.614	65.44
437.835	71.44
438.057	74.44
438.278	79.44
438.5	79.44
438.721	81.44
438.943	70.44
439.165	75.44
439.386	89.44
439.608	84.44
439.829	81.44
440.05	63.44
440.272	85.44
440.493	80.44
440.715	86.44
440.936	81.44
441.158	70.44
441.379	82.44
441.6	83.44
441.822	76.44
442.043	89.44
442.264	87.44
442.486	86.44
442.707	75.44
442.928	82.44
443.149	94.44
443.371	82.44
443.592	71.44
443.813	79.44
444.034	73.44
444.255	79.44
444.476	82.44
444.698	71.44
444.919	81.44
445.14	137.44
445.361	98.44
445.582	81.44
445.803	72.44
446.024	86.44
446.245	69.44
446.466	88.44
446.687	72.44
446.908	77.44
447.129	91.44
447.35	86.44
447.571	89.44
447.792	87.44
448.013	83.44
448.234	81.44
448.455	84.44
448.675	73.44
448.896	85.44
449.117	78.44
449.338	81.44
449.559	77.44
449.779	64.44
450	83.44
450.221	82.44
450.442	76.44
450.662	67.44
450.883	74.44
451.104	84.44
451.324	94.44
451.545	86.44
451.766	68.44
451.986	81.44
452.207	80.44
452.428	57.44
452.648	75.44
452.869	84.44
453.089	79.44
453.31	75.44
453.53	86.44
453.751	79.44
453.971	75.44
454.192	74.44
454.412	71.44
454.633	65.44
454.853	54.44
455.073	84.44
455.294	75.44
455.514	86.44
455.734	77.44
455.955	93.44
456.175	83.44
456.395	81.44
456.616	71.44
456.836	86.44
457.056	70.44
457.276	71.44
457.497	75.44
457.717	67.44
457.937	75.44
458.157	88.44
458.377	90.44
458.598	79.44
458.818	67.44
459.038	78.44
459.258	81.44
459.478	80.44
459.698	91.44
459.918	79.44
460.138	83.44
460.358	65.44
460.578	77.44
460.798	79.44
461.018	82.44
461.238	77.44
461.458	91.44
461.678	75.44
461.898	71.44
462.118	67.44
462.338	81.44
462.558	76.44
462.777	67.44
462.997	75.44
463.217	86.44
463.437	87.44
463.657	83.44
463.876	87.44
464.096	87.44
464.316	93.44
464.536	79.44
464.755	90.44
464.975	81.44
465.195	89.44
465.414	91.44
465.634	72.44
465.854	89.44
466.073	83.44
466.293	86.44
466.512	55.44
466.732	79.44
466.951	81.44
467.171	85.44
467.391	82.44
467.61	81.44
467.829	75.44
468.049	73.44
468.268	80.44
468.488	72.44
468.707	97.44
468.927	83.44
469.146	75.44
469.365	77.44
469.585	92.44
469.804	79.44
470.023	81.44
470.243	68.44
470.462	72.44
470.681	77.44
470.901	83.44
471.12	89.44
471.339	87.44
471.558	94.44
471.777	75.44
471.997	86.44
472.216	82.44
472.435	70.44
472.654	89.44
472.873	88.44
473.092	73.44
473.311	76.44
473.53	85.44
473.749	74.44
473.968	76.44
474.187	87.44
474.406	78.44
474.625	85.44
474.844	89.44
475.063	92.44
475.282	98.44
475.501	89.44
475.72	87.44
475.939	87.44
476.158	68.44
476.377	74.44
476.596	81.44
476.814	91.44
477.033	82.44
477.252	79.44
477.471	83.44
477.69	77.44
477.908	88.44
478.127	95.44
478.346	65.44
478.564	87.44
478.783	71.44
479.002	71.44
479.22	81.44
479.439	96.44
479.658	87.44
479.876	86.44
480.095	86.44
480.313	67.44
480.532	95.44
480.751	85.44
480.969	73.44
481.188	75.44
481.406	84.44
481.624	79.44
481.843	95.44
482.061	76.44
482.28	69.44
482.498	80.44
482.717	85.44
482.935	75.44
483.153	70.44
483.372	70.44
483.59	74.44
483.808	105.44
484.027	87.44
484.245	73.44
484.463	89.44
484.681	85.44
484.9	75.44
485.118	87.44
485.336	87.44
485.554	88.44
485.772	77.44
485.99	85.44
486.209	80.44
486.427	76.44
486.645	79.44
486.863	67.44
487.081	81.44
487.299	92.44
487.517	81.44
487.735	82.44
487.953	91.44
488.171	90.44
488.389	86.44
488.607	83.44
488.825	79.44
489.043	80.44
489.261	88.44
489.479	85.44
489.696	96.44
489.914	90.44
490.132	69.44
490.35	70.44
490.568	74.44
490.786	92.44
491.003	84.44
491.221	76.44
491.439	83.44
491.657	81.44
491.874	74.44
492.092	97.44
492.31	81.44
492.527	77.44
492.745	85.44
492.963	83.44
493.18	79.44
493.398	78.44
493.615	88.44
493.833	93.44
494.05	80.44
494.268	78.44
494.485	90.44
494.703	81.44
494.92	85.44
495.138	79.44
495.355	79.44
495.573	89.44
495.79	92.44
496.008	83.44
496.225	81.44
496.442	90.44
496.66	80.44
496.877	86.44
497.094	87.44
497.312	77.44
497.529	82.44
497.746	78.44
497.963	82.44
498.181	74.44
498.398	89.44
498.615	69.44
498.832	79.44
499.049	73.44
499.267	85.44
499.484	77.44
499.701	69.44
499.918	82.44
500.135	79.44
500.352	96.44
500.569	67.44
500.786	87.44
501.003	89.44
501.22	87.44
501.437	90.44
501.654	86.44
501.871	90.44
502.088	81.44
502.305	72.44
502.522	77.44
502.739	85.44
502.956	83.44
503.172	81.44
503.389	91.44
503.606	91.44
503.823	83.44
504.04	90.44
504.256	79.44
504.473	68.44
504.69	81.44
504.907	88.44
505.123	85.44
505.34	77.44
505.557	71.44
505.773	73.44
505.99	78.44
506.207	77.44
506.423	66.44
506.64	78.44
506.856	68.44
507.073	82.44
507.289	87.44
507.506	68.44
507.722	80.44
507.939	81.44
508.155	83.44
508.372	80.44
508.588	70.44
508.805	82.44
509.021	97.44
509.238	87.44
509.454	89.44
509.67	86.44
509.887	83.44
510.103	66.44
510.319	84.44
510.536	75.44
510.752	79.44
510.968	85.44
511.184	65.44
511.401	78.44
511.617	89.44
511.833	78.44
512.049	83.44
512.265	78.44
512.481	95.44
512.698	87.44
512.914	78.44
513.13	82.44
513.346	95.44
513.562	86.44
513.778	74.44
513.994	89.44
514.21	88.44
514.426	77.44
514.642	86.44
514.858	78.44
515.074	87.44
515.29	99.44
515.506	83.44
515.721	75.44
515.937	89.44
516.153	94.44
516.369	87.44
516.585	82.44
516.801	76.44
517.016	73.44
517.232	85.44
517.448	89.44
517.664	75.44
517.879	83.44
518.095	86.44
518.311	87.44
518.527	86.44
518.742	64.44
518.958	71.44
519.173	90.44
519.389	91.44
519.605	83.44
519.82	83.44
520.036	83.44
520.251	87.44
520.467	84.44
520.682	79.44
520.898	84.44
521.113	71.44
521.329	86.44
521.544	72.44
521.76	85.44
521.975	79.44
522.19	84.44
522.406	77.44
522.621	94.44
522.836	80.44
523.052	99.44
523.267	107.44
523.482	75.44
523.698	85.44
523.913	70.44
524.128	103.44
524.343	85.44
524.559	67.44
524.774	90.44
524.989	81.44
525.204	86.44
525.419	79.44
525.634	86.44
525.849	96.44
526.064	91.44
526.28	74.44
526.495	74.44
526.71	74.44
526.925	87.44
527.14	71.44
527.355	80.44
527.57	81.44
527.785	83.44
527.999	88.44
528.214	113.44
528.429	76.44
528.644	84.44
528.859	82.44
529.074	84.44
529.289	86.44
529.503	78.44
529.718	69.44
529.933	91.44
530.148	90.44
530.363	66.44
530.577	81.44
530.792	95.44
531.007	86.44
531.221	90.44
531.436	84.44
531.651	75.44
531.865	80.44
532.08	76.44
532.295	84.44
532.509	81.44
532.724	82.44
532.938	87.44
533.153	74.44
533.367	80.44
533.582	77.44
533.796	97.44
534.011	78.44
534.225	77.44
534.44	76.44
534.654	80.44
534.868	74.44
535.083	78.44
535.297	95.44
535.511	82.44
535.726	77.44
535.94	65.44
536.154	82.44
536.369	71.44
536.583	102.44
536.797	89.44
537.011	87.44
537.225	75.44
537.44	92.44
537.654	80.44
537.868	91.44
538.082	88.44
538.296	75.44
538.51	89.44
538.724	77.44
538.938	83.44
539.153	93.44
539.367	84.44
539.581	93.44
539.795	69.44
540.009	78.44
540.222	92.44
540.436	79.44
540.65	85.44
540.864	89.44
541.078	74.44
541.292	95.44
541.506	98.44
541.72	89.44
541.934	85.44
542.147	82.44
542.361	85.44
542.575	73.44
542.789	81.44
543.002	86.44
543.216	91.44
543.43	85.44
543.644	93.44
543.857	77.44
544.071	82.44
544.285	85.44
544.498	80.44
544.712	81.44
544.925	71.44
545.139	85.44
545.352	86.44
545.566	81.44
545.779	89.44
545.993	106.44
546.206	94.44
546.42	75.44
546.633	82.44
546.847	97.44
547.06	74.44
547.274	96.44
547.487	80.44
547.7	87.44
547.914	91.44
548.127	81.44
548.34	91.44
548.554	83.44
548.767	90.44
548.98	93.44
549.193	105.44
549.407	94.44
549.62	86.44
549.833	72.44
550.046	79.44
550.259	83.44
550.473	91.44
550.686	88.44
550.899	83.44
551.112	81.44
551.325	81.44
551.538	79.44
551.751	83.44
551.964	72.44
552.177	89.44
552.39	78.44
552.603	74.44
552.816	82.44
553.029	83.44
553.242	86.44
553.455	77.44
553.667	92.44
553.88	87.44
554.093	86.44
554.306	73.44
554.519	72.44
554.732	70.44
554.944	92.44
555.157	83.44
555.37	87.44
555.583	82.44
555.795	91.44
556.008	81.44
556.221	96.44
556.433	76.44
556.646	78.44
556.859	91.44
557.071	89.44
557.284	97.44
557.496	94.44
557.709	83.44
557.921	79.44
558.134	81.44
558.346	74.44
558.559	81.44
558.771	78.44
558.984	69.44
559.196	89.44
559.409	87.44
559.621	79.44
559.833	89.44
560.046	78.44
560.258	89.44
560.47	83.44
560.683	93.44
560.895	85.44
561.107	89.44
561.32	81.44
561.532	83.44
561.744	91.44
561.956	80.44
562.168	81.44
562.381	84.44
562.593	87.44
562.805	71.44
563.017	75.44
563.229	88.44
563.441	89.44
563.653	86.44
563.865	85.44
564.077	79.44
564.289	82.44
564.501	90.44
564.713	87.44
564.925	86.44
565.137	82.44
565.349	88.44
565.561	90.44
565.773	84.44
565.985	79.44
566.197	75.44
566.408	83.44
566.62	81.44
566.832	69.44
567.044	96.44
567.255	84.44
567.467	87.44
567.679	78.44
567.891	91.44
568.102	84.44
568.314	91.44
568.526	98.44
568.737	85.44
568.949	81.44
569.161	89.44
569.372	82.44
569.584	90.44
569.795	88.44
570.007	82.44
570.218	87.44
570.43	76.44
570.641	92.44
570.853	84.44
571.064	95.44
571.276	78.44
571.487	67.44
571.698	81.44
571.91	77.44
572.121	74.44
572.333	85.44
572.544	82.44
572.755	74.44
572.966	99.44
573.178	73.44
573.389	81.44
573.6	88.44
573.811	75.44
574.023	84.44
574.234	78.44
574.445	80.44
574.656	80.44
574.867	84.44
575.078	90.44
575.289	81.44
575.501	79.44
575.712	79.44
575.923	82.44
576.134	75.44
576.345	71.44
576.556	85.44
576.767	89.44
576.978	83.44
577.188	77.44
577.399	89.44
577.61	80.44
577.821	82.44
578.032	71.44
578.243	86.44
578.454	91.44
578.665	85.44
578.875	87.44
579.086	82.44
579.297	68.44
579.508	79.44
579.718	82.44
579.929	82.44
580.14	93.44
580.35	88.44
580.561	74.44
580.772	75.44
580.982	59.44
581.193	78.44
581.403	69.44
581.614	83.44
581.825	72.44
582.035	59.44
582.246	79.44
582.456	86.44
582.667	82.44
582.877	79.44
583.087	81.44
583.298	87.44
583.508	86.44
583.719	86.44
583.929	67.44
584.139	88.44
584.35	92.44
584.56	93.44
584.77	91.44
584.981	75.44
585.191	86.44
585.401	80.44
585.611	82.44
585.821	80.44
586.032	91.44
586.242	87.44
586.452	85.44
586.662	79.44
586.872	77.44
587.082	86.44
587.292	91.44
587.502	94.44
587.713	84.44
587.923	97.44
588.133	93.44
588.343	95.44
588.553	96.44
588.762	89.44
588.972	91.44
589.182	81.44
589.392	86.44
589.602	82.44
589.812	83.44
590.022	86.44
590.232	69.44
590.441	97.44
590.651	87.44
590.861	75.44
591.071	79.44
591.281	97.44
591.49	83.44
591.7	86.44
591.91	73.44
592.119	94.44
592.329	94.44
592.539	72.44
592.748	70.44
592.958	81.44
593.167	93.44
593.377	83.44
593.587	97.44
593.796	66.44
594.006	89.44
594.215	91.44
594.424	86.44
594.634	73.44
594.843	69.44
595.053	85.44
595.262	85.44
595.472	86.44
595.681	85.44
595.89	76.44
596.1	77.44
596.309	87.44
596.518	98.44
596.727	84.44
596.937	90.44
597.146	93.44
597.355	81.44
597.564	93.44
597.774	87.44
597.983	76.44
598.192	91.44
598.401	84.44
598.61	76.44
598.819	84.44
599.028	76.44
599.237	93.44
599.446	79.44
599.655	96.44
599.864	89.44
600.073	75.44
600.282	89.44
600.491	80.44
600.7	96.44
600.909	85.44
601.118	85.44
601.327	81.44
601.536	69.44
601.745	82.44
601.953	89.44
602.162	79.44
602.371	79.44
602.58	77.44
602.789	91.44
602.997	77.44
603.206	94.44
603.415	83.44
603.623	91.44
603.832	91.44
604.041	86.44
604.249	76.44
604.458	87.44
604.666	81.44
604.875	87.44
605.084	78.44
605.292	73.44
605.501	81.44
605.709	85.44
605.918	78.44
606.126	87.44
606.334	90.44
606.543	68.44
606.751	81.44
606.96	89.44
607.168	87.44
607.376	93.44
607.585	95.44
607.793	81.44
608.001	87.44
608.21	86.44
608.418	89.44
608.626	93.44
608.834	83.44
609.043	81.44
609.251	81.44
609.459	90.44
609.667	81.44
609.875	86.44
610.083	80.44
610.291	84.44
610.499	87.44
610.707	88.44
610.916	86.44
611.124	92.44
611.332	96.44
611.54	66.44
611.748	90.44
611.955	77.44
612.163	97.44
612.371	89.44
612.579	88.44
612.787	91.44
612.995	87.44
613.203	86.44
613.411	91.44
613.618	78.44
613.826	69.44
614.034	87.44
614.242	87.44
614.449	83.44
614.657	71.44
614.865	81.44
615.072	92.44
615.28	78.44
615.488	76.44
615.695	77.44
615.903	80.44
616.111	86.44
616.318	80.44
616.526	78.44
616.733	75.44
616.941	78.44
617.148	85.44
617.356	96.44
617.563	90.44
617.771	79.44
617.978	91.44
618.185	79.44
618.393	73.44
618.6	87.44
618.807	81.44
619.015	75.44
619.222	79.44
619.429	82.44
619.637	81.44
619.844	83.44
620.051	78.44
620.258	76.44
620.466	62.44
620.673	79.44
620.88	72.44
621.087	91.44
621.294	91.44
621.501	77.44
621.708	93.44
621.915	66.44
622.122	81.44
622.329	77.44
622.536	78.44
622.743	79.44
622.95	85.44
623.157	74.44
623.364	93.44
623.571	91.44
623.778	72.44
623.985	83.44
624.192	71.44
624.399	75.44
624.606	81.44
624.812	90.44
625.019	75.44
625.226	77.44
625.433	98.44
625.639	89.44
625.846	94.44
626.053	89.44
626.259	77.44
626.466	77.44
626.673	60.44
626.879	80.44
627.086	93.44
627.293	74.44
627.499	81.44
627.706	85.44
627.912	66.44
628.119	70.44
628.325	81.44
628.532	81.44
628.738	59.44
628.945	81.44
629.151	94.44
629.357	84.44
629.564	87.44
629.77	93.44
629.976	77.44
630.183	75.44
630.389	82.44
630.595	90.44
630.802	88.44
631.008	88.44
631.214	89.44
631.42	88.44
631.627	94.44
631.833	86.44
632.039	77.44
632.245	86.44
632.451	94.44
632.657	79.44
632.863	87.44
633.069	84.44
633.275	84.44
633.481	82.44
633.688	75.44
633.893	81.44
634.099	92.44
634.305	85.44
634.511	91.44
634.717	90.44
634.923	76.44
635.129	81.44
635.335	81.44
635.541	92.44
635.747	70.44
635.952	81.44
636.158	84.44
636.364	87.44
636.57	97.44
636.775	100.44
636.981	82.44
637.187	89.44
637.392	67.44
637.598	93.44
637.804	96.44
638.009	87.44
638.215	75.44
638.421	95.44
638.626	89.44
638.832	65.44
639.037	82.44
639.243	79.44
639.448	84.44
639.654	86.44
639.859	81.44
640.065	80.44
640.27	87.44
640.475	81.44
640.681	99.44
640.886	72.44
641.091	77.44
641.297	91.44
641.502	100.44
641.707	89.44
641.913	85.44
642.118	93.44
642.323	84.44
642.528	93.44
642.733	90.44
642.939	83.44
643.144	94.44
643.349	78.44
643.554	81.44
643.759	86.44
643.964	103.44
644.169	83.44
644.374	78.44
644.579	89.44
644.784	96.44
644.989	86.44
645.194	71.44
645.399	80.44
645.604	93.44
645.809	85.44
646.014	89.44
646.219	79.44
646.423	83.44
646.628	86.44
646.833	88.44
647.038	79.44
647.243	87.44
647.447	81.44
647.652	71.44
647.857	88.44
648.062	82.44
648.266	84.44
648.471	69.44
648.676	84.44
648.88	94.44
649.085	81.44
649.289	83.44
649.494	89.44
649.698	93.44
649.903	85.44
650.107	82.44
650.312	82.44
650.516	103.44
650.721	77.44
650.925	73.44
651.13	79.44
651.334	75.44
651.539	70.44
651.743	76.44
651.947	88.44
652.152	94.44
652.356	65.44
652.56	73.44
652.764	78.44
652.969	91.44
653.173	77.44
653.377	78.44
653.581	90.44
653.785	89.44
653.99	77.44
654.194	85.44
654.398	85.44
654.602	88.44
654.806	88.44
655.01	89.44
655.214	91.44
655.418	82.44
655.622	83.44
655.826	76.44
656.03	90.44
656.234	71.44
656.438	77.44
656.642	83.44
656.846	94.44
657.049	82.44
657.253	73.44
657.457	91.44
657.661	91.44
657.865	96.44
658.068	79.44
658.272	93.44
658.476	69.44
658.68	83.44
658.883	71.44
659.087	79.44
659.291	83.44
659.494	80.44
659.698	81.44
659.901	89.44
660.105	81.44
660.309	84.44
660.512	79.44
660.716	88.44
660.919	81.44
661.123	84.44
661.326	82.44
661.53	73.44
661.733	70.44
661.936	84.44
662.14	71.44
662.343	85.44
662.546	95.44
662.75	70.44
662.953	78.44
663.156	84.44
663.36	94.44
663.563	73.44
663.766	71.44
663.969	94.44
664.173	87.44
664.376	85.44
664.579	84.44
664.782	89.44
664.985	91.44
665.188	82.44
665.391	73.44
665.594	88.44
665.797	90.44
666	96.44
666.203	78.44
666.406	68.44
666.609	82.44
666.812	79.44
667.015	78.44
667.218	84.44
667.421	88.44
667.624	89.44
667.827	72.44
668.03	70.44
668.232	93.44
668.435	91.44
668.638	86.44
668.841	77.44
669.043	83.44
669.246	77.44
669.449	86.44
669.651	79.44
669.854	78.44
670.057	78.44
670.259	73.44
670.462	87.44
670.665	78.44
670.867	91.44
671.07	85.44
671.272	89.44
671.475	86.44
671.677	84.44
671.88	79.44
672.082	94.44
672.284	66.44
672.487	81.44
672.689	80.44
672.892	82.44
