Data from Background_3_HRD10591_00054.txt Node
Date: Wed Nov 05 14:49:46 EST 2025
User: Yrep
Spectrometer: HR+D1059
Trigger mode: 1
Integration Time (sec): 1.000000E-1
Scans to average: 1
Electric dark correction enabled: true
Nonlinearity correction enabled: false
Boxcar width: 0
XAxis mode: Wavelengths
Number of Pixels in Spectrum: 2048
>>>>>Begin Spectral Data<<<<<
223.165	-16.5
223.4	-16.5
223.635	-16.5
223.869	-17.5
224.104	-19.5
224.338	-4.5
224.573	-24.5
224.808	-12.5
225.042	1.5
225.277	1.5
225.511	4.5
225.746	3.5
225.98	-0.5
226.215	28.5
226.449	1.5
226.683	3.5
226.918	18.5
227.152	32.5
227.387	38.5
227.621	46.5
227.856	44.5
228.09	47.5
228.324	43.5
228.559	52.5
228.793	56.5
229.027	75.5
229.262	57.5
229.496	52.5
229.73	63.5
229.964	77.5
230.199	70.5
230.433	76.5
230.667	73.5
230.901	86.5
231.136	73.5
231.37	87.5
231.604	80.5
231.838	83.5
232.072	72.5
232.306	71.5
232.541	84.5
232.775	92.5
233.009	78.5
233.243	83.5
233.477	87.5
233.711	73.5
233.945	67.5
234.179	74.5
234.413	82.5
234.647	85.5
234.881	87.5
235.115	77.5
235.349	75.5
235.583	81.5
235.817	66.5
236.051	85.5
236.285	85.5
236.519	81.5
236.753	78.5
236.987	82.5
237.221	77.5
237.455	87.5
237.689	64.5
237.922	77.5
238.156	83.5
238.39	68.5
238.624	65.5
238.858	71.5
239.091	88.5
239.325	69.5
239.559	71.5
239.793	62.5
240.027	75.5
240.26	77.5
240.494	77.5
240.728	69.5
240.961	71.5
241.195	69.5
241.429	84.5
241.662	75.5
241.896	91.5
242.13	63.5
242.363	59.5
242.597	73.5
242.83	65.5
243.064	79.5
243.298	87.5
243.531	68.5
243.765	80.5
243.998	87.5
244.232	81.5
244.465	81.5
244.699	92.5
244.932	67.5
245.166	63.5
245.399	80.5
245.633	77.5
245.866	85.5
246.099	77.5
246.333	69.5
246.566	63.5
246.8	77.5
247.033	82.5
247.266	79.5
247.5	82.5
247.733	64.5
247.966	76.5
248.2	83.5
248.433	76.5
248.666	78.5
248.899	77.5
249.133	78.5
249.366	87.5
249.599	78.5
249.832	69.5
250.066	92.5
250.299	86.5
250.532	74.5
250.765	74.5
250.998	84.5
251.231	77.5
251.465	74.5
251.698	82.5
251.931	69.5
252.164	67.5
252.397	68.5
252.63	91.5
252.863	71.5
253.096	96.5
253.329	78.5
253.562	77.5
253.795	73.5
254.028	82.5
254.261	71.5
254.494	86.5
254.727	88.5
254.96	78.5
255.193	83.5
255.426	76.5
255.659	88.5
255.892	84.5
256.124	91.5
256.357	77.5
256.59	75.5
256.823	71.5
257.056	84.5
257.289	71.5
257.521	81.5
257.754	77.5
257.987	76.5
258.22	71.5
258.452	82.5
258.685	83.5
258.918	77.5
259.151	62.5
259.383	87.5
259.616	76.5
259.849	87.5
260.081	88.5
260.314	70.5
260.547	83.5
260.779	67.5
261.012	62.5
261.244	86.5
261.477	94.5
261.71	72.5
261.942	73.5
262.175	73.5
262.407	80.5
262.64	70.5
262.872	74.5
263.105	79.5
263.337	82.5
263.57	74.5
263.802	56.5
264.035	70.5
264.267	73.5
264.499	84.5
264.732	75.5
264.964	76.5
265.197	74.5
265.429	81.5
265.661	96.5
265.894	68.5
266.126	95.5
266.358	91.5
266.591	81.5
266.823	80.5
267.055	80.5
267.287	73.5
267.52	85.5
267.752	90.5
267.984	74.5
268.216	84.5
268.448	85.5
268.681	77.5
268.913	84.5
269.145	87.5
269.377	75.5
269.609	83.5
269.841	75.5
270.073	73.5
270.306	87.5
270.538	68.5
270.77	95.5
271.002	83.5
271.234	83.5
271.466	82.5
271.698	77.5
271.93	78.5
272.162	67.5
272.394	74.5
272.626	75.5
272.858	90.5
273.09	74.5
273.322	77.5
273.553	78.5
273.785	73.5
274.017	86.5
274.249	69.5
274.481	75.5
274.713	81.5
274.945	76.5
275.176	72.5
275.408	84.5
275.64	72.5
275.872	80.5
276.104	87.5
276.335	91.5
276.567	77.5
276.799	85.5
277.031	87.5
277.262	73.5
277.494	90.5
277.726	75.5
277.957	86.5
278.189	96.5
278.421	77.5
278.652	74.5
278.884	84.5
279.115	96.5
279.347	79.5
279.579	81.5
279.81	80.5
280.042	71.5
280.273	63.5
280.505	76.5
280.736	81.5
280.968	85.5
281.199	99.5
281.431	82.5
281.662	73.5
281.894	81.5
282.125	75.5
282.356	68.5
282.588	73.5
282.819	79.5
283.051	88.5
283.282	85.5
283.513	77.5
283.745	69.5
283.976	73.5
284.207	75.5
284.439	70.5
284.67	92.5
284.901	80.5
285.132	74.5
285.364	77.5
285.595	89.5
285.826	79.5
286.057	80.5
286.288	81.5
286.52	75.5
286.751	69.5
286.982	81.5
287.213	76.5
287.444	91.5
287.675	77.5
287.906	82.5
288.138	73.5
288.369	91.5
288.6	81.5
288.831	83.5
289.062	74.5
289.293	77.5
289.524	68.5
289.755	84.5
289.986	96.5
290.217	87.5
290.448	85.5
290.679	81.5
290.91	90.5
291.141	96.5
291.371	97.5
291.602	85.5
291.833	82.5
292.064	78.5
292.295	74.5
292.526	59.5
292.757	85.5
292.987	68.5
293.218	82.5
293.449	75.5
293.68	88.5
293.91	81.5
294.141	97.5
294.372	75.5
294.603	97.5
294.833	81.5
295.064	81.5
295.295	76.5
295.525	78.5
295.756	77.5
295.987	71.5
296.217	79.5
296.448	83.5
296.679	82.5
296.909	90.5
297.14	73.5
297.37	87.5
297.601	84.5
297.831	75.5
298.062	83.5
298.292	80.5
298.523	82.5
298.753	68.5
298.984	71.5
299.214	83.5
299.445	75.5
299.675	85.5
299.905	79.5
300.136	86.5
300.366	85.5
300.597	78.5
300.827	87.5
301.057	93.5
301.288	90.5
301.518	76.5
301.748	79.5
301.979	103.5
302.209	82.5
302.439	78.5
302.669	78.5
302.9	79.5
303.13	73.5
303.36	87.5
303.59	76.5
303.82	95.5
304.051	75.5
304.281	72.5
304.511	89.5
304.741	71.5
304.971	83.5
305.201	95.5
305.431	76.5
305.661	91.5
305.891	87.5
306.121	88.5
306.352	84.5
306.582	93.5
306.812	68.5
307.042	95.5
307.272	91.5
307.502	79.5
307.731	99.5
307.961	86.5
308.191	95.5
308.421	81.5
308.651	77.5
308.881	89.5
309.111	82.5
309.341	88.5
309.571	69.5
309.8	78.5
310.03	84.5
310.26	68.5
310.49	91.5
310.72	80.5
310.949	93.5
311.179	82.5
311.409	69.5
311.639	82.5
311.868	91.5
312.098	94.5
312.328	86.5
312.557	87.5
312.787	80.5
313.017	94.5
313.246	89.5
313.476	78.5
313.706	85.5
313.935	88.5
314.165	93.5
314.394	78.5
314.624	71.5
314.853	80.5
315.083	84.5
315.312	90.5
315.542	84.5
315.771	82.5
316.001	83.5
316.23	92.5
316.46	81.5
316.689	87.5
316.919	79.5
317.148	81.5
317.377	78.5
317.607	96.5
317.836	84.5
318.065	87.5
318.295	95.5
318.524	77.5
318.753	75.5
318.983	75.5
319.212	90.5
319.441	79.5
319.67	80.5
319.9	90.5
320.129	77.5
320.358	85.5
320.587	81.5
320.816	79.5
321.046	83.5
321.275	69.5
321.504	86.5
321.733	81.5
321.962	87.5
322.191	77.5
322.42	100.5
322.649	75.5
322.878	85.5
323.108	94.5
323.337	81.5
323.566	79.5
323.795	71.5
324.024	82.5
324.253	77.5
324.482	83.5
324.71	88.5
324.939	84.5
325.168	90.5
325.397	74.5
325.626	92.5
325.855	83.5
326.084	78.5
326.313	75.5
326.542	85.5
326.77	73.5
326.999	89.5
327.228	76.5
327.457	80.5
327.686	88.5
327.914	84.5
328.143	80.5
328.372	88.5
328.6	74.5
328.829	87.5
329.058	65.5
329.287	86.5
329.515	76.5
329.744	94.5
329.972	90.5
330.201	88.5
330.43	79.5
330.658	91.5
330.887	92.5
331.115	72.5
331.344	92.5
331.572	68.5
331.801	71.5
332.03	67.5
332.258	84.5
332.486	75.5
332.715	74.5
332.943	77.5
333.172	91.5
333.4	83.5
333.629	88.5
333.857	88.5
334.085	89.5
334.314	87.5
334.542	90.5
334.771	95.5
334.999	79.5
335.227	82.5
335.455	86.5
335.684	84.5
335.912	82.5
336.14	87.5
336.369	79.5
336.597	95.5
336.825	77.5
337.053	94.5
337.281	73.5
337.51	89.5
337.738	87.5
337.966	89.5
338.194	79.5
338.422	67.5
338.65	83.5
338.878	68.5
339.106	68.5
339.334	75.5
339.562	77.5
339.79	79.5
340.018	75.5
340.246	79.5
340.474	89.5
340.702	73.5
340.93	86.5
341.158	75.5
341.386	81.5
341.614	87.5
341.842	89.5
342.07	92.5
342.298	79.5
342.526	90.5
342.754	98.5
342.981	108.5
343.209	81.5
343.437	94.5
343.665	79.5
343.893	87.5
344.12	95.5
344.348	83.5
344.576	82.5
344.804	90.5
345.031	87.5
345.259	72.5
345.487	90.5
345.714	87.5
345.942	74.5
346.17	94.5
346.397	95.5
346.625	86.5
346.853	83.5
347.08	84.5
347.308	49.5
347.535	89.5
347.763	85.5
347.99	82.5
348.218	99.5
348.445	90.5
348.673	85.5
348.9	83.5
349.128	96.5
349.355	82.5
349.583	82.5
349.81	92.5
350.037	91.5
350.265	79.5
350.492	97.5
350.72	66.5
350.947	84.5
351.174	67.5
351.402	77.5
351.629	85.5
351.856	88.5
352.083	81.5
352.311	84.5
352.538	88.5
352.765	88.5
352.992	91.5
353.22	80.5
353.447	76.5
353.674	75.5
353.901	80.5
354.128	68.5
354.355	76.5
354.583	75.5
354.81	76.5
355.037	90.5
355.264	83.5
355.491	61.5
355.718	77.5
355.945	93.5
356.172	78.5
356.399	83.5
356.626	81.5
356.853	75.5
357.08	81.5
357.307	83.5
357.534	88.5
357.761	85.5
357.988	75.5
358.215	86.5
358.441	80.5
358.668	87.5
358.895	70.5
359.122	82.5
359.349	79.5
359.576	72.5
359.802	75.5
360.029	84.5
360.256	74.5
360.483	80.5
360.709	87.5
360.936	82.5
361.163	74.5
361.39	91.5
361.616	68.5
361.843	72.5
362.07	81.5
362.296	78.5
362.523	76.5
362.749	68.5
362.976	81.5
363.203	86.5
363.429	75.5
363.656	69.5
363.882	75.5
364.109	75.5
364.335	73.5
364.562	72.5
364.788	91.5
365.015	78.5
365.241	57.5
365.468	82.5
365.694	73.5
365.92	90.5
366.147	73.5
366.373	68.5
366.599	79.5
366.826	88.5
367.052	92.5
367.278	88.5
367.505	70.5
367.731	74.5
367.957	77.5
368.184	87.5
368.41	83.5
368.636	95.5
368.862	74.5
369.089	91.5
369.315	90.5
369.541	83.5
369.767	84.5
369.993	85.5
370.219	86.5
370.445	76.5
370.672	75.5
370.898	83.5
371.124	84.5
371.35	80.5
371.576	84.5
371.802	65.5
372.028	79.5
372.254	87.5
372.48	91.5
372.706	94.5
372.932	79.5
373.158	81.5
373.384	85.5
373.61	76.5
373.835	90.5
374.061	83.5
374.287	84.5
374.513	84.5
374.739	81.5
374.965	70.5
375.191	76.5
375.416	79.5
375.642	85.5
375.868	63.5
376.094	77.5
376.319	74.5
376.545	87.5
376.771	89.5
376.997	87.5
377.222	84.5
377.448	67.5
377.674	82.5
377.899	85.5
378.125	80.5
378.35	82.5
378.576	76.5
378.802	84.5
379.027	75.5
379.253	68.5
379.478	76.5
379.704	73.5
379.929	60.5
380.155	84.5
380.38	91.5
380.606	94.5
380.831	84.5
381.057	75.5
381.282	85.5
381.507	95.5
381.733	98.5
381.958	86.5
382.184	73.5
382.409	85.5
382.634	74.5
382.86	76.5
383.085	85.5
383.31	79.5
383.535	85.5
383.761	77.5
383.986	66.5
384.211	76.5
384.436	85.5
384.662	91.5
384.887	83.5
385.112	88.5
385.337	80.5
385.562	96.5
385.787	88.5
386.013	93.5
386.238	87.5
386.463	79.5
386.688	93.5
386.913	79.5
387.138	84.5
387.363	69.5
387.588	96.5
387.813	91.5
388.038	61.5
388.263	71.5
388.488	76.5
388.713	86.5
388.938	83.5
389.163	89.5
389.387	75.5
389.612	56.5
389.837	77.5
390.062	82.5
390.287	75.5
390.512	72.5
390.736	69.5
390.961	75.5
391.186	95.5
391.411	87.5
391.636	95.5
391.86	85.5
392.085	81.5
392.31	85.5
392.534	79.5
392.759	93.5
392.984	82.5
393.208	91.5
393.433	92.5
393.658	86.5
393.882	70.5
394.107	89.5
394.331	61.5
394.556	61.5
394.78	62.5
395.005	83.5
395.229	78.5
395.454	71.5
395.678	80.5
395.903	84.5
396.127	82.5
396.352	79.5
396.576	80.5
396.801	74.5
397.025	77.5
397.249	90.5
397.474	84.5
397.698	85.5
397.922	84.5
398.147	73.5
398.371	78.5
398.595	98.5
398.82	85.5
399.044	85.5
399.268	84.5
399.492	82.5
399.717	84.5
399.941	80.5
400.165	76.5
400.389	82.5
400.613	67.5
400.837	77.5
401.062	87.5
401.286	71.5
401.51	66.5
401.734	77.5
401.958	69.5
402.182	95.5
402.406	85.5
402.63	88.5
402.854	96.5
403.078	76.5
403.302	76.5
403.526	81.5
403.75	74.5
403.974	74.5
404.198	83.5
404.422	79.5
404.645	68.5
404.869	84.5
405.093	65.5
405.317	92.5
405.541	86.5
405.765	85.5
405.988	75.5
406.212	83.5
406.436	85.5
406.66	91.5
406.883	83.5
407.107	73.5
407.331	79.5
407.555	85.5
407.778	69.5
408.002	82.5
408.226	60.5
408.449	64.5
408.673	70.5
408.896	78.5
409.12	86.5
409.344	76.5
409.567	75.5
409.791	85.5
410.014	81.5
410.238	87.5
410.461	81.5
410.685	75.5
410.908	75.5
411.132	88.5
411.355	80.5
411.578	94.5
411.802	91.5
412.025	79.5
412.249	75.5
412.472	73.5
412.695	88.5
412.919	94.5
413.142	95.5
413.365	75.5
413.589	77.5
413.812	77.5
414.035	77.5
414.258	68.5
414.482	76.5
414.705	77.5
414.928	85.5
415.151	79.5
415.374	84.5
415.597	78.5
415.821	96.5
416.044	78.5
416.267	85.5
416.49	84.5
416.713	70.5
416.936	83.5
417.159	91.5
417.382	87.5
417.605	81.5
417.828	83.5
418.051	66.5
418.274	79.5
418.497	84.5
418.72	87.5
418.943	77.5
419.166	86.5
419.389	75.5
419.611	83.5
419.834	89.5
420.057	83.5
420.28	69.5
420.503	91.5
420.726	73.5
420.948	67.5
421.171	85.5
421.394	86.5
421.617	72.5
421.839	77.5
422.062	80.5
422.285	70.5
422.507	85.5
422.73	81.5
422.953	88.5
423.175	84.5
423.398	88.5
423.621	75.5
423.843	67.5
424.066	70.5
424.288	69.5
424.511	97.5
424.733	87.5
424.956	75.5
425.178	76.5
425.401	81.5
425.623	69.5
425.846	76.5
426.068	85.5
426.291	89.5
426.513	91.5
426.735	83.5
426.958	83.5
427.18	72.5
427.402	71.5
427.625	76.5
427.847	64.5
428.069	87.5
428.292	63.5
428.514	78.5
428.736	75.5
428.958	73.5
429.181	79.5
429.403	83.5
429.625	74.5
429.847	74.5
430.069	73.5
430.292	84.5
430.514	77.5
430.736	76.5
430.958	99.5
431.18	81.5
431.402	81.5
431.624	86.5
431.846	76.5
432.068	85.5
432.29	83.5
432.512	70.5
432.734	73.5
432.956	86.5
433.178	88.5
433.4	79.5
433.622	81.5
433.844	84.5
434.066	89.5
434.287	82.5
434.509	79.5
434.731	84.5
434.953	71.5
435.175	72.5
435.397	72.5
435.618	80.5
435.84	66.5
436.062	90.5
436.284	76.5
436.505	80.5
436.727	78.5
436.949	79.5
437.17	70.5
437.392	73.5
437.614	95.5
437.835	83.5
438.057	75.5
438.278	81.5
438.5	83.5
438.721	82.5
438.943	65.5
439.165	80.5
439.386	80.5
439.608	68.5
439.829	83.5
440.05	75.5
440.272	75.5
440.493	89.5
440.715	91.5
440.936	87.5
441.158	88.5
441.379	74.5
441.6	79.5
441.822	79.5
442.043	81.5
442.264	97.5
442.486	83.5
442.707	90.5
442.928	76.5
443.149	75.5
443.371	88.5
443.592	78.5
443.813	77.5
444.034	77.5
444.255	65.5
444.476	79.5
444.698	91.5
444.919	70.5
445.14	164.5
445.361	117.5
445.582	77.5
445.803	88.5
446.024	76.5
446.245	73.5
446.466	88.5
446.687	78.5
446.908	72.5
447.129	87.5
447.35	76.5
447.571	80.5
447.792	84.5
448.013	80.5
448.234	81.5
448.455	74.5
448.675	68.5
448.896	79.5
449.117	75.5
449.338	73.5
449.559	75.5
449.779	72.5
450	81.5
450.221	68.5
450.442	85.5
450.662	76.5
450.883	74.5
451.104	71.5
451.324	93.5
451.545	78.5
451.766	65.5
451.986	85.5
452.207	67.5
452.428	85.5
452.648	78.5
452.869	79.5
453.089	68.5
453.31	84.5
453.53	72.5
453.751	78.5
453.971	82.5
454.192	87.5
454.412	85.5
454.633	81.5
454.853	79.5
455.073	85.5
455.294	82.5
455.514	70.5
455.734	82.5
455.955	82.5
456.175	69.5
456.395	73.5
456.616	97.5
456.836	80.5
457.056	81.5
457.276	93.5
457.497	83.5
457.717	77.5
457.937	87.5
458.157	79.5
458.377	77.5
458.598	86.5
458.818	70.5
459.038	74.5
459.258	69.5
459.478	73.5
459.698	63.5
459.918	81.5
460.138	51.5
460.358	89.5
460.578	91.5
460.798	91.5
461.018	86.5
461.238	81.5
461.458	83.5
461.678	74.5
461.898	72.5
462.118	91.5
462.338	82.5
462.558	80.5
462.777	74.5
462.997	83.5
463.217	76.5
463.437	77.5
463.657	87.5
463.876	77.5
464.096	74.5
464.316	82.5
464.536	84.5
464.755	79.5
464.975	68.5
465.195	83.5
465.414	72.5
465.634	79.5
465.854	77.5
466.073	67.5
466.293	73.5
466.512	89.5
466.732	94.5
466.951	82.5
467.171	80.5
467.391	73.5
467.61	73.5
467.829	88.5
468.049	74.5
468.268	77.5
468.488	80.5
468.707	81.5
468.927	87.5
469.146	84.5
469.365	85.5
469.585	72.5
469.804	79.5
470.023	75.5
470.243	76.5
470.462	77.5
470.681	66.5
470.901	75.5
471.12	79.5
471.339	81.5
471.558	77.5
471.777	81.5
471.997	66.5
472.216	80.5
472.435	79.5
472.654	73.5
472.873	86.5
473.092	81.5
473.311	81.5
473.53	73.5
473.749	87.5
473.968	82.5
474.187	75.5
474.406	68.5
474.625	73.5
474.844	77.5
475.063	87.5
475.282	75.5
475.501	83.5
475.72	78.5
475.939	71.5
476.158	87.5
476.377	80.5
476.596	86.5
476.814	75.5
477.033	79.5
477.252	83.5
477.471	94.5
477.69	83.5
477.908	76.5
478.127	72.5
478.346	83.5
478.564	82.5
478.783	79.5
479.002	73.5
479.22	81.5
479.439	79.5
479.658	74.5
479.876	82.5
480.095	86.5
480.313	79.5
480.532	96.5
480.751	80.5
480.969	79.5
481.188	77.5
481.406	83.5
481.624	85.5
481.843	84.5
482.061	84.5
482.28	73.5
482.498	80.5
482.717	86.5
482.935	91.5
483.153	80.5
483.372	70.5
483.59	91.5
483.808	80.5
484.027	77.5
484.245	79.5
484.463	83.5
484.681	84.5
484.9	96.5
485.118	90.5
485.336	73.5
485.554	88.5
485.772	85.5
485.99	87.5
486.209	85.5
486.427	71.5
486.645	82.5
486.863	91.5
487.081	74.5
487.299	77.5
487.517	94.5
487.735	79.5
487.953	76.5
488.171	89.5
488.389	84.5
488.607	73.5
488.825	84.5
489.043	80.5
489.261	79.5
489.479	84.5
489.696	84.5
489.914	78.5
490.132	84.5
490.35	80.5
490.568	89.5
490.786	79.5
491.003	84.5
491.221	72.5
491.439	79.5
491.657	77.5
491.874	88.5
492.092	77.5
492.31	82.5
492.527	82.5
492.745	76.5
492.963	79.5
493.18	73.5
493.398	68.5
493.615	79.5
493.833	79.5
494.05	67.5
494.268	83.5
494.485	83.5
494.703	92.5
494.92	89.5
495.138	80.5
495.355	73.5
495.573	90.5
495.79	75.5
496.008	75.5
496.225	83.5
496.442	102.5
496.66	87.5
496.877	92.5
497.094	90.5
497.312	82.5
497.529	86.5
497.746	71.5
497.963	85.5
498.181	78.5
498.398	91.5
498.615	82.5
498.832	82.5
499.049	80.5
499.267	83.5
499.484	70.5
499.701	81.5
499.918	85.5
500.135	83.5
500.352	93.5
500.569	96.5
500.786	93.5
501.003	82.5
501.22	77.5
501.437	63.5
501.654	87.5
501.871	80.5
502.088	75.5
502.305	77.5
502.522	99.5
502.739	81.5
502.956	89.5
503.172	84.5
503.389	80.5
503.606	82.5
503.823	80.5
504.04	91.5
504.256	85.5
504.473	78.5
504.69	78.5
504.907	73.5
505.123	72.5
505.34	76.5
505.557	81.5
505.773	83.5
505.99	103.5
506.207	81.5
506.423	97.5
506.64	87.5
506.856	83.5
507.073	87.5
507.289	81.5
507.506	88.5
507.722	75.5
507.939	71.5
508.155	79.5
508.372	72.5
508.588	74.5
508.805	84.5
509.021	83.5
509.238	83.5
509.454	96.5
509.67	91.5
509.887	93.5
510.103	80.5
510.319	73.5
510.536	97.5
510.752	71.5
510.968	65.5
511.184	67.5
511.401	79.5
511.617	65.5
511.833	82.5
512.049	84.5
512.265	86.5
512.481	81.5
512.698	74.5
512.914	79.5
513.13	75.5
513.346	63.5
513.562	86.5
513.778	71.5
513.994	81.5
514.21	81.5
514.426	73.5
514.642	91.5
514.858	73.5
515.074	69.5
515.29	79.5
515.506	79.5
515.721	74.5
515.937	91.5
516.153	85.5
516.369	79.5
516.585	81.5
516.801	92.5
517.016	92.5
517.232	79.5
517.448	79.5
517.664	70.5
517.879	80.5
518.095	70.5
518.311	91.5
518.527	95.5
518.742	64.5
518.958	77.5
519.173	85.5
519.389	77.5
519.605	83.5
519.82	80.5
520.036	95.5
520.251	76.5
520.467	60.5
520.682	88.5
520.898	73.5
521.113	73.5
521.329	78.5
521.544	65.5
521.76	83.5
521.975	77.5
522.19	81.5
522.406	70.5
522.621	93.5
522.836	78.5
523.052	77.5
523.267	76.5
523.482	78.5
523.698	86.5
523.913	87.5
524.128	87.5
524.343	78.5
524.559	77.5
524.774	76.5
524.989	90.5
525.204	93.5
525.419	97.5
525.634	90.5
525.849	85.5
526.064	78.5
526.28	79.5
526.495	68.5
526.71	65.5
526.925	73.5
527.14	75.5
527.355	70.5
527.57	94.5
527.785	81.5
527.999	81.5
528.214	98.5
528.429	69.5
528.644	69.5
528.859	85.5
529.074	78.5
529.289	73.5
529.503	83.5
529.718	76.5
529.933	82.5
530.148	77.5
530.363	88.5
530.577	90.5
530.792	75.5
531.007	70.5
531.221	79.5
531.436	87.5
531.651	97.5
531.865	75.5
532.08	75.5
532.295	84.5
532.509	77.5
532.724	82.5
532.938	73.5
533.153	73.5
533.367	92.5
533.582	77.5
533.796	95.5
534.011	90.5
534.225	61.5
534.44	63.5
534.654	80.5
534.868	71.5
535.083	72.5
535.297	90.5
535.511	92.5
535.726	82.5
535.94	78.5
536.154	88.5
536.369	78.5
536.583	85.5
536.797	96.5
537.011	81.5
537.225	81.5
537.44	85.5
537.654	92.5
537.868	83.5
538.082	80.5
538.296	74.5
538.51	75.5
538.724	76.5
538.938	81.5
539.153	82.5
539.367	87.5
539.581	81.5
539.795	83.5
540.009	83.5
540.222	76.5
540.436	80.5
540.65	74.5
540.864	90.5
541.078	86.5
541.292	83.5
541.506	103.5
541.72	83.5
541.934	84.5
542.147	80.5
542.361	77.5
542.575	77.5
542.789	84.5
543.002	77.5
543.216	82.5
543.43	88.5
543.644	79.5
543.857	79.5
544.071	69.5
544.285	91.5
544.498	81.5
544.712	90.5
544.925	85.5
545.139	93.5
545.352	81.5
545.566	89.5
545.779	73.5
545.993	82.5
546.206	74.5
546.42	68.5
546.633	73.5
546.847	77.5
547.06	80.5
547.274	85.5
547.487	92.5
547.7	70.5
547.914	89.5
548.127	84.5
548.34	79.5
548.554	84.5
548.767	81.5
548.98	76.5
549.193	91.5
549.407	87.5
549.62	74.5
549.833	98.5
550.046	84.5
550.259	91.5
550.473	83.5
550.686	72.5
550.899	85.5
551.112	85.5
551.325	76.5
551.538	75.5
551.751	76.5
551.964	67.5
552.177	85.5
552.39	76.5
552.603	65.5
552.816	99.5
553.029	86.5
553.242	87.5
553.455	87.5
553.667	80.5
553.88	82.5
554.093	85.5
554.306	91.5
554.519	79.5
554.732	76.5
554.944	90.5
555.157	94.5
555.37	94.5
555.583	90.5
555.795	71.5
556.008	69.5
556.221	85.5
556.433	74.5
556.646	84.5
556.859	77.5
557.071	79.5
557.284	75.5
557.496	89.5
557.709	66.5
557.921	69.5
558.134	86.5
558.346	95.5
558.559	75.5
558.771	81.5
558.984	76.5
559.196	84.5
559.409	72.5
559.621	67.5
559.833	87.5
560.046	85.5
560.258	94.5
560.47	84.5
560.683	74.5
560.895	74.5
561.107	66.5
561.32	80.5
561.532	83.5
561.744	84.5
561.956	81.5
562.168	73.5
562.381	88.5
562.593	84.5
562.805	91.5
563.017	74.5
563.229	85.5
563.441	77.5
563.653	87.5
563.865	87.5
564.077	90.5
564.289	84.5
564.501	72.5
564.713	87.5
564.925	92.5
565.137	85.5
565.349	77.5
565.561	66.5
565.773	77.5
565.985	88.5
566.197	77.5
566.408	91.5
566.62	94.5
566.832	77.5
567.044	86.5
567.255	93.5
567.467	93.5
567.679	81.5
567.891	75.5
568.102	67.5
568.314	69.5
568.526	82.5
568.737	86.5
568.949	70.5
569.161	87.5
569.372	71.5
569.584	78.5
569.795	97.5
570.007	69.5
570.218	75.5
570.43	85.5
570.641	87.5
570.853	87.5
571.064	82.5
571.276	85.5
571.487	76.5
571.698	73.5
571.91	87.5
572.121	86.5
572.333	93.5
572.544	84.5
572.755	84.5
572.966	75.5
573.178	78.5
573.389	79.5
573.6	81.5
573.811	82.5
574.023	68.5
574.234	90.5
574.445	83.5
574.656	96.5
574.867	86.5
575.078	65.5
575.289	74.5
575.501	89.5
575.712	85.5
575.923	79.5
576.134	83.5
576.345	87.5
576.556	83.5
576.767	92.5
576.978	77.5
577.188	78.5
577.399	85.5
577.61	89.5
577.821	81.5
578.032	93.5
578.243	87.5
578.454	77.5
578.665	79.5
578.875	80.5
579.086	83.5
579.297	85.5
579.508	93.5
579.718	83.5
579.929	78.5
580.14	83.5
580.35	82.5
580.561	88.5
580.772	67.5
580.982	69.5
581.193	85.5
581.403	91.5
581.614	82.5
581.825	90.5
582.035	88.5
582.246	83.5
582.456	93.5
582.667	89.5
582.877	95.5
583.087	93.5
583.298	91.5
583.508	80.5
583.719	86.5
583.929	95.5
584.139	75.5
584.35	79.5
584.56	86.5
584.77	78.5
584.981	78.5
585.191	89.5
585.401	69.5
585.611	80.5
585.821	85.5
586.032	91.5
586.242	79.5
586.452	80.5
586.662	95.5
586.872	69.5
587.082	68.5
587.292	89.5
587.502	105.5
587.713	95.5
587.923	87.5
588.133	90.5
588.343	90.5
588.553	80.5
588.762	87.5
588.972	92.5
589.182	79.5
589.392	92.5
589.602	81.5
589.812	79.5
590.022	87.5
590.232	89.5
590.441	69.5
590.651	92.5
590.861	89.5
591.071	76.5
591.281	91.5
591.49	103.5
591.7	87.5
591.91	84.5
592.119	83.5
592.329	75.5
592.539	94.5
592.748	79.5
592.958	76.5
593.167	87.5
593.377	79.5
593.587	85.5
593.796	77.5
594.006	91.5
594.215	74.5
594.424	79.5
594.634	95.5
594.843	103.5
595.053	87.5
595.262	81.5
595.472	76.5
595.681	79.5
595.89	94.5
596.1	79.5
596.309	92.5
596.518	73.5
596.727	84.5
596.937	96.5
597.146	81.5
597.355	92.5
597.564	93.5
597.774	83.5
597.983	77.5
598.192	90.5
598.401	81.5
598.61	83.5
598.819	77.5
599.028	83.5
599.237	75.5
599.446	78.5
599.655	74.5
599.864	84.5
600.073	84.5
600.282	96.5
600.491	80.5
600.7	83.5
600.909	80.5
601.118	76.5
601.327	86.5
601.536	89.5
601.745	68.5
601.953	99.5
602.162	93.5
602.371	81.5
602.58	83.5
602.789	81.5
602.997	81.5
603.206	87.5
603.415	76.5
603.623	93.5
603.832	88.5
604.041	85.5
604.249	83.5
604.458	81.5
604.666	83.5
604.875	73.5
605.084	93.5
605.292	92.5
605.501	92.5
605.709	84.5
605.918	94.5
606.126	97.5
606.334	93.5
606.543	82.5
606.751	79.5
606.96	89.5
607.168	79.5
607.376	94.5
607.585	86.5
607.793	82.5
608.001	79.5
608.21	87.5
608.418	84.5
608.626	90.5
608.834	84.5
609.043	78.5
609.251	84.5
609.459	85.5
609.667	83.5
609.875	77.5
610.083	73.5
610.291	80.5
610.499	81.5
610.707	85.5
610.916	82.5
611.124	69.5
611.332	85.5
611.54	79.5
611.748	99.5
611.955	88.5
612.163	109.5
612.371	85.5
612.579	77.5
612.787	88.5
612.995	82.5
613.203	85.5
613.411	95.5
613.618	78.5
613.826	86.5
614.034	95.5
614.242	79.5
614.449	78.5
614.657	82.5
614.865	78.5
615.072	90.5
615.28	79.5
615.488	87.5
615.695	86.5
615.903	81.5
616.111	80.5
616.318	75.5
616.526	67.5
616.733	80.5
616.941	89.5
617.148	85.5
617.356	85.5
617.563	93.5
617.771	82.5
617.978	67.5
618.185	79.5
618.393	68.5
618.6	72.5
618.807	84.5
619.015	92.5
619.222	77.5
619.429	81.5
619.637	69.5
619.844	90.5
620.051	75.5
620.258	80.5
620.466	73.5
620.673	92.5
620.88	91.5
621.087	83.5
621.294	89.5
621.501	93.5
621.708	87.5
621.915	101.5
622.122	83.5
622.329	75.5
622.536	84.5
622.743	68.5
622.95	85.5
623.157	82.5
623.364	84.5
623.571	88.5
623.778	84.5
623.985	89.5
624.192	81.5
624.399	89.5
624.606	87.5
624.812	84.5
625.019	93.5
625.226	81.5
625.433	103.5
625.639	77.5
625.846	77.5
626.053	69.5
626.259	79.5
626.466	67.5
626.673	81.5
626.879	85.5
627.086	71.5
627.293	90.5
627.499	89.5
627.706	79.5
627.912	96.5
628.119	88.5
628.325	93.5
628.532	92.5
628.738	76.5
628.945	83.5
629.151	69.5
629.357	79.5
629.564	77.5
629.77	82.5
629.976	78.5
630.183	91.5
630.389	61.5
630.595	75.5
630.802	81.5
631.008	99.5
631.214	79.5
631.42	73.5
631.627	94.5
631.833	87.5
632.039	92.5
632.245	90.5
632.451	90.5
632.657	95.5
632.863	84.5
633.069	91.5
633.275	82.5
633.481	84.5
633.688	91.5
633.893	85.5
634.099	89.5
634.305	87.5
634.511	86.5
634.717	80.5
634.923	84.5
635.129	83.5
635.335	91.5
635.541	83.5
635.747	91.5
635.952	82.5
636.158	87.5
636.364	73.5
636.57	63.5
636.775	84.5
636.981	87.5
637.187	83.5
637.392	80.5
637.598	80.5
637.804	77.5
638.009	89.5
638.215	96.5
638.421	74.5
638.626	94.5
638.832	87.5
639.037	91.5
639.243	76.5
639.448	80.5
639.654	78.5
639.859	87.5
640.065	83.5
640.27	80.5
640.475	80.5
640.681	67.5
640.886	81.5
641.091	85.5
641.297	83.5
641.502	78.5
641.707	80.5
641.913	81.5
642.118	81.5
642.323	77.5
642.528	89.5
642.733	73.5
642.939	86.5
643.144	85.5
643.349	85.5
643.554	85.5
643.759	73.5
643.964	82.5
644.169	85.5
644.374	79.5
644.579	83.5
644.784	75.5
644.989	82.5
645.194	95.5
645.399	88.5
645.604	87.5
645.809	83.5
646.014	81.5
646.219	74.5
646.423	82.5
646.628	74.5
646.833	82.5
647.038	97.5
647.243	83.5
647.447	74.5
647.652	77.5
647.857	90.5
648.062	78.5
648.266	87.5
648.471	88.5
648.676	96.5
648.88	92.5
649.085	87.5
649.289	89.5
649.494	79.5
649.698	77.5
649.903	76.5
650.107	81.5
650.312	98.5
650.516	92.5
650.721	81.5
650.925	75.5
651.13	66.5
651.334	85.5
651.539	82.5
651.743	77.5
651.947	70.5
652.152	87.5
652.356	83.5
652.56	71.5
652.764	73.5
652.969	88.5
653.173	81.5
653.377	79.5
653.581	79.5
653.785	90.5
653.99	85.5
654.194	91.5
654.398	84.5
654.602	84.5
654.806	84.5
655.01	70.5
655.214	75.5
655.418	81.5
655.622	94.5
655.826	89.5
656.03	91.5
656.234	84.5
656.438	69.5
656.642	84.5
656.846	84.5
657.049	89.5
657.253	82.5
657.457	77.5
657.661	86.5
657.865	80.5
658.068	77.5
658.272	88.5
658.476	77.5
658.68	78.5
658.883	76.5
659.087	71.5
659.291	78.5
659.494	83.5
659.698	79.5
659.901	73.5
660.105	79.5
660.309	89.5
660.512	79.5
660.716	84.5
660.919	74.5
661.123	83.5
661.326	78.5
661.53	76.5
661.733	90.5
661.936	73.5
662.14	67.5
662.343	75.5
662.546	87.5
662.75	79.5
662.953	87.5
663.156	84.5
663.36	93.5
663.563	75.5
663.766	86.5
663.969	70.5
664.173	85.5
664.376	77.5
664.579	74.5
664.782	89.5
664.985	80.5
665.188	89.5
665.391	89.5
665.594	96.5
665.797	75.5
666	84.5
666.203	68.5
666.406	76.5
666.609	86.5
666.812	91.5
667.015	93.5
667.218	76.5
667.421	85.5
667.624	79.5
667.827	77.5
668.03	82.5
668.232	88.5
668.435	85.5
668.638	78.5
668.841	88.5
669.043	69.5
669.246	81.5
669.449	75.5
669.651	78.5
669.854	61.5
670.057	63.5
670.259	85.5
670.462	90.5
670.665	79.5
670.867	82.5
671.07	80.5
671.272	82.5
671.475	65.5
671.677	63.5
671.88	70.5
672.082	93.5
672.284	83.5
672.487	89.5
672.689	79.5
672.892	77.5
