Data from Background_3_HRD10591_00031.txt Node
Date: Wed Nov 05 14:49:35 EST 2025
User: Yrep
Spectrometer: HR+D1059
Trigger mode: 1
Integration Time (sec): 1.000000E-1
Scans to average: 1
Electric dark correction enabled: true
Nonlinearity correction enabled: false
Boxcar width: 0
XAxis mode: Wavelengths
Number of Pixels in Spectrum: 2048
>>>>>Begin Spectral Data<<<<<
223.165	-18.25
223.4	-18.25
223.635	-18.25
223.869	-15.25
224.104	-19.25
224.338	-16.25
224.573	-12.25
224.808	-17.25
225.042	-2.25
225.277	1.75
225.511	-0.25
225.746	5.75
225.98	-0.25
226.215	10.75
226.449	3.75
226.683	15.75
226.918	22.75
227.152	40.75
227.387	48.75
227.621	35.75
227.856	57.75
228.09	55.75
228.324	54.75
228.559	62.75
228.793	69.75
229.027	59.75
229.262	70.75
229.496	68.75
229.73	61.75
229.964	67.75
230.199	72.75
230.433	81.75
230.667	90.75
230.901	81.75
231.136	79.75
231.37	70.75
231.604	82.75
231.838	77.75
232.072	87.75
232.306	81.75
232.541	80.75
232.775	76.75
233.009	93.75
233.243	81.75
233.477	79.75
233.711	83.75
233.945	73.75
234.179	66.75
234.413	78.75
234.647	88.75
234.881	80.75
235.115	89.75
235.349	85.75
235.583	79.75
235.817	87.75
236.051	83.75
236.285	80.75
236.519	79.75
236.753	79.75
236.987	89.75
237.221	67.75
237.455	70.75
237.689	63.75
237.922	78.75
238.156	75.75
238.39	76.75
238.624	81.75
238.858	65.75
239.091	71.75
239.325	80.75
239.559	79.75
239.793	77.75
240.027	90.75
240.26	80.75
240.494	84.75
240.728	79.75
240.961	83.75
241.195	73.75
241.429	69.75
241.662	69.75
241.896	64.75
242.13	76.75
242.363	72.75
242.597	82.75
242.83	85.75
243.064	80.75
243.298	83.75
243.531	85.75
243.765	86.75
243.998	71.75
244.232	92.75
244.465	79.75
244.699	86.75
244.932	74.75
245.166	84.75
245.399	81.75
245.633	81.75
245.866	61.75
246.099	67.75
246.333	84.75
246.566	71.75
246.8	82.75
247.033	82.75
247.266	87.75
247.5	75.75
247.733	79.75
247.966	80.75
248.2	88.75
248.433	79.75
248.666	85.75
248.899	92.75
249.133	84.75
249.366	74.75
249.599	76.75
249.832	87.75
250.066	82.75
250.299	83.75
250.532	76.75
250.765	75.75
250.998	91.75
251.231	76.75
251.465	67.75
251.698	60.75
251.931	86.75
252.164	79.75
252.397	88.75
252.63	84.75
252.863	76.75
253.096	81.75
253.329	80.75
253.562	80.75
253.795	86.75
254.028	78.75
254.261	83.75
254.494	79.75
254.727	82.75
254.96	89.75
255.193	74.75
255.426	82.75
255.659	69.75
255.892	82.75
256.124	83.75
256.357	94.75
256.59	86.75
256.823	72.75
257.056	70.75
257.289	93.75
257.521	77.75
257.754	84.75
257.987	77.75
258.22	87.75
258.452	71.75
258.685	78.75
258.918	97.75
259.151	76.75
259.383	87.75
259.616	102.75
259.849	68.75
260.081	83.75
260.314	65.75
260.547	89.75
260.779	86.75
261.012	71.75
261.244	87.75
261.477	103.75
261.71	64.75
261.942	88.75
262.175	83.75
262.407	88.75
262.64	86.75
262.872	94.75
263.105	85.75
263.337	75.75
263.57	97.75
263.802	108.75
264.035	86.75
264.267	71.75
264.499	76.75
264.732	79.75
264.964	80.75
265.197	86.75
265.429	77.75
265.661	87.75
265.894	78.75
266.126	87.75
266.358	92.75
266.591	87.75
266.823	68.75
267.055	79.75
267.287	81.75
267.52	90.75
267.752	68.75
267.984	77.75
268.216	83.75
268.448	80.75
268.681	79.75
268.913	77.75
269.145	80.75
269.377	88.75
269.609	79.75
269.841	90.75
270.073	84.75
270.306	83.75
270.538	88.75
270.77	77.75
271.002	64.75
271.234	67.75
271.466	73.75
271.698	71.75
271.93	76.75
272.162	70.75
272.394	79.75
272.626	90.75
272.858	85.75
273.09	72.75
273.322	89.75
273.553	82.75
273.785	70.75
274.017	97.75
274.249	73.75
274.481	71.75
274.713	93.75
274.945	76.75
275.176	68.75
275.408	83.75
275.64	73.75
275.872	59.75
276.104	77.75
276.335	85.75
276.567	87.75
276.799	82.75
277.031	91.75
277.262	89.75
277.494	96.75
277.726	91.75
277.957	77.75
278.189	96.75
278.421	84.75
278.652	82.75
278.884	100.75
279.115	86.75
279.347	69.75
279.579	75.75
279.81	69.75
280.042	83.75
280.273	77.75
280.505	76.75
280.736	66.75
280.968	84.75
281.199	88.75
281.431	92.75
281.662	91.75
281.894	89.75
282.125	72.75
282.356	79.75
282.588	80.75
282.819	79.75
283.051	85.75
283.282	89.75
283.513	71.75
283.745	85.75
283.976	83.75
284.207	76.75
284.439	79.75
284.67	63.75
284.901	78.75
285.132	84.75
285.364	82.75
285.595	82.75
285.826	81.75
286.057	85.75
286.288	91.75
286.52	99.75
286.751	87.75
286.982	93.75
287.213	86.75
287.444	81.75
287.675	87.75
287.906	88.75
288.138	88.75
288.369	78.75
288.6	83.75
288.831	95.75
289.062	88.75
289.293	84.75
289.524	81.75
289.755	87.75
289.986	83.75
290.217	72.75
290.448	80.75
290.679	85.75
290.91	84.75
291.141	77.75
291.371	86.75
291.602	80.75
291.833	89.75
292.064	88.75
292.295	75.75
292.526	85.75
292.757	81.75
292.987	81.75
293.218	70.75
293.449	80.75
293.68	87.75
293.91	93.75
294.141	91.75
294.372	92.75
294.603	80.75
294.833	86.75
295.064	78.75
295.295	87.75
295.525	81.75
295.756	88.75
295.987	87.75
296.217	85.75
296.448	86.75
296.679	95.75
296.909	96.75
297.14	91.75
297.37	90.75
297.601	103.75
297.831	72.75
298.062	85.75
298.292	88.75
298.523	92.75
298.753	93.75
298.984	99.75
299.214	92.75
299.445	95.75
299.675	77.75
299.905	88.75
300.136	87.75
300.366	73.75
300.597	89.75
300.827	100.75
301.057	74.75
301.288	86.75
301.518	91.75
301.748	95.75
301.979	99.75
302.209	73.75
302.439	64.75
302.669	84.75
302.9	94.75
303.13	89.75
303.36	87.75
303.59	88.75
303.82	78.75
304.051	88.75
304.281	78.75
304.511	85.75
304.741	88.75
304.971	86.75
305.201	80.75
305.431	78.75
305.661	79.75
305.891	79.75
306.121	84.75
306.352	73.75
306.582	76.75
306.812	80.75
307.042	85.75
307.272	97.75
307.502	87.75
307.731	75.75
307.961	89.75
308.191	86.75
308.421	79.75
308.651	92.75
308.881	85.75
309.111	68.75
309.341	85.75
309.571	81.75
309.8	84.75
310.03	87.75
310.26	84.75
310.49	95.75
310.72	75.75
310.949	85.75
311.179	76.75
311.409	80.75
311.639	86.75
311.868	91.75
312.098	91.75
312.328	105.75
312.557	79.75
312.787	73.75
313.017	80.75
313.246	87.75
313.476	79.75
313.706	80.75
313.935	83.75
314.165	90.75
314.394	82.75
314.624	78.75
314.853	87.75
315.083	75.75
315.312	79.75
315.542	81.75
315.771	85.75
316.001	94.75
316.23	83.75
316.46	91.75
316.689	90.75
316.919	87.75
317.148	77.75
317.377	89.75
317.607	79.75
317.836	90.75
318.065	85.75
318.295	73.75
318.524	83.75
318.753	88.75
318.983	85.75
319.212	95.75
319.441	89.75
319.67	87.75
319.9	103.75
320.129	82.75
320.358	87.75
320.587	84.75
320.816	92.75
321.046	83.75
321.275	95.75
321.504	92.75
321.733	77.75
321.962	93.75
322.191	77.75
322.42	92.75
322.649	81.75
322.878	93.75
323.108	92.75
323.337	93.75
323.566	70.75
323.795	87.75
324.024	86.75
324.253	91.75
324.482	97.75
324.71	87.75
324.939	91.75
325.168	82.75
325.397	79.75
325.626	88.75
325.855	83.75
326.084	91.75
326.313	89.75
326.542	89.75
326.77	89.75
326.999	89.75
327.228	84.75
327.457	75.75
327.686	73.75
327.914	90.75
328.143	76.75
328.372	86.75
328.6	88.75
328.829	84.75
329.058	87.75
329.287	72.75
329.515	88.75
329.744	79.75
329.972	99.75
330.201	88.75
330.43	81.75
330.658	83.75
330.887	90.75
331.115	77.75
331.344	94.75
331.572	73.75
331.801	81.75
332.03	98.75
332.258	83.75
332.486	80.75
332.715	82.75
332.943	74.75
333.172	73.75
333.4	91.75
333.629	76.75
333.857	80.75
334.085	95.75
334.314	81.75
334.542	79.75
334.771	99.75
334.999	79.75
335.227	80.75
335.455	69.75
335.684	80.75
335.912	82.75
336.14	87.75
336.369	75.75
336.597	80.75
336.825	95.75
337.053	88.75
337.281	94.75
337.51	87.75
337.738	100.75
337.966	79.75
338.194	95.75
338.422	91.75
338.65	95.75
338.878	87.75
339.106	97.75
339.334	80.75
339.562	91.75
339.79	95.75
340.018	71.75
340.246	87.75
340.474	89.75
340.702	86.75
340.93	82.75
341.158	85.75
341.386	90.75
341.614	95.75
341.842	93.75
342.07	88.75
342.298	82.75
342.526	88.75
342.754	78.75
342.981	76.75
343.209	97.75
343.437	87.75
343.665	87.75
343.893	82.75
344.12	87.75
344.348	89.75
344.576	92.75
344.804	89.75
345.031	91.75
345.259	81.75
345.487	83.75
345.714	95.75
345.942	75.75
346.17	68.75
346.397	71.75
346.625	93.75
346.853	72.75
347.08	75.75
347.308	69.75
347.535	86.75
347.763	78.75
347.99	74.75
348.218	96.75
348.445	89.75
348.673	80.75
348.9	72.75
349.128	72.75
349.355	78.75
349.583	71.75
349.81	86.75
350.037	69.75
350.265	93.75
350.492	87.75
350.72	85.75
350.947	99.75
351.174	96.75
351.402	80.75
351.629	88.75
351.856	72.75
352.083	74.75
352.311	90.75
352.538	87.75
352.765	95.75
352.992	82.75
353.22	84.75
353.447	72.75
353.674	83.75
353.901	86.75
354.128	80.75
354.355	75.75
354.583	87.75
354.81	73.75
355.037	93.75
355.264	81.75
355.491	88.75
355.718	87.75
355.945	93.75
356.172	81.75
356.399	84.75
356.626	80.75
356.853	95.75
357.08	84.75
357.307	84.75
357.534	93.75
357.761	99.75
357.988	83.75
358.215	85.75
358.441	85.75
358.668	96.75
358.895	99.75
359.122	74.75
359.349	88.75
359.576	83.75
359.802	71.75
360.029	81.75
360.256	91.75
360.483	92.75
360.709	87.75
360.936	93.75
361.163	100.75
361.39	98.75
361.616	91.75
361.843	81.75
362.07	87.75
362.296	78.75
362.523	94.75
362.749	81.75
362.976	88.75
363.203	78.75
363.429	87.75
363.656	93.75
363.882	88.75
364.109	78.75
364.335	84.75
364.562	87.75
364.788	91.75
365.015	80.75
365.241	89.75
365.468	83.75
365.694	87.75
365.92	93.75
366.147	68.75
366.373	69.75
366.599	71.75
366.826	79.75
367.052	80.75
367.278	84.75
367.505	80.75
367.731	98.75
367.957	96.75
368.184	79.75
368.41	84.75
368.636	77.75
368.862	76.75
369.089	76.75
369.315	87.75
369.541	97.75
369.767	95.75
369.993	73.75
370.219	73.75
370.445	82.75
370.672	94.75
370.898	91.75
371.124	83.75
371.35	84.75
371.576	84.75
371.802	83.75
372.028	85.75
372.254	85.75
372.48	80.75
372.706	83.75
372.932	92.75
373.158	83.75
373.384	93.75
373.61	99.75
373.835	92.75
374.061	70.75
374.287	80.75
374.513	97.75
374.739	94.75
374.965	80.75
375.191	84.75
375.416	80.75
375.642	84.75
375.868	94.75
376.094	86.75
376.319	82.75
376.545	73.75
376.771	72.75
376.997	88.75
377.222	104.75
377.448	76.75
377.674	92.75
377.899	92.75
378.125	87.75
378.35	77.75
378.576	73.75
378.802	70.75
379.027	98.75
379.253	86.75
379.478	76.75
379.704	82.75
379.929	100.75
380.155	89.75
380.38	82.75
380.606	85.75
380.831	76.75
381.057	98.75
381.282	89.75
381.507	76.75
381.733	94.75
381.958	94.75
382.184	75.75
382.409	83.75
382.634	89.75
382.86	88.75
383.085	84.75
383.31	89.75
383.535	79.75
383.761	93.75
383.986	83.75
384.211	82.75
384.436	77.75
384.662	78.75
384.887	74.75
385.112	83.75
385.337	91.75
385.562	87.75
385.787	83.75
386.013	78.75
386.238	87.75
386.463	72.75
386.688	92.75
386.913	85.75
387.138	88.75
387.363	94.75
387.588	84.75
387.813	90.75
388.038	88.75
388.263	80.75
388.488	95.75
388.713	85.75
388.938	86.75
389.163	84.75
389.387	84.75
389.612	77.75
389.837	99.75
390.062	83.75
390.287	73.75
390.512	102.75
390.736	75.75
390.961	71.75
391.186	87.75
391.411	88.75
391.636	85.75
391.86	77.75
392.085	79.75
392.31	75.75
392.534	82.75
392.759	80.75
392.984	74.75
393.208	101.75
393.433	71.75
393.658	84.75
393.882	72.75
394.107	84.75
394.331	86.75
394.556	79.75
394.78	88.75
395.005	79.75
395.229	86.75
395.454	87.75
395.678	69.75
395.903	81.75
396.127	79.75
396.352	80.75
396.576	77.75
396.801	77.75
397.025	79.75
397.249	77.75
397.474	86.75
397.698	92.75
397.922	94.75
398.147	80.75
398.371	68.75
398.595	92.75
398.82	77.75
399.044	86.75
399.268	86.75
399.492	75.75
399.717	72.75
399.941	71.75
400.165	84.75
400.389	89.75
400.613	82.75
400.837	83.75
401.062	77.75
401.286	74.75
401.51	80.75
401.734	80.75
401.958	87.75
402.182	91.75
402.406	68.75
402.63	82.75
402.854	91.75
403.078	82.75
403.302	73.75
403.526	87.75
403.75	74.75
403.974	84.75
404.198	80.75
404.422	101.75
404.645	74.75
404.869	76.75
405.093	78.75
405.317	93.75
405.541	85.75
405.765	84.75
405.988	89.75
406.212	74.75
406.436	80.75
406.66	75.75
406.883	85.75
407.107	80.75
407.331	86.75
407.555	87.75
407.778	80.75
408.002	78.75
408.226	83.75
408.449	89.75
408.673	70.75
408.896	81.75
409.12	79.75
409.344	94.75
409.567	84.75
409.791	77.75
410.014	82.75
410.238	82.75
410.461	75.75
410.685	76.75
410.908	68.75
411.132	77.75
411.355	83.75
411.578	88.75
411.802	74.75
412.025	94.75
412.249	89.75
412.472	84.75
412.695	83.75
412.919	70.75
413.142	58.75
413.365	73.75
413.589	88.75
413.812	90.75
414.035	89.75
414.258	95.75
414.482	87.75
414.705	81.75
414.928	79.75
415.151	73.75
415.374	85.75
415.597	92.75
415.821	77.75
416.044	76.75
416.267	88.75
416.49	82.75
416.713	85.75
416.936	79.75
417.159	85.75
417.382	94.75
417.605	97.75
417.828	85.75
418.051	73.75
418.274	81.75
418.497	80.75
418.72	87.75
418.943	83.75
419.166	81.75
419.389	76.75
419.611	88.75
419.834	89.75
420.057	86.75
420.28	83.75
420.503	82.75
420.726	78.75
420.948	86.75
421.171	89.75
421.394	89.75
421.617	86.75
421.839	84.75
422.062	101.75
422.285	78.75
422.507	81.75
422.73	83.75
422.953	78.75
423.175	82.75
423.398	89.75
423.621	77.75
423.843	83.75
424.066	91.75
424.288	81.75
424.511	81.75
424.733	93.75
424.956	80.75
425.178	71.75
425.401	81.75
425.623	84.75
425.846	89.75
426.068	88.75
426.291	80.75
426.513	72.75
426.735	81.75
426.958	75.75
427.18	89.75
427.402	87.75
427.625	93.75
427.847	85.75
428.069	92.75
428.292	86.75
428.514	68.75
428.736	75.75
428.958	90.75
429.181	76.75
429.403	85.75
429.625	78.75
429.847	84.75
430.069	85.75
430.292	77.75
430.514	71.75
430.736	72.75
430.958	78.75
431.18	72.75
431.402	78.75
431.624	80.75
431.846	78.75
432.068	87.75
432.29	87.75
432.512	80.75
432.734	75.75
432.956	78.75
433.178	82.75
433.4	92.75
433.622	96.75
433.844	86.75
434.066	87.75
434.287	72.75
434.509	78.75
434.731	83.75
434.953	91.75
435.175	73.75
435.397	82.75
435.618	66.75
435.84	76.75
436.062	87.75
436.284	83.75
436.505	85.75
436.727	97.75
436.949	81.75
437.17	68.75
437.392	72.75
437.614	82.75
437.835	86.75
438.057	80.75
438.278	71.75
438.5	84.75
438.721	84.75
438.943	88.75
439.165	84.75
439.386	84.75
439.608	95.75
439.829	88.75
440.05	90.75
440.272	84.75
440.493	73.75
440.715	94.75
440.936	91.75
441.158	89.75
441.379	65.75
441.6	81.75
441.822	70.75
442.043	91.75
442.264	73.75
442.486	69.75
442.707	79.75
442.928	75.75
443.149	90.75
443.371	90.75
443.592	80.75
443.813	80.75
444.034	87.75
444.255	81.75
444.476	71.75
444.698	81.75
444.919	69.75
445.14	134.75
445.361	115.75
445.582	79.75
445.803	77.75
446.024	77.75
446.245	93.75
446.466	70.75
446.687	64.75
446.908	61.75
447.129	77.75
447.35	75.75
447.571	88.75
447.792	90.75
448.013	83.75
448.234	67.75
448.455	87.75
448.675	82.75
448.896	82.75
449.117	92.75
449.338	73.75
449.559	77.75
449.779	102.75
450	103.75
450.221	67.75
450.442	64.75
450.662	87.75
450.883	82.75
451.104	91.75
451.324	82.75
451.545	74.75
451.766	80.75
451.986	90.75
452.207	78.75
452.428	72.75
452.648	74.75
452.869	77.75
453.089	84.75
453.31	90.75
453.53	85.75
453.751	88.75
453.971	94.75
454.192	79.75
454.412	71.75
454.633	79.75
454.853	66.75
455.073	78.75
455.294	84.75
455.514	87.75
455.734	91.75
455.955	98.75
456.175	85.75
456.395	77.75
456.616	75.75
456.836	72.75
457.056	73.75
457.276	85.75
457.497	75.75
457.717	91.75
457.937	77.75
458.157	81.75
458.377	93.75
458.598	98.75
458.818	71.75
459.038	72.75
459.258	99.75
459.478	91.75
459.698	70.75
459.918	83.75
460.138	89.75
460.358	78.75
460.578	84.75
460.798	76.75
461.018	83.75
461.238	81.75
461.458	96.75
461.678	92.75
461.898	83.75
462.118	97.75
462.338	83.75
462.558	99.75
462.777	86.75
462.997	83.75
463.217	85.75
463.437	80.75
463.657	71.75
463.876	91.75
464.096	76.75
464.316	68.75
464.536	79.75
464.755	78.75
464.975	78.75
465.195	82.75
465.414	83.75
465.634	88.75
465.854	86.75
466.073	80.75
466.293	80.75
466.512	85.75
466.732	88.75
466.951	82.75
467.171	91.75
467.391	80.75
467.61	80.75
467.829	89.75
468.049	87.75
468.268	80.75
468.488	83.75
468.707	89.75
468.927	86.75
469.146	69.75
469.365	71.75
469.585	77.75
469.804	88.75
470.023	76.75
470.243	80.75
470.462	77.75
470.681	88.75
470.901	77.75
471.12	90.75
471.339	84.75
471.558	81.75
471.777	105.75
471.997	76.75
472.216	86.75
472.435	83.75
472.654	67.75
472.873	68.75
473.092	85.75
473.311	85.75
473.53	88.75
473.749	81.75
473.968	79.75
474.187	79.75
474.406	83.75
474.625	72.75
474.844	81.75
475.063	79.75
475.282	78.75
475.501	73.75
475.72	84.75
475.939	79.75
476.158	86.75
476.377	86.75
476.596	74.75
476.814	85.75
477.033	82.75
477.252	79.75
477.471	91.75
477.69	85.75
477.908	74.75
478.127	81.75
478.346	83.75
478.564	88.75
478.783	96.75
479.002	72.75
479.22	89.75
479.439	72.75
479.658	92.75
479.876	86.75
480.095	87.75
480.313	79.75
480.532	78.75
480.751	71.75
480.969	84.75
481.188	71.75
481.406	95.75
481.624	72.75
481.843	84.75
482.061	80.75
482.28	97.75
482.498	77.75
482.717	89.75
482.935	76.75
483.153	74.75
483.372	90.75
483.59	79.75
483.808	76.75
484.027	74.75
484.245	83.75
484.463	84.75
484.681	78.75
484.9	86.75
485.118	87.75
485.336	85.75
485.554	91.75
485.772	89.75
485.99	89.75
486.209	81.75
486.427	87.75
486.645	80.75
486.863	90.75
487.081	77.75
487.299	73.75
487.517	87.75
487.735	82.75
487.953	89.75
488.171	86.75
488.389	82.75
488.607	93.75
488.825	86.75
489.043	89.75
489.261	88.75
489.479	96.75
489.696	78.75
489.914	85.75
490.132	94.75
490.35	76.75
490.568	85.75
490.786	84.75
491.003	86.75
491.221	76.75
491.439	88.75
491.657	93.75
491.874	92.75
492.092	84.75
492.31	84.75
492.527	91.75
492.745	100.75
492.963	87.75
493.18	81.75
493.398	86.75
493.615	84.75
493.833	84.75
494.05	88.75
494.268	77.75
494.485	80.75
494.703	94.75
494.92	86.75
495.138	79.75
495.355	88.75
495.573	83.75
495.79	85.75
496.008	83.75
496.225	79.75
496.442	78.75
496.66	97.75
496.877	84.75
497.094	87.75
497.312	89.75
497.529	84.75
497.746	84.75
497.963	85.75
498.181	98.75
498.398	77.75
498.615	75.75
498.832	78.75
499.049	89.75
499.267	92.75
499.484	74.75
499.701	82.75
499.918	80.75
500.135	79.75
500.352	87.75
500.569	72.75
500.786	88.75
501.003	91.75
501.22	84.75
501.437	71.75
501.654	86.75
501.871	82.75
502.088	69.75
502.305	88.75
502.522	73.75
502.739	82.75
502.956	78.75
503.172	79.75
503.389	86.75
503.606	86.75
503.823	70.75
504.04	82.75
504.256	83.75
504.473	80.75
504.69	79.75
504.907	77.75
505.123	93.75
505.34	80.75
505.557	95.75
505.773	77.75
505.99	69.75
506.207	77.75
506.423	75.75
506.64	84.75
506.856	69.75
507.073	75.75
507.289	85.75
507.506	84.75
507.722	79.75
507.939	88.75
508.155	82.75
508.372	72.75
508.588	87.75
508.805	80.75
509.021	87.75
509.238	79.75
509.454	85.75
509.67	76.75
509.887	89.75
510.103	71.75
510.319	78.75
510.536	84.75
510.752	79.75
510.968	91.75
511.184	94.75
511.401	70.75
511.617	85.75
511.833	86.75
512.049	81.75
512.265	81.75
512.481	88.75
512.698	89.75
512.914	94.75
513.13	79.75
513.346	72.75
513.562	85.75
513.778	87.75
513.994	91.75
514.21	88.75
514.426	83.75
514.642	92.75
514.858	83.75
515.074	73.75
515.29	92.75
515.506	89.75
515.721	88.75
515.937	86.75
516.153	85.75
516.369	80.75
516.585	88.75
516.801	81.75
517.016	99.75
517.232	88.75
517.448	95.75
517.664	83.75
517.879	83.75
518.095	80.75
518.311	79.75
518.527	73.75
518.742	90.75
518.958	88.75
519.173	92.75
519.389	91.75
519.605	71.75
519.82	78.75
520.036	77.75
520.251	79.75
520.467	93.75
520.682	85.75
520.898	81.75
521.113	97.75
521.329	79.75
521.544	85.75
521.76	89.75
521.975	85.75
522.19	85.75
522.406	82.75
522.621	83.75
522.836	75.75
523.052	92.75
523.267	99.75
523.482	79.75
523.698	79.75
523.913	82.75
524.128	77.75
524.343	91.75
524.559	92.75
524.774	73.75
524.989	83.75
525.204	79.75
525.419	88.75
525.634	91.75
525.849	81.75
526.064	91.75
526.28	89.75
526.495	91.75
526.71	94.75
526.925	80.75
527.14	92.75
527.355	72.75
527.57	83.75
527.785	87.75
527.999	87.75
528.214	83.75
528.429	100.75
528.644	95.75
528.859	84.75
529.074	82.75
529.289	93.75
529.503	91.75
529.718	94.75
529.933	84.75
530.148	83.75
530.363	80.75
530.577	81.75
530.792	79.75
531.007	83.75
531.221	83.75
531.436	96.75
531.651	92.75
531.865	86.75
532.08	79.75
532.295	79.75
532.509	73.75
532.724	71.75
532.938	84.75
533.153	82.75
533.367	87.75
533.582	89.75
533.796	81.75
534.011	77.75
534.225	80.75
534.44	90.75
534.654	81.75
534.868	85.75
535.083	67.75
535.297	79.75
535.511	86.75
535.726	94.75
535.94	86.75
536.154	94.75
536.369	91.75
536.583	84.75
536.797	83.75
537.011	84.75
537.225	79.75
537.44	89.75
537.654	81.75
537.868	74.75
538.082	84.75
538.296	81.75
538.51	97.75
538.724	81.75
538.938	96.75
539.153	100.75
539.367	99.75
539.581	85.75
539.795	82.75
540.009	87.75
540.222	87.75
540.436	100.75
540.65	88.75
540.864	88.75
541.078	93.75
541.292	78.75
541.506	82.75
541.72	79.75
541.934	90.75
542.147	76.75
542.361	85.75
542.575	84.75
542.789	77.75
543.002	83.75
543.216	87.75
543.43	81.75
543.644	84.75
543.857	91.75
544.071	91.75
544.285	87.75
544.498	95.75
544.712	79.75
544.925	78.75
545.139	87.75
545.352	80.75
545.566	76.75
545.779	91.75
545.993	84.75
546.206	89.75
546.42	86.75
546.633	93.75
546.847	80.75
547.06	72.75
547.274	78.75
547.487	79.75
547.7	86.75
547.914	86.75
548.127	86.75
548.34	89.75
548.554	96.75
548.767	94.75
548.98	83.75
549.193	75.75
549.407	83.75
549.62	74.75
549.833	79.75
550.046	85.75
550.259	84.75
550.473	84.75
550.686	85.75
550.899	96.75
551.112	92.75
551.325	97.75
551.538	89.75
551.751	87.75
551.964	92.75
552.177	91.75
552.39	95.75
552.603	99.75
552.816	92.75
553.029	96.75
553.242	88.75
553.455	97.75
553.667	89.75
553.88	92.75
554.093	91.75
554.306	80.75
554.519	97.75
554.732	82.75
554.944	86.75
555.157	80.75
555.37	84.75
555.583	83.75
555.795	72.75
556.008	92.75
556.221	97.75
556.433	84.75
556.646	91.75
556.859	86.75
557.071	87.75
557.284	80.75
557.496	93.75
557.709	75.75
557.921	70.75
558.134	87.75
558.346	83.75
558.559	82.75
558.771	79.75
558.984	87.75
559.196	77.75
559.409	85.75
559.621	78.75
559.833	87.75
560.046	85.75
560.258	95.75
560.47	88.75
560.683	94.75
560.895	88.75
561.107	91.75
561.32	91.75
561.532	72.75
561.744	81.75
561.956	83.75
562.168	78.75
562.381	75.75
562.593	81.75
562.805	79.75
563.017	69.75
563.229	80.75
563.441	79.75
563.653	88.75
563.865	85.75
564.077	80.75
564.289	73.75
564.501	93.75
564.713	79.75
564.925	80.75
565.137	96.75
565.349	91.75
565.561	77.75
565.773	82.75
565.985	92.75
566.197	67.75
566.408	94.75
566.62	80.75
566.832	86.75
567.044	91.75
567.255	80.75
567.467	85.75
567.679	83.75
567.891	81.75
568.102	81.75
568.314	83.75
568.526	85.75
568.737	80.75
568.949	92.75
569.161	72.75
569.372	75.75
569.584	77.75
569.795	98.75
570.007	93.75
570.218	87.75
570.43	93.75
570.641	95.75
570.853	83.75
571.064	68.75
571.276	68.75
571.487	78.75
571.698	92.75
571.91	102.75
572.121	81.75
572.333	89.75
572.544	84.75
572.755	103.75
572.966	80.75
573.178	96.75
573.389	83.75
573.6	98.75
573.811	78.75
574.023	93.75
574.234	92.75
574.445	84.75
574.656	81.75
574.867	77.75
575.078	90.75
575.289	88.75
575.501	95.75
575.712	85.75
575.923	83.75
576.134	92.75
576.345	89.75
576.556	80.75
576.767	76.75
576.978	88.75
577.188	85.75
577.399	91.75
577.61	91.75
577.821	77.75
578.032	77.75
578.243	92.75
578.454	79.75
578.665	88.75
578.875	84.75
579.086	74.75
579.297	76.75
579.508	93.75
579.718	80.75
579.929	86.75
580.14	97.75
580.35	89.75
580.561	95.75
580.772	84.75
580.982	85.75
581.193	77.75
581.403	94.75
581.614	86.75
581.825	99.75
582.035	93.75
582.246	77.75
582.456	78.75
582.667	90.75
582.877	95.75
583.087	98.75
583.298	85.75
583.508	89.75
583.719	73.75
583.929	87.75
584.139	93.75
584.35	94.75
584.56	97.75
584.77	93.75
584.981	91.75
585.191	84.75
585.401	99.75
585.611	89.75
585.821	98.75
586.032	85.75
586.242	81.75
586.452	79.75
586.662	96.75
586.872	79.75
587.082	90.75
587.292	83.75
587.502	79.75
587.713	88.75
587.923	78.75
588.133	88.75
588.343	89.75
588.553	66.75
588.762	87.75
588.972	101.75
589.182	88.75
589.392	80.75
589.602	81.75
589.812	82.75
590.022	93.75
590.232	88.75
590.441	77.75
590.651	84.75
590.861	101.75
591.071	89.75
591.281	91.75
591.49	88.75
591.7	77.75
591.91	92.75
592.119	85.75
592.329	73.75
592.539	81.75
592.748	79.75
592.958	77.75
593.167	89.75
593.377	103.75
593.587	89.75
593.796	84.75
594.006	86.75
594.215	93.75
594.424	86.75
594.634	87.75
594.843	86.75
595.053	88.75
595.262	76.75
595.472	89.75
595.681	80.75
595.89	71.75
596.1	100.75
596.309	83.75
596.518	80.75
596.727	83.75
596.937	80.75
597.146	86.75
597.355	85.75
597.564	94.75
597.774	97.75
597.983	85.75
598.192	81.75
598.401	85.75
598.61	63.75
598.819	81.75
599.028	82.75
599.237	77.75
599.446	90.75
599.655	86.75
599.864	65.75
600.073	89.75
600.282	76.75
600.491	81.75
600.7	80.75
600.909	87.75
601.118	95.75
601.327	81.75
601.536	81.75
601.745	66.75
601.953	100.75
602.162	86.75
602.371	71.75
602.58	81.75
602.789	103.75
602.997	91.75
603.206	99.75
603.415	91.75
603.623	87.75
603.832	80.75
604.041	80.75
604.249	89.75
604.458	93.75
604.666	78.75
604.875	79.75
605.084	81.75
605.292	78.75
605.501	86.75
605.709	85.75
605.918	81.75
606.126	96.75
606.334	87.75
606.543	88.75
606.751	93.75
606.96	70.75
607.168	81.75
607.376	73.75
607.585	101.75
607.793	84.75
608.001	80.75
608.21	100.75
608.418	87.75
608.626	85.75
608.834	78.75
609.043	93.75
609.251	77.75
609.459	88.75
609.667	92.75
609.875	99.75
610.083	85.75
610.291	95.75
610.499	99.75
610.707	93.75
610.916	81.75
611.124	90.75
611.332	83.75
611.54	101.75
611.748	79.75
611.955	89.75
612.163	74.75
612.371	84.75
612.579	76.75
612.787	75.75
612.995	69.75
613.203	80.75
613.411	65.75
613.618	88.75
613.826	92.75
614.034	94.75
614.242	96.75
614.449	85.75
614.657	81.75
614.865	69.75
615.072	87.75
615.28	92.75
615.488	80.75
615.695	93.75
615.903	83.75
616.111	83.75
616.318	89.75
616.526	80.75
616.733	92.75
616.941	91.75
617.148	78.75
617.356	91.75
617.563	86.75
617.771	94.75
617.978	88.75
618.185	79.75
618.393	85.75
618.6	85.75
618.807	88.75
619.015	95.75
619.222	82.75
619.429	97.75
619.637	79.75
619.844	82.75
620.051	72.75
620.258	84.75
620.466	88.75
620.673	75.75
620.88	91.75
621.087	85.75
621.294	83.75
621.501	93.75
621.708	79.75
621.915	84.75
622.122	84.75
622.329	83.75
622.536	82.75
622.743	96.75
622.95	77.75
623.157	71.75
623.364	89.75
623.571	71.75
623.778	102.75
623.985	79.75
624.192	77.75
624.399	70.75
624.606	101.75
624.812	91.75
625.019	88.75
625.226	87.75
625.433	83.75
625.639	96.75
625.846	88.75
626.053	74.75
626.259	74.75
626.466	93.75
626.673	77.75
626.879	94.75
627.086	77.75
627.293	88.75
627.499	85.75
627.706	98.75
627.912	85.75
628.119	79.75
628.325	99.75
628.532	79.75
628.738	88.75
628.945	95.75
629.151	83.75
629.357	70.75
629.564	87.75
629.77	80.75
629.976	84.75
630.183	90.75
630.389	90.75
630.595	89.75
630.802	91.75
631.008	90.75
631.214	80.75
631.42	79.75
631.627	72.75
631.833	85.75
632.039	93.75
632.245	91.75
632.451	83.75
632.657	94.75
632.863	87.75
633.069	92.75
633.275	98.75
633.481	76.75
633.688	81.75
633.893	89.75
634.099	82.75
634.305	81.75
634.511	102.75
634.717	85.75
634.923	83.75
635.129	90.75
635.335	93.75
635.541	81.75
635.747	92.75
635.952	89.75
636.158	95.75
636.364	83.75
636.57	85.75
636.775	83.75
636.981	76.75
637.187	83.75
637.392	69.75
637.598	101.75
637.804	73.75
638.009	81.75
638.215	91.75
638.421	92.75
638.626	82.75
638.832	82.75
639.037	73.75
639.243	80.75
639.448	82.75
639.654	84.75
639.859	82.75
640.065	100.75
640.27	89.75
640.475	79.75
640.681	71.75
640.886	79.75
641.091	76.75
641.297	85.75
641.502	89.75
641.707	92.75
641.913	92.75
642.118	88.75
642.323	85.75
642.528	91.75
642.733	101.75
642.939	80.75
643.144	73.75
643.349	92.75
643.554	83.75
643.759	91.75
643.964	95.75
644.169	73.75
644.374	89.75
644.579	69.75
644.784	80.75
644.989	92.75
645.194	94.75
645.399	83.75
645.604	86.75
645.809	83.75
646.014	88.75
646.219	83.75
646.423	86.75
646.628	93.75
646.833	85.75
647.038	92.75
647.243	81.75
647.447	94.75
647.652	81.75
647.857	93.75
648.062	91.75
648.266	67.75
648.471	80.75
648.676	85.75
648.88	99.75
649.085	87.75
649.289	79.75
649.494	87.75
649.698	79.75
649.903	90.75
650.107	87.75
650.312	83.75
650.516	93.75
650.721	79.75
650.925	79.75
651.13	83.75
651.334	80.75
651.539	92.75
651.743	82.75
651.947	71.75
652.152	78.75
652.356	91.75
652.56	84.75
652.764	85.75
652.969	82.75
653.173	87.75
653.377	79.75
653.581	89.75
653.785	74.75
653.99	81.75
654.194	79.75
654.398	90.75
654.602	89.75
654.806	75.75
655.01	80.75
655.214	80.75
655.418	88.75
655.622	86.75
655.826	91.75
656.03	69.75
656.234	85.75
656.438	84.75
656.642	91.75
656.846	83.75
657.049	83.75
657.253	87.75
657.457	92.75
657.661	91.75
657.865	80.75
658.068	85.75
658.272	88.75
658.476	82.75
658.68	94.75
658.883	74.75
659.087	77.75
659.291	74.75
659.494	70.75
659.698	62.75
659.901	84.75
660.105	92.75
660.309	87.75
660.512	67.75
660.716	88.75
660.919	87.75
661.123	89.75
661.326	85.75
661.53	91.75
661.733	86.75
661.936	90.75
662.14	82.75
662.343	84.75
662.546	95.75
662.75	83.75
662.953	73.75
663.156	83.75
663.36	83.75
663.563	80.75
663.766	71.75
663.969	91.75
664.173	80.75
664.376	85.75
664.579	91.75
664.782	68.75
664.985	76.75
665.188	80.75
665.391	86.75
665.594	95.75
665.797	79.75
666	90.75
666.203	79.75
666.406	89.75
666.609	73.75
666.812	80.75
667.015	80.75
667.218	79.75
667.421	92.75
667.624	91.75
667.827	84.75
668.03	76.75
668.232	84.75
668.435	81.75
668.638	82.75
668.841	84.75
669.043	78.75
669.246	81.75
669.449	90.75
669.651	81.75
669.854	88.75
670.057	77.75
670.259	73.75
670.462	85.75
670.665	82.75
670.867	79.75
671.07	74.75
671.272	82.75
671.475	100.75
671.677	83.75
671.88	79.75
672.082	88.75
672.284	84.75
672.487	90.75
672.689	81.75
672.892	74.75
