Data from Background_3_HRD10591_00064.txt Node
Date: Wed Nov 05 14:49:51 EST 2025
User: Yrep
Spectrometer: HR+D1059
Trigger mode: 1
Integration Time (sec): 1.000000E-1
Scans to average: 1
Electric dark correction enabled: true
Nonlinearity correction enabled: false
Boxcar width: 0
XAxis mode: Wavelengths
Number of Pixels in Spectrum: 2048
>>>>>Begin Spectral Data<<<<<
223.165	-17.88
223.4	-17.88
223.635	-17.88
223.869	-5.88
224.104	-7.88
224.338	-8.88
224.573	-14.88
224.808	-9.88
225.042	-6.88
225.277	-14.88
225.511	-19.88
225.746	2.12
225.98	1.12
226.215	13.12
226.449	19.12
226.683	18.12
226.918	29.12
227.152	24.12
227.387	23.12
227.621	34.12
227.856	47.12
228.09	48.12
228.324	51.12
228.559	59.12
228.793	64.12
229.027	54.12
229.262	66.12
229.496	71.12
229.73	73.12
229.964	71.12
230.199	69.12
230.433	79.12
230.667	78.12
230.901	81.12
231.136	55.12
231.37	77.12
231.604	70.12
231.838	64.12
232.072	90.12
232.306	73.12
232.541	89.12
232.775	92.12
233.009	85.12
233.243	74.12
233.477	85.12
233.711	68.12
233.945	77.12
234.179	92.12
234.413	85.12
234.647	77.12
234.881	85.12
235.115	81.12
235.349	69.12
235.583	71.12
235.817	79.12
236.051	70.12
236.285	84.12
236.519	61.12
236.753	82.12
236.987	72.12
237.221	74.12
237.455	86.12
237.689	77.12
237.922	77.12
238.156	76.12
238.39	74.12
238.624	74.12
238.858	88.12
239.091	85.12
239.325	70.12
239.559	67.12
239.793	74.12
240.027	68.12
240.26	64.12
240.494	91.12
240.728	73.12
240.961	63.12
241.195	80.12
241.429	77.12
241.662	72.12
241.896	76.12
242.13	66.12
242.363	80.12
242.597	79.12
242.83	66.12
243.064	79.12
243.298	90.12
243.531	75.12
243.765	53.12
243.998	81.12
244.232	68.12
244.465	59.12
244.699	77.12
244.932	70.12
245.166	75.12
245.399	75.12
245.633	84.12
245.866	65.12
246.099	72.12
246.333	67.12
246.566	77.12
246.8	78.12
247.033	63.12
247.266	78.12
247.5	79.12
247.733	66.12
247.966	68.12
248.2	77.12
248.433	65.12
248.666	83.12
248.899	84.12
249.133	76.12
249.366	81.12
249.599	79.12
249.832	68.12
250.066	79.12
250.299	96.12
250.532	88.12
250.765	82.12
250.998	83.12
251.231	79.12
251.465	87.12
251.698	90.12
251.931	58.12
252.164	77.12
252.397	70.12
252.63	86.12
252.863	84.12
253.096	92.12
253.329	77.12
253.562	80.12
253.795	86.12
254.028	75.12
254.261	70.12
254.494	82.12
254.727	84.12
254.96	89.12
255.193	66.12
255.426	81.12
255.659	76.12
255.892	71.12
256.124	76.12
256.357	70.12
256.59	79.12
256.823	77.12
257.056	76.12
257.289	65.12
257.521	78.12
257.754	75.12
257.987	82.12
258.22	86.12
258.452	62.12
258.685	91.12
258.918	79.12
259.151	76.12
259.383	62.12
259.616	78.12
259.849	70.12
260.081	95.12
260.314	82.12
260.547	73.12
260.779	76.12
261.012	79.12
261.244	80.12
261.477	88.12
261.71	85.12
261.942	85.12
262.175	86.12
262.407	76.12
262.64	90.12
262.872	75.12
263.105	67.12
263.337	76.12
263.57	70.12
263.802	86.12
264.035	89.12
264.267	84.12
264.499	81.12
264.732	79.12
264.964	80.12
265.197	87.12
265.429	79.12
265.661	62.12
265.894	80.12
266.126	82.12
266.358	88.12
266.591	70.12
266.823	90.12
267.055	88.12
267.287	80.12
267.52	85.12
267.752	66.12
267.984	88.12
268.216	84.12
268.448	73.12
268.681	74.12
268.913	67.12
269.145	87.12
269.377	90.12
269.609	81.12
269.841	86.12
270.073	90.12
270.306	80.12
270.538	94.12
270.77	75.12
271.002	82.12
271.234	83.12
271.466	71.12
271.698	76.12
271.93	78.12
272.162	77.12
272.394	78.12
272.626	75.12
272.858	84.12
273.09	85.12
273.322	89.12
273.553	72.12
273.785	80.12
274.017	79.12
274.249	77.12
274.481	83.12
274.713	88.12
274.945	79.12
275.176	87.12
275.408	76.12
275.64	99.12
275.872	89.12
276.104	87.12
276.335	81.12
276.567	80.12
276.799	79.12
277.031	76.12
277.262	80.12
277.494	88.12
277.726	75.12
277.957	82.12
278.189	82.12
278.421	103.12
278.652	88.12
278.884	80.12
279.115	88.12
279.347	68.12
279.579	80.12
279.81	68.12
280.042	91.12
280.273	80.12
280.505	86.12
280.736	77.12
280.968	90.12
281.199	91.12
281.431	83.12
281.662	87.12
281.894	90.12
282.125	86.12
282.356	88.12
282.588	83.12
282.819	85.12
283.051	78.12
283.282	93.12
283.513	86.12
283.745	80.12
283.976	69.12
284.207	96.12
284.439	83.12
284.67	85.12
284.901	83.12
285.132	92.12
285.364	79.12
285.595	76.12
285.826	77.12
286.057	89.12
286.288	79.12
286.52	85.12
286.751	71.12
286.982	88.12
287.213	83.12
287.444	76.12
287.675	80.12
287.906	81.12
288.138	81.12
288.369	88.12
288.6	85.12
288.831	58.12
289.062	85.12
289.293	76.12
289.524	90.12
289.755	82.12
289.986	93.12
290.217	75.12
290.448	86.12
290.679	76.12
290.91	85.12
291.141	79.12
291.371	90.12
291.602	88.12
291.833	81.12
292.064	78.12
292.295	80.12
292.526	69.12
292.757	80.12
292.987	83.12
293.218	85.12
293.449	76.12
293.68	84.12
293.91	70.12
294.141	85.12
294.372	84.12
294.603	84.12
294.833	73.12
295.064	70.12
295.295	66.12
295.525	83.12
295.756	88.12
295.987	74.12
296.217	75.12
296.448	88.12
296.679	90.12
296.909	79.12
297.14	74.12
297.37	92.12
297.601	90.12
297.831	80.12
298.062	84.12
298.292	93.12
298.523	79.12
298.753	81.12
298.984	97.12
299.214	93.12
299.445	81.12
299.675	81.12
299.905	89.12
300.136	78.12
300.366	85.12
300.597	84.12
300.827	81.12
301.057	83.12
301.288	87.12
301.518	95.12
301.748	89.12
301.979	81.12
302.209	80.12
302.439	78.12
302.669	70.12
302.9	76.12
303.13	104.12
303.36	80.12
303.59	71.12
303.82	88.12
304.051	82.12
304.281	91.12
304.511	90.12
304.741	74.12
304.971	89.12
305.201	76.12
305.431	95.12
305.661	81.12
305.891	93.12
306.121	73.12
306.352	89.12
306.582	85.12
306.812	77.12
307.042	71.12
307.272	89.12
307.502	90.12
307.731	89.12
307.961	82.12
308.191	77.12
308.421	92.12
308.651	80.12
308.881	68.12
309.111	82.12
309.341	74.12
309.571	82.12
309.8	101.12
310.03	86.12
310.26	90.12
310.49	83.12
310.72	76.12
310.949	94.12
311.179	84.12
311.409	77.12
311.639	87.12
311.868	79.12
312.098	84.12
312.328	81.12
312.557	74.12
312.787	89.12
313.017	81.12
313.246	84.12
313.476	77.12
313.706	93.12
313.935	82.12
314.165	84.12
314.394	78.12
314.624	93.12
314.853	85.12
315.083	73.12
315.312	79.12
315.542	77.12
315.771	88.12
316.001	81.12
316.23	79.12
316.46	83.12
316.689	84.12
316.919	79.12
317.148	69.12
317.377	76.12
317.607	80.12
317.836	91.12
318.065	96.12
318.295	79.12
318.524	75.12
318.753	98.12
318.983	90.12
319.212	106.12
319.441	90.12
319.67	86.12
319.9	86.12
320.129	74.12
320.358	85.12
320.587	73.12
320.816	80.12
321.046	96.12
321.275	77.12
321.504	85.12
321.733	82.12
321.962	77.12
322.191	85.12
322.42	83.12
322.649	99.12
322.878	78.12
323.108	100.12
323.337	84.12
323.566	85.12
323.795	92.12
324.024	81.12
324.253	71.12
324.482	92.12
324.71	92.12
324.939	81.12
325.168	95.12
325.397	77.12
325.626	78.12
325.855	84.12
326.084	88.12
326.313	82.12
326.542	96.12
326.77	84.12
326.999	91.12
327.228	89.12
327.457	76.12
327.686	85.12
327.914	85.12
328.143	81.12
328.372	88.12
328.6	72.12
328.829	84.12
329.058	83.12
329.287	73.12
329.515	101.12
329.744	85.12
329.972	85.12
330.201	80.12
330.43	85.12
330.658	78.12
330.887	86.12
331.115	86.12
331.344	71.12
331.572	88.12
331.801	84.12
332.03	72.12
332.258	73.12
332.486	79.12
332.715	81.12
332.943	82.12
333.172	83.12
333.4	88.12
333.629	92.12
333.857	79.12
334.085	66.12
334.314	83.12
334.542	81.12
334.771	91.12
334.999	90.12
335.227	78.12
335.455	85.12
335.684	84.12
335.912	75.12
336.14	90.12
336.369	90.12
336.597	84.12
336.825	83.12
337.053	77.12
337.281	83.12
337.51	74.12
337.738	93.12
337.966	70.12
338.194	93.12
338.422	86.12
338.65	92.12
338.878	74.12
339.106	88.12
339.334	87.12
339.562	85.12
339.79	81.12
340.018	100.12
340.246	78.12
340.474	90.12
340.702	81.12
340.93	90.12
341.158	79.12
341.386	74.12
341.614	92.12
341.842	73.12
342.07	76.12
342.298	82.12
342.526	82.12
342.754	77.12
342.981	106.12
343.209	65.12
343.437	83.12
343.665	84.12
343.893	88.12
344.12	87.12
344.348	83.12
344.576	71.12
344.804	80.12
345.031	94.12
345.259	80.12
345.487	80.12
345.714	99.12
345.942	94.12
346.17	68.12
346.397	76.12
346.625	77.12
346.853	81.12
347.08	74.12
347.308	78.12
347.535	76.12
347.763	74.12
347.99	71.12
348.218	77.12
348.445	81.12
348.673	77.12
348.9	73.12
349.128	83.12
349.355	78.12
349.583	67.12
349.81	69.12
350.037	72.12
350.265	71.12
350.492	84.12
350.72	98.12
350.947	90.12
351.174	78.12
351.402	82.12
351.629	92.12
351.856	82.12
352.083	74.12
352.311	69.12
352.538	77.12
352.765	90.12
352.992	83.12
353.22	92.12
353.447	92.12
353.674	93.12
353.901	83.12
354.128	81.12
354.355	78.12
354.583	98.12
354.81	86.12
355.037	67.12
355.264	104.12
355.491	85.12
355.718	80.12
355.945	83.12
356.172	92.12
356.399	85.12
356.626	80.12
356.853	79.12
357.08	93.12
357.307	79.12
357.534	85.12
357.761	88.12
357.988	94.12
358.215	97.12
358.441	85.12
358.668	81.12
358.895	80.12
359.122	86.12
359.349	81.12
359.576	74.12
359.802	81.12
360.029	89.12
360.256	78.12
360.483	78.12
360.709	78.12
360.936	80.12
361.163	93.12
361.39	86.12
361.616	88.12
361.843	91.12
362.07	90.12
362.296	85.12
362.523	86.12
362.749	82.12
362.976	80.12
363.203	73.12
363.429	78.12
363.656	79.12
363.882	90.12
364.109	85.12
364.335	84.12
364.562	94.12
364.788	73.12
365.015	84.12
365.241	77.12
365.468	100.12
365.694	88.12
365.92	83.12
366.147	83.12
366.373	79.12
366.599	85.12
366.826	80.12
367.052	77.12
367.278	67.12
367.505	86.12
367.731	82.12
367.957	61.12
368.184	96.12
368.41	71.12
368.636	86.12
368.862	88.12
369.089	80.12
369.315	82.12
369.541	93.12
369.767	70.12
369.993	82.12
370.219	75.12
370.445	76.12
370.672	73.12
370.898	69.12
371.124	100.12
371.35	75.12
371.576	80.12
371.802	68.12
372.028	67.12
372.254	76.12
372.48	76.12
372.706	81.12
372.932	83.12
373.158	75.12
373.384	83.12
373.61	80.12
373.835	84.12
374.061	59.12
374.287	83.12
374.513	91.12
374.739	82.12
374.965	68.12
375.191	78.12
375.416	60.12
375.642	78.12
375.868	69.12
376.094	65.12
376.319	66.12
376.545	79.12
376.771	85.12
376.997	82.12
377.222	87.12
377.448	86.12
377.674	81.12
377.899	96.12
378.125	77.12
378.35	100.12
378.576	78.12
378.802	84.12
379.027	79.12
379.253	93.12
379.478	85.12
379.704	68.12
379.929	74.12
380.155	90.12
380.38	78.12
380.606	70.12
380.831	75.12
381.057	82.12
381.282	83.12
381.507	70.12
381.733	90.12
381.958	70.12
382.184	86.12
382.409	68.12
382.634	78.12
382.86	81.12
383.085	81.12
383.31	89.12
383.535	81.12
383.761	84.12
383.986	76.12
384.211	90.12
384.436	77.12
384.662	73.12
384.887	78.12
385.112	85.12
385.337	73.12
385.562	65.12
385.787	81.12
386.013	80.12
386.238	87.12
386.463	84.12
386.688	104.12
386.913	75.12
387.138	81.12
387.363	76.12
387.588	88.12
387.813	78.12
388.038	86.12
388.263	75.12
388.488	91.12
388.713	90.12
388.938	86.12
389.163	88.12
389.387	73.12
389.612	77.12
389.837	75.12
390.062	83.12
390.287	66.12
390.512	82.12
390.736	68.12
390.961	74.12
391.186	85.12
391.411	90.12
391.636	91.12
391.86	86.12
392.085	69.12
392.31	90.12
392.534	80.12
392.759	82.12
392.984	83.12
393.208	69.12
393.433	88.12
393.658	81.12
393.882	73.12
394.107	93.12
394.331	88.12
394.556	81.12
394.78	81.12
395.005	75.12
395.229	80.12
395.454	85.12
395.678	69.12
395.903	88.12
396.127	85.12
396.352	85.12
396.576	63.12
396.801	83.12
397.025	71.12
397.249	79.12
397.474	86.12
397.698	85.12
397.922	82.12
398.147	87.12
398.371	76.12
398.595	79.12
398.82	70.12
399.044	79.12
399.268	75.12
399.492	80.12
399.717	88.12
399.941	87.12
400.165	85.12
400.389	73.12
400.613	80.12
400.837	83.12
401.062	66.12
401.286	80.12
401.51	71.12
401.734	94.12
401.958	76.12
402.182	61.12
402.406	78.12
402.63	85.12
402.854	77.12
403.078	72.12
403.302	80.12
403.526	75.12
403.75	76.12
403.974	70.12
404.198	85.12
404.422	78.12
404.645	82.12
404.869	76.12
405.093	83.12
405.317	80.12
405.541	69.12
405.765	81.12
405.988	84.12
406.212	68.12
406.436	76.12
406.66	76.12
406.883	71.12
407.107	92.12
407.331	83.12
407.555	64.12
407.778	79.12
408.002	88.12
408.226	76.12
408.449	82.12
408.673	82.12
408.896	70.12
409.12	76.12
409.344	82.12
409.567	80.12
409.791	80.12
410.014	76.12
410.238	81.12
410.461	71.12
410.685	83.12
410.908	61.12
411.132	85.12
411.355	79.12
411.578	88.12
411.802	81.12
412.025	83.12
412.249	80.12
412.472	70.12
412.695	69.12
412.919	74.12
413.142	68.12
413.365	81.12
413.589	74.12
413.812	77.12
414.035	81.12
414.258	92.12
414.482	60.12
414.705	88.12
414.928	82.12
415.151	71.12
415.374	76.12
415.597	68.12
415.821	84.12
416.044	75.12
416.267	69.12
416.49	68.12
416.713	78.12
416.936	66.12
417.159	71.12
417.382	89.12
417.605	72.12
417.828	75.12
418.051	74.12
418.274	84.12
418.497	89.12
418.72	77.12
418.943	76.12
419.166	85.12
419.389	72.12
419.611	69.12
419.834	88.12
420.057	78.12
420.28	74.12
420.503	77.12
420.726	78.12
420.948	87.12
421.171	70.12
421.394	69.12
421.617	75.12
421.839	76.12
422.062	73.12
422.285	77.12
422.507	83.12
422.73	75.12
422.953	60.12
423.175	70.12
423.398	80.12
423.621	82.12
423.843	71.12
424.066	64.12
424.288	69.12
424.511	97.12
424.733	83.12
424.956	61.12
425.178	69.12
425.401	93.12
425.623	80.12
425.846	80.12
426.068	74.12
426.291	79.12
426.513	65.12
426.735	83.12
426.958	76.12
427.18	78.12
427.402	76.12
427.625	76.12
427.847	66.12
428.069	56.12
428.292	89.12
428.514	79.12
428.736	80.12
428.958	78.12
429.181	70.12
429.403	88.12
429.625	74.12
429.847	83.12
430.069	88.12
430.292	68.12
430.514	70.12
430.736	85.12
430.958	69.12
431.18	68.12
431.402	72.12
431.624	72.12
431.846	80.12
432.068	79.12
432.29	80.12
432.512	84.12
432.734	80.12
432.956	79.12
433.178	84.12
433.4	67.12
433.622	77.12
433.844	79.12
434.066	76.12
434.287	87.12
434.509	80.12
434.731	91.12
434.953	61.12
435.175	73.12
435.397	74.12
435.618	80.12
435.84	92.12
436.062	82.12
436.284	76.12
436.505	67.12
436.727	84.12
436.949	75.12
437.17	79.12
437.392	77.12
437.614	75.12
437.835	75.12
438.057	77.12
438.278	68.12
438.5	70.12
438.721	73.12
438.943	69.12
439.165	82.12
439.386	74.12
439.608	88.12
439.829	74.12
440.05	76.12
440.272	84.12
440.493	78.12
440.715	76.12
440.936	81.12
441.158	80.12
441.379	77.12
441.6	84.12
441.822	83.12
442.043	88.12
442.264	75.12
442.486	82.12
442.707	78.12
442.928	79.12
443.149	72.12
443.371	82.12
443.592	60.12
443.813	85.12
444.034	85.12
444.255	64.12
444.476	81.12
444.698	77.12
444.919	67.12
445.14	157.12
445.361	107.12
445.582	71.12
445.803	68.12
446.024	81.12
446.245	72.12
446.466	86.12
446.687	71.12
446.908	71.12
447.129	73.12
447.35	73.12
447.571	74.12
447.792	77.12
448.013	70.12
448.234	71.12
448.455	78.12
448.675	68.12
448.896	76.12
449.117	84.12
449.338	86.12
449.559	62.12
449.779	73.12
450	74.12
450.221	82.12
450.442	66.12
450.662	61.12
450.883	67.12
451.104	66.12
451.324	66.12
451.545	68.12
451.766	67.12
451.986	79.12
452.207	72.12
452.428	90.12
452.648	84.12
452.869	68.12
453.089	69.12
453.31	73.12
453.53	73.12
453.751	93.12
453.971	77.12
454.192	78.12
454.412	74.12
454.633	68.12
454.853	68.12
455.073	82.12
455.294	77.12
455.514	85.12
455.734	73.12
455.955	84.12
456.175	84.12
456.395	76.12
456.616	68.12
456.836	69.12
457.056	81.12
457.276	76.12
457.497	74.12
457.717	75.12
457.937	84.12
458.157	70.12
458.377	77.12
458.598	74.12
458.818	82.12
459.038	68.12
459.258	68.12
459.478	87.12
459.698	86.12
459.918	89.12
460.138	61.12
460.358	80.12
460.578	90.12
460.798	76.12
461.018	76.12
461.238	86.12
461.458	77.12
461.678	80.12
461.898	88.12
462.118	71.12
462.338	69.12
462.558	85.12
462.777	70.12
462.997	74.12
463.217	86.12
463.437	69.12
463.657	93.12
463.876	78.12
464.096	78.12
464.316	76.12
464.536	75.12
464.755	91.12
464.975	74.12
465.195	77.12
465.414	69.12
465.634	68.12
465.854	83.12
466.073	82.12
466.293	73.12
466.512	76.12
466.732	68.12
466.951	68.12
467.171	75.12
467.391	87.12
467.61	85.12
467.829	71.12
468.049	55.12
468.268	80.12
468.488	73.12
468.707	77.12
468.927	65.12
469.146	85.12
469.365	87.12
469.585	93.12
469.804	71.12
470.023	68.12
470.243	83.12
470.462	73.12
470.681	60.12
470.901	81.12
471.12	84.12
471.339	88.12
471.558	82.12
471.777	77.12
471.997	72.12
472.216	71.12
472.435	71.12
472.654	90.12
472.873	81.12
473.092	80.12
473.311	75.12
473.53	74.12
473.749	75.12
473.968	94.12
474.187	86.12
474.406	85.12
474.625	80.12
474.844	79.12
475.063	71.12
475.282	82.12
475.501	73.12
475.72	86.12
475.939	82.12
476.158	84.12
476.377	70.12
476.596	92.12
476.814	92.12
477.033	73.12
477.252	71.12
477.471	82.12
477.69	89.12
477.908	85.12
478.127	83.12
478.346	61.12
478.564	56.12
478.783	66.12
479.002	79.12
479.22	83.12
479.439	87.12
479.658	78.12
479.876	70.12
480.095	81.12
480.313	71.12
480.532	88.12
480.751	88.12
480.969	75.12
481.188	78.12
481.406	84.12
481.624	80.12
481.843	93.12
482.061	64.12
482.28	80.12
482.498	79.12
482.717	77.12
482.935	74.12
483.153	80.12
483.372	70.12
483.59	71.12
483.808	80.12
484.027	88.12
484.245	73.12
484.463	68.12
484.681	81.12
484.9	72.12
485.118	86.12
485.336	89.12
485.554	74.12
485.772	74.12
485.99	86.12
486.209	74.12
486.427	65.12
486.645	96.12
486.863	74.12
487.081	80.12
487.299	86.12
487.517	86.12
487.735	81.12
487.953	93.12
488.171	73.12
488.389	91.12
488.607	79.12
488.825	74.12
489.043	76.12
489.261	84.12
489.479	79.12
489.696	77.12
489.914	82.12
490.132	95.12
490.35	73.12
490.568	81.12
490.786	71.12
491.003	90.12
491.221	71.12
491.439	69.12
491.657	68.12
491.874	80.12
492.092	84.12
492.31	80.12
492.527	76.12
492.745	74.12
492.963	70.12
493.18	86.12
493.398	77.12
493.615	65.12
493.833	70.12
494.05	81.12
494.268	62.12
494.485	90.12
494.703	65.12
494.92	82.12
495.138	81.12
495.355	79.12
495.573	94.12
495.79	78.12
496.008	86.12
496.225	77.12
496.442	76.12
496.66	76.12
496.877	75.12
497.094	75.12
497.312	70.12
497.529	76.12
497.746	82.12
497.963	73.12
498.181	61.12
498.398	72.12
498.615	78.12
498.832	70.12
499.049	89.12
499.267	79.12
499.484	82.12
499.701	85.12
499.918	78.12
500.135	74.12
500.352	82.12
500.569	89.12
500.786	90.12
501.003	81.12
501.22	75.12
501.437	100.12
501.654	78.12
501.871	77.12
502.088	69.12
502.305	80.12
502.522	77.12
502.739	78.12
502.956	82.12
503.172	86.12
503.389	74.12
503.606	73.12
503.823	76.12
504.04	83.12
504.256	77.12
504.473	95.12
504.69	86.12
504.907	104.12
505.123	84.12
505.34	85.12
505.557	81.12
505.773	77.12
505.99	72.12
506.207	73.12
506.423	77.12
506.64	76.12
506.856	85.12
507.073	89.12
507.289	67.12
507.506	84.12
507.722	63.12
507.939	70.12
508.155	89.12
508.372	78.12
508.588	92.12
508.805	74.12
509.021	81.12
509.238	88.12
509.454	62.12
509.67	71.12
509.887	84.12
510.103	81.12
510.319	76.12
510.536	83.12
510.752	84.12
510.968	73.12
511.184	65.12
511.401	79.12
511.617	93.12
511.833	88.12
512.049	85.12
512.265	86.12
512.481	73.12
512.698	71.12
512.914	81.12
513.13	86.12
513.346	82.12
513.562	92.12
513.778	70.12
513.994	82.12
514.21	85.12
514.426	80.12
514.642	72.12
514.858	69.12
515.074	76.12
515.29	78.12
515.506	91.12
515.721	85.12
515.937	84.12
516.153	89.12
516.369	94.12
516.585	74.12
516.801	81.12
517.016	86.12
517.232	74.12
517.448	83.12
517.664	87.12
517.879	75.12
518.095	75.12
518.311	73.12
518.527	72.12
518.742	77.12
518.958	70.12
519.173	88.12
519.389	84.12
519.605	68.12
519.82	89.12
520.036	84.12
520.251	86.12
520.467	88.12
520.682	91.12
520.898	76.12
521.113	80.12
521.329	78.12
521.544	73.12
521.76	84.12
521.975	75.12
522.19	71.12
522.406	68.12
522.621	68.12
522.836	85.12
523.052	82.12
523.267	83.12
523.482	82.12
523.698	65.12
523.913	93.12
524.128	88.12
524.343	72.12
524.559	89.12
524.774	74.12
524.989	88.12
525.204	83.12
525.419	98.12
525.634	72.12
525.849	84.12
526.064	87.12
526.28	72.12
526.495	98.12
526.71	80.12
526.925	88.12
527.14	78.12
527.355	89.12
527.57	71.12
527.785	74.12
527.999	82.12
528.214	79.12
528.429	81.12
528.644	82.12
528.859	88.12
529.074	84.12
529.289	76.12
529.503	68.12
529.718	89.12
529.933	79.12
530.148	80.12
530.363	91.12
530.577	78.12
530.792	77.12
531.007	85.12
531.221	83.12
531.436	90.12
531.651	94.12
531.865	75.12
532.08	83.12
532.295	78.12
532.509	82.12
532.724	82.12
532.938	74.12
533.153	90.12
533.367	78.12
533.582	80.12
533.796	82.12
534.011	88.12
534.225	77.12
534.44	73.12
534.654	72.12
534.868	73.12
535.083	83.12
535.297	81.12
535.511	81.12
535.726	76.12
535.94	87.12
536.154	71.12
536.369	78.12
536.583	83.12
536.797	83.12
537.011	81.12
537.225	72.12
537.44	76.12
537.654	86.12
537.868	82.12
538.082	76.12
538.296	75.12
538.51	81.12
538.724	88.12
538.938	83.12
539.153	81.12
539.367	71.12
539.581	85.12
539.795	84.12
540.009	73.12
540.222	79.12
540.436	88.12
540.65	78.12
540.864	78.12
541.078	90.12
541.292	78.12
541.506	69.12
541.72	79.12
541.934	86.12
542.147	81.12
542.361	83.12
542.575	84.12
542.789	85.12
543.002	99.12
543.216	90.12
543.43	85.12
543.644	90.12
543.857	86.12
544.071	84.12
544.285	86.12
544.498	81.12
544.712	81.12
544.925	86.12
545.139	77.12
545.352	80.12
545.566	78.12
545.779	83.12
545.993	100.12
546.206	77.12
546.42	76.12
546.633	77.12
546.847	78.12
547.06	87.12
547.274	70.12
547.487	93.12
547.7	84.12
547.914	76.12
548.127	84.12
548.34	78.12
548.554	85.12
548.767	89.12
548.98	80.12
549.193	81.12
549.407	88.12
549.62	88.12
549.833	84.12
550.046	82.12
550.259	82.12
550.473	87.12
550.686	74.12
550.899	75.12
551.112	75.12
551.325	73.12
551.538	83.12
551.751	90.12
551.964	90.12
552.177	79.12
552.39	85.12
552.603	71.12
552.816	87.12
553.029	76.12
553.242	84.12
553.455	82.12
553.667	90.12
553.88	93.12
554.093	94.12
554.306	85.12
554.519	88.12
554.732	85.12
554.944	90.12
555.157	103.12
555.37	66.12
555.583	72.12
555.795	79.12
556.008	83.12
556.221	73.12
556.433	70.12
556.646	94.12
556.859	84.12
557.071	89.12
557.284	87.12
557.496	79.12
557.709	85.12
557.921	80.12
558.134	76.12
558.346	88.12
558.559	86.12
558.771	91.12
558.984	90.12
559.196	94.12
559.409	95.12
559.621	84.12
559.833	87.12
560.046	82.12
560.258	85.12
560.47	76.12
560.683	85.12
560.895	85.12
561.107	92.12
561.32	78.12
561.532	92.12
561.744	101.12
561.956	86.12
562.168	76.12
562.381	82.12
562.593	83.12
562.805	92.12
563.017	74.12
563.229	88.12
563.441	73.12
563.653	82.12
563.865	94.12
564.077	86.12
564.289	77.12
564.501	84.12
564.713	91.12
564.925	96.12
565.137	88.12
565.349	98.12
565.561	109.12
565.773	89.12
565.985	90.12
566.197	77.12
566.408	74.12
566.62	91.12
566.832	90.12
567.044	90.12
567.255	84.12
567.467	86.12
567.679	77.12
567.891	76.12
568.102	74.12
568.314	79.12
568.526	95.12
568.737	78.12
568.949	87.12
569.161	87.12
569.372	89.12
569.584	90.12
569.795	84.12
570.007	81.12
570.218	85.12
570.43	78.12
570.641	65.12
570.853	77.12
571.064	76.12
571.276	86.12
571.487	81.12
571.698	90.12
571.91	88.12
572.121	86.12
572.333	83.12
572.544	81.12
572.755	86.12
572.966	82.12
573.178	88.12
573.389	92.12
573.6	75.12
573.811	79.12
574.023	84.12
574.234	91.12
574.445	80.12
574.656	91.12
574.867	97.12
575.078	86.12
575.289	76.12
575.501	72.12
575.712	83.12
575.923	88.12
576.134	83.12
576.345	85.12
576.556	101.12
576.767	77.12
576.978	88.12
577.188	82.12
577.399	91.12
577.61	81.12
577.821	79.12
578.032	79.12
578.243	76.12
578.454	87.12
578.665	98.12
578.875	76.12
579.086	69.12
579.297	62.12
579.508	78.12
579.718	98.12
579.929	92.12
580.14	88.12
580.35	71.12
580.561	83.12
580.772	88.12
580.982	83.12
581.193	88.12
581.403	77.12
581.614	80.12
581.825	92.12
582.035	83.12
582.246	85.12
582.456	95.12
582.667	74.12
582.877	92.12
583.087	73.12
583.298	83.12
583.508	90.12
583.719	105.12
583.929	89.12
584.139	81.12
584.35	81.12
584.56	85.12
584.77	88.12
584.981	85.12
585.191	81.12
585.401	84.12
585.611	95.12
585.821	89.12
586.032	90.12
586.242	88.12
586.452	94.12
586.662	81.12
586.872	70.12
587.082	93.12
587.292	99.12
587.502	78.12
587.713	76.12
587.923	79.12
588.133	80.12
588.343	85.12
588.553	81.12
588.762	82.12
588.972	66.12
589.182	81.12
589.392	80.12
589.602	94.12
589.812	82.12
590.022	102.12
590.232	86.12
590.441	71.12
590.651	85.12
590.861	71.12
591.071	87.12
591.281	83.12
591.49	94.12
591.7	80.12
591.91	86.12
592.119	93.12
592.329	88.12
592.539	76.12
592.748	100.12
592.958	77.12
593.167	83.12
593.377	81.12
593.587	94.12
593.796	88.12
594.006	73.12
594.215	76.12
594.424	89.12
594.634	85.12
594.843	81.12
595.053	78.12
595.262	87.12
595.472	93.12
595.681	89.12
595.89	75.12
596.1	72.12
596.309	90.12
596.518	81.12
596.727	94.12
596.937	72.12
597.146	66.12
597.355	84.12
597.564	88.12
597.774	76.12
597.983	89.12
598.192	85.12
598.401	89.12
598.61	88.12
598.819	84.12
599.028	86.12
599.237	83.12
599.446	93.12
599.655	80.12
599.864	92.12
600.073	87.12
600.282	89.12
600.491	94.12
600.7	82.12
600.909	81.12
601.118	93.12
601.327	78.12
601.536	68.12
601.745	90.12
601.953	83.12
602.162	95.12
602.371	80.12
602.58	86.12
602.789	80.12
602.997	80.12
603.206	89.12
603.415	90.12
603.623	84.12
603.832	90.12
604.041	80.12
604.249	80.12
604.458	77.12
604.666	76.12
604.875	75.12
605.084	90.12
605.292	88.12
605.501	90.12
605.709	80.12
605.918	79.12
606.126	90.12
606.334	91.12
606.543	84.12
606.751	85.12
606.96	71.12
607.168	75.12
607.376	84.12
607.585	88.12
607.793	78.12
608.001	74.12
608.21	96.12
608.418	77.12
608.626	92.12
608.834	83.12
609.043	69.12
609.251	78.12
609.459	79.12
609.667	86.12
609.875	85.12
610.083	83.12
610.291	72.12
610.499	83.12
610.707	85.12
610.916	84.12
611.124	84.12
611.332	89.12
611.54	64.12
611.748	76.12
611.955	97.12
612.163	78.12
612.371	85.12
612.579	76.12
612.787	80.12
612.995	79.12
613.203	90.12
613.411	89.12
613.618	71.12
613.826	86.12
614.034	92.12
614.242	90.12
614.449	94.12
614.657	83.12
614.865	75.12
615.072	74.12
615.28	70.12
615.488	79.12
615.695	84.12
615.903	76.12
616.111	75.12
616.318	83.12
616.526	87.12
616.733	76.12
616.941	96.12
617.148	89.12
617.356	79.12
617.563	87.12
617.771	69.12
617.978	86.12
618.185	92.12
618.393	73.12
618.6	75.12
618.807	80.12
619.015	70.12
619.222	90.12
619.429	72.12
619.637	84.12
619.844	83.12
620.051	97.12
620.258	80.12
620.466	96.12
620.673	71.12
620.88	80.12
621.087	84.12
621.294	78.12
621.501	81.12
621.708	82.12
621.915	84.12
622.122	86.12
622.329	81.12
622.536	79.12
622.743	63.12
622.95	82.12
623.157	92.12
623.364	86.12
623.571	71.12
623.778	74.12
623.985	81.12
624.192	67.12
624.399	77.12
624.606	70.12
624.812	84.12
625.019	90.12
625.226	94.12
625.433	80.12
625.639	81.12
625.846	71.12
626.053	93.12
626.259	84.12
626.466	92.12
626.673	78.12
626.879	80.12
627.086	78.12
627.293	82.12
627.499	91.12
627.706	84.12
627.912	76.12
628.119	80.12
628.325	89.12
628.532	87.12
628.738	76.12
628.945	77.12
629.151	80.12
629.357	84.12
629.564	85.12
629.77	75.12
629.976	83.12
630.183	88.12
630.389	91.12
630.595	82.12
630.802	84.12
631.008	86.12
631.214	91.12
631.42	96.12
631.627	88.12
631.833	78.12
632.039	80.12
632.245	69.12
632.451	89.12
632.657	94.12
632.863	77.12
633.069	86.12
633.275	88.12
633.481	56.12
633.688	75.12
633.893	94.12
634.099	87.12
634.305	83.12
634.511	70.12
634.717	74.12
634.923	82.12
635.129	78.12
635.335	81.12
635.541	76.12
635.747	79.12
635.952	90.12
636.158	75.12
636.364	89.12
636.57	85.12
636.775	79.12
636.981	86.12
637.187	88.12
637.392	78.12
637.598	99.12
637.804	69.12
638.009	81.12
638.215	90.12
638.421	85.12
638.626	93.12
638.832	76.12
639.037	88.12
639.243	99.12
639.448	84.12
639.654	81.12
639.859	90.12
640.065	92.12
640.27	95.12
640.475	77.12
640.681	83.12
640.886	91.12
641.091	70.12
641.297	66.12
641.502	72.12
641.707	88.12
641.913	83.12
642.118	83.12
642.323	64.12
642.528	82.12
642.733	76.12
642.939	68.12
643.144	83.12
643.349	75.12
643.554	83.12
643.759	91.12
643.964	82.12
644.169	88.12
644.374	76.12
644.579	92.12
644.784	75.12
644.989	83.12
645.194	70.12
645.399	86.12
645.604	92.12
645.809	73.12
646.014	73.12
646.219	86.12
646.423	83.12
646.628	69.12
646.833	72.12
647.038	76.12
647.243	72.12
647.447	82.12
647.652	88.12
647.857	86.12
648.062	88.12
648.266	91.12
648.471	73.12
648.676	76.12
648.88	72.12
649.085	80.12
649.289	82.12
649.494	89.12
649.698	80.12
649.903	80.12
650.107	82.12
650.312	76.12
650.516	78.12
650.721	78.12
650.925	90.12
651.13	88.12
651.334	78.12
651.539	90.12
651.743	85.12
651.947	77.12
652.152	69.12
652.356	77.12
652.56	87.12
652.764	63.12
652.969	84.12
653.173	82.12
653.377	78.12
653.581	71.12
653.785	71.12
653.99	93.12
654.194	90.12
654.398	92.12
654.602	55.12
654.806	86.12
655.01	70.12
655.214	86.12
655.418	76.12
655.622	89.12
655.826	79.12
656.03	83.12
656.234	78.12
656.438	89.12
656.642	89.12
656.846	79.12
657.049	76.12
657.253	81.12
657.457	85.12
657.661	91.12
657.865	79.12
658.068	74.12
658.272	85.12
658.476	74.12
658.68	61.12
658.883	85.12
659.087	89.12
659.291	78.12
659.494	84.12
659.698	73.12
659.901	92.12
660.105	89.12
660.309	74.12
660.512	78.12
660.716	81.12
660.919	73.12
661.123	87.12
661.326	74.12
661.53	76.12
661.733	88.12
661.936	83.12
662.14	77.12
662.343	78.12
662.546	84.12
662.75	69.12
662.953	82.12
663.156	84.12
663.36	98.12
663.563	92.12
663.766	64.12
663.969	70.12
664.173	93.12
664.376	71.12
664.579	74.12
664.782	84.12
664.985	70.12
665.188	74.12
665.391	72.12
665.594	77.12
665.797	78.12
666	79.12
666.203	83.12
666.406	77.12
666.609	80.12
666.812	65.12
667.015	77.12
667.218	91.12
667.421	85.12
667.624	70.12
667.827	85.12
668.03	83.12
668.232	69.12
668.435	78.12
668.638	100.12
668.841	83.12
669.043	83.12
669.246	79.12
669.449	88.12
669.651	85.12
669.854	75.12
670.057	76.12
670.259	79.12
670.462	83.12
670.665	77.12
670.867	82.12
671.07	73.12
671.272	86.12
671.475	92.12
671.677	77.12
671.88	76.12
672.082	70.12
672.284	80.12
672.487	82.12
672.689	70.12
672.892	91.12
