Data from Uncirc_1991_H10_HRD10591_00029.txt Node
Date: Wed Jan 03 11:50:44 EST 2024
User: Yrep
Spectrometer: HR+D1059
Trigger mode: 1
Integration Time (sec): 1.000000E-1
Scans to average: 1
Electric dark correction enabled: true
Nonlinearity correction enabled: false
Boxcar width: 0
XAxis mode: Wavelengths
Number of Pixels in Spectrum: 2048
>>>>>Begin Spectral Data<<<<<
223.165	-24.06
223.4	-24.06
223.635	-24.06
223.869	-22.06
224.104	-22.06
224.338	-8.06
224.573	-19.06
224.808	-9.06
225.042	-14.06
225.277	-5.06
225.511	-4.06
225.746	-0.06
225.98	8.94
226.215	4.94
226.449	15.94
226.683	21.94
226.918	31.94
227.152	43.94
227.387	30.94
227.621	39.94
227.856	62.94
228.09	55.94
228.324	63.94
228.559	55.94
228.793	54.94
229.027	53.94
229.262	51.94
229.496	80.94
229.73	79.94
229.964	88.94
230.199	77.94
230.433	81.94
230.667	80.94
230.901	86.94
231.136	76.94
231.37	64.94
231.604	78.94
231.838	84.94
232.072	95.94
232.306	79.94
232.541	69.94
232.775	81.94
233.009	85.94
233.243	68.94
233.477	80.94
233.711	80.94
233.945	95.94
234.179	73.94
234.413	72.94
234.647	77.94
234.881	64.94
235.115	83.94
235.349	77.94
235.583	80.94
235.817	76.94
236.051	82.94
236.285	74.94
236.519	89.94
236.753	76.94
236.987	81.94
237.221	74.94
237.455	86.94
237.689	90.94
237.922	64.94
238.156	83.94
238.39	92.94
238.624	85.94
238.858	81.94
239.091	74.94
239.325	67.94
239.559	87.94
239.793	84.94
240.027	84.94
240.26	64.94
240.494	73.94
240.728	89.94
240.961	95.94
241.195	75.94
241.429	65.94
241.662	78.94
241.896	84.94
242.13	69.94
242.363	80.94
242.597	74.94
242.83	83.94
243.064	69.94
243.298	61.94
243.531	81.94
243.765	74.94
243.998	84.94
244.232	85.94
244.465	74.94
244.699	85.94
244.932	84.94
245.166	92.94
245.399	79.94
245.633	81.94
245.866	76.94
246.099	61.94
246.333	55.94
246.566	87.94
246.8	79.94
247.033	88.94
247.266	89.94
247.5	64.94
247.733	99.94
247.966	74.94
248.2	79.94
248.433	88.94
248.666	87.94
248.899	89.94
249.133	82.94
249.366	96.94
249.599	90.94
249.832	92.94
250.066	84.94
250.299	69.94
250.532	86.94
250.765	91.94
250.998	79.94
251.231	73.94
251.465	70.94
251.698	81.94
251.931	86.94
252.164	76.94
252.397	81.94
252.63	80.94
252.863	80.94
253.096	67.94
253.329	103.94
253.562	88.94
253.795	84.94
254.028	79.94
254.261	77.94
254.494	85.94
254.727	74.94
254.96	80.94
255.193	81.94
255.426	83.94
255.659	90.94
255.892	76.94
256.124	74.94
256.357	84.94
256.59	82.94
256.823	77.94
257.056	92.94
257.289	81.94
257.521	74.94
257.754	93.94
257.987	92.94
258.22	86.94
258.452	82.94
258.685	88.94
258.918	94.94
259.151	76.94
259.383	87.94
259.616	83.94
259.849	82.94
260.081	75.94
260.314	77.94
260.547	81.94
260.779	83.94
261.012	90.94
261.244	88.94
261.477	82.94
261.71	95.94
261.942	116.94
262.175	127.94
262.407	95.94
262.64	92.94
262.872	95.94
263.105	87.94
263.337	88.94
263.57	85.94
263.802	77.94
264.035	77.94
264.267	89.94
264.499	77.94
264.732	92.94
264.964	96.94
265.197	86.94
265.429	81.94
265.661	82.94
265.894	84.94
266.126	81.94
266.358	77.94
266.591	89.94
266.823	76.94
267.055	94.94
267.287	82.94
267.52	80.94
267.752	84.94
267.984	97.94
268.216	84.94
268.448	70.94
268.681	76.94
268.913	118.94
269.145	86.94
269.377	88.94
269.609	93.94
269.841	85.94
270.073	88.94
270.306	79.94
270.538	76.94
270.77	88.94
271.002	93.94
271.234	90.94
271.466	88.94
271.698	91.94
271.93	86.94
272.162	89.94
272.394	88.94
272.626	90.94
272.858	81.94
273.09	91.94
273.322	82.94
273.553	93.94
273.785	86.94
274.017	87.94
274.249	79.94
274.481	76.94
274.713	78.94
274.945	87.94
275.176	62.94
275.408	101.94
275.64	82.94
275.872	97.94
276.104	101.94
276.335	92.94
276.567	108.94
276.799	104.94
277.031	105.94
277.262	95.94
277.494	82.94
277.726	77.94
277.957	102.94
278.189	90.94
278.421	88.94
278.652	75.94
278.884	87.94
279.115	85.94
279.347	69.94
279.579	86.94
279.81	72.94
280.042	97.94
280.273	93.94
280.505	89.94
280.736	86.94
280.968	99.94
281.199	88.94
281.431	97.94
281.662	84.94
281.894	87.94
282.125	106.94
282.356	123.94
282.588	135.94
282.819	126.94
283.051	98.94
283.282	94.94
283.513	97.94
283.745	92.94
283.976	88.94
284.207	63.94
284.439	85.94
284.67	82.94
284.901	81.94
285.132	84.94
285.364	81.94
285.595	81.94
285.826	86.94
286.057	82.94
286.288	85.94
286.52	98.94
286.751	84.94
286.982	84.94
287.213	108.94
287.444	83.94
287.675	90.94
287.906	86.94
288.138	107.94
288.369	83.94
288.6	93.94
288.831	83.94
289.062	94.94
289.293	95.94
289.524	92.94
289.755	100.94
289.986	66.94
290.217	88.94
290.448	89.94
290.679	92.94
290.91	97.94
291.141	97.94
291.371	87.94
291.602	69.94
291.833	88.94
292.064	88.94
292.295	81.94
292.526	85.94
292.757	85.94
292.987	78.94
293.218	60.94
293.449	97.94
293.68	85.94
293.91	96.94
294.141	101.94
294.372	92.94
294.603	84.94
294.833	89.94
295.064	90.94
295.295	102.94
295.525	85.94
295.756	103.94
295.987	122.94
296.217	150.94
296.448	142.94
296.679	92.94
296.909	95.94
297.14	94.94
297.37	91.94
297.601	83.94
297.831	92.94
298.062	84.94
298.292	88.94
298.523	88.94
298.753	86.94
298.984	82.94
299.214	77.94
299.445	92.94
299.675	88.94
299.905	102.94
300.136	87.94
300.366	90.94
300.597	87.94
300.827	99.94
301.057	98.94
301.288	106.94
301.518	86.94
301.748	99.94
301.979	106.94
302.209	90.94
302.439	78.94
302.669	83.94
302.9	86.94
303.13	78.94
303.36	84.94
303.59	92.94
303.82	94.94
304.051	92.94
304.281	98.94
304.511	91.94
304.741	83.94
304.971	77.94
305.201	102.94
305.431	110.94
305.661	100.94
305.891	85.94
306.121	90.94
306.352	101.94
306.582	94.94
306.812	96.94
307.042	92.94
307.272	95.94
307.502	94.94
307.731	93.94
307.961	87.94
308.191	82.94
308.421	101.94
308.651	75.94
308.881	76.94
309.111	99.94
309.341	105.94
309.571	101.94
309.8	101.94
310.03	107.94
310.26	99.94
310.49	91.94
310.72	85.94
310.949	96.94
311.179	103.94
311.409	97.94
311.639	91.94
311.868	102.94
312.098	97.94
312.328	95.94
312.557	101.94
312.787	102.94
313.017	97.94
313.246	102.94
313.476	93.94
313.706	86.94
313.935	104.94
314.165	100.94
314.394	102.94
314.624	97.94
314.853	107.94
315.083	94.94
315.312	98.94
315.542	92.94
315.771	102.94
316.001	89.94
316.23	85.94
316.46	90.94
316.689	95.94
316.919	84.94
317.148	93.94
317.377	90.94
317.607	107.94
317.836	97.94
318.065	96.94
318.295	90.94
318.524	87.94
318.753	95.94
318.983	93.94
319.212	102.94
319.441	112.94
319.67	121.94
319.9	93.94
320.129	87.94
320.358	91.94
320.587	98.94
320.816	90.94
321.046	109.94
321.275	96.94
321.504	104.94
321.733	98.94
321.962	91.94
322.191	103.94
322.42	120.94
322.649	107.94
322.878	121.94
323.108	117.94
323.337	128.94
323.566	135.94
323.795	164.94
324.024	230.94
324.253	452.94
324.482	953.94
324.71	2050.94
324.939	2796.94
325.168	1002.94
325.397	269.94
325.626	162.94
325.855	146.94
326.084	137.94
326.313	124.94
326.542	157.94
326.77	245.94
326.999	517.94
327.228	1092.94
327.457	2058.94
327.686	1650.94
327.914	436.94
328.143	214.94
328.372	154.94
328.6	126.94
328.829	130.94
329.058	130.94
329.287	144.94
329.515	107.94
329.744	118.94
329.972	108.94
330.201	107.94
330.43	106.94
330.658	123.94
330.887	144.94
331.115	130.94
331.344	107.94
331.572	97.94
331.801	104.94
332.03	107.94
332.258	97.94
332.486	106.94
332.715	93.94
332.943	93.94
333.172	93.94
333.4	104.94
333.629	112.94
333.857	120.94
334.085	106.94
334.314	87.94
334.542	94.94
334.771	91.94
334.999	100.94
335.227	84.94
335.455	89.94
335.684	89.94
335.912	93.94
336.14	85.94
336.369	90.94
336.597	103.94
336.825	101.94
337.053	93.94
337.281	80.94
337.51	89.94
337.738	86.94
337.966	88.94
338.194	99.94
338.422	95.94
338.65	99.94
338.878	85.94
339.106	89.94
339.334	98.94
339.562	100.94
339.79	90.94
340.018	94.94
340.246	101.94
340.474	91.94
340.702	86.94
340.93	94.94
341.158	88.94
341.386	100.94
341.614	97.94
341.842	97.94
342.07	76.94
342.298	84.94
342.526	90.94
342.754	74.94
342.981	97.94
343.209	101.94
343.437	105.94
343.665	98.94
343.893	94.94
344.12	88.94
344.348	85.94
344.576	87.94
344.804	106.94
345.031	108.94
345.259	106.94
345.487	87.94
345.714	107.94
345.942	99.94
346.17	100.94
346.397	107.94
346.625	92.94
346.853	96.94
347.08	90.94
347.308	99.94
347.535	82.94
347.763	121.94
347.99	98.94
348.218	107.94
348.445	110.94
348.673	102.94
348.9	104.94
349.128	96.94
349.355	89.94
349.583	97.94
349.81	98.94
350.037	110.94
350.265	95.94
350.492	104.94
350.72	111.94
350.947	97.94
351.174	110.94
351.402	95.94
351.629	112.94
351.856	93.94
352.083	94.94
352.311	107.94
352.538	109.94
352.765	112.94
352.992	114.94
353.22	122.94
353.447	98.94
353.674	103.94
353.901	96.94
354.128	92.94
354.355	102.94
354.583	95.94
354.81	107.94
355.037	92.94
355.264	85.94
355.491	94.94
355.718	90.94
355.945	83.94
356.172	81.94
356.399	89.94
356.626	95.94
356.853	91.94
357.08	82.94
357.307	99.94
357.534	95.94
357.761	102.94
357.988	90.94
358.215	102.94
358.441	86.94
358.668	91.94
358.895	87.94
359.122	99.94
359.349	88.94
359.576	94.94
359.802	106.94
360.029	105.94
360.256	115.94
360.483	90.94
360.709	98.94
360.936	103.94
361.163	93.94
361.39	101.94
361.616	100.94
361.843	87.94
362.07	106.94
362.296	99.94
362.523	102.94
362.749	89.94
362.976	106.94
363.203	97.94
363.429	89.94
363.656	102.94
363.882	90.94
364.109	75.94
364.335	89.94
364.562	77.94
364.788	90.94
365.015	87.94
365.241	93.94
365.468	118.94
365.694	105.94
365.92	91.94
366.147	94.94
366.373	103.94
366.599	88.94
366.826	90.94
367.052	85.94
367.278	85.94
367.505	94.94
367.731	78.94
367.957	109.94
368.184	91.94
368.41	100.94
368.636	111.94
368.862	114.94
369.089	112.94
369.315	96.94
369.541	91.94
369.767	84.94
369.993	88.94
370.219	106.94
370.445	84.94
370.672	92.94
370.898	69.94
371.124	88.94
371.35	90.94
371.576	90.94
371.802	84.94
372.028	77.94
372.254	93.94
372.48	77.94
372.706	89.94
372.932	84.94
373.158	74.94
373.384	89.94
373.61	104.94
373.835	97.94
374.061	86.94
374.287	89.94
374.513	82.94
374.739	89.94
374.965	88.94
375.191	80.94
375.416	80.94
375.642	77.94
375.868	99.94
376.094	86.94
376.319	83.94
376.545	78.94
376.771	99.94
376.997	98.94
377.222	84.94
377.448	76.94
377.674	92.94
377.899	105.94
378.125	83.94
378.35	87.94
378.576	80.94
378.802	85.94
379.027	89.94
379.253	91.94
379.478	93.94
379.704	90.94
379.929	100.94
380.155	88.94
380.38	105.94
380.606	89.94
380.831	98.94
381.057	84.94
381.282	85.94
381.507	99.94
381.733	86.94
381.958	90.94
382.184	93.94
382.409	87.94
382.634	90.94
382.86	95.94
383.085	102.94
383.31	94.94
383.535	105.94
383.761	90.94
383.986	92.94
384.211	97.94
384.436	97.94
384.662	96.94
384.887	85.94
385.112	99.94
385.337	91.94
385.562	99.94
385.787	93.94
386.013	88.94
386.238	98.94
386.463	94.94
386.688	91.94
386.913	99.94
387.138	102.94
387.363	98.94
387.588	92.94
387.813	69.94
388.038	112.94
388.263	101.94
388.488	96.94
388.713	87.94
388.938	109.94
389.163	97.94
389.387	88.94
389.612	85.94
389.837	91.94
390.062	99.94
390.287	84.94
390.512	77.94
390.736	89.94
390.961	69.94
391.186	72.94
391.411	94.94
391.636	84.94
391.86	82.94
392.085	89.94
392.31	84.94
392.534	84.94
392.759	83.94
392.984	84.94
393.208	98.94
393.433	100.94
393.658	91.94
393.882	84.94
394.107	94.94
394.331	88.94
394.556	83.94
394.78	87.94
395.005	76.94
395.229	76.94
395.454	104.94
395.678	83.94
395.903	93.94
396.127	93.94
396.352	77.94
396.576	95.94
396.801	79.94
397.025	78.94
397.249	86.94
397.474	84.94
397.698	69.94
397.922	88.94
398.147	89.94
398.371	86.94
398.595	91.94
398.82	85.94
399.044	92.94
399.268	78.94
399.492	82.94
399.717	83.94
399.941	94.94
400.165	77.94
400.389	94.94
400.613	91.94
400.837	75.94
401.062	89.94
401.286	98.94
401.51	85.94
401.734	90.94
401.958	94.94
402.182	137.94
402.406	172.94
402.63	131.94
402.854	100.94
403.078	74.94
403.302	98.94
403.526	87.94
403.75	90.94
403.974	90.94
404.198	94.94
404.422	76.94
404.645	74.94
404.869	80.94
405.093	86.94
405.317	97.94
405.541	90.94
405.765	106.94
405.988	126.94
406.212	176.94
406.436	272.94
406.66	163.94
406.883	103.94
407.107	92.94
407.331	94.94
407.555	102.94
407.778	110.94
408.002	101.94
408.226	84.94
408.449	87.94
408.673	80.94
408.896	84.94
409.12	90.94
409.344	95.94
409.567	89.94
409.791	68.94
410.014	83.94
410.238	84.94
410.461	90.94
410.685	100.94
410.908	92.94
411.132	103.94
411.355	99.94
411.578	85.94
411.802	73.94
412.025	83.94
412.249	91.94
412.472	86.94
412.695	80.94
412.919	82.94
413.142	93.94
413.365	106.94
413.589	94.94
413.812	85.94
414.035	86.94
414.258	91.94
414.482	92.94
414.705	89.94
414.928	92.94
415.151	83.94
415.374	93.94
415.597	93.94
415.821	88.94
416.044	83.94
416.267	85.94
416.49	90.94
416.713	91.94
416.936	85.94
417.159	89.94
417.382	82.94
417.605	95.94
417.828	89.94
418.051	90.94
418.274	91.94
418.497	86.94
418.72	75.94
418.943	80.94
419.166	78.94
419.389	91.94
419.611	101.94
419.834	76.94
420.057	94.94
420.28	87.94
420.503	90.94
420.726	87.94
420.948	99.94
421.171	79.94
421.394	95.94
421.617	101.94
421.839	83.94
422.062	83.94
422.285	101.94
422.507	92.94
422.73	91.94
422.953	90.94
423.175	89.94
423.398	80.94
423.621	90.94
423.843	85.94
424.066	77.94
424.288	79.94
424.511	82.94
424.733	95.94
424.956	106.94
425.178	113.94
425.401	117.94
425.623	95.94
425.846	74.94
426.068	99.94
426.291	92.94
426.513	92.94
426.735	89.94
426.958	92.94
427.18	108.94
427.402	136.94
427.625	181.94
427.847	131.94
428.069	101.94
428.292	87.94
428.514	99.94
428.736	81.94
428.958	76.94
429.181	68.94
429.403	57.94
429.625	82.94
429.847	87.94
430.069	94.94
430.292	95.94
430.514	91.94
430.736	87.94
430.958	81.94
431.18	89.94
431.402	86.94
431.624	100.94
431.846	82.94
432.068	81.94
432.29	80.94
432.512	93.94
432.734	84.94
432.956	87.94
433.178	83.94
433.4	92.94
433.622	83.94
433.844	87.94
434.066	81.94
434.287	80.94
434.509	85.94
434.731	84.94
434.953	99.94
435.175	94.94
435.397	88.94
435.618	102.94
435.84	95.94
436.062	130.94
436.284	119.94
436.505	116.94
436.727	104.94
436.949	100.94
437.17	84.94
437.392	85.94
437.614	76.94
437.835	108.94
438.057	127.94
438.278	100.94
438.5	102.94
438.721	122.94
438.943	106.94
439.165	78.94
439.386	93.94
439.608	86.94
439.829	100.94
440.05	118.94
440.272	162.94
440.493	88.94
440.715	85.94
440.936	96.94
441.158	97.94
441.379	97.94
441.6	89.94
441.822	96.94
442.043	94.94
442.264	96.94
442.486	84.94
442.707	100.94
442.928	102.94
443.149	140.94
443.371	137.94
443.592	102.94
443.813	114.94
444.034	118.94
444.255	91.94
444.476	81.94
444.698	93.94
444.919	76.94
445.14	120.94
445.361	123.94
445.582	121.94
445.803	162.94
446.024	133.94
446.245	160.94
446.466	115.94
446.687	85.94
446.908	88.94
447.129	83.94
447.35	84.94
447.571	90.94
447.792	85.94
448.013	104.94
448.234	113.94
448.455	102.94
448.675	123.94
448.896	116.94
449.117	99.94
449.338	97.94
449.559	133.94
449.779	147.94
450	93.94
450.221	108.94
450.442	99.94
450.662	95.94
450.883	100.94
451.104	115.94
451.324	94.94
451.545	79.94
451.766	68.94
451.986	86.94
452.207	92.94
452.428	102.94
452.648	101.94
452.869	117.94
453.089	122.94
453.31	118.94
453.53	95.94
453.751	102.94
453.971	107.94
454.192	108.94
454.412	100.94
454.633	95.94
454.853	83.94
455.073	104.94
455.294	92.94
455.514	92.94
455.734	83.94
455.955	94.94
456.175	94.94
456.395	89.94
456.616	90.94
456.836	87.94
457.056	92.94
457.276	75.94
457.497	70.94
457.717	75.94
457.937	84.94
458.157	101.94
458.377	102.94
458.598	117.94
458.818	152.94
459.038	174.94
459.258	124.94
459.478	97.94
459.698	85.94
459.918	76.94
460.138	88.94
460.358	92.94
460.578	88.94
460.798	97.94
461.018	77.94
461.238	86.94
461.458	96.94
461.678	106.94
461.898	79.94
462.118	82.94
462.338	92.94
462.558	81.94
462.777	72.94
462.997	88.94
463.217	93.94
463.437	79.94
463.657	86.94
463.876	79.94
464.096	96.94
464.316	99.94
464.536	100.94
464.755	93.94
464.975	111.94
465.195	178.94
465.414	176.94
465.634	93.94
465.854	94.94
466.073	97.94
466.293	93.94
466.512	85.94
466.732	82.94
466.951	76.94
467.171	77.94
467.391	98.94
467.61	106.94
467.829	88.94
468.049	98.94
468.268	81.94
468.488	82.94
468.707	83.94
468.927	88.94
469.146	85.94
469.365	76.94
469.585	84.94
469.804	95.94
470.023	93.94
470.243	86.94
470.462	94.94
470.681	118.94
470.901	78.94
471.12	85.94
471.339	93.94
471.558	94.94
471.777	86.94
471.997	94.94
472.216	83.94
472.435	93.94
472.654	96.94
472.873	89.94
473.092	84.94
473.311	87.94
473.53	84.94
473.749	104.94
473.968	97.94
474.187	95.94
474.406	91.94
474.625	92.94
474.844	83.94
475.063	67.94
475.282	73.94
475.501	76.94
475.72	89.94
475.939	80.94
476.158	78.94
476.377	95.94
476.596	76.94
476.814	99.94
477.033	94.94
477.252	86.94
477.471	80.94
477.69	97.94
477.908	89.94
478.127	89.94
478.346	95.94
478.564	88.94
478.783	90.94
479.002	101.94
479.22	95.94
479.439	94.94
479.658	108.94
479.876	103.94
480.095	84.94
480.313	78.94
480.532	78.94
480.751	107.94
480.969	86.94
481.188	102.94
481.406	100.94
481.624	85.94
481.843	81.94
482.061	91.94
482.28	89.94
482.498	93.94
482.717	96.94
482.935	86.94
483.153	93.94
483.372	82.94
483.59	84.94
483.808	94.94
484.027	98.94
484.245	84.94
484.463	93.94
484.681	89.94
484.9	93.94
485.118	91.94
485.336	100.94
485.554	96.94
485.772	101.94
485.99	92.94
486.209	99.94
486.427	109.94
486.645	103.94
486.863	105.94
487.081	106.94
487.299	94.94
487.517	86.94
487.735	83.94
487.953	90.94
488.171	90.94
488.389	95.94
488.607	99.94
488.825	90.94
489.043	78.94
489.261	86.94
489.479	86.94
489.696	83.94
489.914	99.94
490.132	89.94
490.35	86.94
490.568	90.94
490.786	97.94
491.003	106.94
491.221	88.94
491.439	86.94
491.657	82.94
491.874	84.94
492.092	92.94
492.31	89.94
492.527	95.94
492.745	108.94
492.963	81.94
493.18	106.94
493.398	94.94
493.615	90.94
493.833	94.94
494.05	99.94
494.268	91.94
494.485	80.94
494.703	95.94
494.92	88.94
495.138	92.94
495.355	92.94
495.573	84.94
495.79	106.94
496.008	76.94
496.225	79.94
496.442	100.94
496.66	97.94
496.877	101.94
497.094	87.94
497.312	91.94
497.529	94.94
497.746	96.94
497.963	94.94
498.181	97.94
498.398	96.94
498.615	99.94
498.832	106.94
499.049	88.94
499.267	99.94
499.484	72.94
499.701	89.94
499.918	90.94
500.135	85.94
500.352	88.94
500.569	82.94
500.786	91.94
501.003	79.94
501.22	101.94
501.437	87.94
501.654	82.94
501.871	97.94
502.088	92.94
502.305	80.94
502.522	83.94
502.739	86.94
502.956	92.94
503.172	84.94
503.389	100.94
503.606	108.94
503.823	93.94
504.04	86.94
504.256	89.94
504.473	90.94
504.69	96.94
504.907	87.94
505.123	83.94
505.34	98.94
505.557	88.94
505.773	108.94
505.99	90.94
506.207	94.94
506.423	90.94
506.64	93.94
506.856	91.94
507.073	99.94
507.289	79.94
507.506	95.94
507.722	129.94
507.939	115.94
508.155	98.94
508.372	93.94
508.588	92.94
508.805	91.94
509.021	102.94
509.238	108.94
509.454	102.94
509.67	93.94
509.887	111.94
510.103	139.94
510.319	231.94
510.536	835.94
510.752	2687.94
510.968	713.94
511.184	163.94
511.401	124.94
511.617	107.94
511.833	98.94
512.049	92.94
512.265	81.94
512.481	93.94
512.698	74.94
512.914	83.94
513.13	116.94
513.346	96.94
513.562	96.94
513.778	92.94
513.994	89.94
514.21	85.94
514.426	134.94
514.642	120.94
514.858	135.94
515.074	174.94
515.29	511.94
515.506	1834.94
515.721	643.94
515.937	160.94
516.153	121.94
516.369	122.94
516.585	91.94
516.801	94.94
517.016	91.94
517.232	99.94
517.448	88.94
517.664	101.94
517.879	93.94
518.095	92.94
518.311	85.94
518.527	85.94
518.742	96.94
518.958	82.94
519.173	92.94
519.389	91.94
519.605	88.94
519.82	97.94
520.036	97.94
520.251	117.94
520.467	116.94
520.682	105.94
520.898	102.94
521.113	114.94
521.329	147.94
521.544	217.94
521.76	666.94
521.975	3047.94
522.19	1825.94
522.406	375.94
522.621	133.94
522.836	111.94
523.052	111.94
523.267	84.94
523.482	101.94
523.698	93.94
523.913	123.94
524.128	103.94
524.343	86.94
524.559	85.94
524.774	96.94
524.989	93.94
525.204	105.94
525.419	100.94
525.634	98.94
525.849	97.94
526.064	101.94
526.28	96.94
526.495	88.94
526.71	93.94
526.925	102.94
527.14	96.94
527.355	82.94
527.57	78.94
527.785	80.94
527.999	76.94
528.214	79.94
528.429	79.94
528.644	95.94
528.859	92.94
529.074	107.94
529.289	133.94
529.503	183.94
529.718	109.94
529.933	97.94
530.148	91.94
530.363	86.94
530.577	93.94
530.792	92.94
531.007	78.94
531.221	94.94
531.436	88.94
531.651	78.94
531.865	78.94
532.08	95.94
532.295	91.94
532.509	85.94
532.724	82.94
532.938	101.94
533.153	87.94
533.367	102.94
533.582	81.94
533.796	94.94
534.011	82.94
534.225	82.94
534.44	89.94
534.654	106.94
534.868	94.94
535.083	88.94
535.297	84.94
535.511	101.94
535.726	89.94
535.94	100.94
536.154	93.94
536.369	82.94
536.583	70.94
536.797	93.94
537.011	87.94
537.225	92.94
537.44	99.94
537.654	78.94
537.868	92.94
538.082	93.94
538.296	92.94
538.51	84.94
538.724	81.94
538.938	92.94
539.153	93.94
539.367	111.94
539.581	96.94
539.795	96.94
540.009	88.94
540.222	92.94
540.436	85.94
540.65	97.94
540.864	86.94
541.078	88.94
541.292	99.94
541.506	80.94
541.72	98.94
541.934	92.94
542.147	79.94
542.361	91.94
542.575	95.94
542.789	77.94
543.002	85.94
543.216	98.94
543.43	103.94
543.644	99.94
543.857	93.94
544.071	82.94
544.285	91.94
544.498	82.94
544.712	81.94
544.925	75.94
545.139	94.94
545.352	67.94
545.566	79.94
545.779	91.94
545.993	94.94
546.206	83.94
546.42	102.94
546.633	74.94
546.847	86.94
547.06	93.94
547.274	98.94
547.487	95.94
547.7	89.94
547.914	94.94
548.127	94.94
548.34	81.94
548.554	81.94
548.767	96.94
548.98	91.94
549.193	88.94
549.407	92.94
549.62	89.94
549.833	106.94
550.046	81.94
550.259	86.94
550.473	87.94
550.686	72.94
550.899	86.94
551.112	86.94
551.325	89.94
551.538	85.94
551.751	79.94
551.964	91.94
552.177	89.94
552.39	77.94
552.603	96.94
552.816	99.94
553.029	90.94
553.242	97.94
553.455	104.94
553.667	107.94
553.88	100.94
554.093	88.94
554.306	84.94
554.519	85.94
554.732	95.94
554.944	86.94
555.157	90.94
555.37	87.94
555.583	87.94
555.795	89.94
556.008	86.94
556.221	88.94
556.433	81.94
556.646	101.94
556.859	83.94
557.071	79.94
557.284	97.94
557.496	93.94
557.709	81.94
557.921	98.94
558.134	86.94
558.346	91.94
558.559	96.94
558.771	93.94
558.984	92.94
559.196	85.94
559.409	95.94
559.621	78.94
559.833	90.94
560.046	91.94
560.258	83.94
560.47	84.94
560.683	94.94
560.895	92.94
561.107	88.94
561.32	96.94
561.532	93.94
561.744	84.94
561.956	102.94
562.168	83.94
562.381	92.94
562.593	94.94
562.805	82.94
563.017	95.94
563.229	98.94
563.441	62.94
563.653	87.94
563.865	91.94
564.077	87.94
564.289	76.94
564.501	75.94
564.713	84.94
564.925	92.94
565.137	100.94
565.349	88.94
565.561	92.94
565.773	93.94
565.985	91.94
566.197	79.94
566.408	81.94
566.62	89.94
566.832	81.94
567.044	73.94
567.255	80.94
567.467	89.94
567.679	85.94
567.891	84.94
568.102	86.94
568.314	76.94
568.526	78.94
568.737	91.94
568.949	84.94
569.161	91.94
569.372	84.94
569.584	91.94
569.795	88.94
570.007	102.94
570.218	268.94
570.43	142.94
570.641	86.94
570.853	78.94
571.064	66.94
571.276	81.94
571.487	86.94
571.698	90.94
571.91	84.94
572.121	94.94
572.333	101.94
572.544	92.94
572.755	82.94
572.966	95.94
573.178	86.94
573.389	93.94
573.6	112.94
573.811	96.94
574.023	73.94
574.234	98.94
574.445	94.94
574.656	77.94
574.867	94.94
575.078	91.94
575.289	96.94
575.501	97.94
575.712	78.94
575.923	82.94
576.134	96.94
576.345	101.94
576.556	91.94
576.767	83.94
576.978	91.94
577.188	93.94
577.399	92.94
577.61	93.94
577.821	101.94
578.032	121.94
578.243	314.94
578.454	915.94
578.665	258.94
578.875	95.94
579.086	94.94
579.297	74.94
579.508	82.94
579.718	85.94
579.929	85.94
580.14	81.94
580.35	78.94
580.561	82.94
580.772	85.94
580.982	85.94
581.193	89.94
581.403	89.94
581.614	88.94
581.825	74.94
582.035	86.94
582.246	82.94
582.456	84.94
582.667	83.94
582.877	77.94
583.087	94.94
583.298	88.94
583.508	94.94
583.719	86.94
583.929	79.94
584.139	84.94
584.35	88.94
584.56	81.94
584.77	80.94
584.981	99.94
585.191	89.94
585.401	89.94
585.611	74.94
585.821	90.94
586.032	93.94
586.242	86.94
586.452	84.94
586.662	92.94
586.872	86.94
587.082	84.94
587.292	82.94
587.502	93.94
587.713	86.94
587.923	85.94
588.133	74.94
588.343	75.94
588.553	97.94
588.762	99.94
588.972	89.94
589.182	88.94
589.392	73.94
589.602	87.94
589.812	92.94
590.022	94.94
590.232	96.94
590.441	97.94
590.651	82.94
590.861	70.94
591.071	89.94
591.281	76.94
591.49	73.94
591.7	85.94
591.91	103.94
592.119	86.94
592.329	90.94
592.539	101.94
592.748	92.94
592.958	72.94
593.167	81.94
593.377	84.94
593.587	97.94
593.796	95.94
594.006	94.94
594.215	70.94
594.424	76.94
594.634	86.94
594.843	96.94
595.053	77.94
595.262	102.94
595.472	81.94
595.681	81.94
595.89	81.94
596.1	96.94
596.309	83.94
596.518	85.94
596.727	88.94
596.937	93.94
597.146	80.94
597.355	82.94
597.564	89.94
597.774	98.94
597.983	98.94
598.192	91.94
598.401	76.94
598.61	81.94
598.819	95.94
599.028	98.94
599.237	99.94
599.446	84.94
599.655	89.94
599.864	80.94
600.073	84.94
600.282	77.94
600.491	82.94
600.7	87.94
600.909	84.94
601.118	91.94
601.327	93.94
601.536	91.94
601.745	82.94
601.953	81.94
602.162	83.94
602.371	76.94
602.58	84.94
602.789	83.94
602.997	60.94
603.206	76.94
603.415	85.94
603.623	94.94
603.832	76.94
604.041	96.94
604.249	85.94
604.458	63.94
604.666	78.94
604.875	80.94
605.084	90.94
605.292	90.94
605.501	86.94
605.709	94.94
605.918	89.94
606.126	85.94
606.334	69.94
606.543	91.94
606.751	90.94
606.96	82.94
607.168	90.94
607.376	97.94
607.585	90.94
607.793	83.94
608.001	80.94
608.21	92.94
608.418	74.94
608.626	71.94
608.834	79.94
609.043	88.94
609.251	78.94
609.459	87.94
609.667	93.94
609.875	76.94
610.083	85.94
610.291	84.94
610.499	89.94
610.707	87.94
610.916	97.94
611.124	78.94
611.332	80.94
611.54	82.94
611.748	80.94
611.955	87.94
612.163	90.94
612.371	85.94
612.579	87.94
612.787	98.94
612.995	82.94
613.203	84.94
613.411	91.94
613.618	89.94
613.826	88.94
614.034	88.94
614.242	90.94
614.449	95.94
614.657	85.94
614.865	91.94
615.072	74.94
615.28	98.94
615.488	82.94
615.695	80.94
615.903	93.94
616.111	99.94
616.318	104.94
616.526	95.94
616.733	91.94
616.941	86.94
617.148	108.94
617.356	78.94
617.563	84.94
617.771	94.94
617.978	84.94
618.185	92.94
618.393	78.94
618.6	78.94
618.807	83.94
619.015	96.94
619.222	61.94
619.429	90.94
619.637	89.94
619.844	85.94
620.051	98.94
620.258	78.94
620.466	76.94
620.673	79.94
620.88	74.94
621.087	89.94
621.294	78.94
621.501	84.94
621.708	96.94
621.915	67.94
622.122	77.94
622.329	90.94
622.536	81.94
622.743	96.94
622.95	89.94
623.157	94.94
623.364	86.94
623.571	93.94
623.778	85.94
623.985	94.94
624.192	77.94
624.399	85.94
624.606	79.94
624.812	85.94
625.019	82.94
625.226	92.94
625.433	84.94
625.639	85.94
625.846	77.94
626.053	95.94
626.259	86.94
626.466	89.94
626.673	84.94
626.879	78.94
627.086	93.94
627.293	91.94
627.499	82.94
627.706	84.94
627.912	88.94
628.119	85.94
628.325	93.94
628.532	79.94
628.738	72.94
628.945	95.94
629.151	75.94
629.357	93.94
629.564	83.94
629.77	79.94
629.976	77.94
630.183	76.94
630.389	79.94
630.595	87.94
630.802	100.94
631.008	78.94
631.214	77.94
631.42	74.94
631.627	74.94
631.833	91.94
632.039	84.94
632.245	90.94
632.451	74.94
632.657	86.94
632.863	93.94
633.069	85.94
633.275	77.94
633.481	83.94
633.688	84.94
633.893	98.94
634.099	88.94
634.305	91.94
634.511	75.94
634.717	88.94
634.923	83.94
635.129	81.94
635.335	88.94
635.541	94.94
635.747	87.94
635.952	96.94
636.158	87.94
636.364	76.94
636.57	91.94
636.775	86.94
636.981	87.94
637.187	91.94
637.392	76.94
637.598	80.94
637.804	93.94
638.009	96.94
638.215	92.94
638.421	80.94
638.626	77.94
638.832	92.94
639.037	86.94
639.243	74.94
639.448	90.94
639.654	101.94
639.859	79.94
640.065	80.94
640.27	85.94
640.475	94.94
640.681	81.94
640.886	91.94
641.091	97.94
641.297	90.94
641.502	81.94
641.707	97.94
641.913	92.94
642.118	90.94
642.323	77.94
642.528	90.94
642.733	82.94
642.939	90.94
643.144	74.94
643.349	76.94
643.554	82.94
643.759	85.94
643.964	81.94
644.169	84.94
644.374	92.94
644.579	73.94
644.784	76.94
644.989	90.94
645.194	73.94
645.399	81.94
645.604	93.94
645.809	72.94
646.014	84.94
646.219	91.94
646.423	87.94
646.628	85.94
646.833	85.94
647.038	76.94
647.243	82.94
647.447	94.94
647.652	90.94
647.857	88.94
648.062	95.94
648.266	76.94
648.471	90.94
648.676	84.94
648.88	94.94
649.085	83.94
649.289	65.94
649.494	108.94
649.698	133.94
649.903	96.94
650.107	95.94
650.312	97.94
650.516	89.94
650.721	71.94
650.925	82.94
651.13	91.94
651.334	65.94
651.539	96.94
651.743	80.94
651.947	88.94
652.152	81.94
652.356	74.94
652.56	73.94
652.764	83.94
652.969	88.94
653.173	69.94
653.377	84.94
653.581	83.94
653.785	86.94
653.99	74.94
654.194	96.94
654.398	95.94
654.602	86.94
654.806	84.94
655.01	100.94
655.214	83.94
655.418	91.94
655.622	92.94
655.826	89.94
656.03	83.94
656.234	91.94
656.438	97.94
656.642	91.94
656.846	87.94
657.049	80.94
657.253	98.94
657.457	97.94
657.661	78.94
657.865	89.94
658.068	80.94
658.272	86.94
658.476	83.94
658.68	95.94
658.883	96.94
659.087	82.94
659.291	78.94
659.494	94.94
659.698	87.94
659.901	77.94
660.105	77.94
660.309	73.94
660.512	81.94
660.716	78.94
660.919	89.94
661.123	86.94
661.326	79.94
661.53	65.94
661.733	84.94
661.936	75.94
662.14	69.94
662.343	85.94
662.546	81.94
662.75	78.94
662.953	79.94
663.156	81.94
663.36	89.94
663.563	66.94
663.766	72.94
663.969	91.94
664.173	71.94
664.376	88.94
664.579	72.94
664.782	83.94
664.985	86.94
665.188	91.94
665.391	87.94
665.594	76.94
665.797	72.94
666	83.94
666.203	88.94
666.406	80.94
666.609	90.94
666.812	67.94
667.015	83.94
667.218	87.94
667.421	82.94
667.624	92.94
667.827	81.94
668.03	76.94
668.232	95.94
668.435	79.94
668.638	79.94
668.841	70.94
669.043	97.94
669.246	80.94
669.449	82.94
669.651	66.94
669.854	76.94
670.057	77.94
670.259	84.94
670.462	74.94
670.665	76.94
670.867	77.94
671.07	84.94
671.272	83.94
671.475	81.94
671.677	77.94
671.88	73.94
672.082	90.94
672.284	86.94
672.487	89.94
672.689	83.94
672.892	77.94
