Data from Uncirc_1991_H10_HRD10591_00001.txt Node
Date: Wed Jan 03 11:50:38 EST 2024
User: Yrep
Spectrometer: HR+D1059
Trigger mode: 1
Integration Time (sec): 1.000000E-1
Scans to average: 1
Electric dark correction enabled: true
Nonlinearity correction enabled: false
Boxcar width: 0
XAxis mode: Wavelengths
Number of Pixels in Spectrum: 2048
>>>>>Begin Spectral Data<<<<<
223.165	-19.75
223.4	-19.75
223.635	-19.75
223.869	-34.75
224.104	-12.75
224.338	-7.75
224.573	-18.75
224.808	-19.75
225.042	1.25
225.277	-6.75
225.511	5.25
225.746	-13.75
225.98	12.25
226.215	11.25
226.449	23.25
226.683	23.25
226.918	25.25
227.152	32.25
227.387	37.25
227.621	56.25
227.856	50.25
228.09	28.25
228.324	50.25
228.559	56.25
228.793	66.25
229.027	62.25
229.262	56.25
229.496	59.25
229.73	90.25
229.964	66.25
230.199	60.25
230.433	60.25
230.667	71.25
230.901	89.25
231.136	69.25
231.37	81.25
231.604	88.25
231.838	85.25
232.072	90.25
232.306	81.25
232.541	80.25
232.775	72.25
233.009	84.25
233.243	88.25
233.477	81.25
233.711	90.25
233.945	87.25
234.179	75.25
234.413	88.25
234.647	73.25
234.881	76.25
235.115	65.25
235.349	78.25
235.583	85.25
235.817	78.25
236.051	84.25
236.285	63.25
236.519	81.25
236.753	91.25
236.987	86.25
237.221	93.25
237.455	85.25
237.689	66.25
237.922	84.25
238.156	66.25
238.39	68.25
238.624	74.25
238.858	80.25
239.091	77.25
239.325	76.25
239.559	91.25
239.793	63.25
240.027	72.25
240.26	76.25
240.494	70.25
240.728	69.25
240.961	80.25
241.195	88.25
241.429	88.25
241.662	63.25
241.896	69.25
242.13	81.25
242.363	72.25
242.597	90.25
242.83	81.25
243.064	84.25
243.298	64.25
243.531	84.25
243.765	92.25
243.998	72.25
244.232	60.25
244.465	72.25
244.699	88.25
244.932	57.25
245.166	76.25
245.399	78.25
245.633	78.25
245.866	72.25
246.099	86.25
246.333	77.25
246.566	84.25
246.8	83.25
247.033	85.25
247.266	77.25
247.5	62.25
247.733	81.25
247.966	75.25
248.2	76.25
248.433	78.25
248.666	79.25
248.899	65.25
249.133	72.25
249.366	91.25
249.599	86.25
249.832	78.25
250.066	69.25
250.299	82.25
250.532	60.25
250.765	66.25
250.998	68.25
251.231	73.25
251.465	80.25
251.698	77.25
251.931	72.25
252.164	74.25
252.397	77.25
252.63	69.25
252.863	72.25
253.096	89.25
253.329	96.25
253.562	72.25
253.795	89.25
254.028	80.25
254.261	81.25
254.494	86.25
254.727	85.25
254.96	79.25
255.193	76.25
255.426	91.25
255.659	69.25
255.892	94.25
256.124	93.25
256.357	80.25
256.59	99.25
256.823	88.25
257.056	74.25
257.289	89.25
257.521	92.25
257.754	78.25
257.987	84.25
258.22	83.25
258.452	77.25
258.685	71.25
258.918	82.25
259.151	77.25
259.383	78.25
259.616	75.25
259.849	82.25
260.081	89.25
260.314	83.25
260.547	87.25
260.779	73.25
261.012	88.25
261.244	106.25
261.477	82.25
261.71	91.25
261.942	102.25
262.175	105.25
262.407	84.25
262.64	76.25
262.872	77.25
263.105	85.25
263.337	82.25
263.57	76.25
263.802	70.25
264.035	73.25
264.267	76.25
264.499	82.25
264.732	88.25
264.964	87.25
265.197	69.25
265.429	77.25
265.661	77.25
265.894	86.25
266.126	77.25
266.358	69.25
266.591	92.25
266.823	92.25
267.055	83.25
267.287	90.25
267.52	94.25
267.752	70.25
267.984	73.25
268.216	84.25
268.448	97.25
268.681	93.25
268.913	88.25
269.145	80.25
269.377	85.25
269.609	91.25
269.841	84.25
270.073	63.25
270.306	93.25
270.538	90.25
270.77	77.25
271.002	69.25
271.234	86.25
271.466	86.25
271.698	89.25
271.93	76.25
272.162	89.25
272.394	94.25
272.626	83.25
272.858	80.25
273.09	80.25
273.322	76.25
273.553	68.25
273.785	70.25
274.017	75.25
274.249	86.25
274.481	74.25
274.713	86.25
274.945	87.25
275.176	72.25
275.408	86.25
275.64	86.25
275.872	90.25
276.104	84.25
276.335	70.25
276.567	90.25
276.799	96.25
277.031	92.25
277.262	72.25
277.494	96.25
277.726	75.25
277.957	81.25
278.189	93.25
278.421	88.25
278.652	99.25
278.884	92.25
279.115	80.25
279.347	93.25
279.579	90.25
279.81	87.25
280.042	84.25
280.273	78.25
280.505	69.25
280.736	74.25
280.968	80.25
281.199	80.25
281.431	87.25
281.662	76.25
281.894	72.25
282.125	95.25
282.356	115.25
282.588	133.25
282.819	98.25
283.051	95.25
283.282	90.25
283.513	97.25
283.745	80.25
283.976	89.25
284.207	98.25
284.439	88.25
284.67	82.25
284.901	93.25
285.132	90.25
285.364	92.25
285.595	80.25
285.826	88.25
286.057	82.25
286.288	66.25
286.52	80.25
286.751	69.25
286.982	87.25
287.213	100.25
287.444	92.25
287.675	101.25
287.906	90.25
288.138	93.25
288.369	100.25
288.6	72.25
288.831	91.25
289.062	84.25
289.293	82.25
289.524	84.25
289.755	70.25
289.986	74.25
290.217	78.25
290.448	82.25
290.679	77.25
290.91	94.25
291.141	71.25
291.371	90.25
291.602	72.25
291.833	67.25
292.064	85.25
292.295	81.25
292.526	80.25
292.757	75.25
292.987	79.25
293.218	93.25
293.449	69.25
293.68	88.25
293.91	93.25
294.141	80.25
294.372	84.25
294.603	80.25
294.833	86.25
295.064	92.25
295.295	91.25
295.525	92.25
295.756	109.25
295.987	89.25
296.217	123.25
296.448	105.25
296.679	78.25
296.909	86.25
297.14	88.25
297.37	82.25
297.601	74.25
297.831	93.25
298.062	83.25
298.292	92.25
298.523	86.25
298.753	81.25
298.984	74.25
299.214	84.25
299.445	76.25
299.675	88.25
299.905	87.25
300.136	90.25
300.366	101.25
300.597	104.25
300.827	89.25
301.057	103.25
301.288	100.25
301.518	92.25
301.748	95.25
301.979	100.25
302.209	97.25
302.439	74.25
302.669	93.25
302.9	90.25
303.13	84.25
303.36	84.25
303.59	85.25
303.82	101.25
304.051	108.25
304.281	84.25
304.511	97.25
304.741	80.25
304.971	94.25
305.201	74.25
305.431	86.25
305.661	88.25
305.891	90.25
306.121	95.25
306.352	93.25
306.582	94.25
306.812	87.25
307.042	98.25
307.272	92.25
307.502	91.25
307.731	87.25
307.961	101.25
308.191	81.25
308.421	97.25
308.651	102.25
308.881	107.25
309.111	93.25
309.341	84.25
309.571	83.25
309.8	93.25
310.03	94.25
310.26	97.25
310.49	82.25
310.72	82.25
310.949	102.25
311.179	96.25
311.409	76.25
311.639	84.25
311.868	84.25
312.098	83.25
312.328	94.25
312.557	93.25
312.787	92.25
313.017	97.25
313.246	91.25
313.476	80.25
313.706	82.25
313.935	98.25
314.165	92.25
314.394	101.25
314.624	88.25
314.853	91.25
315.083	97.25
315.312	83.25
315.542	91.25
315.771	103.25
316.001	96.25
316.23	83.25
316.46	97.25
316.689	94.25
316.919	86.25
317.148	83.25
317.377	97.25
317.607	98.25
317.836	89.25
318.065	96.25
318.295	102.25
318.524	76.25
318.753	84.25
318.983	85.25
319.212	105.25
319.441	99.25
319.67	93.25
319.9	94.25
320.129	79.25
320.358	90.25
320.587	94.25
320.816	97.25
321.046	96.25
321.275	85.25
321.504	78.25
321.733	97.25
321.962	102.25
322.191	103.25
322.42	102.25
322.649	108.25
322.878	110.25
323.108	120.25
323.337	121.25
323.566	137.25
323.795	138.25
324.024	213.25
324.253	414.25
324.482	846.25
324.71	1861.25
324.939	2592.25
325.168	918.25
325.397	249.25
325.626	143.25
325.855	131.25
326.084	138.25
326.313	136.25
326.542	176.25
326.77	243.25
326.999	498.25
327.228	1026.25
327.457	1947.25
327.686	1598.25
327.914	409.25
328.143	188.25
328.372	140.25
328.6	125.25
328.829	118.25
329.058	115.25
329.287	123.25
329.515	121.25
329.744	86.25
329.972	112.25
330.201	103.25
330.43	106.25
330.658	109.25
330.887	137.25
331.115	106.25
331.344	108.25
331.572	107.25
331.801	95.25
332.03	97.25
332.258	91.25
332.486	91.25
332.715	106.25
332.943	99.25
333.172	84.25
333.4	105.25
333.629	97.25
333.857	123.25
334.085	79.25
334.314	85.25
334.542	87.25
334.771	94.25
334.999	104.25
335.227	101.25
335.455	88.25
335.684	90.25
335.912	100.25
336.14	107.25
336.369	83.25
336.597	92.25
336.825	99.25
337.053	88.25
337.281	83.25
337.51	95.25
337.738	97.25
337.966	111.25
338.194	93.25
338.422	92.25
338.65	104.25
338.878	93.25
339.106	96.25
339.334	92.25
339.562	88.25
339.79	81.25
340.018	90.25
340.246	85.25
340.474	80.25
340.702	80.25
340.93	92.25
341.158	84.25
341.386	103.25
341.614	96.25
341.842	86.25
342.07	91.25
342.298	99.25
342.526	86.25
342.754	89.25
342.981	72.25
343.209	94.25
343.437	109.25
343.665	95.25
343.893	88.25
344.12	105.25
344.348	94.25
344.576	85.25
344.804	82.25
345.031	95.25
345.259	99.25
345.487	89.25
345.714	89.25
345.942	98.25
346.17	89.25
346.397	95.25
346.625	76.25
346.853	97.25
347.08	84.25
347.308	99.25
347.535	100.25
347.763	110.25
347.99	100.25
348.218	116.25
348.445	111.25
348.673	97.25
348.9	86.25
349.128	102.25
349.355	87.25
349.583	99.25
349.81	93.25
350.037	93.25
350.265	98.25
350.492	105.25
350.72	96.25
350.947	88.25
351.174	94.25
351.402	113.25
351.629	94.25
351.856	98.25
352.083	95.25
352.311	103.25
352.538	105.25
352.765	123.25
352.992	97.25
353.22	104.25
353.447	125.25
353.674	103.25
353.901	87.25
354.128	113.25
354.355	91.25
354.583	98.25
354.81	99.25
355.037	86.25
355.264	93.25
355.491	110.25
355.718	88.25
355.945	91.25
356.172	105.25
356.399	92.25
356.626	92.25
356.853	86.25
357.08	90.25
357.307	84.25
357.534	85.25
357.761	85.25
357.988	74.25
358.215	106.25
358.441	98.25
358.668	92.25
358.895	88.25
359.122	83.25
359.349	87.25
359.576	88.25
359.802	113.25
360.029	93.25
360.256	105.25
360.483	102.25
360.709	80.25
360.936	101.25
361.163	83.25
361.39	91.25
361.616	89.25
361.843	86.25
362.07	100.25
362.296	102.25
362.523	95.25
362.749	93.25
362.976	86.25
363.203	97.25
363.429	97.25
363.656	84.25
363.882	82.25
364.109	79.25
364.335	96.25
364.562	93.25
364.788	79.25
365.015	95.25
365.241	95.25
365.468	110.25
365.694	112.25
365.92	90.25
366.147	89.25
366.373	98.25
366.599	96.25
366.826	79.25
367.052	91.25
367.278	82.25
367.505	82.25
367.731	92.25
367.957	88.25
368.184	95.25
368.41	94.25
368.636	106.25
368.862	101.25
369.089	98.25
369.315	82.25
369.541	86.25
369.767	93.25
369.993	102.25
370.219	90.25
370.445	90.25
370.672	90.25
370.898	74.25
371.124	85.25
371.35	91.25
371.576	97.25
371.802	89.25
372.028	102.25
372.254	88.25
372.48	95.25
372.706	92.25
372.932	84.25
373.158	96.25
373.384	80.25
373.61	85.25
373.835	104.25
374.061	85.25
374.287	98.25
374.513	101.25
374.739	93.25
374.965	77.25
375.191	86.25
375.416	88.25
375.642	97.25
375.868	94.25
376.094	84.25
376.319	83.25
376.545	90.25
376.771	98.25
376.997	85.25
377.222	92.25
377.448	89.25
377.674	93.25
377.899	81.25
378.125	101.25
378.35	80.25
378.576	91.25
378.802	95.25
379.027	83.25
379.253	92.25
379.478	78.25
379.704	103.25
379.929	98.25
380.155	98.25
380.38	86.25
380.606	102.25
380.831	80.25
381.057	94.25
381.282	84.25
381.507	93.25
381.733	101.25
381.958	92.25
382.184	92.25
382.409	98.25
382.634	99.25
382.86	85.25
383.085	93.25
383.31	101.25
383.535	93.25
383.761	98.25
383.986	106.25
384.211	97.25
384.436	113.25
384.662	85.25
384.887	95.25
385.112	85.25
385.337	97.25
385.562	92.25
385.787	101.25
386.013	102.25
386.238	110.25
386.463	88.25
386.688	117.25
386.913	101.25
387.138	104.25
387.363	99.25
387.588	104.25
387.813	101.25
388.038	111.25
388.263	106.25
388.488	98.25
388.713	86.25
388.938	96.25
389.163	84.25
389.387	90.25
389.612	93.25
389.837	84.25
390.062	90.25
390.287	103.25
390.512	99.25
390.736	82.25
390.961	96.25
391.186	98.25
391.411	89.25
391.636	81.25
391.86	81.25
392.085	88.25
392.31	92.25
392.534	94.25
392.759	87.25
392.984	86.25
393.208	90.25
393.433	92.25
393.658	103.25
393.882	97.25
394.107	95.25
394.331	75.25
394.556	70.25
394.78	77.25
395.005	84.25
395.229	84.25
395.454	91.25
395.678	77.25
395.903	79.25
396.127	100.25
396.352	81.25
396.576	85.25
396.801	87.25
397.025	102.25
397.249	84.25
397.474	89.25
397.698	85.25
397.922	83.25
398.147	81.25
398.371	97.25
398.595	81.25
398.82	77.25
399.044	78.25
399.268	89.25
399.492	67.25
399.717	69.25
399.941	89.25
400.165	99.25
400.389	103.25
400.613	74.25
400.837	79.25
401.062	81.25
401.286	73.25
401.51	89.25
401.734	88.25
401.958	98.25
402.182	107.25
402.406	145.25
402.63	120.25
402.854	78.25
403.078	89.25
403.302	83.25
403.526	75.25
403.75	77.25
403.974	81.25
404.198	95.25
404.422	84.25
404.645	88.25
404.869	92.25
405.093	84.25
405.317	99.25
405.541	96.25
405.765	95.25
405.988	106.25
406.212	158.25
406.436	189.25
406.66	126.25
406.883	116.25
407.107	104.25
407.331	96.25
407.555	108.25
407.778	108.25
408.002	104.25
408.226	93.25
408.449	80.25
408.673	80.25
408.896	92.25
409.12	102.25
409.344	89.25
409.567	90.25
409.791	102.25
410.014	92.25
410.238	80.25
410.461	85.25
410.685	80.25
410.908	97.25
411.132	117.25
411.355	106.25
411.578	101.25
411.802	91.25
412.025	101.25
412.249	96.25
412.472	89.25
412.695	88.25
412.919	77.25
413.142	92.25
413.365	72.25
413.589	85.25
413.812	84.25
414.035	90.25
414.258	89.25
414.482	83.25
414.705	101.25
414.928	79.25
415.151	105.25
415.374	87.25
415.597	89.25
415.821	102.25
416.044	92.25
416.267	85.25
416.49	83.25
416.713	93.25
416.936	85.25
417.159	74.25
417.382	83.25
417.605	81.25
417.828	85.25
418.051	99.25
418.274	82.25
418.497	85.25
418.72	77.25
418.943	90.25
419.166	84.25
419.389	76.25
419.611	98.25
419.834	88.25
420.057	88.25
420.28	94.25
420.503	90.25
420.726	98.25
420.948	100.25
421.171	95.25
421.394	91.25
421.617	83.25
421.839	76.25
422.062	91.25
422.285	89.25
422.507	100.25
422.73	117.25
422.953	102.25
423.175	82.25
423.398	104.25
423.621	92.25
423.843	74.25
424.066	98.25
424.288	96.25
424.511	83.25
424.733	109.25
424.956	108.25
425.178	105.25
425.401	102.25
425.623	100.25
425.846	94.25
426.068	100.25
426.291	97.25
426.513	92.25
426.735	95.25
426.958	84.25
427.18	120.25
427.402	141.25
427.625	166.25
427.847	115.25
428.069	85.25
428.292	84.25
428.514	83.25
428.736	96.25
428.958	89.25
429.181	83.25
429.403	97.25
429.625	89.25
429.847	95.25
430.069	103.25
430.292	84.25
430.514	84.25
430.736	72.25
430.958	99.25
431.18	82.25
431.402	85.25
431.624	79.25
431.846	93.25
432.068	91.25
432.29	83.25
432.512	91.25
432.734	90.25
432.956	94.25
433.178	106.25
433.4	99.25
433.622	89.25
433.844	96.25
434.066	77.25
434.287	99.25
434.509	87.25
434.731	101.25
434.953	98.25
435.175	80.25
435.397	99.25
435.618	98.25
435.84	109.25
436.062	142.25
436.284	134.25
436.505	105.25
436.727	102.25
436.949	74.25
437.17	79.25
437.392	80.25
437.614	68.25
437.835	108.25
438.057	113.25
438.278	130.25
438.5	124.25
438.721	150.25
438.943	101.25
439.165	103.25
439.386	86.25
439.608	89.25
439.829	97.25
440.05	140.25
440.272	149.25
440.493	104.25
440.715	92.25
440.936	95.25
441.158	91.25
441.379	88.25
441.6	75.25
441.822	82.25
442.043	94.25
442.264	113.25
442.486	122.25
442.707	95.25
442.928	110.25
443.149	136.25
443.371	130.25
443.592	118.25
443.813	131.25
444.034	114.25
444.255	102.25
444.476	96.25
444.698	104.25
444.919	101.25
445.14	146.25
445.361	124.25
445.582	123.25
445.803	156.25
446.024	141.25
446.245	154.25
446.466	113.25
446.687	96.25
446.908	93.25
447.129	94.25
447.35	96.25
447.571	79.25
447.792	86.25
448.013	93.25
448.234	97.25
448.455	114.25
448.675	133.25
448.896	123.25
449.117	82.25
449.338	110.25
449.559	146.25
449.779	151.25
450	90.25
450.221	81.25
450.442	93.25
450.662	97.25
450.883	108.25
451.104	117.25
451.324	106.25
451.545	89.25
451.766	90.25
451.986	96.25
452.207	94.25
452.428	86.25
452.648	110.25
452.869	89.25
453.089	100.25
453.31	123.25
453.53	88.25
453.751	111.25
453.971	100.25
454.192	98.25
454.412	106.25
454.633	96.25
454.853	89.25
455.073	86.25
455.294	85.25
455.514	96.25
455.734	89.25
455.955	73.25
456.175	84.25
456.395	94.25
456.616	77.25
456.836	92.25
457.056	75.25
457.276	80.25
457.497	89.25
457.717	74.25
457.937	89.25
458.157	90.25
458.377	105.25
458.598	91.25
458.818	127.25
459.038	154.25
459.258	123.25
459.478	91.25
459.698	77.25
459.918	90.25
460.138	73.25
460.358	92.25
460.578	93.25
460.798	79.25
461.018	82.25
461.238	84.25
461.458	76.25
461.678	91.25
461.898	91.25
462.118	90.25
462.338	86.25
462.558	81.25
462.777	83.25
462.997	83.25
463.217	85.25
463.437	85.25
463.657	97.25
463.876	103.25
464.096	92.25
464.316	90.25
464.536	80.25
464.755	89.25
464.975	99.25
465.195	164.25
465.414	163.25
465.634	108.25
465.854	85.25
466.073	102.25
466.293	70.25
466.512	77.25
466.732	89.25
466.951	82.25
467.171	91.25
467.391	88.25
467.61	104.25
467.829	99.25
468.049	88.25
468.268	76.25
468.488	87.25
468.707	83.25
468.927	78.25
469.146	93.25
469.365	99.25
469.585	81.25
469.804	89.25
470.023	97.25
470.243	99.25
470.462	84.25
470.681	102.25
470.901	86.25
471.12	78.25
471.339	99.25
471.558	74.25
471.777	93.25
471.997	101.25
472.216	103.25
472.435	90.25
472.654	94.25
472.873	81.25
473.092	82.25
473.311	84.25
473.53	81.25
473.749	96.25
473.968	98.25
474.187	109.25
474.406	102.25
474.625	97.25
474.844	96.25
475.063	79.25
475.282	88.25
475.501	76.25
475.72	97.25
475.939	72.25
476.158	81.25
476.377	90.25
476.596	88.25
476.814	98.25
477.033	95.25
477.252	66.25
477.471	96.25
477.69	94.25
477.908	91.25
478.127	78.25
478.346	84.25
478.564	93.25
478.783	89.25
479.002	88.25
479.22	90.25
479.439	100.25
479.658	105.25
479.876	108.25
480.095	94.25
480.313	88.25
480.532	88.25
480.751	83.25
480.969	86.25
481.188	99.25
481.406	95.25
481.624	92.25
481.843	104.25
482.061	86.25
482.28	86.25
482.498	97.25
482.717	90.25
482.935	93.25
483.153	77.25
483.372	84.25
483.59	94.25
483.808	94.25
484.027	99.25
484.245	97.25
484.463	95.25
484.681	88.25
484.9	107.25
485.118	94.25
485.336	93.25
485.554	93.25
485.772	93.25
485.99	106.25
486.209	112.25
486.427	104.25
486.645	95.25
486.863	105.25
487.081	97.25
487.299	101.25
487.517	108.25
487.735	93.25
487.953	93.25
488.171	94.25
488.389	97.25
488.607	102.25
488.825	82.25
489.043	92.25
489.261	95.25
489.479	86.25
489.696	88.25
489.914	78.25
490.132	91.25
490.35	90.25
490.568	92.25
490.786	90.25
491.003	74.25
491.221	94.25
491.439	74.25
491.657	81.25
491.874	93.25
492.092	92.25
492.31	86.25
492.527	96.25
492.745	85.25
492.963	114.25
493.18	95.25
493.398	100.25
493.615	92.25
493.833	94.25
494.05	81.25
494.268	88.25
494.485	84.25
494.703	88.25
494.92	104.25
495.138	91.25
495.355	101.25
495.573	93.25
495.79	91.25
496.008	101.25
496.225	95.25
496.442	80.25
496.66	96.25
496.877	106.25
497.094	80.25
497.312	89.25
497.529	88.25
497.746	99.25
497.963	99.25
498.181	85.25
498.398	94.25
498.615	91.25
498.832	117.25
499.049	107.25
499.267	80.25
499.484	85.25
499.701	92.25
499.918	90.25
500.135	78.25
500.352	87.25
500.569	104.25
500.786	102.25
501.003	99.25
501.22	98.25
501.437	95.25
501.654	67.25
501.871	101.25
502.088	92.25
502.305	93.25
502.522	94.25
502.739	86.25
502.956	86.25
503.172	107.25
503.389	83.25
503.606	112.25
503.823	104.25
504.04	104.25
504.256	102.25
504.473	93.25
504.69	79.25
504.907	85.25
505.123	96.25
505.34	90.25
505.557	94.25
505.773	105.25
505.99	90.25
506.207	96.25
506.423	90.25
506.64	78.25
506.856	86.25
507.073	92.25
507.289	79.25
507.506	98.25
507.722	111.25
507.939	108.25
508.155	93.25
508.372	95.25
508.588	104.25
508.805	100.25
509.021	93.25
509.238	91.25
509.454	106.25
509.67	92.25
509.887	125.25
510.103	120.25
510.319	184.25
510.536	625.25
510.752	1830.25
510.968	534.25
511.184	124.25
511.401	88.25
511.617	95.25
511.833	98.25
512.049	92.25
512.265	95.25
512.481	109.25
512.698	86.25
512.914	91.25
513.13	98.25
513.346	90.25
513.562	104.25
513.778	100.25
513.994	105.25
514.21	106.25
514.426	111.25
514.642	114.25
514.858	120.25
515.074	168.25
515.29	394.25
515.506	1211.25
515.721	473.25
515.937	144.25
516.153	113.25
516.369	96.25
516.585	92.25
516.801	97.25
517.016	104.25
517.232	82.25
517.448	91.25
517.664	97.25
517.879	94.25
518.095	90.25
518.311	97.25
518.527	90.25
518.742	102.25
518.958	84.25
519.173	88.25
519.389	98.25
519.605	101.25
519.82	108.25
520.036	108.25
520.251	114.25
520.467	116.25
520.682	102.25
520.898	122.25
521.113	99.25
521.329	119.25
521.544	186.25
521.76	495.25
521.975	2098.25
522.19	1198.25
522.406	264.25
522.621	129.25
522.836	102.25
523.052	93.25
523.267	100.25
523.482	88.25
523.698	93.25
523.913	122.25
524.128	99.25
524.343	80.25
524.559	99.25
524.774	95.25
524.989	96.25
525.204	97.25
525.419	97.25
525.634	93.25
525.849	89.25
526.064	87.25
526.28	89.25
526.495	88.25
526.71	94.25
526.925	90.25
527.14	103.25
527.355	94.25
527.57	100.25
527.785	89.25
527.999	85.25
528.214	85.25
528.429	82.25
528.644	99.25
528.859	101.25
529.074	91.25
529.289	119.25
529.503	156.25
529.718	95.25
529.933	93.25
530.148	91.25
530.363	92.25
530.577	91.25
530.792	96.25
531.007	84.25
531.221	92.25
531.436	86.25
531.651	96.25
531.865	91.25
532.08	91.25
532.295	98.25
532.509	90.25
532.724	101.25
532.938	94.25
533.153	99.25
533.367	77.25
533.582	86.25
533.796	95.25
534.011	97.25
534.225	92.25
534.44	92.25
534.654	97.25
534.868	81.25
535.083	100.25
535.297	96.25
535.511	98.25
535.726	101.25
535.94	103.25
536.154	84.25
536.369	78.25
536.583	84.25
536.797	88.25
537.011	89.25
537.225	90.25
537.44	91.25
537.654	94.25
537.868	99.25
538.082	94.25
538.296	83.25
538.51	88.25
538.724	76.25
538.938	99.25
539.153	94.25
539.367	104.25
539.581	83.25
539.795	78.25
540.009	86.25
540.222	101.25
540.436	97.25
540.65	85.25
540.864	82.25
541.078	91.25
541.292	96.25
541.506	102.25
541.72	89.25
541.934	87.25
542.147	97.25
542.361	86.25
542.575	89.25
542.789	84.25
543.002	96.25
543.216	97.25
543.43	96.25
543.644	97.25
543.857	96.25
544.071	79.25
544.285	89.25
544.498	82.25
544.712	84.25
544.925	85.25
545.139	97.25
545.352	85.25
545.566	111.25
545.779	80.25
545.993	91.25
546.206	90.25
546.42	82.25
546.633	89.25
546.847	90.25
547.06	89.25
547.274	90.25
547.487	99.25
547.7	88.25
547.914	86.25
548.127	102.25
548.34	76.25
548.554	92.25
548.767	84.25
548.98	84.25
549.193	89.25
549.407	94.25
549.62	83.25
549.833	93.25
550.046	84.25
550.259	99.25
550.473	89.25
550.686	86.25
550.899	91.25
551.112	92.25
551.325	93.25
551.538	91.25
551.751	86.25
551.964	74.25
552.177	80.25
552.39	94.25
552.603	104.25
552.816	94.25
553.029	85.25
553.242	94.25
553.455	89.25
553.667	110.25
553.88	89.25
554.093	93.25
554.306	86.25
554.519	98.25
554.732	88.25
554.944	100.25
555.157	87.25
555.37	73.25
555.583	92.25
555.795	88.25
556.008	89.25
556.221	89.25
556.433	101.25
556.646	88.25
556.859	96.25
557.071	95.25
557.284	87.25
557.496	74.25
557.709	86.25
557.921	90.25
558.134	91.25
558.346	105.25
558.559	88.25
558.771	90.25
558.984	93.25
559.196	89.25
559.409	80.25
559.621	88.25
559.833	87.25
560.046	88.25
560.258	84.25
560.47	80.25
560.683	88.25
560.895	88.25
561.107	103.25
561.32	85.25
561.532	90.25
561.744	93.25
561.956	96.25
562.168	92.25
562.381	96.25
562.593	105.25
562.805	73.25
563.017	84.25
563.229	78.25
563.441	90.25
563.653	102.25
563.865	92.25
564.077	97.25
564.289	78.25
564.501	92.25
564.713	90.25
564.925	86.25
565.137	97.25
565.349	92.25
565.561	90.25
565.773	98.25
565.985	93.25
566.197	93.25
566.408	98.25
566.62	88.25
566.832	85.25
567.044	94.25
567.255	80.25
567.467	90.25
567.679	88.25
567.891	89.25
568.102	87.25
568.314	92.25
568.526	91.25
568.737	108.25
568.949	84.25
569.161	88.25
569.372	96.25
569.584	89.25
569.795	104.25
570.007	117.25
570.218	200.25
570.43	120.25
570.641	97.25
570.853	85.25
571.064	87.25
571.276	86.25
571.487	81.25
571.698	95.25
571.91	92.25
572.121	92.25
572.333	90.25
572.544	94.25
572.755	98.25
572.966	86.25
573.178	79.25
573.389	76.25
573.6	83.25
573.811	89.25
574.023	82.25
574.234	96.25
574.445	82.25
574.656	88.25
574.867	76.25
575.078	85.25
575.289	99.25
575.501	98.25
575.712	91.25
575.923	91.25
576.134	85.25
576.345	80.25
576.556	85.25
576.767	99.25
576.978	97.25
577.188	82.25
577.399	89.25
577.61	92.25
577.821	115.25
578.032	130.25
578.243	226.25
578.454	625.25
578.665	200.25
578.875	101.25
579.086	94.25
579.297	89.25
579.508	93.25
579.718	92.25
579.929	68.25
580.14	80.25
580.35	91.25
580.561	85.25
580.772	105.25
580.982	92.25
581.193	84.25
581.403	91.25
581.614	85.25
581.825	81.25
582.035	84.25
582.246	104.25
582.456	83.25
582.667	81.25
582.877	84.25
583.087	83.25
583.298	92.25
583.508	88.25
583.719	89.25
583.929	91.25
584.139	81.25
584.35	84.25
584.56	83.25
584.77	83.25
584.981	92.25
585.191	95.25
585.401	80.25
585.611	94.25
585.821	65.25
586.032	86.25
586.242	84.25
586.452	78.25
586.662	86.25
586.872	79.25
587.082	98.25
587.292	92.25
587.502	72.25
587.713	76.25
587.923	79.25
588.133	77.25
588.343	82.25
588.553	72.25
588.762	68.25
588.972	88.25
589.182	96.25
589.392	81.25
589.602	89.25
589.812	90.25
590.022	93.25
590.232	91.25
590.441	74.25
590.651	73.25
590.861	75.25
591.071	74.25
591.281	79.25
591.49	92.25
591.7	82.25
591.91	84.25
592.119	73.25
592.329	96.25
592.539	84.25
592.748	95.25
592.958	84.25
593.167	74.25
593.377	89.25
593.587	92.25
593.796	80.25
594.006	76.25
594.215	69.25
594.424	83.25
594.634	90.25
594.843	92.25
595.053	78.25
595.262	90.25
595.472	81.25
595.681	78.25
595.89	88.25
596.1	86.25
596.309	84.25
596.518	103.25
596.727	85.25
596.937	80.25
597.146	78.25
597.355	95.25
597.564	82.25
597.774	106.25
597.983	83.25
598.192	78.25
598.401	85.25
598.61	82.25
598.819	73.25
599.028	89.25
599.237	76.25
599.446	88.25
599.655	83.25
599.864	74.25
600.073	67.25
600.282	85.25
600.491	81.25
600.7	89.25
600.909	89.25
601.118	86.25
601.327	80.25
601.536	99.25
601.745	96.25
601.953	95.25
602.162	90.25
602.371	98.25
602.58	76.25
602.789	95.25
602.997	78.25
603.206	88.25
603.415	80.25
603.623	85.25
603.832	84.25
604.041	88.25
604.249	82.25
604.458	89.25
604.666	75.25
604.875	92.25
605.084	91.25
605.292	69.25
605.501	90.25
605.709	84.25
605.918	76.25
606.126	84.25
606.334	67.25
606.543	80.25
606.751	85.25
606.96	75.25
607.168	62.25
607.376	83.25
607.585	82.25
607.793	93.25
608.001	89.25
608.21	81.25
608.418	94.25
608.626	100.25
608.834	81.25
609.043	85.25
609.251	84.25
609.459	85.25
609.667	80.25
609.875	76.25
610.083	69.25
610.291	78.25
610.499	93.25
610.707	100.25
610.916	91.25
611.124	81.25
611.332	81.25
611.54	69.25
611.748	82.25
611.955	78.25
612.163	73.25
612.371	115.25
612.579	91.25
612.787	80.25
612.995	95.25
613.203	97.25
613.411	97.25
613.618	93.25
613.826	87.25
614.034	85.25
614.242	67.25
614.449	85.25
614.657	89.25
614.865	92.25
615.072	93.25
615.28	74.25
615.488	98.25
615.695	90.25
615.903	100.25
616.111	100.25
616.318	114.25
616.526	91.25
616.733	97.25
616.941	84.25
617.148	91.25
617.356	93.25
617.563	90.25
617.771	85.25
617.978	87.25
618.185	101.25
618.393	95.25
618.6	87.25
618.807	82.25
619.015	94.25
619.222	84.25
619.429	88.25
619.637	96.25
619.844	88.25
620.051	79.25
620.258	82.25
620.466	89.25
620.673	85.25
620.88	87.25
621.087	91.25
621.294	76.25
621.501	84.25
621.708	79.25
621.915	92.25
622.122	77.25
622.329	97.25
622.536	84.25
622.743	87.25
622.95	90.25
623.157	83.25
623.364	83.25
623.571	96.25
623.778	95.25
623.985	68.25
624.192	68.25
624.399	95.25
624.606	94.25
624.812	77.25
625.019	81.25
625.226	82.25
625.433	83.25
625.639	93.25
625.846	74.25
626.053	105.25
626.259	68.25
626.466	82.25
626.673	83.25
626.879	89.25
627.086	88.25
627.293	84.25
627.499	86.25
627.706	84.25
627.912	81.25
628.119	83.25
628.325	84.25
628.532	85.25
628.738	89.25
628.945	85.25
629.151	88.25
629.357	83.25
629.564	86.25
629.77	89.25
629.976	89.25
630.183	81.25
630.389	93.25
630.595	86.25
630.802	81.25
631.008	77.25
631.214	76.25
631.42	85.25
631.627	76.25
631.833	101.25
632.039	99.25
632.245	78.25
632.451	71.25
632.657	85.25
632.863	76.25
633.069	83.25
633.275	84.25
633.481	87.25
633.688	88.25
633.893	91.25
634.099	98.25
634.305	77.25
634.511	79.25
634.717	76.25
634.923	80.25
635.129	83.25
635.335	89.25
635.541	69.25
635.747	80.25
635.952	79.25
636.158	85.25
636.364	70.25
636.57	66.25
636.775	87.25
636.981	84.25
637.187	84.25
637.392	92.25
637.598	96.25
637.804	77.25
638.009	84.25
638.215	92.25
638.421	87.25
638.626	77.25
638.832	98.25
639.037	88.25
639.243	79.25
639.448	77.25
639.654	79.25
639.859	91.25
640.065	82.25
640.27	77.25
640.475	86.25
640.681	75.25
640.886	89.25
641.091	82.25
641.297	97.25
641.502	67.25
641.707	75.25
641.913	86.25
642.118	74.25
642.323	80.25
642.528	84.25
642.733	81.25
642.939	90.25
643.144	100.25
643.349	84.25
643.554	92.25
643.759	84.25
643.964	80.25
644.169	86.25
644.374	86.25
644.579	82.25
644.784	76.25
644.989	82.25
645.194	68.25
645.399	78.25
645.604	77.25
645.809	93.25
646.014	94.25
646.219	68.25
646.423	70.25
646.628	82.25
646.833	81.25
647.038	95.25
647.243	82.25
647.447	87.25
647.652	83.25
647.857	92.25
648.062	91.25
648.266	96.25
648.471	88.25
648.676	115.25
648.88	85.25
649.085	103.25
649.289	85.25
649.494	89.25
649.698	135.25
649.903	103.25
650.107	91.25
650.312	97.25
650.516	84.25
650.721	88.25
650.925	85.25
651.13	87.25
651.334	74.25
651.539	83.25
651.743	76.25
651.947	80.25
652.152	79.25
652.356	84.25
652.56	75.25
652.764	76.25
652.969	78.25
653.173	81.25
653.377	88.25
653.581	83.25
653.785	88.25
653.99	83.25
654.194	78.25
654.398	81.25
654.602	78.25
654.806	100.25
655.01	99.25
655.214	85.25
655.418	85.25
655.622	91.25
655.826	91.25
656.03	78.25
656.234	78.25
656.438	82.25
656.642	93.25
656.846	89.25
657.049	84.25
657.253	92.25
657.457	81.25
657.661	72.25
657.865	89.25
658.068	74.25
658.272	67.25
658.476	85.25
658.68	77.25
658.883	71.25
659.087	85.25
659.291	76.25
659.494	88.25
659.698	81.25
659.901	86.25
660.105	93.25
660.309	77.25
660.512	82.25
660.716	74.25
660.919	81.25
661.123	84.25
661.326	82.25
661.53	92.25
661.733	77.25
661.936	82.25
662.14	78.25
662.343	82.25
662.546	80.25
662.75	78.25
662.953	82.25
663.156	77.25
663.36	86.25
663.563	82.25
663.766	84.25
663.969	64.25
664.173	84.25
664.376	68.25
664.579	67.25
664.782	94.25
664.985	78.25
665.188	68.25
665.391	93.25
665.594	75.25
665.797	73.25
666	73.25
666.203	82.25
666.406	79.25
666.609	89.25
666.812	92.25
667.015	83.25
667.218	81.25
667.421	85.25
667.624	70.25
667.827	73.25
668.03	77.25
668.232	80.25
668.435	62.25
668.638	76.25
668.841	74.25
669.043	70.25
669.246	79.25
669.449	68.25
669.651	74.25
669.854	88.25
670.057	84.25
670.259	70.25
670.462	75.25
670.665	73.25
670.867	79.25
671.07	74.25
671.272	82.25
671.475	78.25
671.677	92.25
671.88	85.25
672.082	92.25
672.284	87.25
672.487	84.25
672.689	69.25
672.892	84.25
