Data from Uncirc_1991_H10_HRD10591_00004.txt Node
Date: Wed Jan 03 11:50:39 EST 2024
User: Yrep
Spectrometer: HR+D1059
Trigger mode: 1
Integration Time (sec): 1.000000E-1
Scans to average: 1
Electric dark correction enabled: true
Nonlinearity correction enabled: false
Boxcar width: 0
XAxis mode: Wavelengths
Number of Pixels in Spectrum: 2048
>>>>>Begin Spectral Data<<<<<
223.165	-23.56
223.4	-23.56
223.635	-23.56
223.869	-16.56
224.104	-30.56
224.338	-10.56
224.573	-12.56
224.808	-11.56
225.042	-5.56
225.277	4.44
225.511	-6.56
225.746	3.44
225.98	8.44
226.215	11.44
226.449	23.44
226.683	16.44
226.918	21.44
227.152	28.44
227.387	42.44
227.621	35.44
227.856	47.44
228.09	43.44
228.324	44.44
228.559	70.44
228.793	44.44
229.027	49.44
229.262	76.44
229.496	77.44
229.73	81.44
229.964	89.44
230.199	80.44
230.433	65.44
230.667	87.44
230.901	102.44
231.136	82.44
231.37	76.44
231.604	84.44
231.838	78.44
232.072	76.44
232.306	89.44
232.541	71.44
232.775	86.44
233.009	85.44
233.243	91.44
233.477	77.44
233.711	93.44
233.945	96.44
234.179	77.44
234.413	82.44
234.647	75.44
234.881	76.44
235.115	76.44
235.349	80.44
235.583	63.44
235.817	89.44
236.051	91.44
236.285	74.44
236.519	81.44
236.753	83.44
236.987	86.44
237.221	79.44
237.455	74.44
237.689	72.44
237.922	81.44
238.156	79.44
238.39	79.44
238.624	96.44
238.858	67.44
239.091	70.44
239.325	80.44
239.559	82.44
239.793	79.44
240.027	84.44
240.26	81.44
240.494	71.44
240.728	83.44
240.961	72.44
241.195	68.44
241.429	87.44
241.662	77.44
241.896	82.44
242.13	83.44
242.363	73.44
242.597	70.44
242.83	81.44
243.064	65.44
243.298	83.44
243.531	77.44
243.765	88.44
243.998	84.44
244.232	79.44
244.465	70.44
244.699	79.44
244.932	86.44
245.166	89.44
245.399	83.44
245.633	83.44
245.866	75.44
246.099	80.44
246.333	86.44
246.566	80.44
246.8	86.44
247.033	75.44
247.266	76.44
247.5	79.44
247.733	77.44
247.966	75.44
248.2	77.44
248.433	88.44
248.666	76.44
248.899	79.44
249.133	87.44
249.366	91.44
249.599	99.44
249.832	69.44
250.066	80.44
250.299	77.44
250.532	82.44
250.765	95.44
250.998	65.44
251.231	83.44
251.465	77.44
251.698	77.44
251.931	87.44
252.164	78.44
252.397	78.44
252.63	61.44
252.863	88.44
253.096	77.44
253.329	89.44
253.562	76.44
253.795	95.44
254.028	83.44
254.261	93.44
254.494	95.44
254.727	86.44
254.96	81.44
255.193	87.44
255.426	78.44
255.659	89.44
255.892	100.44
256.124	88.44
256.357	91.44
256.59	80.44
256.823	92.44
257.056	80.44
257.289	75.44
257.521	83.44
257.754	81.44
257.987	86.44
258.22	77.44
258.452	79.44
258.685	86.44
258.918	87.44
259.151	84.44
259.383	81.44
259.616	70.44
259.849	94.44
260.081	92.44
260.314	83.44
260.547	90.44
260.779	78.44
261.012	81.44
261.244	93.44
261.477	85.44
261.71	92.44
261.942	96.44
262.175	109.44
262.407	84.44
262.64	82.44
262.872	83.44
263.105	87.44
263.337	93.44
263.57	91.44
263.802	91.44
264.035	80.44
264.267	90.44
264.499	78.44
264.732	94.44
264.964	82.44
265.197	86.44
265.429	78.44
265.661	100.44
265.894	85.44
266.126	92.44
266.358	81.44
266.591	89.44
266.823	79.44
267.055	80.44
267.287	93.44
267.52	98.44
267.752	73.44
267.984	83.44
268.216	94.44
268.448	79.44
268.681	87.44
268.913	75.44
269.145	93.44
269.377	83.44
269.609	83.44
269.841	91.44
270.073	85.44
270.306	83.44
270.538	87.44
270.77	86.44
271.002	83.44
271.234	72.44
271.466	87.44
271.698	85.44
271.93	86.44
272.162	91.44
272.394	99.44
272.626	87.44
272.858	93.44
273.09	99.44
273.322	92.44
273.553	95.44
273.785	79.44
274.017	93.44
274.249	85.44
274.481	87.44
274.713	91.44
274.945	93.44
275.176	84.44
275.408	94.44
275.64	80.44
275.872	89.44
276.104	96.44
276.335	88.44
276.567	91.44
276.799	104.44
277.031	105.44
277.262	88.44
277.494	93.44
277.726	105.44
277.957	81.44
278.189	99.44
278.421	88.44
278.652	91.44
278.884	87.44
279.115	72.44
279.347	80.44
279.579	98.44
279.81	87.44
280.042	94.44
280.273	71.44
280.505	83.44
280.736	88.44
280.968	91.44
281.199	101.44
281.431	90.44
281.662	91.44
281.894	97.44
282.125	100.44
282.356	111.44
282.588	146.44
282.819	114.44
283.051	77.44
283.282	85.44
283.513	88.44
283.745	72.44
283.976	94.44
284.207	95.44
284.439	79.44
284.67	99.44
284.901	100.44
285.132	87.44
285.364	77.44
285.595	77.44
285.826	76.44
286.057	90.44
286.288	86.44
286.52	84.44
286.751	86.44
286.982	87.44
287.213	71.44
287.444	96.44
287.675	96.44
287.906	88.44
288.138	90.44
288.369	95.44
288.6	97.44
288.831	89.44
289.062	99.44
289.293	93.44
289.524	100.44
289.755	87.44
289.986	88.44
290.217	86.44
290.448	91.44
290.679	96.44
290.91	84.44
291.141	86.44
291.371	84.44
291.602	86.44
291.833	95.44
292.064	82.44
292.295	84.44
292.526	83.44
292.757	94.44
292.987	88.44
293.218	88.44
293.449	96.44
293.68	85.44
293.91	98.44
294.141	90.44
294.372	97.44
294.603	78.44
294.833	95.44
295.064	97.44
295.295	94.44
295.525	109.44
295.756	94.44
295.987	119.44
296.217	124.44
296.448	117.44
296.679	94.44
296.909	83.44
297.14	82.44
297.37	90.44
297.601	88.44
297.831	91.44
298.062	92.44
298.292	100.44
298.523	94.44
298.753	83.44
298.984	91.44
299.214	100.44
299.445	94.44
299.675	91.44
299.905	105.44
300.136	76.44
300.366	87.44
300.597	88.44
300.827	98.44
301.057	88.44
301.288	113.44
301.518	81.44
301.748	94.44
301.979	109.44
302.209	89.44
302.439	97.44
302.669	109.44
302.9	104.44
303.13	86.44
303.36	94.44
303.59	103.44
303.82	105.44
304.051	102.44
304.281	102.44
304.511	80.44
304.741	94.44
304.971	99.44
305.201	90.44
305.431	91.44
305.661	103.44
305.891	89.44
306.121	109.44
306.352	107.44
306.582	112.44
306.812	95.44
307.042	100.44
307.272	95.44
307.502	103.44
307.731	87.44
307.961	93.44
308.191	90.44
308.421	86.44
308.651	81.44
308.881	95.44
309.111	92.44
309.341	97.44
309.571	101.44
309.8	80.44
310.03	92.44
310.26	90.44
310.49	89.44
310.72	105.44
310.949	103.44
311.179	109.44
311.409	81.44
311.639	100.44
311.868	109.44
312.098	101.44
312.328	95.44
312.557	111.44
312.787	103.44
313.017	114.44
313.246	106.44
313.476	102.44
313.706	95.44
313.935	94.44
314.165	102.44
314.394	94.44
314.624	92.44
314.853	90.44
315.083	107.44
315.312	105.44
315.542	112.44
315.771	94.44
316.001	95.44
316.23	90.44
316.46	93.44
316.689	100.44
316.919	111.44
317.148	93.44
317.377	93.44
317.607	97.44
317.836	94.44
318.065	87.44
318.295	104.44
318.524	106.44
318.753	96.44
318.983	98.44
319.212	96.44
319.441	124.44
319.67	108.44
319.9	91.44
320.129	80.44
320.358	94.44
320.587	87.44
320.816	105.44
321.046	108.44
321.275	101.44
321.504	109.44
321.733	94.44
321.962	99.44
322.191	103.44
322.42	117.44
322.649	113.44
322.878	108.44
323.108	124.44
323.337	132.44
323.566	134.44
323.795	166.44
324.024	228.44
324.253	419.44
324.482	935.44
324.71	1981.44
324.939	2763.44
325.168	939.44
325.397	263.44
325.626	159.44
325.855	131.44
326.084	110.44
326.313	128.44
326.542	153.44
326.77	246.44
326.999	505.44
327.228	1069.44
327.457	2059.44
327.686	1659.44
327.914	432.44
328.143	205.44
328.372	144.44
328.6	128.44
328.829	122.44
329.058	123.44
329.287	111.44
329.515	98.44
329.744	102.44
329.972	90.44
330.201	94.44
330.43	114.44
330.658	133.44
330.887	131.44
331.115	141.44
331.344	108.44
331.572	113.44
331.801	132.44
332.03	118.44
332.258	98.44
332.486	99.44
332.715	100.44
332.943	105.44
333.172	98.44
333.4	102.44
333.629	95.44
333.857	116.44
334.085	104.44
334.314	105.44
334.542	91.44
334.771	94.44
334.999	103.44
335.227	108.44
335.455	71.44
335.684	88.44
335.912	99.44
336.14	95.44
336.369	105.44
336.597	97.44
336.825	90.44
337.053	94.44
337.281	84.44
337.51	93.44
337.738	77.44
337.966	89.44
338.194	106.44
338.422	87.44
338.65	93.44
338.878	92.44
339.106	100.44
339.334	84.44
339.562	72.44
339.79	102.44
340.018	97.44
340.246	99.44
340.474	85.44
340.702	106.44
340.93	91.44
341.158	85.44
341.386	97.44
341.614	93.44
341.842	99.44
342.07	109.44
342.298	102.44
342.526	96.44
342.754	88.44
342.981	78.44
343.209	99.44
343.437	100.44
343.665	75.44
343.893	83.44
344.12	92.44
344.348	86.44
344.576	102.44
344.804	99.44
345.031	111.44
345.259	116.44
345.487	89.44
345.714	85.44
345.942	100.44
346.17	105.44
346.397	104.44
346.625	101.44
346.853	91.44
347.08	99.44
347.308	100.44
347.535	100.44
347.763	101.44
347.99	99.44
348.218	105.44
348.445	116.44
348.673	100.44
348.9	94.44
349.128	95.44
349.355	104.44
349.583	81.44
349.81	88.44
350.037	109.44
350.265	100.44
350.492	92.44
350.72	79.44
350.947	106.44
351.174	111.44
351.402	104.44
351.629	105.44
351.856	98.44
352.083	103.44
352.311	111.44
352.538	117.44
352.765	107.44
352.992	106.44
353.22	103.44
353.447	95.44
353.674	104.44
353.901	99.44
354.128	94.44
354.355	108.44
354.583	109.44
354.81	108.44
355.037	99.44
355.264	89.44
355.491	96.44
355.718	104.44
355.945	94.44
356.172	99.44
356.399	94.44
356.626	100.44
356.853	89.44
357.08	109.44
357.307	98.44
357.534	95.44
357.761	81.44
357.988	100.44
358.215	96.44
358.441	84.44
358.668	88.44
358.895	78.44
359.122	92.44
359.349	84.44
359.576	95.44
359.802	101.44
360.029	119.44
360.256	113.44
360.483	115.44
360.709	102.44
360.936	77.44
361.163	93.44
361.39	82.44
361.616	90.44
361.843	96.44
362.07	89.44
362.296	97.44
362.523	67.44
362.749	77.44
362.976	86.44
363.203	91.44
363.429	98.44
363.656	90.44
363.882	84.44
364.109	85.44
364.335	89.44
364.562	97.44
364.788	92.44
365.015	95.44
365.241	109.44
365.468	106.44
365.694	110.44
365.92	95.44
366.147	101.44
366.373	96.44
366.599	111.44
366.826	94.44
367.052	103.44
367.278	93.44
367.505	89.44
367.731	92.44
367.957	96.44
368.184	84.44
368.41	84.44
368.636	96.44
368.862	126.44
369.089	97.44
369.315	88.44
369.541	77.44
369.767	96.44
369.993	86.44
370.219	95.44
370.445	82.44
370.672	95.44
370.898	97.44
371.124	98.44
371.35	73.44
371.576	81.44
371.802	80.44
372.028	89.44
372.254	97.44
372.48	88.44
372.706	80.44
372.932	104.44
373.158	81.44
373.384	77.44
373.61	97.44
373.835	85.44
374.061	87.44
374.287	89.44
374.513	96.44
374.739	95.44
374.965	99.44
375.191	79.44
375.416	91.44
375.642	101.44
375.868	99.44
376.094	89.44
376.319	100.44
376.545	99.44
376.771	87.44
376.997	88.44
377.222	76.44
377.448	94.44
377.674	97.44
377.899	96.44
378.125	89.44
378.35	78.44
378.576	85.44
378.802	95.44
379.027	84.44
379.253	91.44
379.478	83.44
379.704	86.44
379.929	93.44
380.155	95.44
380.38	101.44
380.606	99.44
380.831	100.44
381.057	97.44
381.282	100.44
381.507	93.44
381.733	98.44
381.958	91.44
382.184	85.44
382.409	92.44
382.634	108.44
382.86	99.44
383.085	97.44
383.31	99.44
383.535	98.44
383.761	97.44
383.986	93.44
384.211	104.44
384.436	98.44
384.662	92.44
384.887	97.44
385.112	85.44
385.337	98.44
385.562	96.44
385.787	107.44
386.013	102.44
386.238	116.44
386.463	112.44
386.688	96.44
386.913	105.44
387.138	104.44
387.363	95.44
387.588	103.44
387.813	98.44
388.038	97.44
388.263	109.44
388.488	109.44
388.713	95.44
388.938	95.44
389.163	111.44
389.387	96.44
389.612	96.44
389.837	104.44
390.062	91.44
390.287	102.44
390.512	102.44
390.736	100.44
390.961	106.44
391.186	93.44
391.411	93.44
391.636	93.44
391.86	95.44
392.085	95.44
392.31	88.44
392.534	94.44
392.759	92.44
392.984	107.44
393.208	87.44
393.433	102.44
393.658	98.44
393.882	93.44
394.107	81.44
394.331	101.44
394.556	84.44
394.78	90.44
395.005	97.44
395.229	97.44
395.454	80.44
395.678	93.44
395.903	85.44
396.127	84.44
396.352	93.44
396.576	91.44
396.801	97.44
397.025	89.44
397.249	89.44
397.474	95.44
397.698	96.44
397.922	91.44
398.147	102.44
398.371	92.44
398.595	84.44
398.82	83.44
399.044	71.44
399.268	83.44
399.492	91.44
399.717	91.44
399.941	96.44
400.165	93.44
400.389	86.44
400.613	89.44
400.837	93.44
401.062	101.44
401.286	97.44
401.51	92.44
401.734	76.44
401.958	98.44
402.182	121.44
402.406	155.44
402.63	113.44
402.854	95.44
403.078	88.44
403.302	80.44
403.526	98.44
403.75	91.44
403.974	81.44
404.198	88.44
404.422	86.44
404.645	89.44
404.869	110.44
405.093	99.44
405.317	99.44
405.541	94.44
405.765	109.44
405.988	123.44
406.212	166.44
406.436	230.44
406.66	140.44
406.883	102.44
407.107	94.44
407.331	97.44
407.555	112.44
407.778	100.44
408.002	109.44
408.226	96.44
408.449	94.44
408.673	88.44
408.896	87.44
409.12	114.44
409.344	96.44
409.567	105.44
409.791	92.44
410.014	91.44
410.238	83.44
410.461	97.44
410.685	89.44
410.908	96.44
411.132	122.44
411.355	117.44
411.578	103.44
411.802	87.44
412.025	97.44
412.249	85.44
412.472	84.44
412.695	102.44
412.919	90.44
413.142	96.44
413.365	83.44
413.589	85.44
413.812	88.44
414.035	91.44
414.258	91.44
414.482	96.44
414.705	97.44
414.928	72.44
415.151	85.44
415.374	97.44
415.597	95.44
415.821	98.44
416.044	89.44
416.267	97.44
416.49	83.44
416.713	90.44
416.936	90.44
417.159	81.44
417.382	90.44
417.605	77.44
417.828	82.44
418.051	94.44
418.274	80.44
418.497	92.44
418.72	88.44
418.943	81.44
419.166	92.44
419.389	95.44
419.611	91.44
419.834	113.44
420.057	93.44
420.28	89.44
420.503	78.44
420.726	81.44
420.948	83.44
421.171	93.44
421.394	108.44
421.617	95.44
421.839	94.44
422.062	99.44
422.285	103.44
422.507	110.44
422.73	119.44
422.953	105.44
423.175	96.44
423.398	95.44
423.621	91.44
423.843	85.44
424.066	90.44
424.288	84.44
424.511	86.44
424.733	102.44
424.956	114.44
425.178	105.44
425.401	127.44
425.623	121.44
425.846	97.44
426.068	89.44
426.291	95.44
426.513	92.44
426.735	100.44
426.958	98.44
427.18	114.44
427.402	157.44
427.625	187.44
427.847	115.44
428.069	94.44
428.292	102.44
428.514	83.44
428.736	91.44
428.958	101.44
429.181	84.44
429.403	97.44
429.625	83.44
429.847	89.44
430.069	108.44
430.292	95.44
430.514	81.44
430.736	104.44
430.958	97.44
431.18	100.44
431.402	111.44
431.624	82.44
431.846	89.44
432.068	90.44
432.29	84.44
432.512	79.44
432.734	92.44
432.956	91.44
433.178	105.44
433.4	105.44
433.622	93.44
433.844	92.44
434.066	97.44
434.287	83.44
434.509	88.44
434.731	87.44
434.953	85.44
435.175	99.44
435.397	81.44
435.618	100.44
435.84	110.44
436.062	142.44
436.284	123.44
436.505	106.44
436.727	87.44
436.949	88.44
437.17	96.44
437.392	79.44
437.614	101.44
437.835	101.44
438.057	128.44
438.278	122.44
438.5	100.44
438.721	137.44
438.943	129.44
439.165	97.44
439.386	88.44
439.608	96.44
439.829	118.44
440.05	125.44
440.272	173.44
440.493	108.44
440.715	102.44
440.936	91.44
441.158	91.44
441.379	99.44
441.6	98.44
441.822	85.44
442.043	91.44
442.264	95.44
442.486	102.44
442.707	91.44
442.928	104.44
443.149	145.44
443.371	144.44
443.592	114.44
443.813	122.44
444.034	123.44
444.255	110.44
444.476	71.44
444.698	91.44
444.919	107.44
445.14	136.44
445.361	146.44
445.582	123.44
445.803	138.44
446.024	158.44
446.245	164.44
446.466	113.44
446.687	90.44
446.908	89.44
447.129	94.44
447.35	107.44
447.571	91.44
447.792	83.44
448.013	102.44
448.234	112.44
448.455	97.44
448.675	118.44
448.896	141.44
449.117	104.44
449.338	113.44
449.559	155.44
449.779	153.44
450	100.44
450.221	98.44
450.442	94.44
450.662	96.44
450.883	103.44
451.104	108.44
451.324	97.44
451.545	89.44
451.766	90.44
451.986	88.44
452.207	94.44
452.428	91.44
452.648	94.44
452.869	112.44
453.089	117.44
453.31	113.44
453.53	96.44
453.751	95.44
453.971	110.44
454.192	118.44
454.412	100.44
454.633	77.44
454.853	97.44
455.073	85.44
455.294	92.44
455.514	110.44
455.734	82.44
455.955	82.44
456.175	81.44
456.395	95.44
456.616	93.44
456.836	81.44
457.056	91.44
457.276	94.44
457.497	83.44
457.717	97.44
457.937	84.44
458.157	94.44
458.377	85.44
458.598	106.44
458.818	161.44
459.038	180.44
459.258	120.44
459.478	99.44
459.698	93.44
459.918	96.44
460.138	79.44
460.358	99.44
460.578	98.44
460.798	91.44
461.018	89.44
461.238	91.44
461.458	83.44
461.678	92.44
461.898	83.44
462.118	91.44
462.338	95.44
462.558	95.44
462.777	90.44
462.997	92.44
463.217	85.44
463.437	88.44
463.657	106.44
463.876	86.44
464.096	98.44
464.316	103.44
464.536	103.44
464.755	96.44
464.975	106.44
465.195	162.44
465.414	159.44
465.634	92.44
465.854	103.44
466.073	86.44
466.293	85.44
466.512	89.44
466.732	91.44
466.951	87.44
467.171	97.44
467.391	91.44
467.61	105.44
467.829	100.44
468.049	102.44
468.268	79.44
468.488	92.44
468.707	104.44
468.927	91.44
469.146	97.44
469.365	80.44
469.585	92.44
469.804	97.44
470.023	98.44
470.243	99.44
470.462	105.44
470.681	105.44
470.901	75.44
471.12	80.44
471.339	83.44
471.558	88.44
471.777	86.44
471.997	98.44
472.216	85.44
472.435	105.44
472.654	88.44
472.873	93.44
473.092	88.44
473.311	85.44
473.53	84.44
473.749	94.44
473.968	96.44
474.187	108.44
474.406	97.44
474.625	86.44
474.844	86.44
475.063	91.44
475.282	89.44
475.501	92.44
475.72	101.44
475.939	93.44
476.158	89.44
476.377	91.44
476.596	99.44
476.814	92.44
477.033	94.44
477.252	85.44
477.471	98.44
477.69	95.44
477.908	87.44
478.127	98.44
478.346	80.44
478.564	103.44
478.783	95.44
479.002	87.44
479.22	90.44
479.439	100.44
479.658	117.44
479.876	96.44
480.095	93.44
480.313	100.44
480.532	89.44
480.751	81.44
480.969	107.44
481.188	102.44
481.406	106.44
481.624	85.44
481.843	88.44
482.061	94.44
482.28	75.44
482.498	105.44
482.717	82.44
482.935	92.44
483.153	94.44
483.372	92.44
483.59	102.44
483.808	90.44
484.027	93.44
484.245	79.44
484.463	94.44
484.681	82.44
484.9	93.44
485.118	97.44
485.336	107.44
485.554	104.44
485.772	93.44
485.99	112.44
486.209	114.44
486.427	99.44
486.645	107.44
486.863	107.44
487.081	105.44
487.299	110.44
487.517	103.44
487.735	95.44
487.953	103.44
488.171	86.44
488.389	84.44
488.607	88.44
488.825	96.44
489.043	85.44
489.261	78.44
489.479	92.44
489.696	93.44
489.914	85.44
490.132	78.44
490.35	95.44
490.568	79.44
490.786	102.44
491.003	105.44
491.221	95.44
491.439	88.44
491.657	110.44
491.874	105.44
492.092	86.44
492.31	103.44
492.527	87.44
492.745	95.44
492.963	96.44
493.18	88.44
493.398	90.44
493.615	97.44
493.833	84.44
494.05	85.44
494.268	109.44
494.485	96.44
494.703	105.44
494.92	99.44
495.138	84.44
495.355	84.44
495.573	78.44
495.79	96.44
496.008	92.44
496.225	98.44
496.442	99.44
496.66	86.44
496.877	93.44
497.094	90.44
497.312	99.44
497.529	100.44
497.746	95.44
497.963	90.44
498.181	75.44
498.398	93.44
498.615	113.44
498.832	106.44
499.049	97.44
499.267	101.44
499.484	83.44
499.701	78.44
499.918	116.44
500.135	90.44
500.352	89.44
500.569	95.44
500.786	99.44
501.003	97.44
501.22	97.44
501.437	89.44
501.654	79.44
501.871	98.44
502.088	85.44
502.305	95.44
502.522	97.44
502.739	87.44
502.956	98.44
503.172	92.44
503.389	94.44
503.606	103.44
503.823	105.44
504.04	97.44
504.256	101.44
504.473	86.44
504.69	93.44
504.907	86.44
505.123	98.44
505.34	96.44
505.557	104.44
505.773	100.44
505.99	105.44
506.207	94.44
506.423	106.44
506.64	96.44
506.856	98.44
507.073	80.44
507.289	89.44
507.506	89.44
507.722	118.44
507.939	116.44
508.155	103.44
508.372	101.44
508.588	99.44
508.805	93.44
509.021	90.44
509.238	101.44
509.454	101.44
509.67	115.44
509.887	96.44
510.103	125.44
510.319	212.44
510.536	701.44
510.752	2184.44
510.968	618.44
511.184	157.44
511.401	113.44
511.617	93.44
511.833	96.44
512.049	87.44
512.265	95.44
512.481	99.44
512.698	99.44
512.914	98.44
513.13	94.44
513.346	98.44
513.562	79.44
513.778	92.44
513.994	116.44
514.21	108.44
514.426	119.44
514.642	138.44
514.858	122.44
515.074	158.44
515.29	451.44
515.506	1510.44
515.721	546.44
515.937	147.44
516.153	117.44
516.369	93.44
516.585	100.44
516.801	97.44
517.016	99.44
517.232	101.44
517.448	87.44
517.664	97.44
517.879	97.44
518.095	90.44
518.311	106.44
518.527	95.44
518.742	95.44
518.958	99.44
519.173	88.44
519.389	100.44
519.605	96.44
519.82	99.44
520.036	118.44
520.251	118.44
520.467	115.44
520.682	113.44
520.898	92.44
521.113	127.44
521.329	155.44
521.544	215.44
521.76	577.44
521.975	2465.44
522.19	1474.44
522.406	303.44
522.621	132.44
522.836	104.44
523.052	94.44
523.267	86.44
523.482	121.44
523.698	103.44
523.913	114.44
524.128	101.44
524.343	89.44
524.559	99.44
524.774	85.44
524.989	96.44
525.204	107.44
525.419	105.44
525.634	95.44
525.849	93.44
526.064	92.44
526.28	88.44
526.495	96.44
526.71	106.44
526.925	87.44
527.14	89.44
527.355	96.44
527.57	94.44
527.785	93.44
527.999	83.44
528.214	96.44
528.429	116.44
528.644	95.44
528.859	87.44
529.074	100.44
529.289	119.44
529.503	183.44
529.718	113.44
529.933	107.44
530.148	83.44
530.363	82.44
530.577	94.44
530.792	91.44
531.007	95.44
531.221	100.44
531.436	81.44
531.651	87.44
531.865	94.44
532.08	102.44
532.295	97.44
532.509	86.44
532.724	76.44
532.938	89.44
533.153	107.44
533.367	91.44
533.582	97.44
533.796	90.44
534.011	91.44
534.225	95.44
534.44	104.44
534.654	88.44
534.868	100.44
535.083	104.44
535.297	103.44
535.511	107.44
535.726	110.44
535.94	113.44
536.154	81.44
536.369	105.44
536.583	88.44
536.797	80.44
537.011	89.44
537.225	97.44
537.44	97.44
537.654	100.44
537.868	97.44
538.082	103.44
538.296	91.44
538.51	88.44
538.724	85.44
538.938	102.44
539.153	107.44
539.367	106.44
539.581	105.44
539.795	81.44
540.009	91.44
540.222	86.44
540.436	94.44
540.65	102.44
540.864	103.44
541.078	96.44
541.292	86.44
541.506	88.44
541.72	76.44
541.934	76.44
542.147	96.44
542.361	87.44
542.575	93.44
542.789	94.44
543.002	87.44
543.216	103.44
543.43	103.44
543.644	82.44
543.857	83.44
544.071	105.44
544.285	105.44
544.498	96.44
544.712	92.44
544.925	104.44
545.139	87.44
545.352	89.44
545.566	100.44
545.779	87.44
545.993	81.44
546.206	84.44
546.42	86.44
546.633	92.44
546.847	108.44
547.06	91.44
547.274	88.44
547.487	76.44
547.7	87.44
547.914	97.44
548.127	88.44
548.34	88.44
548.554	98.44
548.767	83.44
548.98	89.44
549.193	89.44
549.407	99.44
549.62	91.44
549.833	79.44
550.046	93.44
550.259	94.44
550.473	99.44
550.686	70.44
550.899	93.44
551.112	95.44
551.325	104.44
551.538	80.44
551.751	94.44
551.964	86.44
552.177	97.44
552.39	88.44
552.603	95.44
552.816	80.44
553.029	97.44
553.242	109.44
553.455	95.44
553.667	99.44
553.88	123.44
554.093	92.44
554.306	101.44
554.519	86.44
554.732	93.44
554.944	93.44
555.157	98.44
555.37	84.44
555.583	97.44
555.795	103.44
556.008	99.44
556.221	96.44
556.433	107.44
556.646	107.44
556.859	86.44
557.071	88.44
557.284	77.44
557.496	93.44
557.709	82.44
557.921	85.44
558.134	99.44
558.346	85.44
558.559	100.44
558.771	96.44
558.984	105.44
559.196	90.44
559.409	86.44
559.621	98.44
559.833	95.44
560.046	92.44
560.258	104.44
560.47	85.44
560.683	76.44
560.895	88.44
561.107	91.44
561.32	79.44
561.532	95.44
561.744	93.44
561.956	94.44
562.168	96.44
562.381	81.44
562.593	100.44
562.805	97.44
563.017	96.44
563.229	102.44
563.441	92.44
563.653	95.44
563.865	79.44
564.077	85.44
564.289	95.44
564.501	95.44
564.713	108.44
564.925	97.44
565.137	105.44
565.349	100.44
565.561	101.44
565.773	95.44
565.985	85.44
566.197	88.44
566.408	78.44
566.62	93.44
566.832	83.44
567.044	86.44
567.255	98.44
567.467	92.44
567.679	84.44
567.891	85.44
568.102	96.44
568.314	94.44
568.526	95.44
568.737	90.44
568.949	108.44
569.161	84.44
569.372	96.44
569.584	91.44
569.795	85.44
570.007	108.44
570.218	224.44
570.43	124.44
570.641	89.44
570.853	95.44
571.064	78.44
571.276	87.44
571.487	94.44
571.698	87.44
571.91	92.44
572.121	104.44
572.333	78.44
572.544	76.44
572.755	88.44
572.966	81.44
573.178	90.44
573.389	104.44
573.6	84.44
573.811	86.44
574.023	95.44
574.234	91.44
574.445	93.44
574.656	84.44
574.867	90.44
575.078	80.44
575.289	84.44
575.501	98.44
575.712	90.44
575.923	93.44
576.134	99.44
576.345	87.44
576.556	85.44
576.767	86.44
576.978	93.44
577.188	92.44
577.399	96.44
577.61	94.44
577.821	104.44
578.032	126.44
578.243	275.44
578.454	737.44
578.665	215.44
578.875	119.44
579.086	97.44
579.297	103.44
579.508	99.44
579.718	98.44
579.929	87.44
580.14	96.44
580.35	95.44
580.561	89.44
580.772	92.44
580.982	97.44
581.193	89.44
581.403	94.44
581.614	85.44
581.825	88.44
582.035	87.44
582.246	86.44
582.456	76.44
582.667	69.44
582.877	75.44
583.087	98.44
583.298	98.44
583.508	93.44
583.719	100.44
583.929	94.44
584.139	78.44
584.35	92.44
584.56	88.44
584.77	109.44
584.981	89.44
585.191	93.44
585.401	84.44
585.611	93.44
585.821	92.44
586.032	92.44
586.242	95.44
586.452	91.44
586.662	81.44
586.872	89.44
587.082	94.44
587.292	84.44
587.502	88.44
587.713	89.44
587.923	95.44
588.133	78.44
588.343	100.44
588.553	83.44
588.762	91.44
588.972	80.44
589.182	105.44
589.392	85.44
589.602	96.44
589.812	88.44
590.022	104.44
590.232	80.44
590.441	92.44
590.651	79.44
590.861	85.44
591.071	94.44
591.281	87.44
591.49	77.44
591.7	84.44
591.91	91.44
592.119	96.44
592.329	93.44
592.539	105.44
592.748	85.44
592.958	87.44
593.167	86.44
593.377	100.44
593.587	99.44
593.796	86.44
594.006	78.44
594.215	92.44
594.424	87.44
594.634	82.44
594.843	96.44
595.053	79.44
595.262	105.44
595.472	89.44
595.681	89.44
595.89	93.44
596.1	88.44
596.309	95.44
596.518	82.44
596.727	79.44
596.937	91.44
597.146	93.44
597.355	87.44
597.564	84.44
597.774	78.44
597.983	94.44
598.192	92.44
598.401	91.44
598.61	93.44
598.819	86.44
599.028	97.44
599.237	100.44
599.446	86.44
599.655	93.44
599.864	86.44
600.073	83.44
600.282	86.44
600.491	85.44
600.7	82.44
600.909	96.44
601.118	96.44
601.327	83.44
601.536	84.44
601.745	99.44
601.953	102.44
602.162	96.44
602.371	105.44
602.58	91.44
602.789	97.44
602.997	82.44
603.206	79.44
603.415	95.44
603.623	95.44
603.832	101.44
604.041	79.44
604.249	81.44
604.458	87.44
604.666	85.44
604.875	104.44
605.084	68.44
605.292	91.44
605.501	102.44
605.709	86.44
605.918	103.44
606.126	82.44
606.334	85.44
606.543	95.44
606.751	75.44
606.96	89.44
607.168	84.44
607.376	81.44
607.585	83.44
607.793	94.44
608.001	94.44
608.21	95.44
608.418	75.44
608.626	103.44
608.834	102.44
609.043	78.44
609.251	92.44
609.459	95.44
609.667	83.44
609.875	85.44
610.083	86.44
610.291	81.44
610.499	89.44
610.707	112.44
610.916	96.44
611.124	90.44
611.332	88.44
611.54	89.44
611.748	86.44
611.955	80.44
612.163	86.44
612.371	90.44
612.579	83.44
612.787	98.44
612.995	86.44
613.203	91.44
613.411	84.44
613.618	95.44
613.826	88.44
614.034	99.44
614.242	95.44
614.449	87.44
614.657	87.44
614.865	89.44
615.072	90.44
615.28	85.44
615.488	76.44
615.695	92.44
615.903	111.44
616.111	107.44
616.318	110.44
616.526	90.44
616.733	96.44
616.941	86.44
617.148	99.44
617.356	96.44
617.563	85.44
617.771	78.44
617.978	94.44
618.185	90.44
618.393	96.44
618.6	86.44
618.807	77.44
619.015	99.44
619.222	96.44
619.429	84.44
619.637	82.44
619.844	83.44
620.051	83.44
620.258	79.44
620.466	81.44
620.673	94.44
620.88	76.44
621.087	89.44
621.294	80.44
621.501	80.44
621.708	94.44
621.915	85.44
622.122	94.44
622.329	83.44
622.536	88.44
622.743	92.44
622.95	96.44
623.157	84.44
623.364	86.44
623.571	85.44
623.778	85.44
623.985	94.44
624.192	85.44
624.399	78.44
624.606	109.44
624.812	81.44
625.019	81.44
625.226	88.44
625.433	82.44
625.639	76.44
625.846	99.44
626.053	94.44
626.259	87.44
626.466	95.44
626.673	86.44
626.879	75.44
627.086	81.44
627.293	60.44
627.499	98.44
627.706	98.44
627.912	91.44
628.119	60.44
628.325	93.44
628.532	95.44
628.738	95.44
628.945	79.44
629.151	79.44
629.357	82.44
629.564	75.44
629.77	88.44
629.976	85.44
630.183	80.44
630.389	82.44
630.595	89.44
630.802	64.44
631.008	82.44
631.214	79.44
631.42	88.44
631.627	87.44
631.833	75.44
632.039	77.44
632.245	86.44
632.451	88.44
632.657	86.44
632.863	94.44
633.069	92.44
633.275	99.44
633.481	84.44
633.688	81.44
633.893	82.44
634.099	85.44
634.305	90.44
634.511	93.44
634.717	92.44
634.923	77.44
635.129	83.44
635.335	96.44
635.541	89.44
635.747	86.44
635.952	81.44
636.158	89.44
636.364	88.44
636.57	85.44
636.775	68.44
636.981	77.44
637.187	106.44
637.392	90.44
637.598	88.44
637.804	92.44
638.009	71.44
638.215	94.44
638.421	85.44
638.626	79.44
638.832	88.44
639.037	107.44
639.243	96.44
639.448	80.44
639.654	84.44
639.859	88.44
640.065	79.44
640.27	88.44
640.475	93.44
640.681	88.44
640.886	84.44
641.091	72.44
641.297	87.44
641.502	84.44
641.707	87.44
641.913	80.44
642.118	91.44
642.323	96.44
642.528	85.44
642.733	86.44
642.939	78.44
643.144	81.44
643.349	92.44
643.554	79.44
643.759	84.44
643.964	82.44
644.169	93.44
644.374	87.44
644.579	100.44
644.784	94.44
644.989	88.44
645.194	80.44
645.399	91.44
645.604	87.44
645.809	91.44
646.014	79.44
646.219	88.44
646.423	71.44
646.628	92.44
646.833	64.44
647.038	83.44
647.243	81.44
647.447	82.44
647.652	86.44
647.857	93.44
648.062	98.44
648.266	94.44
648.471	89.44
648.676	96.44
648.88	91.44
649.085	89.44
649.289	84.44
649.494	103.44
649.698	136.44
649.903	112.44
650.107	74.44
650.312	77.44
650.516	93.44
650.721	76.44
650.925	83.44
651.13	95.44
651.334	86.44
651.539	83.44
651.743	85.44
651.947	87.44
652.152	92.44
652.356	89.44
652.56	85.44
652.764	77.44
652.969	96.44
653.173	78.44
653.377	72.44
653.581	77.44
653.785	88.44
653.99	93.44
654.194	87.44
654.398	70.44
654.602	91.44
654.806	78.44
655.01	110.44
655.214	91.44
655.418	79.44
655.622	81.44
655.826	83.44
656.03	102.44
656.234	105.44
656.438	93.44
656.642	92.44
656.846	78.44
657.049	90.44
657.253	92.44
657.457	82.44
657.661	87.44
657.865	79.44
658.068	72.44
658.272	92.44
658.476	84.44
658.68	81.44
658.883	79.44
659.087	84.44
659.291	81.44
659.494	82.44
659.698	84.44
659.901	89.44
660.105	93.44
660.309	74.44
660.512	78.44
660.716	102.44
660.919	81.44
661.123	94.44
661.326	83.44
661.53	79.44
661.733	87.44
661.936	80.44
662.14	70.44
662.343	83.44
662.546	75.44
662.75	74.44
662.953	72.44
663.156	77.44
663.36	73.44
663.563	71.44
663.766	69.44
663.969	73.44
664.173	76.44
664.376	88.44
664.579	77.44
664.782	90.44
664.985	81.44
665.188	87.44
665.391	78.44
665.594	88.44
665.797	72.44
666	76.44
666.203	83.44
666.406	77.44
666.609	91.44
666.812	85.44
667.015	94.44
667.218	73.44
667.421	85.44
667.624	81.44
667.827	89.44
668.03	87.44
668.232	93.44
668.435	91.44
668.638	89.44
668.841	92.44
669.043	89.44
669.246	80.44
669.449	81.44
669.651	83.44
669.854	77.44
670.057	83.44
670.259	83.44
670.462	85.44
670.665	85.44
670.867	73.44
671.07	86.44
671.272	75.44
671.475	91.44
671.677	94.44
671.88	87.44
672.082	91.44
672.284	84.44
672.487	79.44
672.689	79.44
672.892	67.44
