Data from Uncirc_1991_H10_HRD10591_00095.txt Node
Date: Wed Jan 03 11:50:57 EST 2024
User: Yrep
Spectrometer: HR+D1059
Trigger mode: 1
Integration Time (sec): 1.000000E-1
Scans to average: 1
Electric dark correction enabled: true
Nonlinearity correction enabled: false
Boxcar width: 0
XAxis mode: Wavelengths
Number of Pixels in Spectrum: 2048
>>>>>Begin Spectral Data<<<<<
223.165	-15.31
223.4	-15.31
223.635	-15.31
223.869	-13.31
224.104	-12.31
224.338	-16.31
224.573	-17.31
224.808	-1.31
225.042	-5.31
225.277	-7.31
225.511	-0.31
225.746	9.69
225.98	0.69
226.215	6.69
226.449	10.69
226.683	14.69
226.918	20.69
227.152	25.69
227.387	40.69
227.621	34.69
227.856	33.69
228.09	37.69
228.324	41.69
228.559	55.69
228.793	51.69
229.027	59.69
229.262	60.69
229.496	78.69
229.73	97.69
229.964	79.69
230.199	77.69
230.433	67.69
230.667	77.69
230.901	86.69
231.136	77.69
231.37	83.69
231.604	85.69
231.838	63.69
232.072	75.69
232.306	75.69
232.541	74.69
232.775	66.69
233.009	67.69
233.243	83.69
233.477	72.69
233.711	76.69
233.945	78.69
234.179	80.69
234.413	81.69
234.647	81.69
234.881	76.69
235.115	78.69
235.349	65.69
235.583	81.69
235.817	58.69
236.051	72.69
236.285	62.69
236.519	77.69
236.753	71.69
236.987	93.69
237.221	88.69
237.455	88.69
237.689	76.69
237.922	79.69
238.156	72.69
238.39	67.69
238.624	66.69
238.858	71.69
239.091	84.69
239.325	81.69
239.559	91.69
239.793	82.69
240.027	85.69
240.26	72.69
240.494	67.69
240.728	75.69
240.961	69.69
241.195	94.69
241.429	81.69
241.662	75.69
241.896	67.69
242.13	73.69
242.363	69.69
242.597	64.69
242.83	65.69
243.064	75.69
243.298	66.69
243.531	78.69
243.765	85.69
243.998	73.69
244.232	70.69
244.465	80.69
244.699	83.69
244.932	80.69
245.166	79.69
245.399	77.69
245.633	63.69
245.866	75.69
246.099	77.69
246.333	59.69
246.566	77.69
246.8	57.69
247.033	70.69
247.266	75.69
247.5	79.69
247.733	62.69
247.966	78.69
248.2	83.69
248.433	80.69
248.666	75.69
248.899	89.69
249.133	73.69
249.366	101.69
249.599	105.69
249.832	86.69
250.066	81.69
250.299	74.69
250.532	78.69
250.765	78.69
250.998	79.69
251.231	81.69
251.465	81.69
251.698	63.69
251.931	80.69
252.164	77.69
252.397	67.69
252.63	77.69
252.863	89.69
253.096	69.69
253.329	82.69
253.562	80.69
253.795	87.69
254.028	66.69
254.261	66.69
254.494	76.69
254.727	77.69
254.96	73.69
255.193	80.69
255.426	80.69
255.659	81.69
255.892	66.69
256.124	67.69
256.357	77.69
256.59	79.69
256.823	78.69
257.056	86.69
257.289	82.69
257.521	81.69
257.754	66.69
257.987	64.69
258.22	70.69
258.452	88.69
258.685	75.69
258.918	77.69
259.151	69.69
259.383	72.69
259.616	78.69
259.849	79.69
260.081	87.69
260.314	79.69
260.547	74.69
260.779	82.69
261.012	65.69
261.244	85.69
261.477	97.69
261.71	102.69
261.942	112.69
262.175	120.69
262.407	76.69
262.64	87.69
262.872	75.69
263.105	78.69
263.337	75.69
263.57	79.69
263.802	82.69
264.035	76.69
264.267	81.69
264.499	85.69
264.732	77.69
264.964	81.69
265.197	74.69
265.429	75.69
265.661	78.69
265.894	79.69
266.126	87.69
266.358	92.69
266.591	74.69
266.823	83.69
267.055	74.69
267.287	87.69
267.52	65.69
267.752	81.69
267.984	71.69
268.216	87.69
268.448	81.69
268.681	78.69
268.913	58.69
269.145	87.69
269.377	81.69
269.609	86.69
269.841	88.69
270.073	81.69
270.306	77.69
270.538	82.69
270.77	97.69
271.002	88.69
271.234	82.69
271.466	90.69
271.698	83.69
271.93	81.69
272.162	98.69
272.394	91.69
272.626	90.69
272.858	79.69
273.09	63.69
273.322	79.69
273.553	69.69
273.785	80.69
274.017	84.69
274.249	73.69
274.481	78.69
274.713	67.69
274.945	71.69
275.176	87.69
275.408	76.69
275.64	96.69
275.872	72.69
276.104	89.69
276.335	79.69
276.567	92.69
276.799	112.69
277.031	92.69
277.262	89.69
277.494	70.69
277.726	85.69
277.957	91.69
278.189	82.69
278.421	93.69
278.652	77.69
278.884	74.69
279.115	89.69
279.347	82.69
279.579	97.69
279.81	88.69
280.042	74.69
280.273	66.69
280.505	81.69
280.736	77.69
280.968	80.69
281.199	85.69
281.431	79.69
281.662	85.69
281.894	95.69
282.125	93.69
282.356	102.69
282.588	134.69
282.819	106.69
283.051	71.69
283.282	81.69
283.513	80.69
283.745	93.69
283.976	94.69
284.207	81.69
284.439	85.69
284.67	85.69
284.901	91.69
285.132	74.69
285.364	83.69
285.595	85.69
285.826	73.69
286.057	92.69
286.288	94.69
286.52	108.69
286.751	88.69
286.982	97.69
287.213	68.69
287.444	76.69
287.675	80.69
287.906	94.69
288.138	88.69
288.369	82.69
288.6	79.69
288.831	89.69
289.062	84.69
289.293	84.69
289.524	64.69
289.755	86.69
289.986	63.69
290.217	77.69
290.448	71.69
290.679	83.69
290.91	82.69
291.141	66.69
291.371	81.69
291.602	82.69
291.833	80.69
292.064	87.69
292.295	79.69
292.526	99.69
292.757	86.69
292.987	74.69
293.218	86.69
293.449	96.69
293.68	93.69
293.91	88.69
294.141	96.69
294.372	81.69
294.603	90.69
294.833	91.69
295.064	77.69
295.295	92.69
295.525	92.69
295.756	97.69
295.987	111.69
296.217	138.69
296.448	131.69
296.679	77.69
296.909	82.69
297.14	93.69
297.37	98.69
297.601	81.69
297.831	94.69
298.062	96.69
298.292	79.69
298.523	78.69
298.753	79.69
298.984	82.69
299.214	100.69
299.445	78.69
299.675	97.69
299.905	89.69
300.136	80.69
300.366	87.69
300.597	91.69
300.827	89.69
301.057	90.69
301.288	92.69
301.518	78.69
301.748	89.69
301.979	99.69
302.209	78.69
302.439	81.69
302.669	78.69
302.9	76.69
303.13	96.69
303.36	91.69
303.59	96.69
303.82	105.69
304.051	93.69
304.281	85.69
304.511	97.69
304.741	93.69
304.971	85.69
305.201	83.69
305.431	74.69
305.661	85.69
305.891	87.69
306.121	98.69
306.352	93.69
306.582	118.69
306.812	93.69
307.042	83.69
307.272	93.69
307.502	81.69
307.731	99.69
307.961	94.69
308.191	91.69
308.421	83.69
308.651	94.69
308.881	97.69
309.111	81.69
309.341	92.69
309.571	97.69
309.8	84.69
310.03	86.69
310.26	95.69
310.49	89.69
310.72	104.69
310.949	105.69
311.179	88.69
311.409	97.69
311.639	83.69
311.868	79.69
312.098	78.69
312.328	93.69
312.557	103.69
312.787	98.69
313.017	99.69
313.246	95.69
313.476	95.69
313.706	88.69
313.935	94.69
314.165	90.69
314.394	105.69
314.624	92.69
314.853	99.69
315.083	71.69
315.312	88.69
315.542	70.69
315.771	89.69
316.001	85.69
316.23	96.69
316.46	96.69
316.689	85.69
316.919	101.69
317.148	91.69
317.377	98.69
317.607	99.69
317.836	88.69
318.065	85.69
318.295	79.69
318.524	86.69
318.753	94.69
318.983	104.69
319.212	99.69
319.441	99.69
319.67	111.69
319.9	93.69
320.129	108.69
320.358	79.69
320.587	89.69
320.816	105.69
321.046	99.69
321.275	103.69
321.504	97.69
321.733	95.69
321.962	94.69
322.191	99.69
322.42	107.69
322.649	109.69
322.878	106.69
323.108	113.69
323.337	132.69
323.566	113.69
323.795	170.69
324.024	219.69
324.253	471.69
324.482	991.69
324.71	2123.69
324.939	2889.69
325.168	1052.69
325.397	288.69
325.626	158.69
325.855	138.69
326.084	129.69
326.313	135.69
326.542	160.69
326.77	242.69
326.999	531.69
327.228	1113.69
327.457	2139.69
327.686	1745.69
327.914	437.69
328.143	215.69
328.372	135.69
328.6	148.69
328.829	121.69
329.058	138.69
329.287	125.69
329.515	106.69
329.744	103.69
329.972	105.69
330.201	113.69
330.43	88.69
330.658	109.69
330.887	145.69
331.115	118.69
331.344	103.69
331.572	109.69
331.801	106.69
332.03	90.69
332.258	89.69
332.486	73.69
332.715	91.69
332.943	97.69
333.172	98.69
333.4	97.69
333.629	94.69
333.857	113.69
334.085	101.69
334.314	104.69
334.542	91.69
334.771	90.69
334.999	88.69
335.227	112.69
335.455	103.69
335.684	101.69
335.912	91.69
336.14	87.69
336.369	90.69
336.597	105.69
336.825	111.69
337.053	88.69
337.281	77.69
337.51	94.69
337.738	99.69
337.966	89.69
338.194	105.69
338.422	96.69
338.65	98.69
338.878	84.69
339.106	85.69
339.334	101.69
339.562	80.69
339.79	89.69
340.018	93.69
340.246	85.69
340.474	86.69
340.702	81.69
340.93	85.69
341.158	94.69
341.386	92.69
341.614	104.69
341.842	97.69
342.07	87.69
342.298	96.69
342.526	91.69
342.754	86.69
342.981	87.69
343.209	79.69
343.437	107.69
343.665	91.69
343.893	87.69
344.12	91.69
344.348	79.69
344.576	78.69
344.804	88.69
345.031	94.69
345.259	94.69
345.487	90.69
345.714	81.69
345.942	98.69
346.17	92.69
346.397	84.69
346.625	91.69
346.853	93.69
347.08	74.69
347.308	85.69
347.535	98.69
347.763	89.69
347.99	87.69
348.218	97.69
348.445	113.69
348.673	103.69
348.9	87.69
349.128	90.69
349.355	81.69
349.583	80.69
349.81	92.69
350.037	80.69
350.265	88.69
350.492	89.69
350.72	101.69
350.947	89.69
351.174	93.69
351.402	106.69
351.629	96.69
351.856	93.69
352.083	97.69
352.311	110.69
352.538	119.69
352.765	106.69
352.992	121.69
353.22	102.69
353.447	94.69
353.674	91.69
353.901	93.69
354.128	93.69
354.355	80.69
354.583	74.69
354.81	87.69
355.037	101.69
355.264	90.69
355.491	99.69
355.718	87.69
355.945	80.69
356.172	81.69
356.399	81.69
356.626	85.69
356.853	91.69
357.08	94.69
357.307	90.69
357.534	89.69
357.761	99.69
357.988	97.69
358.215	81.69
358.441	89.69
358.668	88.69
358.895	73.69
359.122	90.69
359.349	97.69
359.576	86.69
359.802	103.69
360.029	103.69
360.256	103.69
360.483	96.69
360.709	87.69
360.936	78.69
361.163	97.69
361.39	94.69
361.616	82.69
361.843	94.69
362.07	89.69
362.296	91.69
362.523	93.69
362.749	93.69
362.976	98.69
363.203	84.69
363.429	80.69
363.656	76.69
363.882	82.69
364.109	97.69
364.335	99.69
364.562	81.69
364.788	81.69
365.015	104.69
365.241	99.69
365.468	109.69
365.694	98.69
365.92	104.69
366.147	110.69
366.373	78.69
366.599	70.69
366.826	87.69
367.052	94.69
367.278	91.69
367.505	75.69
367.731	78.69
367.957	88.69
368.184	78.69
368.41	88.69
368.636	109.69
368.862	125.69
369.089	104.69
369.315	90.69
369.541	79.69
369.767	92.69
369.993	92.69
370.219	76.69
370.445	90.69
370.672	89.69
370.898	78.69
371.124	85.69
371.35	89.69
371.576	95.69
371.802	77.69
372.028	81.69
372.254	85.69
372.48	83.69
372.706	93.69
372.932	78.69
373.158	78.69
373.384	82.69
373.61	80.69
373.835	98.69
374.061	93.69
374.287	98.69
374.513	91.69
374.739	89.69
374.965	87.69
375.191	82.69
375.416	85.69
375.642	77.69
375.868	91.69
376.094	94.69
376.319	93.69
376.545	88.69
376.771	92.69
376.997	85.69
377.222	91.69
377.448	89.69
377.674	75.69
377.899	91.69
378.125	88.69
378.35	96.69
378.576	82.69
378.802	83.69
379.027	82.69
379.253	93.69
379.478	82.69
379.704	75.69
379.929	99.69
380.155	75.69
380.38	82.69
380.606	74.69
380.831	89.69
381.057	78.69
381.282	81.69
381.507	74.69
381.733	76.69
381.958	88.69
382.184	93.69
382.409	91.69
382.634	97.69
382.86	91.69
383.085	91.69
383.31	91.69
383.535	104.69
383.761	81.69
383.986	93.69
384.211	88.69
384.436	88.69
384.662	99.69
384.887	100.69
385.112	83.69
385.337	99.69
385.562	82.69
385.787	93.69
386.013	90.69
386.238	106.69
386.463	95.69
386.688	95.69
386.913	94.69
387.138	90.69
387.363	103.69
387.588	85.69
387.813	98.69
388.038	90.69
388.263	87.69
388.488	95.69
388.713	98.69
388.938	87.69
389.163	91.69
389.387	87.69
389.612	89.69
389.837	88.69
390.062	77.69
390.287	91.69
390.512	86.69
390.736	86.69
390.961	80.69
391.186	82.69
391.411	98.69
391.636	79.69
391.86	89.69
392.085	85.69
392.31	88.69
392.534	75.69
392.759	99.69
392.984	79.69
393.208	92.69
393.433	99.69
393.658	87.69
393.882	85.69
394.107	98.69
394.331	85.69
394.556	80.69
394.78	80.69
395.005	79.69
395.229	78.69
395.454	73.69
395.678	79.69
395.903	72.69
396.127	89.69
396.352	82.69
396.576	91.69
396.801	80.69
397.025	76.69
397.249	59.69
397.474	94.69
397.698	86.69
397.922	72.69
398.147	66.69
398.371	74.69
398.595	81.69
398.82	82.69
399.044	83.69
399.268	73.69
399.492	97.69
399.717	77.69
399.941	81.69
400.165	89.69
400.389	91.69
400.613	73.69
400.837	90.69
401.062	73.69
401.286	103.69
401.51	89.69
401.734	89.69
401.958	99.69
402.182	131.69
402.406	149.69
402.63	114.69
402.854	95.69
403.078	88.69
403.302	94.69
403.526	84.69
403.75	89.69
403.974	76.69
404.198	89.69
404.422	88.69
404.645	82.69
404.869	97.69
405.093	76.69
405.317	80.69
405.541	85.69
405.765	100.69
405.988	137.69
406.212	181.69
406.436	257.69
406.66	173.69
406.883	120.69
407.107	96.69
407.331	99.69
407.555	96.69
407.778	100.69
408.002	96.69
408.226	83.69
408.449	79.69
408.673	72.69
408.896	86.69
409.12	107.69
409.344	80.69
409.567	80.69
409.791	94.69
410.014	92.69
410.238	86.69
410.461	90.69
410.685	100.69
410.908	99.69
411.132	92.69
411.355	95.69
411.578	99.69
411.802	93.69
412.025	90.69
412.249	78.69
412.472	81.69
412.695	81.69
412.919	79.69
413.142	87.69
413.365	79.69
413.589	102.69
413.812	78.69
414.035	96.69
414.258	90.69
414.482	85.69
414.705	75.69
414.928	80.69
415.151	88.69
415.374	86.69
415.597	81.69
415.821	71.69
416.044	85.69
416.267	100.69
416.49	96.69
416.713	83.69
416.936	74.69
417.159	93.69
417.382	81.69
417.605	89.69
417.828	94.69
418.051	82.69
418.274	78.69
418.497	85.69
418.72	75.69
418.943	90.69
419.166	77.69
419.389	87.69
419.611	85.69
419.834	74.69
420.057	84.69
420.28	93.69
420.503	78.69
420.726	75.69
420.948	88.69
421.171	80.69
421.394	81.69
421.617	81.69
421.839	97.69
422.062	78.69
422.285	77.69
422.507	85.69
422.73	97.69
422.953	77.69
423.175	89.69
423.398	75.69
423.621	84.69
423.843	65.69
424.066	92.69
424.288	90.69
424.511	87.69
424.733	91.69
424.956	106.69
425.178	97.69
425.401	113.69
425.623	99.69
425.846	88.69
426.068	82.69
426.291	88.69
426.513	93.69
426.735	78.69
426.958	95.69
427.18	112.69
427.402	139.69
427.625	183.69
427.847	127.69
428.069	77.69
428.292	74.69
428.514	87.69
428.736	64.69
428.958	86.69
429.181	65.69
429.403	82.69
429.625	85.69
429.847	85.69
430.069	117.69
430.292	86.69
430.514	83.69
430.736	82.69
430.958	82.69
431.18	78.69
431.402	85.69
431.624	69.69
431.846	84.69
432.068	95.69
432.29	94.69
432.512	99.69
432.734	98.69
432.956	98.69
433.178	96.69
433.4	102.69
433.622	91.69
433.844	94.69
434.066	81.69
434.287	92.69
434.509	93.69
434.731	90.69
434.953	88.69
435.175	77.69
435.397	88.69
435.618	89.69
435.84	88.69
436.062	134.69
436.284	107.69
436.505	98.69
436.727	112.69
436.949	99.69
437.17	91.69
437.392	72.69
437.614	95.69
437.835	111.69
438.057	108.69
438.278	106.69
438.5	114.69
438.721	116.69
438.943	105.69
439.165	89.69
439.386	102.69
439.608	96.69
439.829	117.69
440.05	125.69
440.272	155.69
440.493	110.69
440.715	81.69
440.936	94.69
441.158	86.69
441.379	76.69
441.6	80.69
441.822	93.69
442.043	99.69
442.264	106.69
442.486	101.69
442.707	95.69
442.928	104.69
443.149	129.69
443.371	143.69
443.592	122.69
443.813	117.69
444.034	106.69
444.255	89.69
444.476	87.69
444.698	85.69
444.919	92.69
445.14	141.69
445.361	125.69
445.582	121.69
445.803	151.69
446.024	143.69
446.245	137.69
446.466	116.69
446.687	93.69
446.908	93.69
447.129	89.69
447.35	97.69
447.571	95.69
447.792	80.69
448.013	87.69
448.234	92.69
448.455	102.69
448.675	114.69
448.896	135.69
449.117	96.69
449.338	90.69
449.559	144.69
449.779	135.69
450	82.69
450.221	80.69
450.442	96.69
450.662	90.69
450.883	99.69
451.104	109.69
451.324	81.69
451.545	86.69
451.766	83.69
451.986	63.69
452.207	81.69
452.428	82.69
452.648	91.69
452.869	119.69
453.089	117.69
453.31	114.69
453.53	88.69
453.751	69.69
453.971	107.69
454.192	106.69
454.412	83.69
454.633	80.69
454.853	81.69
455.073	81.69
455.294	84.69
455.514	99.69
455.734	87.69
455.955	65.69
456.175	82.69
456.395	80.69
456.616	78.69
456.836	87.69
457.056	65.69
457.276	80.69
457.497	84.69
457.717	92.69
457.937	93.69
458.157	76.69
458.377	99.69
458.598	93.69
458.818	153.69
459.038	175.69
459.258	116.69
459.478	98.69
459.698	97.69
459.918	70.69
460.138	75.69
460.358	90.69
460.578	76.69
460.798	94.69
461.018	98.69
461.238	89.69
461.458	76.69
461.678	65.69
461.898	87.69
462.118	88.69
462.338	80.69
462.558	74.69
462.777	79.69
462.997	83.69
463.217	92.69
463.437	91.69
463.657	87.69
463.876	85.69
464.096	80.69
464.316	105.69
464.536	90.69
464.755	87.69
464.975	108.69
465.195	169.69
465.414	181.69
465.634	95.69
465.854	86.69
466.073	87.69
466.293	88.69
466.512	77.69
466.732	97.69
466.951	79.69
467.171	94.69
467.391	94.69
467.61	88.69
467.829	95.69
468.049	79.69
468.268	90.69
468.488	83.69
468.707	85.69
468.927	74.69
469.146	89.69
469.365	87.69
469.585	77.69
469.804	82.69
470.023	88.69
470.243	98.69
470.462	115.69
470.681	111.69
470.901	78.69
471.12	89.69
471.339	97.69
471.558	79.69
471.777	86.69
471.997	80.69
472.216	83.69
472.435	91.69
472.654	75.69
472.873	88.69
473.092	93.69
473.311	81.69
473.53	77.69
473.749	89.69
473.968	86.69
474.187	113.69
474.406	85.69
474.625	82.69
474.844	64.69
475.063	67.69
475.282	82.69
475.501	65.69
475.72	96.69
475.939	74.69
476.158	92.69
476.377	78.69
476.596	89.69
476.814	91.69
477.033	93.69
477.252	81.69
477.471	85.69
477.69	86.69
477.908	88.69
478.127	95.69
478.346	79.69
478.564	96.69
478.783	89.69
479.002	100.69
479.22	85.69
479.439	93.69
479.658	98.69
479.876	86.69
480.095	90.69
480.313	96.69
480.532	72.69
480.751	80.69
480.969	90.69
481.188	94.69
481.406	90.69
481.624	81.69
481.843	79.69
482.061	91.69
482.28	81.69
482.498	86.69
482.717	94.69
482.935	83.69
483.153	87.69
483.372	87.69
483.59	73.69
483.808	89.69
484.027	86.69
484.245	96.69
484.463	83.69
484.681	92.69
484.9	82.69
485.118	79.69
485.336	95.69
485.554	103.69
485.772	103.69
485.99	95.69
486.209	102.69
486.427	102.69
486.645	91.69
486.863	102.69
487.081	88.69
487.299	82.69
487.517	87.69
487.735	97.69
487.953	85.69
488.171	96.69
488.389	88.69
488.607	89.69
488.825	86.69
489.043	87.69
489.261	83.69
489.479	81.69
489.696	87.69
489.914	91.69
490.132	91.69
490.35	90.69
490.568	79.69
490.786	83.69
491.003	74.69
491.221	91.69
491.439	81.69
491.657	91.69
491.874	84.69
492.092	81.69
492.31	94.69
492.527	71.69
492.745	85.69
492.963	91.69
493.18	88.69
493.398	94.69
493.615	95.69
493.833	92.69
494.05	76.69
494.268	96.69
494.485	84.69
494.703	101.69
494.92	82.69
495.138	96.69
495.355	80.69
495.573	101.69
495.79	80.69
496.008	94.69
496.225	81.69
496.442	77.69
496.66	79.69
496.877	79.69
497.094	82.69
497.312	74.69
497.529	80.69
497.746	91.69
497.963	71.69
498.181	87.69
498.398	88.69
498.615	120.69
498.832	112.69
499.049	85.69
499.267	89.69
499.484	81.69
499.701	77.69
499.918	86.69
500.135	86.69
500.352	91.69
500.569	88.69
500.786	86.69
501.003	97.69
501.22	89.69
501.437	76.69
501.654	81.69
501.871	95.69
502.088	73.69
502.305	97.69
502.522	87.69
502.739	67.69
502.956	86.69
503.172	99.69
503.389	101.69
503.606	100.69
503.823	90.69
504.04	102.69
504.256	89.69
504.473	79.69
504.69	74.69
504.907	94.69
505.123	86.69
505.34	88.69
505.557	89.69
505.773	92.69
505.99	81.69
506.207	87.69
506.423	93.69
506.64	95.69
506.856	85.69
507.073	86.69
507.289	79.69
507.506	91.69
507.722	103.69
507.939	109.69
508.155	99.69
508.372	105.69
508.588	95.69
508.805	101.69
509.021	97.69
509.238	102.69
509.454	95.69
509.67	87.69
509.887	96.69
510.103	125.69
510.319	205.69
510.536	789.69
510.752	2539.69
510.968	667.69
511.184	153.69
511.401	110.69
511.617	93.69
511.833	91.69
512.049	85.69
512.265	86.69
512.481	90.69
512.698	91.69
512.914	95.69
513.13	90.69
513.346	83.69
513.562	93.69
513.778	94.69
513.994	96.69
514.21	97.69
514.426	104.69
514.642	141.69
514.858	120.69
515.074	167.69
515.29	496.69
515.506	1729.69
515.721	642.69
515.937	172.69
516.153	110.69
516.369	103.69
516.585	92.69
516.801	97.69
517.016	90.69
517.232	83.69
517.448	78.69
517.664	87.69
517.879	101.69
518.095	102.69
518.311	100.69
518.527	96.69
518.742	94.69
518.958	86.69
519.173	90.69
519.389	89.69
519.605	84.69
519.82	88.69
520.036	113.69
520.251	124.69
520.467	116.69
520.682	96.69
520.898	101.69
521.113	110.69
521.329	136.69
521.544	241.69
521.76	637.69
521.975	2875.69
522.19	1705.69
522.406	356.69
522.621	134.69
522.836	97.69
523.052	96.69
523.267	93.69
523.482	79.69
523.698	103.69
523.913	131.69
524.128	95.69
524.343	92.69
524.559	90.69
524.774	96.69
524.989	94.69
525.204	98.69
525.419	99.69
525.634	81.69
525.849	85.69
526.064	93.69
526.28	98.69
526.495	85.69
526.71	87.69
526.925	85.69
527.14	89.69
527.355	78.69
527.57	96.69
527.785	84.69
527.999	81.69
528.214	78.69
528.429	93.69
528.644	98.69
528.859	87.69
529.074	87.69
529.289	130.69
529.503	194.69
529.718	103.69
529.933	105.69
530.148	81.69
530.363	74.69
530.577	79.69
530.792	81.69
531.007	86.69
531.221	79.69
531.436	87.69
531.651	92.69
531.865	88.69
532.08	80.69
532.295	101.69
532.509	94.69
532.724	89.69
532.938	80.69
533.153	94.69
533.367	92.69
533.582	87.69
533.796	88.69
534.011	106.69
534.225	80.69
534.44	76.69
534.654	90.69
534.868	85.69
535.083	81.69
535.297	95.69
535.511	99.69
535.726	106.69
535.94	106.69
536.154	102.69
536.369	92.69
536.583	85.69
536.797	82.69
537.011	80.69
537.225	87.69
537.44	77.69
537.654	94.69
537.868	89.69
538.082	84.69
538.296	98.69
538.51	101.69
538.724	80.69
538.938	98.69
539.153	107.69
539.367	97.69
539.581	91.69
539.795	94.69
540.009	94.69
540.222	90.69
540.436	85.69
540.65	106.69
540.864	91.69
541.078	90.69
541.292	90.69
541.506	91.69
541.72	81.69
541.934	93.69
542.147	95.69
542.361	89.69
542.575	77.69
542.789	97.69
543.002	83.69
543.216	105.69
543.43	94.69
543.644	76.69
543.857	85.69
544.071	94.69
544.285	95.69
544.498	95.69
544.712	99.69
544.925	95.69
545.139	81.69
545.352	83.69
545.566	85.69
545.779	87.69
545.993	81.69
546.206	92.69
546.42	83.69
546.633	96.69
546.847	83.69
547.06	73.69
547.274	85.69
547.487	74.69
547.7	92.69
547.914	79.69
548.127	82.69
548.34	89.69
548.554	77.69
548.767	91.69
548.98	83.69
549.193	89.69
549.407	89.69
549.62	90.69
549.833	85.69
550.046	82.69
550.259	91.69
550.473	89.69
550.686	94.69
550.899	82.69
551.112	96.69
551.325	82.69
551.538	89.69
551.751	94.69
551.964	90.69
552.177	76.69
552.39	85.69
552.603	94.69
552.816	74.69
553.029	92.69
553.242	96.69
553.455	97.69
553.667	102.69
553.88	94.69
554.093	88.69
554.306	73.69
554.519	82.69
554.732	78.69
554.944	86.69
555.157	94.69
555.37	79.69
555.583	86.69
555.795	91.69
556.008	88.69
556.221	84.69
556.433	85.69
556.646	85.69
556.859	77.69
557.071	102.69
557.284	78.69
557.496	105.69
557.709	81.69
557.921	89.69
558.134	91.69
558.346	93.69
558.559	89.69
558.771	81.69
558.984	72.69
559.196	89.69
559.409	83.69
559.621	82.69
559.833	71.69
560.046	94.69
560.258	79.69
560.47	91.69
560.683	88.69
560.895	92.69
561.107	98.69
561.32	79.69
561.532	77.69
561.744	77.69
561.956	87.69
562.168	90.69
562.381	90.69
562.593	99.69
562.805	88.69
563.017	83.69
563.229	98.69
563.441	74.69
563.653	76.69
563.865	76.69
564.077	80.69
564.289	97.69
564.501	90.69
564.713	79.69
564.925	86.69
565.137	96.69
565.349	83.69
565.561	95.69
565.773	81.69
565.985	94.69
566.197	85.69
566.408	90.69
566.62	91.69
566.832	94.69
567.044	83.69
567.255	82.69
567.467	102.69
567.679	73.69
567.891	75.69
568.102	84.69
568.314	93.69
568.526	77.69
568.737	104.69
568.949	85.69
569.161	89.69
569.372	81.69
569.584	89.69
569.795	89.69
570.007	110.69
570.218	256.69
570.43	135.69
570.641	79.69
570.853	82.69
571.064	80.69
571.276	90.69
571.487	75.69
571.698	95.69
571.91	95.69
572.121	85.69
572.333	77.69
572.544	85.69
572.755	94.69
572.966	77.69
573.178	87.69
573.389	90.69
573.6	98.69
573.811	88.69
574.023	79.69
574.234	83.69
574.445	90.69
574.656	83.69
574.867	79.69
575.078	83.69
575.289	80.69
575.501	77.69
575.712	96.69
575.923	78.69
576.134	81.69
576.345	77.69
576.556	84.69
576.767	96.69
576.978	92.69
577.188	86.69
577.399	91.69
577.61	91.69
577.821	86.69
578.032	118.69
578.243	278.69
578.454	790.69
578.665	217.69
578.875	103.69
579.086	79.69
579.297	85.69
579.508	91.69
579.718	104.69
579.929	96.69
580.14	77.69
580.35	90.69
580.561	79.69
580.772	88.69
580.982	89.69
581.193	74.69
581.403	81.69
581.614	91.69
581.825	78.69
582.035	94.69
582.246	85.69
582.456	95.69
582.667	72.69
582.877	89.69
583.087	89.69
583.298	89.69
583.508	92.69
583.719	94.69
583.929	87.69
584.139	80.69
584.35	78.69
584.56	78.69
584.77	77.69
584.981	78.69
585.191	87.69
585.401	75.69
585.611	75.69
585.821	93.69
586.032	89.69
586.242	88.69
586.452	84.69
586.662	94.69
586.872	84.69
587.082	79.69
587.292	74.69
587.502	82.69
587.713	79.69
587.923	72.69
588.133	71.69
588.343	77.69
588.553	81.69
588.762	87.69
588.972	80.69
589.182	87.69
589.392	83.69
589.602	91.69
589.812	75.69
590.022	87.69
590.232	79.69
590.441	87.69
590.651	76.69
590.861	84.69
591.071	88.69
591.281	79.69
591.49	85.69
591.7	86.69
591.91	76.69
592.119	88.69
592.329	79.69
592.539	93.69
592.748	95.69
592.958	86.69
593.167	78.69
593.377	87.69
593.587	89.69
593.796	79.69
594.006	87.69
594.215	77.69
594.424	90.69
594.634	69.69
594.843	95.69
595.053	94.69
595.262	86.69
595.472	78.69
595.681	96.69
595.89	100.69
596.1	86.69
596.309	83.69
596.518	81.69
596.727	74.69
596.937	75.69
597.146	82.69
597.355	80.69
597.564	68.69
597.774	80.69
597.983	85.69
598.192	95.69
598.401	86.69
598.61	89.69
598.819	89.69
599.028	87.69
599.237	91.69
599.446	83.69
599.655	76.69
599.864	85.69
600.073	80.69
600.282	91.69
600.491	76.69
600.7	88.69
600.909	73.69
601.118	82.69
601.327	94.69
601.536	66.69
601.745	89.69
601.953	77.69
602.162	73.69
602.371	76.69
602.58	74.69
602.789	80.69
602.997	78.69
603.206	86.69
603.415	86.69
603.623	73.69
603.832	79.69
604.041	77.69
604.249	73.69
604.458	83.69
604.666	97.69
604.875	85.69
605.084	82.69
605.292	87.69
605.501	80.69
605.709	86.69
605.918	76.69
606.126	91.69
606.334	85.69
606.543	83.69
606.751	59.69
606.96	73.69
607.168	78.69
607.376	89.69
607.585	77.69
607.793	79.69
608.001	90.69
608.21	82.69
608.418	89.69
608.626	75.69
608.834	88.69
609.043	82.69
609.251	74.69
609.459	89.69
609.667	81.69
609.875	80.69
610.083	80.69
610.291	78.69
610.499	86.69
610.707	91.69
610.916	94.69
611.124	83.69
611.332	95.69
611.54	88.69
611.748	94.69
611.955	83.69
612.163	77.69
612.371	91.69
612.579	79.69
612.787	69.69
612.995	74.69
613.203	82.69
613.411	77.69
613.618	66.69
613.826	89.69
614.034	93.69
614.242	83.69
614.449	96.69
614.657	77.69
614.865	81.69
615.072	85.69
615.28	89.69
615.488	77.69
615.695	85.69
615.903	97.69
616.111	99.69
616.318	99.69
616.526	104.69
616.733	96.69
616.941	91.69
617.148	81.69
617.356	81.69
617.563	77.69
617.771	82.69
617.978	75.69
618.185	77.69
618.393	84.69
618.6	82.69
618.807	75.69
619.015	66.69
619.222	79.69
619.429	93.69
619.637	102.69
619.844	79.69
620.051	86.69
620.258	83.69
620.466	82.69
620.673	87.69
620.88	88.69
621.087	77.69
621.294	73.69
621.501	87.69
621.708	88.69
621.915	94.69
622.122	92.69
622.329	83.69
622.536	97.69
622.743	79.69
622.95	74.69
623.157	88.69
623.364	92.69
623.571	70.69
623.778	77.69
623.985	91.69
624.192	81.69
624.399	76.69
624.606	78.69
624.812	77.69
625.019	74.69
625.226	93.69
625.433	77.69
625.639	79.69
625.846	85.69
626.053	83.69
626.259	77.69
626.466	89.69
626.673	94.69
626.879	89.69
627.086	78.69
627.293	74.69
627.499	81.69
627.706	83.69
627.912	75.69
628.119	74.69
628.325	90.69
628.532	85.69
628.738	85.69
628.945	92.69
629.151	97.69
629.357	72.69
629.564	93.69
629.77	71.69
629.976	74.69
630.183	79.69
630.389	83.69
630.595	77.69
630.802	75.69
631.008	80.69
631.214	73.69
631.42	93.69
631.627	83.69
631.833	86.69
632.039	85.69
632.245	74.69
632.451	88.69
632.657	87.69
632.863	79.69
633.069	81.69
633.275	87.69
633.481	80.69
633.688	82.69
633.893	71.69
634.099	79.69
634.305	77.69
634.511	90.69
634.717	77.69
634.923	73.69
635.129	84.69
635.335	77.69
635.541	71.69
635.747	74.69
635.952	76.69
636.158	73.69
636.364	83.69
636.57	82.69
636.775	85.69
636.981	83.69
637.187	79.69
637.392	50.69
637.598	69.69
637.804	72.69
638.009	70.69
638.215	78.69
638.421	71.69
638.626	67.69
638.832	84.69
639.037	75.69
639.243	69.69
639.448	72.69
639.654	82.69
639.859	72.69
640.065	68.69
640.27	87.69
640.475	71.69
640.681	76.69
640.886	73.69
641.091	77.69
641.297	82.69
641.502	75.69
641.707	86.69
641.913	88.69
642.118	89.69
642.323	83.69
642.528	75.69
642.733	66.69
642.939	78.69
643.144	81.69
643.349	67.69
643.554	67.69
643.759	79.69
643.964	87.69
644.169	79.69
644.374	86.69
644.579	77.69
644.784	80.69
644.989	97.69
645.194	79.69
645.399	72.69
645.604	91.69
645.809	93.69
646.014	83.69
646.219	78.69
646.423	95.69
646.628	82.69
646.833	84.69
647.038	63.69
647.243	86.69
647.447	81.69
647.652	89.69
647.857	69.69
648.062	75.69
648.266	91.69
648.471	91.69
648.676	70.69
648.88	94.69
649.085	85.69
649.289	90.69
649.494	109.69
649.698	143.69
649.903	87.69
650.107	77.69
650.312	80.69
650.516	85.69
650.721	97.69
650.925	80.69
651.13	75.69
651.334	84.69
651.539	79.69
651.743	83.69
651.947	80.69
652.152	86.69
652.356	79.69
652.56	69.69
652.764	77.69
652.969	83.69
653.173	70.69
653.377	83.69
653.581	66.69
653.785	75.69
653.99	71.69
654.194	74.69
654.398	71.69
654.602	87.69
654.806	86.69
655.01	97.69
655.214	97.69
655.418	78.69
655.622	71.69
655.826	82.69
656.03	85.69
656.234	89.69
656.438	99.69
656.642	81.69
656.846	76.69
657.049	71.69
657.253	75.69
657.457	86.69
657.661	81.69
657.865	82.69
658.068	69.69
658.272	85.69
658.476	84.69
658.68	81.69
658.883	76.69
659.087	74.69
659.291	69.69
659.494	85.69
659.698	74.69
659.901	69.69
660.105	87.69
660.309	85.69
660.512	86.69
660.716	86.69
660.919	73.69
661.123	94.69
661.326	71.69
661.53	75.69
661.733	82.69
661.936	86.69
662.14	78.69
662.343	73.69
662.546	84.69
662.75	76.69
662.953	71.69
663.156	78.69
663.36	81.69
663.563	83.69
663.766	66.69
663.969	79.69
664.173	70.69
664.376	75.69
664.579	75.69
664.782	76.69
664.985	75.69
665.188	82.69
665.391	97.69
665.594	82.69
665.797	79.69
666	79.69
666.203	71.69
666.406	82.69
666.609	77.69
666.812	69.69
667.015	80.69
667.218	80.69
667.421	76.69
667.624	75.69
667.827	77.69
668.03	79.69
668.232	76.69
668.435	73.69
668.638	75.69
668.841	81.69
669.043	66.69
669.246	59.69
669.449	75.69
669.651	67.69
669.854	62.69
670.057	60.69
670.259	83.69
670.462	71.69
670.665	86.69
670.867	73.69
671.07	74.69
671.272	90.69
671.475	84.69
671.677	69.69
671.88	85.69
672.082	84.69
672.284	79.69
672.487	75.69
672.689	69.69
672.892	89.69
