Data from Uncirc_1991_H10_HRD10591_00018.txt Node
Date: Wed Jan 03 11:50:41 EST 2024
User: Yrep
Spectrometer: HR+D1059
Trigger mode: 1
Integration Time (sec): 1.000000E-1
Scans to average: 1
Electric dark correction enabled: true
Nonlinearity correction enabled: false
Boxcar width: 0
XAxis mode: Wavelengths
Number of Pixels in Spectrum: 2048
>>>>>Begin Spectral Data<<<<<
223.165	-22.25
223.4	-22.25
223.635	-22.25
223.869	-29.25
224.104	-18.25
224.338	-10.25
224.573	-5.25
224.808	-6.25
225.042	-3.25
225.277	-15.25
225.511	-7.25
225.746	6.75
225.98	22.75
226.215	24.75
226.449	-0.25
226.683	15.75
226.918	22.75
227.152	24.75
227.387	35.75
227.621	33.75
227.856	44.75
228.09	34.75
228.324	54.75
228.559	58.75
228.793	62.75
229.027	63.75
229.262	67.75
229.496	68.75
229.73	72.75
229.964	72.75
230.199	71.75
230.433	85.75
230.667	78.75
230.901	76.75
231.136	72.75
231.37	83.75
231.604	77.75
231.838	73.75
232.072	80.75
232.306	72.75
232.541	87.75
232.775	66.75
233.009	68.75
233.243	81.75
233.477	86.75
233.711	84.75
233.945	87.75
234.179	74.75
234.413	68.75
234.647	76.75
234.881	89.75
235.115	76.75
235.349	83.75
235.583	81.75
235.817	76.75
236.051	62.75
236.285	82.75
236.519	80.75
236.753	78.75
236.987	86.75
237.221	74.75
237.455	84.75
237.689	79.75
237.922	73.75
238.156	67.75
238.39	72.75
238.624	75.75
238.858	84.75
239.091	71.75
239.325	64.75
239.559	74.75
239.793	66.75
240.027	78.75
240.26	82.75
240.494	83.75
240.728	77.75
240.961	80.75
241.195	86.75
241.429	70.75
241.662	72.75
241.896	65.75
242.13	74.75
242.363	78.75
242.597	76.75
242.83	57.75
243.064	73.75
243.298	82.75
243.531	64.75
243.765	76.75
243.998	83.75
244.232	70.75
244.465	72.75
244.699	71.75
244.932	81.75
245.166	71.75
245.399	58.75
245.633	76.75
245.866	79.75
246.099	68.75
246.333	67.75
246.566	76.75
246.8	58.75
247.033	72.75
247.266	81.75
247.5	84.75
247.733	82.75
247.966	81.75
248.2	81.75
248.433	68.75
248.666	82.75
248.899	81.75
249.133	81.75
249.366	92.75
249.599	91.75
249.832	73.75
250.066	80.75
250.299	66.75
250.532	70.75
250.765	83.75
250.998	77.75
251.231	71.75
251.465	83.75
251.698	81.75
251.931	71.75
252.164	70.75
252.397	77.75
252.63	76.75
252.863	80.75
253.096	81.75
253.329	65.75
253.562	77.75
253.795	79.75
254.028	78.75
254.261	80.75
254.494	64.75
254.727	72.75
254.96	80.75
255.193	67.75
255.426	71.75
255.659	84.75
255.892	83.75
256.124	66.75
256.357	81.75
256.59	70.75
256.823	80.75
257.056	55.75
257.289	78.75
257.521	75.75
257.754	73.75
257.987	75.75
258.22	71.75
258.452	80.75
258.685	83.75
258.918	83.75
259.151	80.75
259.383	76.75
259.616	76.75
259.849	81.75
260.081	81.75
260.314	75.75
260.547	85.75
260.779	102.75
261.012	82.75
261.244	88.75
261.477	86.75
261.71	88.75
261.942	100.75
262.175	99.75
262.407	90.75
262.64	78.75
262.872	83.75
263.105	86.75
263.337	87.75
263.57	96.75
263.802	76.75
264.035	81.75
264.267	95.75
264.499	89.75
264.732	79.75
264.964	76.75
265.197	65.75
265.429	84.75
265.661	70.75
265.894	90.75
266.126	83.75
266.358	79.75
266.591	100.75
266.823	72.75
267.055	75.75
267.287	94.75
267.52	84.75
267.752	92.75
267.984	91.75
268.216	84.75
268.448	80.75
268.681	79.75
268.913	94.75
269.145	79.75
269.377	79.75
269.609	74.75
269.841	86.75
270.073	81.75
270.306	89.75
270.538	84.75
270.77	76.75
271.002	88.75
271.234	76.75
271.466	81.75
271.698	88.75
271.93	90.75
272.162	81.75
272.394	90.75
272.626	87.75
272.858	86.75
273.09	76.75
273.322	76.75
273.553	86.75
273.785	90.75
274.017	76.75
274.249	74.75
274.481	70.75
274.713	83.75
274.945	79.75
275.176	71.75
275.408	95.75
275.64	89.75
275.872	88.75
276.104	93.75
276.335	83.75
276.567	81.75
276.799	98.75
277.031	75.75
277.262	80.75
277.494	74.75
277.726	80.75
277.957	74.75
278.189	74.75
278.421	83.75
278.652	79.75
278.884	88.75
279.115	91.75
279.347	79.75
279.579	78.75
279.81	74.75
280.042	90.75
280.273	78.75
280.505	76.75
280.736	87.75
280.968	99.75
281.199	91.75
281.431	82.75
281.662	67.75
281.894	78.75
282.125	106.75
282.356	98.75
282.588	115.75
282.819	97.75
283.051	74.75
283.282	92.75
283.513	90.75
283.745	94.75
283.976	76.75
284.207	72.75
284.439	71.75
284.67	85.75
284.901	82.75
285.132	73.75
285.364	67.75
285.595	73.75
285.826	73.75
286.057	95.75
286.288	75.75
286.52	74.75
286.751	79.75
286.982	71.75
287.213	78.75
287.444	84.75
287.675	77.75
287.906	88.75
288.138	81.75
288.369	82.75
288.6	98.75
288.831	62.75
289.062	70.75
289.293	78.75
289.524	66.75
289.755	82.75
289.986	81.75
290.217	86.75
290.448	86.75
290.679	85.75
290.91	92.75
291.141	90.75
291.371	84.75
291.602	92.75
291.833	75.75
292.064	84.75
292.295	75.75
292.526	82.75
292.757	98.75
292.987	98.75
293.218	104.75
293.449	100.75
293.68	95.75
293.91	80.75
294.141	91.75
294.372	76.75
294.603	89.75
294.833	109.75
295.064	98.75
295.295	94.75
295.525	84.75
295.756	95.75
295.987	108.75
296.217	120.75
296.448	98.75
296.679	88.75
296.909	81.75
297.14	83.75
297.37	81.75
297.601	90.75
297.831	77.75
298.062	72.75
298.292	75.75
298.523	65.75
298.753	88.75
298.984	86.75
299.214	90.75
299.445	90.75
299.675	87.75
299.905	79.75
300.136	82.75
300.366	76.75
300.597	84.75
300.827	87.75
301.057	89.75
301.288	100.75
301.518	95.75
301.748	76.75
301.979	82.75
302.209	75.75
302.439	93.75
302.669	81.75
302.9	98.75
303.13	87.75
303.36	78.75
303.59	88.75
303.82	96.75
304.051	78.75
304.281	83.75
304.511	100.75
304.741	81.75
304.971	84.75
305.201	83.75
305.431	88.75
305.661	84.75
305.891	83.75
306.121	93.75
306.352	91.75
306.582	82.75
306.812	71.75
307.042	82.75
307.272	78.75
307.502	92.75
307.731	83.75
307.961	98.75
308.191	72.75
308.421	86.75
308.651	84.75
308.881	81.75
309.111	84.75
309.341	74.75
309.571	92.75
309.8	81.75
310.03	101.75
310.26	91.75
310.49	110.75
310.72	96.75
310.949	99.75
311.179	92.75
311.409	91.75
311.639	84.75
311.868	92.75
312.098	92.75
312.328	86.75
312.557	106.75
312.787	94.75
313.017	94.75
313.246	95.75
313.476	97.75
313.706	76.75
313.935	106.75
314.165	93.75
314.394	102.75
314.624	98.75
314.853	90.75
315.083	82.75
315.312	67.75
315.542	88.75
315.771	86.75
316.001	88.75
316.23	97.75
316.46	94.75
316.689	87.75
316.919	85.75
317.148	76.75
317.377	84.75
317.607	92.75
317.836	93.75
318.065	86.75
318.295	92.75
318.524	72.75
318.753	96.75
318.983	81.75
319.212	87.75
319.441	100.75
319.67	108.75
319.9	90.75
320.129	86.75
320.358	99.75
320.587	92.75
320.816	81.75
321.046	95.75
321.275	98.75
321.504	109.75
321.733	89.75
321.962	89.75
322.191	93.75
322.42	106.75
322.649	112.75
322.878	103.75
323.108	96.75
323.337	114.75
323.566	130.75
323.795	144.75
324.024	196.75
324.253	367.75
324.482	774.75
324.71	1590.75
324.939	2152.75
325.168	769.75
325.397	235.75
325.626	144.75
325.855	118.75
326.084	119.75
326.313	127.75
326.542	144.75
326.77	206.75
326.999	419.75
327.228	881.75
327.457	1630.75
327.686	1296.75
327.914	335.75
328.143	172.75
328.372	141.75
328.6	98.75
328.829	92.75
329.058	109.75
329.287	111.75
329.515	89.75
329.744	109.75
329.972	100.75
330.201	93.75
330.43	105.75
330.658	98.75
330.887	118.75
331.115	110.75
331.344	90.75
331.572	91.75
331.801	106.75
332.03	100.75
332.258	102.75
332.486	84.75
332.715	80.75
332.943	94.75
333.172	89.75
333.4	84.75
333.629	99.75
333.857	106.75
334.085	105.75
334.314	88.75
334.542	82.75
334.771	104.75
334.999	94.75
335.227	102.75
335.455	96.75
335.684	83.75
335.912	92.75
336.14	78.75
336.369	87.75
336.597	101.75
336.825	90.75
337.053	91.75
337.281	95.75
337.51	94.75
337.738	94.75
337.966	68.75
338.194	86.75
338.422	83.75
338.65	82.75
338.878	94.75
339.106	88.75
339.334	89.75
339.562	96.75
339.79	81.75
340.018	94.75
340.246	92.75
340.474	100.75
340.702	94.75
340.93	76.75
341.158	84.75
341.386	87.75
341.614	91.75
341.842	89.75
342.07	100.75
342.298	84.75
342.526	90.75
342.754	71.75
342.981	97.75
343.209	83.75
343.437	101.75
343.665	84.75
343.893	90.75
344.12	92.75
344.348	87.75
344.576	77.75
344.804	78.75
345.031	89.75
345.259	77.75
345.487	99.75
345.714	87.75
345.942	108.75
346.17	85.75
346.397	80.75
346.625	90.75
346.853	84.75
347.08	77.75
347.308	81.75
347.535	99.75
347.763	94.75
347.99	83.75
348.218	88.75
348.445	105.75
348.673	82.75
348.9	77.75
349.128	92.75
349.355	103.75
349.583	92.75
349.81	94.75
350.037	90.75
350.265	90.75
350.492	88.75
350.72	85.75
350.947	82.75
351.174	91.75
351.402	105.75
351.629	99.75
351.856	96.75
352.083	92.75
352.311	99.75
352.538	103.75
352.765	90.75
352.992	108.75
353.22	93.75
353.447	91.75
353.674	94.75
353.901	86.75
354.128	90.75
354.355	94.75
354.583	91.75
354.81	99.75
355.037	91.75
355.264	90.75
355.491	86.75
355.718	93.75
355.945	90.75
356.172	72.75
356.399	96.75
356.626	86.75
356.853	91.75
357.08	86.75
357.307	98.75
357.534	89.75
357.761	106.75
357.988	95.75
358.215	96.75
358.441	97.75
358.668	92.75
358.895	81.75
359.122	76.75
359.349	78.75
359.576	87.75
359.802	84.75
360.029	101.75
360.256	97.75
360.483	104.75
360.709	80.75
360.936	89.75
361.163	88.75
361.39	78.75
361.616	82.75
361.843	88.75
362.07	98.75
362.296	83.75
362.523	83.75
362.749	90.75
362.976	78.75
363.203	83.75
363.429	70.75
363.656	86.75
363.882	64.75
364.109	83.75
364.335	73.75
364.562	83.75
364.788	86.75
365.015	102.75
365.241	100.75
365.468	94.75
365.694	98.75
365.92	81.75
366.147	87.75
366.373	98.75
366.599	78.75
366.826	84.75
367.052	92.75
367.278	93.75
367.505	95.75
367.731	97.75
367.957	92.75
368.184	98.75
368.41	95.75
368.636	96.75
368.862	107.75
369.089	94.75
369.315	87.75
369.541	85.75
369.767	84.75
369.993	77.75
370.219	94.75
370.445	76.75
370.672	76.75
370.898	86.75
371.124	82.75
371.35	88.75
371.576	70.75
371.802	91.75
372.028	78.75
372.254	89.75
372.48	90.75
372.706	80.75
372.932	96.75
373.158	92.75
373.384	91.75
373.61	96.75
373.835	88.75
374.061	94.75
374.287	76.75
374.513	84.75
374.739	91.75
374.965	84.75
375.191	87.75
375.416	74.75
375.642	80.75
375.868	84.75
376.094	96.75
376.319	72.75
376.545	90.75
376.771	86.75
376.997	88.75
377.222	87.75
377.448	103.75
377.674	88.75
377.899	89.75
378.125	83.75
378.35	80.75
378.576	83.75
378.802	83.75
379.027	85.75
379.253	88.75
379.478	81.75
379.704	91.75
379.929	81.75
380.155	84.75
380.38	83.75
380.606	90.75
380.831	96.75
381.057	94.75
381.282	81.75
381.507	84.75
381.733	105.75
381.958	95.75
382.184	91.75
382.409	89.75
382.634	83.75
382.86	91.75
383.085	92.75
383.31	104.75
383.535	102.75
383.761	92.75
383.986	91.75
384.211	96.75
384.436	87.75
384.662	100.75
384.887	96.75
385.112	106.75
385.337	105.75
385.562	106.75
385.787	87.75
386.013	99.75
386.238	96.75
386.463	91.75
386.688	98.75
386.913	91.75
387.138	79.75
387.363	80.75
387.588	102.75
387.813	91.75
388.038	100.75
388.263	96.75
388.488	81.75
388.713	91.75
388.938	105.75
389.163	95.75
389.387	90.75
389.612	98.75
389.837	87.75
390.062	94.75
390.287	89.75
390.512	89.75
390.736	93.75
390.961	89.75
391.186	107.75
391.411	96.75
391.636	93.75
391.86	97.75
392.085	79.75
392.31	74.75
392.534	76.75
392.759	67.75
392.984	82.75
393.208	71.75
393.433	82.75
393.658	71.75
393.882	95.75
394.107	95.75
394.331	84.75
394.556	86.75
394.78	82.75
395.005	84.75
395.229	79.75
395.454	86.75
395.678	87.75
395.903	93.75
396.127	74.75
396.352	89.75
396.576	90.75
396.801	90.75
397.025	94.75
397.249	66.75
397.474	79.75
397.698	84.75
397.922	91.75
398.147	95.75
398.371	92.75
398.595	75.75
398.82	72.75
399.044	93.75
399.268	82.75
399.492	85.75
399.717	68.75
399.941	86.75
400.165	82.75
400.389	89.75
400.613	85.75
400.837	80.75
401.062	74.75
401.286	88.75
401.51	94.75
401.734	84.75
401.958	94.75
402.182	106.75
402.406	143.75
402.63	112.75
402.854	79.75
403.078	82.75
403.302	73.75
403.526	87.75
403.75	87.75
403.974	77.75
404.198	81.75
404.422	98.75
404.645	87.75
404.869	86.75
405.093	85.75
405.317	88.75
405.541	87.75
405.765	90.75
405.988	113.75
406.212	164.75
406.436	190.75
406.66	131.75
406.883	81.75
407.107	86.75
407.331	90.75
407.555	91.75
407.778	96.75
408.002	72.75
408.226	87.75
408.449	75.75
408.673	79.75
408.896	89.75
409.12	100.75
409.344	96.75
409.567	88.75
409.791	81.75
410.014	87.75
410.238	84.75
410.461	74.75
410.685	81.75
410.908	86.75
411.132	84.75
411.355	87.75
411.578	83.75
411.802	79.75
412.025	71.75
412.249	80.75
412.472	80.75
412.695	88.75
412.919	92.75
413.142	78.75
413.365	91.75
413.589	91.75
413.812	87.75
414.035	90.75
414.258	86.75
414.482	83.75
414.705	75.75
414.928	85.75
415.151	75.75
415.374	86.75
415.597	85.75
415.821	76.75
416.044	83.75
416.267	89.75
416.49	86.75
416.713	84.75
416.936	80.75
417.159	77.75
417.382	87.75
417.605	74.75
417.828	85.75
418.051	79.75
418.274	76.75
418.497	79.75
418.72	92.75
418.943	102.75
419.166	86.75
419.389	93.75
419.611	95.75
419.834	92.75
420.057	89.75
420.28	87.75
420.503	71.75
420.726	91.75
420.948	81.75
421.171	98.75
421.394	82.75
421.617	72.75
421.839	73.75
422.062	100.75
422.285	87.75
422.507	96.75
422.73	98.75
422.953	101.75
423.175	80.75
423.398	80.75
423.621	83.75
423.843	97.75
424.066	72.75
424.288	82.75
424.511	75.75
424.733	95.75
424.956	94.75
425.178	102.75
425.401	87.75
425.623	99.75
425.846	87.75
426.068	83.75
426.291	81.75
426.513	83.75
426.735	75.75
426.958	83.75
427.18	80.75
427.402	130.75
427.625	144.75
427.847	115.75
428.069	102.75
428.292	84.75
428.514	72.75
428.736	77.75
428.958	87.75
429.181	87.75
429.403	89.75
429.625	81.75
429.847	84.75
430.069	78.75
430.292	95.75
430.514	73.75
430.736	83.75
430.958	71.75
431.18	68.75
431.402	80.75
431.624	92.75
431.846	81.75
432.068	66.75
432.29	76.75
432.512	87.75
432.734	78.75
432.956	88.75
433.178	96.75
433.4	81.75
433.622	86.75
433.844	86.75
434.066	85.75
434.287	98.75
434.509	96.75
434.731	96.75
434.953	83.75
435.175	71.75
435.397	71.75
435.618	86.75
435.84	90.75
436.062	126.75
436.284	115.75
436.505	90.75
436.727	101.75
436.949	98.75
437.17	85.75
437.392	76.75
437.614	78.75
437.835	90.75
438.057	105.75
438.278	104.75
438.5	95.75
438.721	119.75
438.943	115.75
439.165	86.75
439.386	82.75
439.608	98.75
439.829	92.75
440.05	118.75
440.272	121.75
440.493	96.75
440.715	95.75
440.936	82.75
441.158	80.75
441.379	76.75
441.6	84.75
441.822	94.75
442.043	82.75
442.264	90.75
442.486	90.75
442.707	97.75
442.928	100.75
443.149	114.75
443.371	116.75
443.592	97.75
443.813	98.75
444.034	101.75
444.255	86.75
444.476	81.75
444.698	75.75
444.919	91.75
445.14	120.75
445.361	108.75
445.582	121.75
445.803	129.75
446.024	124.75
446.245	115.75
446.466	104.75
446.687	95.75
446.908	81.75
447.129	89.75
447.35	86.75
447.571	80.75
447.792	70.75
448.013	92.75
448.234	104.75
448.455	86.75
448.675	111.75
448.896	107.75
449.117	93.75
449.338	86.75
449.559	121.75
449.779	127.75
450	85.75
450.221	87.75
450.442	75.75
450.662	83.75
450.883	87.75
451.104	105.75
451.324	82.75
451.545	78.75
451.766	76.75
451.986	82.75
452.207	81.75
452.428	98.75
452.648	91.75
452.869	93.75
453.089	105.75
453.31	110.75
453.53	97.75
453.751	76.75
453.971	102.75
454.192	105.75
454.412	89.75
454.633	90.75
454.853	87.75
455.073	72.75
455.294	90.75
455.514	106.75
455.734	83.75
455.955	82.75
456.175	80.75
456.395	85.75
456.616	81.75
456.836	81.75
457.056	86.75
457.276	78.75
457.497	75.75
457.717	81.75
457.937	67.75
458.157	75.75
458.377	79.75
458.598	104.75
458.818	112.75
459.038	138.75
459.258	112.75
459.478	73.75
459.698	84.75
459.918	93.75
460.138	75.75
460.358	78.75
460.578	82.75
460.798	85.75
461.018	87.75
461.238	89.75
461.458	71.75
461.678	83.75
461.898	71.75
462.118	67.75
462.338	71.75
462.558	85.75
462.777	91.75
462.997	80.75
463.217	88.75
463.437	80.75
463.657	76.75
463.876	105.75
464.096	78.75
464.316	83.75
464.536	90.75
464.755	90.75
464.975	97.75
465.195	136.75
465.414	130.75
465.634	91.75
465.854	87.75
466.073	73.75
466.293	94.75
466.512	89.75
466.732	61.75
466.951	72.75
467.171	99.75
467.391	93.75
467.61	90.75
467.829	79.75
468.049	83.75
468.268	83.75
468.488	102.75
468.707	81.75
468.927	91.75
469.146	82.75
469.365	76.75
469.585	88.75
469.804	93.75
470.023	90.75
470.243	91.75
470.462	86.75
470.681	94.75
470.901	90.75
471.12	92.75
471.339	88.75
471.558	80.75
471.777	72.75
471.997	71.75
472.216	67.75
472.435	98.75
472.654	86.75
472.873	83.75
473.092	75.75
473.311	80.75
473.53	88.75
473.749	81.75
473.968	88.75
474.187	89.75
474.406	91.75
474.625	82.75
474.844	73.75
475.063	91.75
475.282	83.75
475.501	88.75
475.72	90.75
475.939	89.75
476.158	84.75
476.377	81.75
476.596	86.75
476.814	64.75
477.033	94.75
477.252	89.75
477.471	89.75
477.69	82.75
477.908	88.75
478.127	78.75
478.346	67.75
478.564	72.75
478.783	75.75
479.002	72.75
479.22	80.75
479.439	96.75
479.658	103.75
479.876	94.75
480.095	86.75
480.313	79.75
480.532	79.75
480.751	88.75
480.969	82.75
481.188	91.75
481.406	105.75
481.624	83.75
481.843	76.75
482.061	82.75
482.28	82.75
482.498	90.75
482.717	83.75
482.935	70.75
483.153	84.75
483.372	92.75
483.59	87.75
483.808	76.75
484.027	84.75
484.245	86.75
484.463	91.75
484.681	90.75
484.9	81.75
485.118	87.75
485.336	89.75
485.554	83.75
485.772	94.75
485.99	109.75
486.209	92.75
486.427	108.75
486.645	100.75
486.863	112.75
487.081	101.75
487.299	84.75
487.517	79.75
487.735	87.75
487.953	84.75
488.171	95.75
488.389	90.75
488.607	81.75
488.825	83.75
489.043	85.75
489.261	91.75
489.479	66.75
489.696	81.75
489.914	82.75
490.132	96.75
490.35	94.75
490.568	75.75
490.786	80.75
491.003	82.75
491.221	89.75
491.439	86.75
491.657	83.75
491.874	77.75
492.092	80.75
492.31	100.75
492.527	82.75
492.745	77.75
492.963	88.75
493.18	81.75
493.398	78.75
493.615	93.75
493.833	87.75
494.05	72.75
494.268	75.75
494.485	98.75
494.703	84.75
494.92	79.75
495.138	75.75
495.355	92.75
495.573	82.75
495.79	78.75
496.008	90.75
496.225	95.75
496.442	84.75
496.66	89.75
496.877	79.75
497.094	77.75
497.312	99.75
497.529	96.75
497.746	76.75
497.963	96.75
498.181	80.75
498.398	94.75
498.615	88.75
498.832	95.75
499.049	89.75
499.267	87.75
499.484	78.75
499.701	74.75
499.918	82.75
500.135	89.75
500.352	88.75
500.569	92.75
500.786	83.75
501.003	82.75
501.22	91.75
501.437	93.75
501.654	73.75
501.871	94.75
502.088	79.75
502.305	81.75
502.522	84.75
502.739	88.75
502.956	82.75
503.172	82.75
503.389	84.75
503.606	94.75
503.823	89.75
504.04	81.75
504.256	82.75
504.473	72.75
504.69	58.75
504.907	73.75
505.123	88.75
505.34	74.75
505.557	90.75
505.773	92.75
505.99	89.75
506.207	80.75
506.423	81.75
506.64	92.75
506.856	89.75
507.073	82.75
507.289	98.75
507.506	96.75
507.722	109.75
507.939	105.75
508.155	79.75
508.372	88.75
508.588	71.75
508.805	98.75
509.021	102.75
509.238	114.75
509.454	99.75
509.67	97.75
509.887	95.75
510.103	112.75
510.319	186.75
510.536	615.75
510.752	1901.75
510.968	530.75
511.184	139.75
511.401	100.75
511.617	82.75
511.833	91.75
512.049	87.75
512.265	78.75
512.481	74.75
512.698	92.75
512.914	101.75
513.13	106.75
513.346	86.75
513.562	92.75
513.778	87.75
513.994	100.75
514.21	94.75
514.426	96.75
514.642	102.75
514.858	118.75
515.074	152.75
515.29	372.75
515.506	1236.75
515.721	471.75
515.937	136.75
516.153	104.75
516.369	96.75
516.585	78.75
516.801	94.75
517.016	85.75
517.232	86.75
517.448	95.75
517.664	95.75
517.879	60.75
518.095	78.75
518.311	88.75
518.527	94.75
518.742	91.75
518.958	87.75
519.173	94.75
519.389	92.75
519.605	81.75
519.82	99.75
520.036	106.75
520.251	96.75
520.467	105.75
520.682	103.75
520.898	108.75
521.113	91.75
521.329	139.75
521.544	182.75
521.76	502.75
521.975	2042.75
522.19	1210.75
522.406	257.75
522.621	110.75
522.836	94.75
523.052	89.75
523.267	98.75
523.482	90.75
523.698	76.75
523.913	114.75
524.128	108.75
524.343	99.75
524.559	86.75
524.774	99.75
524.989	96.75
525.204	86.75
525.419	99.75
525.634	80.75
525.849	84.75
526.064	103.75
526.28	80.75
526.495	98.75
526.71	78.75
526.925	87.75
527.14	80.75
527.355	88.75
527.57	79.75
527.785	103.75
527.999	87.75
528.214	82.75
528.429	89.75
528.644	96.75
528.859	81.75
529.074	88.75
529.289	121.75
529.503	162.75
529.718	92.75
529.933	85.75
530.148	77.75
530.363	94.75
530.577	85.75
530.792	98.75
531.007	90.75
531.221	89.75
531.436	69.75
531.651	91.75
531.865	86.75
532.08	107.75
532.295	81.75
532.509	95.75
532.724	95.75
532.938	91.75
533.153	103.75
533.367	76.75
533.582	78.75
533.796	94.75
534.011	88.75
534.225	100.75
534.44	81.75
534.654	88.75
534.868	78.75
535.083	90.75
535.297	100.75
535.511	89.75
535.726	88.75
535.94	91.75
536.154	90.75
536.369	88.75
536.583	82.75
536.797	99.75
537.011	100.75
537.225	88.75
537.44	84.75
537.654	93.75
537.868	88.75
538.082	85.75
538.296	92.75
538.51	88.75
538.724	92.75
538.938	88.75
539.153	82.75
539.367	97.75
539.581	85.75
539.795	89.75
540.009	82.75
540.222	86.75
540.436	90.75
540.65	91.75
540.864	87.75
541.078	93.75
541.292	100.75
541.506	84.75
541.72	80.75
541.934	83.75
542.147	81.75
542.361	91.75
542.575	84.75
542.789	85.75
543.002	82.75
543.216	88.75
543.43	92.75
543.644	83.75
543.857	96.75
544.071	83.75
544.285	79.75
544.498	81.75
544.712	97.75
544.925	93.75
545.139	84.75
545.352	79.75
545.566	91.75
545.779	77.75
545.993	83.75
546.206	83.75
546.42	87.75
546.633	84.75
546.847	90.75
547.06	93.75
547.274	75.75
547.487	80.75
547.7	78.75
547.914	77.75
548.127	81.75
548.34	82.75
548.554	74.75
548.767	83.75
548.98	99.75
549.193	83.75
549.407	90.75
549.62	67.75
549.833	91.75
550.046	104.75
550.259	79.75
550.473	89.75
550.686	88.75
550.899	92.75
551.112	99.75
551.325	74.75
551.538	91.75
551.751	92.75
551.964	101.75
552.177	84.75
552.39	99.75
552.603	86.75
552.816	88.75
553.029	80.75
553.242	88.75
553.455	88.75
553.667	98.75
553.88	88.75
554.093	85.75
554.306	94.75
554.519	83.75
554.732	81.75
554.944	71.75
555.157	92.75
555.37	76.75
555.583	81.75
555.795	81.75
556.008	84.75
556.221	80.75
556.433	95.75
556.646	84.75
556.859	94.75
557.071	86.75
557.284	76.75
557.496	97.75
557.709	83.75
557.921	81.75
558.134	83.75
558.346	78.75
558.559	93.75
558.771	91.75
558.984	89.75
559.196	83.75
559.409	81.75
559.621	82.75
559.833	99.75
560.046	86.75
560.258	83.75
560.47	80.75
560.683	89.75
560.895	74.75
561.107	79.75
561.32	84.75
561.532	88.75
561.744	89.75
561.956	101.75
562.168	91.75
562.381	85.75
562.593	82.75
562.805	64.75
563.017	86.75
563.229	76.75
563.441	78.75
563.653	91.75
563.865	90.75
564.077	85.75
564.289	78.75
564.501	90.75
564.713	86.75
564.925	93.75
565.137	98.75
565.349	76.75
565.561	85.75
565.773	84.75
565.985	78.75
566.197	82.75
566.408	95.75
566.62	80.75
566.832	114.75
567.044	79.75
567.255	87.75
567.467	89.75
567.679	75.75
567.891	86.75
568.102	92.75
568.314	97.75
568.526	73.75
568.737	83.75
568.949	92.75
569.161	79.75
569.372	88.75
569.584	87.75
569.795	91.75
570.007	116.75
570.218	202.75
570.43	134.75
570.641	86.75
570.853	80.75
571.064	88.75
571.276	94.75
571.487	79.75
571.698	101.75
571.91	78.75
572.121	84.75
572.333	92.75
572.544	98.75
572.755	73.75
572.966	79.75
573.178	92.75
573.389	96.75
573.6	90.75
573.811	89.75
574.023	90.75
574.234	77.75
574.445	87.75
574.656	81.75
574.867	74.75
575.078	83.75
575.289	81.75
575.501	90.75
575.712	86.75
575.923	94.75
576.134	95.75
576.345	100.75
576.556	86.75
576.767	100.75
576.978	89.75
577.188	81.75
577.399	88.75
577.61	80.75
577.821	93.75
578.032	109.75
578.243	246.75
578.454	656.75
578.665	182.75
578.875	97.75
579.086	93.75
579.297	97.75
579.508	98.75
579.718	68.75
579.929	74.75
580.14	87.75
580.35	78.75
580.561	80.75
580.772	97.75
580.982	88.75
581.193	92.75
581.403	80.75
581.614	77.75
581.825	83.75
582.035	77.75
582.246	96.75
582.456	80.75
582.667	89.75
582.877	80.75
583.087	84.75
583.298	85.75
583.508	99.75
583.719	82.75
583.929	87.75
584.139	78.75
584.35	87.75
584.56	92.75
584.77	89.75
584.981	83.75
585.191	86.75
585.401	78.75
585.611	80.75
585.821	95.75
586.032	81.75
586.242	86.75
586.452	74.75
586.662	94.75
586.872	80.75
587.082	67.75
587.292	90.75
587.502	74.75
587.713	82.75
587.923	85.75
588.133	98.75
588.343	78.75
588.553	92.75
588.762	90.75
588.972	86.75
589.182	89.75
589.392	89.75
589.602	76.75
589.812	87.75
590.022	76.75
590.232	78.75
590.441	77.75
590.651	75.75
590.861	89.75
591.071	75.75
591.281	89.75
591.49	76.75
591.7	88.75
591.91	79.75
592.119	93.75
592.329	76.75
592.539	76.75
592.748	81.75
592.958	74.75
593.167	70.75
593.377	87.75
593.587	83.75
593.796	85.75
594.006	91.75
594.215	83.75
594.424	86.75
594.634	80.75
594.843	81.75
595.053	78.75
595.262	86.75
595.472	88.75
595.681	82.75
595.89	76.75
596.1	79.75
596.309	87.75
596.518	80.75
596.727	91.75
596.937	93.75
597.146	82.75
597.355	88.75
597.564	84.75
597.774	78.75
597.983	86.75
598.192	82.75
598.401	81.75
598.61	82.75
598.819	81.75
599.028	91.75
599.237	67.75
599.446	84.75
599.655	76.75
599.864	86.75
600.073	72.75
600.282	80.75
600.491	98.75
600.7	75.75
600.909	80.75
601.118	100.75
601.327	94.75
601.536	85.75
601.745	70.75
601.953	90.75
602.162	85.75
602.371	86.75
602.58	81.75
602.789	84.75
602.997	78.75
603.206	88.75
603.415	79.75
603.623	77.75
603.832	88.75
604.041	100.75
604.249	68.75
604.458	95.75
604.666	85.75
604.875	80.75
605.084	67.75
605.292	79.75
605.501	90.75
605.709	73.75
605.918	74.75
606.126	79.75
606.334	78.75
606.543	72.75
606.751	71.75
606.96	77.75
607.168	78.75
607.376	81.75
607.585	88.75
607.793	83.75
608.001	84.75
608.21	68.75
608.418	71.75
608.626	86.75
608.834	81.75
609.043	74.75
609.251	66.75
609.459	91.75
609.667	100.75
609.875	85.75
610.083	86.75
610.291	75.75
610.499	66.75
610.707	74.75
610.916	100.75
611.124	75.75
611.332	95.75
611.54	89.75
611.748	78.75
611.955	76.75
612.163	79.75
612.371	82.75
612.579	80.75
612.787	77.75
612.995	79.75
613.203	81.75
613.411	76.75
613.618	91.75
613.826	91.75
614.034	87.75
614.242	87.75
614.449	81.75
614.657	86.75
614.865	70.75
615.072	77.75
615.28	82.75
615.488	87.75
615.695	79.75
615.903	98.75
616.111	108.75
616.318	112.75
616.526	102.75
616.733	91.75
616.941	92.75
617.148	83.75
617.356	89.75
617.563	98.75
617.771	87.75
617.978	84.75
618.185	72.75
618.393	82.75
618.6	80.75
618.807	83.75
619.015	75.75
619.222	88.75
619.429	82.75
619.637	79.75
619.844	68.75
620.051	88.75
620.258	85.75
620.466	89.75
620.673	86.75
620.88	90.75
621.087	98.75
621.294	84.75
621.501	87.75
621.708	78.75
621.915	66.75
622.122	80.75
622.329	85.75
622.536	83.75
622.743	75.75
622.95	79.75
623.157	78.75
623.364	83.75
623.571	79.75
623.778	81.75
623.985	67.75
624.192	81.75
624.399	78.75
624.606	72.75
624.812	75.75
625.019	83.75
625.226	78.75
625.433	76.75
625.639	73.75
625.846	68.75
626.053	89.75
626.259	71.75
626.466	87.75
626.673	65.75
626.879	82.75
627.086	70.75
627.293	72.75
627.499	86.75
627.706	74.75
627.912	81.75
628.119	71.75
628.325	92.75
628.532	90.75
628.738	67.75
628.945	74.75
629.151	85.75
629.357	84.75
629.564	67.75
629.77	63.75
629.976	74.75
630.183	95.75
630.389	79.75
630.595	80.75
630.802	93.75
631.008	77.75
631.214	81.75
631.42	96.75
631.627	82.75
631.833	82.75
632.039	81.75
632.245	86.75
632.451	78.75
632.657	88.75
632.863	82.75
633.069	82.75
633.275	80.75
633.481	86.75
633.688	87.75
633.893	93.75
634.099	68.75
634.305	74.75
634.511	59.75
634.717	86.75
634.923	84.75
635.129	76.75
635.335	80.75
635.541	75.75
635.747	74.75
635.952	78.75
636.158	96.75
636.364	76.75
636.57	78.75
636.775	81.75
636.981	71.75
637.187	87.75
637.392	72.75
637.598	71.75
637.804	77.75
638.009	86.75
638.215	68.75
638.421	78.75
638.626	83.75
638.832	91.75
639.037	67.75
639.243	74.75
639.448	90.75
639.654	92.75
639.859	88.75
640.065	66.75
640.27	77.75
640.475	92.75
640.681	69.75
640.886	80.75
641.091	86.75
641.297	78.75
641.502	82.75
641.707	80.75
641.913	54.75
642.118	82.75
642.323	74.75
642.528	83.75
642.733	95.75
642.939	84.75
643.144	83.75
643.349	74.75
643.554	81.75
643.759	78.75
643.964	90.75
644.169	82.75
644.374	83.75
644.579	91.75
644.784	92.75
644.989	74.75
645.194	94.75
645.399	94.75
645.604	91.75
645.809	90.75
646.014	86.75
646.219	88.75
646.423	83.75
646.628	92.75
646.833	74.75
647.038	75.75
647.243	75.75
647.447	79.75
647.652	81.75
647.857	82.75
648.062	76.75
648.266	57.75
648.471	87.75
648.676	76.75
648.88	99.75
649.085	92.75
649.289	87.75
649.494	95.75
649.698	126.75
649.903	104.75
650.107	91.75
650.312	90.75
650.516	88.75
650.721	72.75
650.925	72.75
651.13	90.75
651.334	86.75
651.539	80.75
651.743	79.75
651.947	74.75
652.152	86.75
652.356	82.75
652.56	86.75
652.764	79.75
652.969	83.75
653.173	86.75
653.377	72.75
653.581	98.75
653.785	82.75
653.99	76.75
654.194	70.75
654.398	62.75
654.602	66.75
654.806	76.75
655.01	91.75
655.214	88.75
655.418	82.75
655.622	89.75
655.826	91.75
656.03	86.75
656.234	102.75
656.438	95.75
656.642	86.75
656.846	86.75
657.049	87.75
657.253	94.75
657.457	75.75
657.661	82.75
657.865	76.75
658.068	75.75
658.272	87.75
658.476	74.75
658.68	86.75
658.883	76.75
659.087	72.75
659.291	75.75
659.494	72.75
659.698	76.75
659.901	65.75
660.105	78.75
660.309	71.75
660.512	73.75
660.716	68.75
660.919	72.75
661.123	80.75
661.326	85.75
661.53	81.75
661.733	69.75
661.936	97.75
662.14	78.75
662.343	75.75
662.546	70.75
662.75	76.75
662.953	70.75
663.156	72.75
663.36	68.75
663.563	71.75
663.766	85.75
663.969	86.75
664.173	77.75
664.376	89.75
664.579	77.75
664.782	84.75
664.985	83.75
665.188	82.75
665.391	94.75
665.594	94.75
665.797	86.75
666	88.75
666.203	86.75
666.406	86.75
666.609	91.75
666.812	85.75
667.015	87.75
667.218	83.75
667.421	79.75
667.624	72.75
667.827	86.75
668.03	74.75
668.232	81.75
668.435	74.75
668.638	76.75
668.841	82.75
669.043	80.75
669.246	89.75
669.449	78.75
669.651	75.75
669.854	77.75
670.057	71.75
670.259	81.75
670.462	76.75
670.665	78.75
670.867	82.75
671.07	80.75
671.272	65.75
671.475	86.75
671.677	77.75
671.88	75.75
672.082	83.75
672.284	71.75
672.487	78.75
672.689	86.75
672.892	68.75
