Data from Uncirc_1991_H10_HRD10591_00072.txt Node
Date: Wed Jan 03 11:50:52 EST 2024
User: Yrep
Spectrometer: HR+D1059
Trigger mode: 1
Integration Time (sec): 1.000000E-1
Scans to average: 1
Electric dark correction enabled: true
Nonlinearity correction enabled: false
Boxcar width: 0
XAxis mode: Wavelengths
Number of Pixels in Spectrum: 2048
>>>>>Begin Spectral Data<<<<<
223.165	-6.88
223.4	-6.88
223.635	-6.88
223.869	-14.88
224.104	-21.88
224.338	-22.88
224.573	-8.88
224.808	-10.88
225.042	-5.88
225.277	-6.88
225.511	-8.88
225.746	-6.88
225.98	-2.88
226.215	14.12
226.449	28.12
226.683	20.12
226.918	27.12
227.152	28.12
227.387	30.12
227.621	43.12
227.856	40.12
228.09	48.12
228.324	62.12
228.559	46.12
228.793	158.12
229.027	503.12
229.262	574.12
229.496	700.12
229.73	957.12
229.964	950.12
230.199	628.12
230.433	545.12
230.667	508.12
230.901	498.12
231.136	481.12
231.37	480.12
231.604	497.12
231.838	496.12
232.072	494.12
232.306	515.12
232.541	499.12
232.775	490.12
233.009	505.12
233.243	508.12
233.477	527.12
233.711	517.12
233.945	540.12
234.179	566.12
234.413	559.12
234.647	545.12
234.881	553.12
235.115	584.12
235.349	586.12
235.583	617.12
235.817	653.12
236.051	730.12
236.285	675.12
236.519	650.12
236.753	757.12
236.987	1030.12
237.221	1589.12
237.455	1762.12
237.689	1037.12
237.922	827.12
238.156	785.12
238.39	749.12
238.624	712.12
238.858	684.12
239.091	702.12
239.325	714.12
239.559	732.12
239.793	774.12
240.027	836.12
240.26	1031.12
240.494	1114.12
240.728	1119.12
240.961	1016.12
241.195	902.12
241.429	868.12
241.662	848.12
241.896	864.12
242.13	836.12
242.363	834.12
242.597	841.12
242.83	902.12
243.064	883.12
243.298	900.12
243.531	876.12
243.765	884.12
243.998	909.12
244.232	910.12
244.465	942.12
244.699	964.12
244.932	979.12
245.166	947.12
245.399	993.12
245.633	964.12
245.866	969.12
246.099	1000.12
246.333	994.12
246.566	1018.12
246.8	1037.12
247.033	1099.12
247.266	1105.12
247.5	1212.12
247.733	1294.12
247.966	1285.12
248.2	1236.12
248.433	1253.12
248.666	1329.12
248.899	1506.12
249.133	1618.12
249.366	1621.12
249.599	1477.12
249.832	1314.12
250.066	1294.12
250.299	1339.12
250.532	1430.12
250.765	1693.12
250.998	1958.12
251.231	1819.12
251.465	1628.12
251.698	1574.12
251.931	1514.12
252.164	1499.12
252.397	1537.12
252.63	1584.12
252.863	1736.12
253.096	1897.12
253.329	1985.12
253.562	1817.12
253.795	1740.12
254.028	1708.12
254.261	1798.12
254.494	2020.12
254.727	2465.12
254.96	2555.12
255.193	2185.12
255.426	1928.12
255.659	1814.12
255.892	1693.12
256.124	1674.12
256.357	1641.12
256.59	1622.12
256.823	1614.12
257.056	1620.12
257.289	1620.12
257.521	1659.12
257.754	1685.12
257.987	1618.12
258.22	1610.12
258.452	1654.12
258.685	1693.12
258.918	1674.12
259.151	1766.12
259.383	1849.12
259.616	1870.12
259.849	1932.12
260.081	2161.12
260.314	2395.12
260.547	2275.12
260.779	2065.12
261.012	1914.12
261.244	1912.12
261.477	1860.12
261.71	1832.12
261.942	1911.12
262.175	1944.12
262.407	1880.12
262.64	1796.12
262.872	1787.12
263.105	1793.12
263.337	1828.12
263.57	1759.12
263.802	1766.12
264.035	1765.12
264.267	1773.12
264.499	1787.12
264.732	1777.12
264.964	1829.12
265.197	1838.12
265.429	1836.12
265.661	1828.12
265.894	1835.12
266.126	1868.12
266.358	1839.12
266.591	1922.12
266.823	2028.12
267.055	2009.12
267.287	2022.12
267.52	1993.12
267.752	1968.12
267.984	2000.12
268.216	2036.12
268.448	2063.12
268.681	2163.12
268.913	2279.12
269.145	2564.12
269.377	2661.12
269.609	2540.12
269.841	2516.12
270.073	2635.12
270.306	3004.12
270.538	3157.12
270.77	2948.12
271.002	2778.12
271.234	2760.12
271.466	2928.12
271.698	3085.12
271.93	3054.12
272.162	3062.12
272.394	2947.12
272.626	2767.12
272.858	2610.12
273.09	2534.12
273.322	2506.12
273.553	2394.12
273.785	2388.12
274.017	2378.12
274.249	2400.12
274.481	2422.12
274.713	2424.12
274.945	2461.12
275.176	2412.12
275.408	2453.12
275.64	2421.12
275.872	2414.12
276.104	2470.12
276.335	2502.12
276.567	2643.12
276.799	2795.12
277.031	3082.12
277.262	3171.12
277.494	3004.12
277.726	2805.12
277.957	2632.12
278.189	2627.12
278.421	2552.12
278.652	2568.12
278.884	2564.12
279.115	2508.12
279.347	2525.12
279.579	2490.12
279.81	2483.12
280.042	2496.12
280.273	2554.12
280.505	2531.12
280.736	2539.12
280.968	2555.12
281.199	2571.12
281.431	2576.12
281.662	2582.12
281.894	2633.12
282.125	2680.12
282.356	2832.12
282.588	3022.12
282.819	2828.12
283.051	2732.12
283.282	2653.12
283.513	2707.12
283.745	2790.12
283.976	2802.12
284.207	2779.12
284.439	2756.12
284.67	2790.12
284.901	2747.12
285.132	2783.12
285.364	2754.12
285.595	2774.12
285.826	2788.12
286.057	2803.12
286.288	2767.12
286.52	2778.12
286.751	2840.12
286.982	2808.12
287.213	2849.12
287.444	2860.12
287.675	2927.12
287.906	3101.12
288.138	3119.12
288.369	3067.12
288.6	3088.12
288.831	2974.12
289.062	2988.12
289.293	2927.12
289.524	2916.12
289.755	2958.12
289.986	2923.12
290.217	2901.12
290.448	2964.12
290.679	2922.12
290.91	2911.12
291.141	2907.12
291.371	2913.12
291.602	2965.12
291.833	2930.12
292.064	2907.12
292.295	2962.12
292.526	2943.12
292.757	2968.12
292.987	2873.12
293.218	2965.12
293.449	3009.12
293.68	2929.12
293.91	2911.12
294.141	2986.12
294.372	2928.12
294.603	2967.12
294.833	2975.12
295.064	3009.12
295.295	2976.12
295.525	2955.12
295.756	3081.12
295.987	3227.12
296.217	3374.12
296.448	3284.12
296.679	3095.12
296.909	3070.12
297.14	3097.12
297.37	3150.12
297.601	3186.12
297.831	3144.12
298.062	3134.12
298.292	3182.12
298.523	3151.12
298.753	3252.12
298.984	3182.12
299.214	3196.12
299.445	3195.12
299.675	3272.12
299.905	3311.12
300.136	3263.12
300.366	3236.12
300.597	3303.12
300.827	3413.12
301.057	3469.12
301.288	3533.12
301.518	3485.12
301.748	3465.12
301.979	3505.12
302.209	3500.12
302.439	3544.12
302.669	3452.12
302.9	3418.12
303.13	3465.12
303.36	3488.12
303.59	3520.12
303.82	3532.12
304.051	3468.12
304.281	3449.12
304.511	3376.12
304.741	3424.12
304.971	3440.12
305.201	3408.12
305.431	3342.12
305.661	3391.12
305.891	3312.12
306.121	3362.12
306.352	3468.12
306.582	3460.12
306.812	3348.12
307.042	3391.12
307.272	3391.12
307.502	3430.12
307.731	3410.12
307.961	3397.12
308.191	3425.12
308.421	3355.12
308.651	3429.12
308.881	3459.12
309.111	3487.12
309.341	3491.12
309.571	3644.12
309.8	3660.12
310.03	3736.12
310.26	3844.12
310.49	3788.12
310.72	3955.12
310.949	4057.12
311.179	3996.12
311.409	3794.12
311.639	3802.12
311.868	3880.12
312.098	3858.12
312.328	3955.12
312.557	4189.12
312.787	4230.12
313.017	4137.12
313.246	3977.12
313.476	3892.12
313.706	3949.12
313.935	4057.12
314.165	4220.12
314.394	4251.12
314.624	4200.12
314.853	4013.12
315.083	4021.12
315.312	3890.12
315.542	3822.12
315.771	3805.12
316.001	3859.12
316.23	3802.12
316.46	3800.12
316.689	3867.12
316.919	3918.12
317.148	3961.12
317.377	3933.12
317.607	3950.12
317.836	3869.12
318.065	3804.12
318.295	3741.12
318.524	3812.12
318.753	3708.12
318.983	3855.12
319.212	3842.12
319.441	3918.12
319.67	3903.12
319.9	3832.12
320.129	3856.12
320.358	3923.12
320.587	3873.12
320.816	3968.12
321.046	3988.12
321.275	3978.12
321.504	3987.12
321.733	4067.12
321.962	4101.12
322.191	4277.12
322.42	4394.12
322.649	4465.12
322.878	4592.12
323.108	4576.12
323.337	4808.12
323.566	5069.12
323.795	5382.12
324.024	6070.12
324.253	8052.12
324.482	12191.12
324.71	15622.12
324.939	15622.12
325.168	14299.12
325.397	7242.12
325.626	5645.12
325.855	5138.12
326.084	4986.12
326.313	5047.12
326.542	5150.12
326.77	5996.12
326.999	7617.12
327.228	11410.12
327.457	15381.12
327.686	14959.12
327.914	8154.12
328.143	6258.12
328.372	5949.12
328.6	5638.12
328.829	5656.12
329.058	5897.12
329.287	5834.12
329.515	5275.12
329.744	5009.12
329.972	5036.12
330.201	5160.12
330.43	5462.12
330.658	5966.12
330.887	6341.12
331.115	5921.12
331.344	5349.12
331.572	5148.12
331.801	5240.12
332.03	5227.12
332.258	5186.12
332.486	5114.12
332.715	5186.12
332.943	5400.12
333.172	5348.12
333.4	5621.12
333.629	5654.12
333.857	5784.12
334.085	5570.12
334.314	5500.12
334.542	5561.12
334.771	5541.12
334.999	5371.12
335.227	5333.12
335.455	5282.12
335.684	5172.12
335.912	5075.12
336.14	5038.12
336.369	5089.12
336.597	5198.12
336.825	5084.12
337.053	5030.12
337.281	4943.12
337.51	4878.12
337.738	4874.12
337.966	4885.12
338.194	4794.12
338.422	4827.12
338.65	4663.12
338.878	4728.12
339.106	4639.12
339.334	4636.12
339.562	4582.12
339.79	4581.12
340.018	4588.12
340.246	4575.12
340.474	4672.12
340.702	4581.12
340.93	4603.12
341.158	4559.12
341.386	4586.12
341.614	4550.12
341.842	4534.12
342.07	4525.12
342.298	4467.12
342.526	4473.12
342.754	4391.12
342.981	4445.12
343.209	4524.12
343.437	4801.12
343.665	5003.12
343.893	5276.12
344.12	5210.12
344.348	5055.12
344.576	4892.12
344.804	4910.12
345.031	4821.12
345.259	4852.12
345.487	4651.12
345.714	4558.12
345.942	4452.12
346.17	4401.12
346.397	4364.12
346.625	4357.12
346.853	4351.12
347.08	4296.12
347.308	4392.12
347.535	4500.12
347.763	4565.12
347.99	4447.12
348.218	4511.12
348.445	4555.12
348.673	4484.12
348.9	4345.12
349.128	4250.12
349.355	4238.12
349.583	4180.12
349.81	4220.12
350.037	4193.12
350.265	4157.12
350.492	4125.12
350.72	4221.12
350.947	4217.12
351.174	4364.12
351.402	4438.12
351.629	4376.12
351.856	4333.12
352.083	4454.12
352.311	4546.12
352.538	4472.12
352.765	4469.12
352.992	4290.12
353.22	4367.12
353.447	4231.12
353.674	4193.12
353.901	4169.12
354.128	4074.12
354.355	4048.12
354.583	4064.12
354.81	4119.12
355.037	4089.12
355.264	4002.12
355.491	4021.12
355.718	4018.12
355.945	4060.12
356.172	4064.12
356.399	4083.12
356.626	3996.12
356.853	4086.12
357.08	3997.12
357.307	4032.12
357.534	4066.12
357.761	4110.12
357.988	4106.12
358.215	4070.12
358.441	4011.12
358.668	4090.12
358.895	4193.12
359.122	4150.12
359.349	4244.12
359.576	4496.12
359.802	4740.12
360.029	4907.12
360.256	4945.12
360.483	4666.12
360.709	4393.12
360.936	4408.12
361.163	4440.12
361.39	4378.12
361.616	4414.12
361.843	4350.12
362.07	4366.12
362.296	4375.12
362.523	4315.12
362.749	4318.12
362.976	4203.12
363.203	4184.12
363.429	4178.12
363.656	4217.12
363.882	4180.12
364.109	4144.12
364.335	4117.12
364.562	4184.12
364.788	4163.12
365.015	4193.12
365.241	4178.12
365.468	4238.12
365.694	4312.12
365.92	4238.12
366.147	4185.12
366.373	4128.12
366.599	4104.12
366.826	4148.12
367.052	4084.12
367.278	4185.12
367.505	4190.12
367.731	4182.12
367.957	4230.12
368.184	4209.12
368.41	4385.12
368.636	4370.12
368.862	4416.12
369.089	4324.12
369.315	4349.12
369.541	4265.12
369.767	4198.12
369.993	4287.12
370.219	4305.12
370.445	4274.12
370.672	4318.12
370.898	4302.12
371.124	4345.12
371.35	4398.12
371.576	4292.12
371.802	4336.12
372.028	4300.12
372.254	4374.12
372.48	4421.12
372.706	4501.12
372.932	4549.12
373.158	4460.12
373.384	4441.12
373.61	4376.12
373.835	4474.12
374.061	4415.12
374.287	4556.12
374.513	4599.12
374.739	4710.12
374.965	4830.12
375.191	4795.12
375.416	4750.12
375.642	4555.12
375.868	4561.12
376.094	4449.12
376.319	4433.12
376.545	4441.12
376.771	4434.12
376.997	4379.12
377.222	4386.12
377.448	4354.12
377.674	4372.12
377.899	4352.12
378.125	4330.12
378.35	4314.12
378.576	4317.12
378.802	4345.12
379.027	4327.12
379.253	4331.12
379.478	4338.12
379.704	4336.12
379.929	4382.12
380.155	4396.12
380.38	4378.12
380.606	4446.12
380.831	4330.12
381.057	4383.12
381.282	4346.12
381.507	4435.12
381.733	4404.12
381.958	4488.12
382.184	4514.12
382.409	4580.12
382.634	4591.12
382.86	4613.12
383.085	4710.12
383.31	4735.12
383.535	4764.12
383.761	4875.12
383.986	4858.12
384.211	4974.12
384.436	5022.12
384.662	5139.12
384.887	5221.12
385.112	5186.12
385.337	5254.12
385.562	5213.12
385.787	5281.12
386.013	5416.12
386.238	5362.12
386.463	5344.12
386.688	5291.12
386.913	5184.12
387.138	5201.12
387.363	5198.12
387.588	5159.12
387.813	5203.12
388.038	5188.12
388.263	5197.12
388.488	5253.12
388.713	5220.12
388.938	5203.12
389.163	5213.12
389.387	5117.12
389.612	5128.12
389.837	5105.12
390.062	5093.12
390.287	5104.12
390.512	5115.12
390.736	5209.12
390.961	5278.12
391.186	5343.12
391.411	5538.12
391.636	5570.12
391.86	5818.12
392.085	5862.12
392.31	5734.12
392.534	5598.12
392.759	5489.12
392.984	5409.12
393.208	5401.12
393.433	5463.12
393.658	5371.12
393.882	5414.12
394.107	5458.12
394.331	5497.12
394.556	5481.12
394.78	5578.12
395.005	5515.12
395.229	5592.12
395.454	5776.12
395.678	5867.12
395.903	5922.12
396.127	5981.12
396.352	5768.12
396.576	5558.12
396.801	5542.12
397.025	5594.12
397.249	5715.12
397.474	5819.12
397.698	5856.12
397.922	6020.12
398.147	6163.12
398.371	6230.12
398.595	6278.12
398.82	6599.12
399.044	7216.12
399.268	7861.12
399.492	8930.12
399.717	9693.12
399.941	9428.12
400.165	8868.12
400.389	8178.12
400.613	7340.12
400.837	6892.12
401.062	6731.12
401.286	6636.12
401.51	6610.12
401.734	6500.12
401.958	6755.12
402.182	6801.12
402.406	6870.12
402.63	6930.12
402.854	7089.12
403.078	7275.12
403.302	7264.12
403.526	7421.12
403.75	7452.12
403.974	7462.12
404.198	7404.12
404.422	7500.12
404.645	7468.12
404.869	7315.12
405.093	7524.12
405.317	7592.12
405.541	7645.12
405.765	7369.12
405.988	7238.12
406.212	7535.12
406.436	7636.12
406.66	7947.12
406.883	7821.12
407.107	8473.12
407.331	9089.12
407.555	9604.12
407.778	9274.12
408.002	8501.12
408.226	7953.12
408.449	7854.12
408.673	7767.12
408.896	7970.12
409.12	8186.12
409.344	7708.12
409.567	7313.12
409.791	7206.12
410.014	7138.12
410.238	7064.12
410.461	7024.12
410.685	7028.12
410.908	7229.12
411.132	7452.12
411.355	7557.12
411.578	7133.12
411.802	6787.12
412.025	6762.12
412.249	6858.12
412.472	6809.12
412.695	6772.12
412.919	6531.12
413.142	6440.12
413.365	6411.12
413.589	6508.12
413.812	6413.12
414.035	6355.12
414.258	6406.12
414.482	6406.12
414.705	6543.12
414.928	6465.12
415.151	6484.12
415.374	6490.12
415.597	6439.12
415.821	6292.12
416.044	6381.12
416.267	6274.12
416.49	6252.12
416.713	6318.12
416.936	6370.12
417.159	6344.12
417.382	6421.12
417.605	6417.12
417.828	6628.12
418.051	6770.12
418.274	6583.12
418.497	6464.12
418.72	6656.12
418.943	6560.12
419.166	6985.12
419.389	7315.12
419.611	7172.12
419.834	7040.12
420.057	6915.12
420.28	6609.12
420.503	6451.12
420.726	6563.12
420.948	6745.12
421.171	7277.12
421.394	7156.12
421.617	6662.12
421.839	6558.12
422.062	6746.12
422.285	6891.12
422.507	7675.12
422.73	8316.12
422.953	7658.12
423.175	7117.12
423.398	7177.12
423.621	7140.12
423.843	7447.12
424.066	7430.12
424.288	7196.12
424.511	7456.12
424.733	8028.12
424.956	8533.12
425.178	8084.12
425.401	8173.12
425.623	8158.12
425.846	7051.12
426.068	6800.12
426.291	6708.12
426.513	6761.12
426.735	6941.12
426.958	7340.12
427.18	8298.12
427.402	9565.12
427.625	9702.12
427.847	8030.12
428.069	6984.12
428.292	6647.12
428.514	6277.12
428.736	6088.12
428.958	6168.12
429.181	5984.12
429.403	6050.12
429.625	6239.12
429.847	6514.12
430.069	7178.12
430.292	6596.12
430.514	6072.12
430.736	6005.12
430.958	5924.12
431.18	5779.12
431.402	5774.12
431.624	5732.12
431.846	5854.12
432.068	5942.12
432.29	5930.12
432.512	5871.12
432.734	6018.12
432.956	5938.12
433.178	5998.12
433.4	5967.12
433.622	5853.12
433.844	5922.12
434.066	5944.12
434.287	5972.12
434.509	6208.12
434.731	6412.12
434.953	6576.12
435.175	6731.12
435.397	6940.12
435.618	6827.12
435.84	7298.12
436.062	8332.12
436.284	8184.12
436.505	6847.12
436.727	6448.12
436.949	6118.12
437.17	6021.12
437.392	6083.12
437.614	6252.12
437.835	6577.12
438.057	7888.12
438.278	8555.12
438.5	8472.12
438.721	9382.12
438.943	8074.12
439.165	6682.12
439.386	6544.12
439.608	6441.12
439.829	6644.12
440.05	7137.12
440.272	7593.12
440.493	6740.12
440.715	6392.12
440.936	6226.12
441.158	6292.12
441.379	6430.12
441.6	6821.12
441.822	7102.12
442.043	7608.12
442.264	8550.12
442.486	8222.12
442.707	7183.12
442.928	7021.12
443.149	7273.12
443.371	7522.12
443.592	7976.12
443.813	9217.12
444.034	9129.12
444.255	7761.12
444.476	7478.12
444.698	7659.12
444.919	7792.12
445.14	7583.12
445.361	7524.12
445.582	7798.12
445.803	8627.12
446.024	9345.12
446.245	8824.12
446.466	7827.12
446.687	6721.12
446.908	6311.12
447.129	6094.12
447.35	5920.12
447.571	5876.12
447.792	5732.12
448.013	5920.12
448.234	6121.12
448.455	6881.12
448.675	8316.12
448.896	8689.12
449.117	7147.12
449.338	7427.12
449.559	8829.12
449.779	9141.12
450	6778.12
450.221	6046.12
450.442	5744.12
450.662	5674.12
450.883	5886.12
451.104	5980.12
451.324	5725.12
451.545	5541.12
451.766	5437.12
451.986	5300.12
452.207	5299.12
452.428	5227.12
452.648	5221.12
452.869	5374.12
453.089	5504.12
453.31	5467.12
453.53	5306.12
453.751	5194.12
453.971	5250.12
454.192	5421.12
454.412	5184.12
454.633	5118.12
454.853	5036.12
455.073	5169.12
455.294	5628.12
455.514	6276.12
455.734	5670.12
455.955	4977.12
456.175	4874.12
456.395	4793.12
456.616	4709.12
456.836	4771.12
457.056	4738.12
457.276	4670.12
457.497	4878.12
457.717	4802.12
457.937	4928.12
458.157	4984.12
458.377	5089.12
458.598	5487.12
458.818	6346.12
459.038	7346.12
459.258	7224.12
459.478	6175.12
459.698	5986.12
459.918	6032.12
460.138	6259.12
460.358	6352.12
460.578	6338.12
460.798	6460.12
461.018	6329.12
461.238	6295.12
461.458	6275.12
461.678	6282.12
461.898	6405.12
462.118	6405.12
462.338	6718.12
462.558	6925.12
462.777	7079.12
462.997	7704.12
463.217	8202.12
463.437	7911.12
463.657	7305.12
463.876	7196.12
464.096	7171.12
464.316	7226.12
464.536	7244.12
464.755	7141.12
464.975	6938.12
465.195	7398.12
465.414	7498.12
465.634	6495.12
465.854	6130.12
466.073	5770.12
466.293	5529.12
466.512	5462.12
466.732	5337.12
466.951	5315.12
467.171	5300.12
467.391	5420.12
467.61	5478.12
467.829	5532.12
468.049	5284.12
468.268	5101.12
468.488	5135.12
468.707	5057.12
468.927	5015.12
469.146	5033.12
469.365	5140.12
469.585	5160.12
469.804	5355.12
470.023	5586.12
470.243	5514.12
470.462	5632.12
470.681	5864.12
470.901	5655.12
471.12	5535.12
471.339	5465.12
471.558	5506.12
471.777	5332.12
471.997	5194.12
472.216	5103.12
472.435	5091.12
472.654	5054.12
472.873	5021.12
473.092	5068.12
473.311	5102.12
473.53	5050.12
473.749	5248.12
473.968	5885.12
474.187	7173.12
474.406	6575.12
474.625	5514.12
474.844	5217.12
475.063	5088.12
475.282	5160.12
475.501	5260.12
475.72	5218.12
475.939	5299.12
476.158	5312.12
476.377	5341.12
476.596	5292.12
476.814	5455.12
477.033	5501.12
477.252	5612.12
477.471	5604.12
477.69	5787.12
477.908	5890.12
478.127	6063.12
478.346	6130.12
478.564	6160.12
478.783	6266.12
479.002	6425.12
479.22	6409.12
479.439	6512.12
479.658	6734.12
479.876	6840.12
480.095	6972.12
480.313	7506.12
480.532	7223.12
480.751	7078.12
480.969	6999.12
481.188	6845.12
481.406	6530.12
481.624	6354.12
481.843	6196.12
482.061	6240.12
482.28	6025.12
482.498	6036.12
482.717	5962.12
482.935	5979.12
483.153	5908.12
483.372	5889.12
483.59	6034.12
483.808	6020.12
484.027	6002.12
484.245	6065.12
484.463	6112.12
484.681	6175.12
484.9	6201.12
485.118	6344.12
485.336	6395.12
485.554	6439.12
485.772	6458.12
485.99	6372.12
486.209	6427.12
486.427	6456.12
486.645	6523.12
486.863	6672.12
487.081	6669.12
487.299	6460.12
487.517	6457.12
487.735	6478.12
487.953	6403.12
488.171	6489.12
488.389	6381.12
488.607	6448.12
488.825	6507.12
489.043	6507.12
489.261	6601.12
489.479	6520.12
489.696	6564.12
489.914	6680.12
490.132	6719.12
490.35	6761.12
490.568	6883.12
490.786	6941.12
491.003	7029.12
491.221	7227.12
491.439	7371.12
491.657	7294.12
491.874	7414.12
492.092	7536.12
492.31	7530.12
492.527	7493.12
492.745	7557.12
492.963	7620.12
493.18	7626.12
493.398	7636.12
493.615	7965.12
493.833	7814.12
494.05	7806.12
494.268	7753.12
494.485	7640.12
494.703	7775.12
494.92	7818.12
495.138	7729.12
495.355	7803.12
495.573	7824.12
495.79	7844.12
496.008	7748.12
496.225	7794.12
496.442	7824.12
496.66	7960.12
496.877	7851.12
497.094	7926.12
497.312	8118.12
497.529	8442.12
497.746	8459.12
497.963	8684.12
498.181	9178.12
498.398	9296.12
498.615	9777.12
498.832	10220.12
499.049	10652.12
499.267	11251.12
499.484	11902.12
499.701	12740.12
499.918	13388.12
500.135	14256.12
500.352	14810.12
500.569	14932.12
500.786	14773.12
501.003	14344.12
501.22	13816.12
501.437	13070.12
501.654	12368.12
501.871	11812.12
502.088	11081.12
502.305	10328.12
502.522	9884.12
502.739	9555.12
502.956	9112.12
503.172	8806.12
503.389	8560.12
503.606	8462.12
503.823	8382.12
504.04	8296.12
504.256	8423.12
504.473	8560.12
504.69	8538.12
504.907	8300.12
505.123	7939.12
505.34	7789.12
505.557	7573.12
505.773	7460.12
505.99	7448.12
506.207	7433.12
506.423	7366.12
506.64	7263.12
506.856	7083.12
507.073	7108.12
507.289	6985.12
507.506	7039.12
507.722	7127.12
507.939	7136.12
508.155	6928.12
508.372	6749.12
508.588	6698.12
508.805	6649.12
509.021	6752.12
509.238	7046.12
509.454	7047.12
509.67	6856.12
509.887	6630.12
510.103	6557.12
510.319	6754.12
510.536	8130.12
510.752	12159.12
510.968	7917.12
511.184	6407.12
511.401	6284.12
511.617	6200.12
511.833	6163.12
512.049	6057.12
512.265	6083.12
512.481	6033.12
512.698	6121.12
512.914	6067.12
513.13	6065.12
513.346	6056.12
513.562	6108.12
513.778	6162.12
513.994	6203.12
514.21	6348.12
514.426	6656.12
514.642	7051.12
514.858	7254.12
515.074	7612.12
515.29	9382.12
515.506	12468.12
515.721	8907.12
515.937	7358.12
516.153	7070.12
516.369	6900.12
516.585	6999.12
516.801	7144.12
517.016	7190.12
517.232	7485.12
517.448	7603.12
517.664	7773.12
517.879	7653.12
518.095	7621.12
518.311	7521.12
518.527	7271.12
518.742	7049.12
518.958	6804.12
519.173	6725.12
519.389	6596.12
519.605	6438.12
519.82	6405.12
520.036	6707.12
520.251	6811.12
520.467	6954.12
520.682	6715.12
520.898	6765.12
521.113	6955.12
521.329	7329.12
521.544	8138.12
521.76	10594.12
521.975	15040.12
522.19	12452.12
522.406	7787.12
522.621	6505.12
522.836	6043.12
523.052	5890.12
523.267	5642.12
523.482	5514.12
523.698	5412.12
523.913	5516.12
524.128	5411.12
524.343	5310.12
524.559	5231.12
524.774	5156.12
524.989	5166.12
525.204	5232.12
525.419	5241.12
525.634	5112.12
525.849	5166.12
526.064	4971.12
526.28	5020.12
526.495	4950.12
526.71	4910.12
526.925	4876.12
527.14	4883.12
527.355	4913.12
527.57	4855.12
527.785	4897.12
527.999	4878.12
528.214	4877.12
528.429	4881.12
528.644	4868.12
528.859	4967.12
529.074	4928.12
529.289	5198.12
529.503	5996.12
529.718	5500.12
529.933	5209.12
530.148	4991.12
530.363	4933.12
530.577	4858.12
530.792	4907.12
531.007	4796.12
531.221	4819.12
531.436	4823.12
531.651	4794.12
531.865	4814.12
532.08	4756.12
532.295	4777.12
532.509	4771.12
532.724	4755.12
532.938	4734.12
533.153	4796.12
533.367	4746.12
533.582	4794.12
533.796	4648.12
534.011	4636.12
534.225	4696.12
534.44	4625.12
534.654	4711.12
534.868	4654.12
535.083	4672.12
535.297	4632.12
535.511	4683.12
535.726	4749.12
535.94	4667.12
536.154	4588.12
536.369	4536.12
536.583	4452.12
536.797	4488.12
537.011	4457.12
537.225	4426.12
537.44	4448.12
537.654	4356.12
537.868	4432.12
538.082	4429.12
538.296	4474.12
538.51	4440.12
538.724	4479.12
538.938	4333.12
539.153	4366.12
539.367	4381.12
539.581	4447.12
539.795	4334.12
540.009	4291.12
540.222	4387.12
540.436	4428.12
540.65	4420.12
540.864	4444.12
541.078	4462.12
541.292	4374.12
541.506	4330.12
541.72	4250.12
541.934	4203.12
542.147	4214.12
542.361	4240.12
542.575	4124.12
542.789	4147.12
543.002	4206.12
543.216	4364.12
543.43	4330.12
543.644	4264.12
543.857	4301.12
544.071	4267.12
544.285	4281.12
544.498	4280.12
544.712	4197.12
544.925	4220.12
545.139	4203.12
545.352	4225.12
545.566	4236.12
545.779	4210.12
545.993	4198.12
546.206	4176.12
546.42	4209.12
546.633	4212.12
546.847	4126.12
547.06	4162.12
547.274	4116.12
547.487	4063.12
547.7	4171.12
547.914	4162.12
548.127	4230.12
548.34	4202.12
548.554	4195.12
548.767	4165.12
548.98	4125.12
549.193	4201.12
549.407	4261.12
549.62	4216.12
549.833	4308.12
550.046	4232.12
550.259	4144.12
550.473	4112.12
550.686	4108.12
550.899	4076.12
551.112	3993.12
551.325	3997.12
551.538	4031.12
551.751	4088.12
551.964	4159.12
552.177	4185.12
552.39	4198.12
552.603	4320.12
552.816	4422.12
553.029	4406.12
553.242	4491.12
553.455	4572.12
553.667	4595.12
553.88	4666.12
554.093	4519.12
554.306	4402.12
554.519	4250.12
554.732	4180.12
554.944	4117.12
555.157	3957.12
555.37	3928.12
555.583	3878.12
555.795	3890.12
556.008	3754.12
556.221	3649.12
556.433	3622.12
556.646	3597.12
556.859	3627.12
557.071	3604.12
557.284	3545.12
557.496	3510.12
557.709	3429.12
557.921	3517.12
558.134	3484.12
558.346	3475.12
558.559	3434.12
558.771	3436.12
558.984	3400.12
559.196	3338.12
559.409	3344.12
559.621	3366.12
559.833	3372.12
560.046	3398.12
560.258	3369.12
560.47	3290.12
560.683	3360.12
560.895	3340.12
561.107	3344.12
561.32	3372.12
561.532	3352.12
561.744	3339.12
561.956	3359.12
562.168	3311.12
562.381	3370.12
562.593	3401.12
562.805	3389.12
563.017	3405.12
563.229	3434.12
563.441	3427.12
563.653	3481.12
563.865	3478.12
564.077	3458.12
564.289	3532.12
564.501	3563.12
564.713	3660.12
564.925	3725.12
565.137	3866.12
565.349	3880.12
565.561	3945.12
565.773	4137.12
565.985	4312.12
566.197	4430.12
566.408	4703.12
566.62	5063.12
566.832	5330.12
567.044	5368.12
567.255	5391.12
567.467	5587.12
567.679	5870.12
567.891	6267.12
568.102	6240.12
568.314	5834.12
568.526	5282.12
568.737	4851.12
568.949	4481.12
569.161	4210.12
569.372	3946.12
569.584	3769.12
569.795	3603.12
570.007	3637.12
570.218	3845.12
570.43	3584.12
570.641	3428.12
570.853	3402.12
571.064	3442.12
571.276	3417.12
571.487	3267.12
571.698	3125.12
571.91	3057.12
572.121	3010.12
572.333	2995.12
572.544	2876.12
572.755	2864.12
572.966	2874.12
573.178	2858.12
573.389	2782.12
573.6	2810.12
573.811	2748.12
574.023	2709.12
574.234	2740.12
574.445	2684.12
574.656	2718.12
574.867	2714.12
575.078	2691.12
575.289	2642.12
575.501	2654.12
575.712	2582.12
575.923	2564.12
576.134	2555.12
576.345	2555.12
576.556	2612.12
576.767	2532.12
576.978	2534.12
577.188	2486.12
577.399	2508.12
577.61	2485.12
577.821	2446.12
578.032	2460.12
578.243	2820.12
578.454	4128.12
578.665	2782.12
578.875	2404.12
579.086	2336.12
579.297	2328.12
579.508	2315.12
579.718	2308.12
579.929	2289.12
580.14	2265.12
580.35	2268.12
580.561	2277.12
580.772	2277.12
580.982	2249.12
581.193	2222.12
581.403	2234.12
581.614	2231.12
581.825	2252.12
582.035	2177.12
582.246	2174.12
582.456	2185.12
582.667	2190.12
582.877	2127.12
583.087	2143.12
583.298	2176.12
583.508	2180.12
583.719	2142.12
583.929	2156.12
584.139	2195.12
584.35	2142.12
584.56	2152.12
584.77	2176.12
584.981	2096.12
585.191	2080.12
585.401	2111.12
585.611	2103.12
585.821	2117.12
586.032	2121.12
586.242	2130.12
586.452	2149.12
586.662	2096.12
586.872	2045.12
587.082	2047.12
587.292	2061.12
587.502	2031.12
587.713	2023.12
587.923	2002.12
588.133	2012.12
588.343	2026.12
588.553	2047.12
588.762	2036.12
588.972	2071.12
589.182	2028.12
589.392	2038.12
589.602	2060.12
589.812	2034.12
590.022	2040.12
590.232	2051.12
590.441	2068.12
590.651	2061.12
590.861	2064.12
591.071	2074.12
591.281	2100.12
591.49	2125.12
591.7	2176.12
591.91	2246.12
592.119	2264.12
592.329	2331.12
592.539	2412.12
592.748	2488.12
592.958	2505.12
593.167	2565.12
593.377	2589.12
593.587	2664.12
593.796	2596.12
594.006	2665.12
594.215	2681.12
594.424	2654.12
594.634	2569.12
594.843	2475.12
595.053	2354.12
595.262	2331.12
595.472	2253.12
595.681	2096.12
595.89	2108.12
596.1	2026.12
596.309	1996.12
596.518	1952.12
596.727	1941.12
596.937	1907.12
597.146	1889.12
597.355	1848.12
597.564	1874.12
597.774	1812.12
597.983	1802.12
598.192	1795.12
598.401	1816.12
598.61	1771.12
598.819	1731.12
599.028	1720.12
599.237	1688.12
599.446	1699.12
599.655	1696.12
599.864	1718.12
600.073	1729.12
600.282	1678.12
600.491	1692.12
600.7	1667.12
600.909	1657.12
601.118	1634.12
601.327	1647.12
601.536	1630.12
601.745	1637.12
601.953	1639.12
602.162	1647.12
602.371	1628.12
602.58	1560.12
602.789	1570.12
602.997	1554.12
603.206	1621.12
603.415	1561.12
603.623	1540.12
603.832	1548.12
604.041	1512.12
604.249	1553.12
604.458	1548.12
604.666	1544.12
604.875	1556.12
605.084	1525.12
605.292	1510.12
605.501	1536.12
605.709	1484.12
605.918	1482.12
606.126	1489.12
606.334	1475.12
606.543	1472.12
606.751	1454.12
606.96	1452.12
607.168	1454.12
607.376	1476.12
607.585	1467.12
607.793	1445.12
608.001	1500.12
608.21	1466.12
608.418	1450.12
608.626	1421.12
608.834	1485.12
609.043	1439.12
609.251	1430.12
609.459	1419.12
609.667	1392.12
609.875	1421.12
610.083	1428.12
610.291	1436.12
610.499	1411.12
610.707	1423.12
610.916	1424.12
611.124	1391.12
611.332	1446.12
611.54	1443.12
611.748	1419.12
611.955	1403.12
612.163	1410.12
612.371	1409.12
612.579	1399.12
612.787	1378.12
612.995	1356.12
613.203	1376.12
613.411	1398.12
613.618	1354.12
613.826	1376.12
614.034	1382.12
614.242	1357.12
614.449	1356.12
614.657	1355.12
614.865	1363.12
615.072	1436.12
615.28	1380.12
615.488	1362.12
615.695	1389.12
615.903	1403.12
616.111	1397.12
616.318	1450.12
616.526	1425.12
616.733	1443.12
616.941	1439.12
617.148	1375.12
617.356	1400.12
617.563	1393.12
617.771	1396.12
617.978	1397.12
618.185	1396.12
618.393	1388.12
618.6	1357.12
618.807	1347.12
619.015	1401.12
619.222	1324.12
619.429	1344.12
619.637	1339.12
619.844	1340.12
620.051	1317.12
620.258	1313.12
620.466	1243.12
620.673	1210.12
620.88	1259.12
621.087	1237.12
621.294	1252.12
621.501	1282.12
621.708	1270.12
621.915	1264.12
622.122	1266.12
622.329	1292.12
622.536	1265.12
622.743	1238.12
622.95	1233.12
623.157	1194.12
623.364	1229.12
623.571	1185.12
623.778	1204.12
623.985	1182.12
624.192	1195.12
624.399	1177.12
624.606	1182.12
624.812	1167.12
625.019	1182.12
625.226	1184.12
625.433	1186.12
625.639	1147.12
625.846	1176.12
626.053	1150.12
626.259	1138.12
626.466	1098.12
626.673	1161.12
626.879	1119.12
627.086	1129.12
627.293	1100.12
627.499	1123.12
627.706	1107.12
627.912	1082.12
628.119	1098.12
628.325	1085.12
628.532	1100.12
628.738	1068.12
628.945	1065.12
629.151	1081.12
629.357	1034.12
629.564	1042.12
629.77	1043.12
629.976	1054.12
630.183	1049.12
630.389	978.12
630.595	1019.12
630.802	997.12
631.008	1006.12
631.214	1007.12
631.42	1012.12
631.627	1011.12
631.833	990.12
632.039	971.12
632.245	926.12
632.451	939.12
632.657	965.12
632.863	958.12
633.069	945.12
633.275	945.12
633.481	931.12
633.688	933.12
633.893	942.12
634.099	946.12
634.305	931.12
634.511	884.12
634.717	895.12
634.923	886.12
635.129	888.12
635.335	910.12
635.541	884.12
635.747	873.12
635.952	854.12
636.158	876.12
636.364	897.12
636.57	863.12
636.775	853.12
636.981	869.12
637.187	864.12
637.392	866.12
637.598	864.12
637.804	877.12
638.009	876.12
638.215	876.12
638.421	853.12
638.626	849.12
638.832	814.12
639.037	820.12
639.243	837.12
639.448	812.12
639.654	796.12
639.859	816.12
640.065	807.12
640.27	794.12
640.475	841.12
640.681	821.12
640.886	834.12
641.091	799.12
641.297	802.12
641.502	756.12
641.707	782.12
641.913	778.12
642.118	783.12
642.323	754.12
642.528	780.12
642.733	767.12
642.939	770.12
643.144	771.12
643.349	743.12
643.554	760.12
643.759	748.12
643.964	774.12
644.169	746.12
644.374	740.12
644.579	774.12
644.784	776.12
644.989	765.12
645.194	774.12
645.399	742.12
645.604	736.12
645.809	729.12
646.014	746.12
646.219	757.12
646.423	748.12
646.628	773.12
646.833	756.12
647.038	769.12
647.243	771.12
647.447	784.12
647.652	796.12
647.857	800.12
648.062	803.12
648.266	810.12
648.471	832.12
648.676	834.12
648.88	838.12
649.085	830.12
649.289	816.12
649.494	889.12
649.698	1029.12
649.903	871.12
650.107	764.12
650.312	734.12
650.516	712.12
650.721	682.12
650.925	649.12
651.13	656.12
651.334	621.12
651.539	617.12
651.743	617.12
651.947	584.12
652.152	575.12
652.356	573.12
652.56	585.12
652.764	570.12
652.969	536.12
653.173	541.12
653.377	522.12
653.581	517.12
653.785	517.12
653.99	521.12
654.194	490.12
654.398	480.12
654.602	495.12
654.806	509.12
655.01	573.12
655.214	525.12
655.418	493.12
655.622	471.12
655.826	479.12
656.03	468.12
656.234	467.12
656.438	486.12
656.642	477.12
656.846	432.12
657.049	386.12
657.253	376.12
657.457	382.12
657.661	337.12
657.865	340.12
658.068	295.12
658.272	293.12
658.476	258.12
658.68	259.12
658.883	249.12
659.087	222.12
659.291	212.12
659.494	208.12
659.698	187.12
659.901	184.12
660.105	197.12
660.309	175.12
660.512	171.12
660.716	164.12
660.919	152.12
661.123	159.12
661.326	146.12
661.53	132.12
661.733	131.12
661.936	109.12
662.14	112.12
662.343	110.12
662.546	94.12
662.75	109.12
662.953	110.12
663.156	95.12
663.36	99.12
663.563	95.12
663.766	100.12
663.969	86.12
664.173	106.12
664.376	95.12
664.579	91.12
664.782	92.12
664.985	74.12
665.188	84.12
665.391	87.12
665.594	87.12
665.797	69.12
666	82.12
666.203	84.12
666.406	93.12
666.609	94.12
666.812	92.12
667.015	84.12
667.218	78.12
667.421	77.12
667.624	96.12
667.827	86.12
668.03	85.12
668.232	81.12
668.435	96.12
668.638	84.12
668.841	85.12
669.043	76.12
669.246	73.12
669.449	86.12
669.651	85.12
669.854	78.12
670.057	69.12
670.259	69.12
670.462	81.12
670.665	82.12
670.867	89.12
671.07	87.12
671.272	83.12
671.475	90.12
671.677	93.12
671.88	73.12
672.082	94.12
672.284	80.12
672.487	73.12
672.689	68.12
672.892	79.12
