Data from Uncirc_1991_H10_HRD10591_00016.txt Node
Date: Wed Jan 03 11:50:41 EST 2024
User: Yrep
Spectrometer: HR+D1059
Trigger mode: 1
Integration Time (sec): 1.000000E-1
Scans to average: 1
Electric dark correction enabled: true
Nonlinearity correction enabled: false
Boxcar width: 0
XAxis mode: Wavelengths
Number of Pixels in Spectrum: 2048
>>>>>Begin Spectral Data<<<<<
223.165	-5.44
223.4	-5.44
223.635	-5.44
223.869	-24.44
224.104	-19.44
224.338	-17.44
224.573	-14.44
224.808	-18.44
225.042	-7.44
225.277	-3.44
225.511	-7.44
225.746	1.56
225.98	2.56
226.215	10.56
226.449	16.56
226.683	28.56
226.918	27.56
227.152	30.56
227.387	36.56
227.621	28.56
227.856	51.56
228.09	45.56
228.324	43.56
228.559	56.56
228.793	47.56
229.027	43.56
229.262	73.56
229.496	80.56
229.73	81.56
229.964	78.56
230.199	88.56
230.433	67.56
230.667	78.56
230.901	72.56
231.136	71.56
231.37	80.56
231.604	70.56
231.838	81.56
232.072	67.56
232.306	78.56
232.541	80.56
232.775	78.56
233.009	79.56
233.243	86.56
233.477	77.56
233.711	80.56
233.945	74.56
234.179	72.56
234.413	82.56
234.647	87.56
234.881	77.56
235.115	79.56
235.349	82.56
235.583	66.56
235.817	79.56
236.051	67.56
236.285	90.56
236.519	67.56
236.753	85.56
236.987	80.56
237.221	86.56
237.455	86.56
237.689	73.56
237.922	67.56
238.156	62.56
238.39	63.56
238.624	84.56
238.858	60.56
239.091	70.56
239.325	76.56
239.559	71.56
239.793	77.56
240.027	76.56
240.26	77.56
240.494	84.56
240.728	61.56
240.961	65.56
241.195	76.56
241.429	78.56
241.662	65.56
241.896	79.56
242.13	72.56
242.363	83.56
242.597	75.56
242.83	71.56
243.064	71.56
243.298	67.56
243.531	56.56
243.765	76.56
243.998	74.56
244.232	81.56
244.465	74.56
244.699	66.56
244.932	82.56
245.166	65.56
245.399	72.56
245.633	80.56
245.866	75.56
246.099	76.56
246.333	75.56
246.566	84.56
246.8	86.56
247.033	79.56
247.266	75.56
247.5	94.56
247.733	79.56
247.966	71.56
248.2	86.56
248.433	90.56
248.666	66.56
248.899	73.56
249.133	67.56
249.366	90.56
249.599	89.56
249.832	72.56
250.066	77.56
250.299	75.56
250.532	77.56
250.765	79.56
250.998	76.56
251.231	76.56
251.465	75.56
251.698	87.56
251.931	70.56
252.164	81.56
252.397	66.56
252.63	74.56
252.863	58.56
253.096	92.56
253.329	92.56
253.562	75.56
253.795	66.56
254.028	96.56
254.261	78.56
254.494	81.56
254.727	66.56
254.96	83.56
255.193	85.56
255.426	90.56
255.659	99.56
255.892	94.56
256.124	79.56
256.357	75.56
256.59	78.56
256.823	74.56
257.056	80.56
257.289	78.56
257.521	83.56
257.754	94.56
257.987	76.56
258.22	76.56
258.452	86.56
258.685	87.56
258.918	91.56
259.151	69.56
259.383	64.56
259.616	75.56
259.849	88.56
260.081	78.56
260.314	73.56
260.547	87.56
260.779	92.56
261.012	87.56
261.244	71.56
261.477	89.56
261.71	100.56
261.942	112.56
262.175	99.56
262.407	75.56
262.64	88.56
262.872	72.56
263.105	83.56
263.337	77.56
263.57	76.56
263.802	82.56
264.035	87.56
264.267	74.56
264.499	72.56
264.732	84.56
264.964	79.56
265.197	73.56
265.429	76.56
265.661	80.56
265.894	77.56
266.126	80.56
266.358	83.56
266.591	75.56
266.823	84.56
267.055	81.56
267.287	83.56
267.52	83.56
267.752	84.56
267.984	68.56
268.216	81.56
268.448	70.56
268.681	86.56
268.913	77.56
269.145	98.56
269.377	75.56
269.609	93.56
269.841	76.56
270.073	88.56
270.306	84.56
270.538	66.56
270.77	73.56
271.002	77.56
271.234	78.56
271.466	96.56
271.698	86.56
271.93	92.56
272.162	90.56
272.394	89.56
272.626	96.56
272.858	88.56
273.09	84.56
273.322	87.56
273.553	78.56
273.785	72.56
274.017	77.56
274.249	93.56
274.481	76.56
274.713	81.56
274.945	88.56
275.176	77.56
275.408	89.56
275.64	98.56
275.872	86.56
276.104	86.56
276.335	84.56
276.567	93.56
276.799	108.56
277.031	91.56
277.262	84.56
277.494	81.56
277.726	94.56
277.957	77.56
278.189	104.56
278.421	95.56
278.652	82.56
278.884	94.56
279.115	83.56
279.347	87.56
279.579	94.56
279.81	94.56
280.042	87.56
280.273	94.56
280.505	75.56
280.736	88.56
280.968	92.56
281.199	98.56
281.431	84.56
281.662	87.56
281.894	83.56
282.125	89.56
282.356	89.56
282.588	110.56
282.819	93.56
283.051	94.56
283.282	76.56
283.513	85.56
283.745	88.56
283.976	88.56
284.207	86.56
284.439	78.56
284.67	85.56
284.901	72.56
285.132	95.56
285.364	97.56
285.595	92.56
285.826	73.56
286.057	83.56
286.288	82.56
286.52	87.56
286.751	89.56
286.982	68.56
287.213	77.56
287.444	90.56
287.675	75.56
287.906	83.56
288.138	88.56
288.369	93.56
288.6	92.56
288.831	82.56
289.062	84.56
289.293	84.56
289.524	82.56
289.755	76.56
289.986	90.56
290.217	82.56
290.448	90.56
290.679	96.56
290.91	87.56
291.141	83.56
291.371	78.56
291.602	76.56
291.833	77.56
292.064	98.56
292.295	89.56
292.526	89.56
292.757	71.56
292.987	84.56
293.218	64.56
293.449	92.56
293.68	80.56
293.91	86.56
294.141	67.56
294.372	98.56
294.603	83.56
294.833	86.56
295.064	89.56
295.295	88.56
295.525	89.56
295.756	103.56
295.987	94.56
296.217	121.56
296.448	113.56
296.679	92.56
296.909	82.56
297.14	73.56
297.37	73.56
297.601	96.56
297.831	83.56
298.062	80.56
298.292	82.56
298.523	93.56
298.753	87.56
298.984	80.56
299.214	83.56
299.445	85.56
299.675	88.56
299.905	94.56
300.136	93.56
300.366	83.56
300.597	86.56
300.827	91.56
301.057	92.56
301.288	89.56
301.518	81.56
301.748	85.56
301.979	106.56
302.209	89.56
302.439	89.56
302.669	88.56
302.9	93.56
303.13	72.56
303.36	98.56
303.59	91.56
303.82	89.56
304.051	89.56
304.281	80.56
304.511	85.56
304.741	77.56
304.971	91.56
305.201	82.56
305.431	84.56
305.661	76.56
305.891	95.56
306.121	80.56
306.352	89.56
306.582	100.56
306.812	95.56
307.042	94.56
307.272	90.56
307.502	82.56
307.731	84.56
307.961	94.56
308.191	86.56
308.421	82.56
308.651	95.56
308.881	75.56
309.111	77.56
309.341	92.56
309.571	83.56
309.8	97.56
310.03	91.56
310.26	92.56
310.49	82.56
310.72	89.56
310.949	87.56
311.179	102.56
311.409	83.56
311.639	80.56
311.868	89.56
312.098	87.56
312.328	84.56
312.557	99.56
312.787	82.56
313.017	99.56
313.246	92.56
313.476	94.56
313.706	87.56
313.935	95.56
314.165	83.56
314.394	83.56
314.624	93.56
314.853	103.56
315.083	79.56
315.312	84.56
315.542	85.56
315.771	81.56
316.001	93.56
316.23	86.56
316.46	87.56
316.689	86.56
316.919	87.56
317.148	87.56
317.377	90.56
317.607	88.56
317.836	86.56
318.065	78.56
318.295	80.56
318.524	82.56
318.753	84.56
318.983	90.56
319.212	104.56
319.441	96.56
319.67	94.56
319.9	96.56
320.129	84.56
320.358	97.56
320.587	84.56
320.816	91.56
321.046	103.56
321.275	82.56
321.504	90.56
321.733	76.56
321.962	97.56
322.191	84.56
322.42	95.56
322.649	106.56
322.878	111.56
323.108	118.56
323.337	106.56
323.566	126.56
323.795	152.56
324.024	187.56
324.253	358.56
324.482	816.56
324.71	1698.56
324.939	2321.56
325.168	825.56
325.397	222.56
325.626	136.56
325.855	115.56
326.084	114.56
326.313	145.56
326.542	147.56
326.77	232.56
326.999	441.56
327.228	939.56
327.457	1787.56
327.686	1402.56
327.914	369.56
328.143	167.56
328.372	128.56
328.6	108.56
328.829	113.56
329.058	114.56
329.287	114.56
329.515	92.56
329.744	105.56
329.972	95.56
330.201	98.56
330.43	107.56
330.658	113.56
330.887	123.56
331.115	109.56
331.344	98.56
331.572	84.56
331.801	99.56
332.03	99.56
332.258	95.56
332.486	86.56
332.715	100.56
332.943	105.56
333.172	81.56
333.4	97.56
333.629	94.56
333.857	107.56
334.085	110.56
334.314	94.56
334.542	99.56
334.771	86.56
334.999	99.56
335.227	84.56
335.455	88.56
335.684	89.56
335.912	99.56
336.14	88.56
336.369	99.56
336.597	93.56
336.825	100.56
337.053	98.56
337.281	80.56
337.51	93.56
337.738	80.56
337.966	91.56
338.194	99.56
338.422	79.56
338.65	86.56
338.878	98.56
339.106	78.56
339.334	90.56
339.562	74.56
339.79	88.56
340.018	73.56
340.246	78.56
340.474	91.56
340.702	81.56
340.93	91.56
341.158	100.56
341.386	83.56
341.614	86.56
341.842	106.56
342.07	89.56
342.298	83.56
342.526	84.56
342.754	82.56
342.981	96.56
343.209	82.56
343.437	95.56
343.665	96.56
343.893	86.56
344.12	68.56
344.348	87.56
344.576	91.56
344.804	99.56
345.031	98.56
345.259	86.56
345.487	89.56
345.714	96.56
345.942	88.56
346.17	96.56
346.397	94.56
346.625	89.56
346.853	94.56
347.08	83.56
347.308	93.56
347.535	77.56
347.763	100.56
347.99	102.56
348.218	102.56
348.445	98.56
348.673	95.56
348.9	88.56
349.128	93.56
349.355	94.56
349.583	100.56
349.81	82.56
350.037	103.56
350.265	85.56
350.492	96.56
350.72	90.56
350.947	98.56
351.174	98.56
351.402	99.56
351.629	104.56
351.856	93.56
352.083	98.56
352.311	104.56
352.538	99.56
352.765	101.56
352.992	105.56
353.22	91.56
353.447	87.56
353.674	83.56
353.901	88.56
354.128	95.56
354.355	100.56
354.583	86.56
354.81	99.56
355.037	102.56
355.264	90.56
355.491	83.56
355.718	83.56
355.945	97.56
356.172	94.56
356.399	92.56
356.626	94.56
356.853	74.56
357.08	94.56
357.307	80.56
357.534	70.56
357.761	94.56
357.988	90.56
358.215	96.56
358.441	79.56
358.668	96.56
358.895	79.56
359.122	82.56
359.349	91.56
359.576	96.56
359.802	99.56
360.029	108.56
360.256	97.56
360.483	95.56
360.709	79.56
360.936	78.56
361.163	93.56
361.39	82.56
361.616	78.56
361.843	74.56
362.07	95.56
362.296	77.56
362.523	92.56
362.749	67.56
362.976	81.56
363.203	85.56
363.429	86.56
363.656	86.56
363.882	76.56
364.109	74.56
364.335	88.56
364.562	82.56
364.788	100.56
365.015	101.56
365.241	76.56
365.468	94.56
365.694	92.56
365.92	90.56
366.147	80.56
366.373	95.56
366.599	93.56
366.826	81.56
367.052	81.56
367.278	86.56
367.505	84.56
367.731	76.56
367.957	100.56
368.184	83.56
368.41	92.56
368.636	99.56
368.862	108.56
369.089	105.56
369.315	81.56
369.541	90.56
369.767	80.56
369.993	92.56
370.219	102.56
370.445	85.56
370.672	87.56
370.898	86.56
371.124	95.56
371.35	83.56
371.576	80.56
371.802	98.56
372.028	81.56
372.254	86.56
372.48	80.56
372.706	73.56
372.932	88.56
373.158	84.56
373.384	79.56
373.61	93.56
373.835	89.56
374.061	81.56
374.287	73.56
374.513	66.56
374.739	88.56
374.965	90.56
375.191	75.56
375.416	82.56
375.642	87.56
375.868	92.56
376.094	80.56
376.319	81.56
376.545	86.56
376.771	98.56
376.997	83.56
377.222	78.56
377.448	84.56
377.674	103.56
377.899	87.56
378.125	74.56
378.35	95.56
378.576	98.56
378.802	93.56
379.027	94.56
379.253	99.56
379.478	85.56
379.704	75.56
379.929	73.56
380.155	90.56
380.38	95.56
380.606	101.56
380.831	83.56
381.057	86.56
381.282	93.56
381.507	75.56
381.733	99.56
381.958	86.56
382.184	93.56
382.409	93.56
382.634	77.56
382.86	99.56
383.085	75.56
383.31	75.56
383.535	89.56
383.761	89.56
383.986	100.56
384.211	85.56
384.436	81.56
384.662	90.56
384.887	95.56
385.112	94.56
385.337	87.56
385.562	92.56
385.787	101.56
386.013	94.56
386.238	98.56
386.463	115.56
386.688	107.56
386.913	107.56
387.138	88.56
387.363	98.56
387.588	96.56
387.813	103.56
388.038	109.56
388.263	97.56
388.488	86.56
388.713	83.56
388.938	67.56
389.163	83.56
389.387	93.56
389.612	82.56
389.837	93.56
390.062	102.56
390.287	83.56
390.512	82.56
390.736	95.56
390.961	75.56
391.186	72.56
391.411	90.56
391.636	89.56
391.86	79.56
392.085	88.56
392.31	83.56
392.534	70.56
392.759	81.56
392.984	75.56
393.208	75.56
393.433	80.56
393.658	83.56
393.882	77.56
394.107	80.56
394.331	82.56
394.556	97.56
394.78	87.56
395.005	89.56
395.229	87.56
395.454	92.56
395.678	84.56
395.903	89.56
396.127	85.56
396.352	96.56
396.576	86.56
396.801	79.56
397.025	83.56
397.249	89.56
397.474	82.56
397.698	74.56
397.922	78.56
398.147	76.56
398.371	100.56
398.595	76.56
398.82	75.56
399.044	86.56
399.268	80.56
399.492	80.56
399.717	86.56
399.941	94.56
400.165	100.56
400.389	86.56
400.613	88.56
400.837	79.56
401.062	84.56
401.286	74.56
401.51	80.56
401.734	92.56
401.958	89.56
402.182	110.56
402.406	141.56
402.63	99.56
402.854	86.56
403.078	96.56
403.302	77.56
403.526	79.56
403.75	99.56
403.974	76.56
404.198	95.56
404.422	91.56
404.645	80.56
404.869	93.56
405.093	92.56
405.317	94.56
405.541	104.56
405.765	108.56
405.988	111.56
406.212	155.56
406.436	190.56
406.66	118.56
406.883	98.56
407.107	99.56
407.331	86.56
407.555	90.56
407.778	94.56
408.002	78.56
408.226	85.56
408.449	67.56
408.673	74.56
408.896	90.56
409.12	92.56
409.344	88.56
409.567	88.56
409.791	92.56
410.014	72.56
410.238	85.56
410.461	98.56
410.685	76.56
410.908	87.56
411.132	99.56
411.355	89.56
411.578	88.56
411.802	105.56
412.025	91.56
412.249	87.56
412.472	88.56
412.695	78.56
412.919	83.56
413.142	92.56
413.365	94.56
413.589	65.56
413.812	90.56
414.035	90.56
414.258	86.56
414.482	89.56
414.705	104.56
414.928	87.56
415.151	57.56
415.374	103.56
415.597	88.56
415.821	86.56
416.044	87.56
416.267	87.56
416.49	80.56
416.713	99.56
416.936	97.56
417.159	78.56
417.382	90.56
417.605	99.56
417.828	92.56
418.051	98.56
418.274	87.56
418.497	91.56
418.72	83.56
418.943	79.56
419.166	75.56
419.389	75.56
419.611	98.56
419.834	90.56
420.057	86.56
420.28	73.56
420.503	91.56
420.726	89.56
420.948	103.56
421.171	95.56
421.394	76.56
421.617	67.56
421.839	83.56
422.062	95.56
422.285	80.56
422.507	100.56
422.73	95.56
422.953	83.56
423.175	81.56
423.398	77.56
423.621	76.56
423.843	93.56
424.066	84.56
424.288	71.56
424.511	76.56
424.733	94.56
424.956	96.56
425.178	99.56
425.401	87.56
425.623	93.56
425.846	82.56
426.068	88.56
426.291	99.56
426.513	78.56
426.735	87.56
426.958	83.56
427.18	105.56
427.402	146.56
427.625	134.56
427.847	115.56
428.069	100.56
428.292	77.56
428.514	80.56
428.736	73.56
428.958	88.56
429.181	94.56
429.403	93.56
429.625	84.56
429.847	99.56
430.069	93.56
430.292	80.56
430.514	75.56
430.736	72.56
430.958	83.56
431.18	80.56
431.402	92.56
431.624	82.56
431.846	81.56
432.068	94.56
432.29	78.56
432.512	89.56
432.734	86.56
432.956	80.56
433.178	96.56
433.4	109.56
433.622	85.56
433.844	90.56
434.066	78.56
434.287	72.56
434.509	79.56
434.731	84.56
434.953	89.56
435.175	92.56
435.397	85.56
435.618	92.56
435.84	93.56
436.062	113.56
436.284	116.56
436.505	100.56
436.727	97.56
436.949	96.56
437.17	83.56
437.392	97.56
437.614	81.56
437.835	110.56
438.057	111.56
438.278	99.56
438.5	97.56
438.721	129.56
438.943	97.56
439.165	94.56
439.386	89.56
439.608	87.56
439.829	103.56
440.05	112.56
440.272	129.56
440.493	98.56
440.715	88.56
440.936	95.56
441.158	81.56
441.379	90.56
441.6	86.56
441.822	89.56
442.043	92.56
442.264	114.56
442.486	100.56
442.707	82.56
442.928	99.56
443.149	124.56
443.371	137.56
443.592	109.56
443.813	106.56
444.034	93.56
444.255	87.56
444.476	84.56
444.698	80.56
444.919	89.56
445.14	142.56
445.361	117.56
445.582	111.56
445.803	133.56
446.024	127.56
446.245	124.56
446.466	111.56
446.687	93.56
446.908	82.56
447.129	81.56
447.35	92.56
447.571	83.56
447.792	88.56
448.013	94.56
448.234	84.56
448.455	97.56
448.675	108.56
448.896	123.56
449.117	78.56
449.338	91.56
449.559	119.56
449.779	122.56
450	83.56
450.221	91.56
450.442	94.56
450.662	82.56
450.883	106.56
451.104	89.56
451.324	74.56
451.545	86.56
451.766	78.56
451.986	92.56
452.207	80.56
452.428	93.56
452.648	96.56
452.869	101.56
453.089	86.56
453.31	108.56
453.53	85.56
453.751	78.56
453.971	88.56
454.192	104.56
454.412	90.56
454.633	83.56
454.853	72.56
455.073	80.56
455.294	90.56
455.514	88.56
455.734	88.56
455.955	82.56
456.175	65.56
456.395	76.56
456.616	83.56
456.836	86.56
457.056	86.56
457.276	83.56
457.497	75.56
457.717	80.56
457.937	87.56
458.157	78.56
458.377	79.56
458.598	83.56
458.818	135.56
459.038	152.56
459.258	95.56
459.478	91.56
459.698	93.56
459.918	89.56
460.138	85.56
460.358	95.56
460.578	76.56
460.798	89.56
461.018	103.56
461.238	95.56
461.458	95.56
461.678	86.56
461.898	83.56
462.118	86.56
462.338	74.56
462.558	82.56
462.777	77.56
462.997	93.56
463.217	74.56
463.437	63.56
463.657	83.56
463.876	83.56
464.096	87.56
464.316	76.56
464.536	86.56
464.755	90.56
464.975	107.56
465.195	148.56
465.414	134.56
465.634	89.56
465.854	79.56
466.073	90.56
466.293	80.56
466.512	89.56
466.732	81.56
466.951	84.56
467.171	86.56
467.391	88.56
467.61	95.56
467.829	99.56
468.049	89.56
468.268	83.56
468.488	86.56
468.707	67.56
468.927	87.56
469.146	78.56
469.365	69.56
469.585	86.56
469.804	90.56
470.023	87.56
470.243	83.56
470.462	103.56
470.681	108.56
470.901	86.56
471.12	86.56
471.339	95.56
471.558	74.56
471.777	76.56
471.997	87.56
472.216	76.56
472.435	81.56
472.654	87.56
472.873	74.56
473.092	80.56
473.311	84.56
473.53	85.56
473.749	76.56
473.968	90.56
474.187	93.56
474.406	80.56
474.625	73.56
474.844	89.56
475.063	81.56
475.282	91.56
475.501	90.56
475.72	96.56
475.939	94.56
476.158	78.56
476.377	73.56
476.596	72.56
476.814	90.56
477.033	86.56
477.252	92.56
477.471	82.56
477.69	97.56
477.908	87.56
478.127	92.56
478.346	92.56
478.564	95.56
478.783	86.56
479.002	87.56
479.22	91.56
479.439	88.56
479.658	81.56
479.876	82.56
480.095	78.56
480.313	87.56
480.532	91.56
480.751	74.56
480.969	88.56
481.188	91.56
481.406	90.56
481.624	90.56
481.843	100.56
482.061	86.56
482.28	86.56
482.498	83.56
482.717	86.56
482.935	89.56
483.153	86.56
483.372	77.56
483.59	83.56
483.808	86.56
484.027	95.56
484.245	82.56
484.463	100.56
484.681	103.56
484.9	78.56
485.118	84.56
485.336	102.56
485.554	98.56
485.772	92.56
485.99	84.56
486.209	99.56
486.427	99.56
486.645	106.56
486.863	118.56
487.081	98.56
487.299	91.56
487.517	84.56
487.735	77.56
487.953	76.56
488.171	96.56
488.389	91.56
488.607	87.56
488.825	78.56
489.043	78.56
489.261	89.56
489.479	85.56
489.696	92.56
489.914	90.56
490.132	91.56
490.35	99.56
490.568	66.56
490.786	89.56
491.003	86.56
491.221	79.56
491.439	91.56
491.657	94.56
491.874	83.56
492.092	83.56
492.31	83.56
492.527	105.56
492.745	91.56
492.963	92.56
493.18	78.56
493.398	86.56
493.615	85.56
493.833	71.56
494.05	82.56
494.268	77.56
494.485	78.56
494.703	88.56
494.92	88.56
495.138	106.56
495.355	76.56
495.573	82.56
495.79	79.56
496.008	93.56
496.225	90.56
496.442	96.56
496.66	73.56
496.877	90.56
497.094	91.56
497.312	78.56
497.529	80.56
497.746	75.56
497.963	82.56
498.181	98.56
498.398	86.56
498.615	103.56
498.832	95.56
499.049	89.56
499.267	87.56
499.484	73.56
499.701	103.56
499.918	75.56
500.135	87.56
500.352	83.56
500.569	70.56
500.786	90.56
501.003	95.56
501.22	75.56
501.437	87.56
501.654	89.56
501.871	83.56
502.088	79.56
502.305	84.56
502.522	88.56
502.739	81.56
502.956	76.56
503.172	88.56
503.389	107.56
503.606	108.56
503.823	98.56
504.04	95.56
504.256	98.56
504.473	89.56
504.69	82.56
504.907	86.56
505.123	94.56
505.34	86.56
505.557	73.56
505.773	90.56
505.99	89.56
506.207	91.56
506.423	79.56
506.64	80.56
506.856	94.56
507.073	74.56
507.289	78.56
507.506	92.56
507.722	96.56
507.939	105.56
508.155	97.56
508.372	80.56
508.588	89.56
508.805	82.56
509.021	91.56
509.238	82.56
509.454	100.56
509.67	107.56
509.887	113.56
510.103	132.56
510.319	184.56
510.536	646.56
510.752	1913.56
510.968	560.56
511.184	134.56
511.401	96.56
511.617	99.56
511.833	90.56
512.049	87.56
512.265	87.56
512.481	81.56
512.698	71.56
512.914	93.56
513.13	97.56
513.346	91.56
513.562	102.56
513.778	94.56
513.994	103.56
514.21	88.56
514.426	101.56
514.642	113.56
514.858	105.56
515.074	126.56
515.29	377.56
515.506	1255.56
515.721	465.56
515.937	143.56
516.153	94.56
516.369	95.56
516.585	96.56
516.801	86.56
517.016	87.56
517.232	102.56
517.448	94.56
517.664	85.56
517.879	100.56
518.095	89.56
518.311	86.56
518.527	86.56
518.742	102.56
518.958	88.56
519.173	99.56
519.389	87.56
519.605	102.56
519.82	100.56
520.036	96.56
520.251	98.56
520.467	106.56
520.682	89.56
520.898	119.56
521.113	130.56
521.329	127.56
521.544	187.56
521.76	471.56
521.975	2002.56
522.19	1246.56
522.406	271.56
522.621	117.56
522.836	99.56
523.052	105.56
523.267	108.56
523.482	89.56
523.698	82.56
523.913	103.56
524.128	104.56
524.343	89.56
524.559	99.56
524.774	91.56
524.989	90.56
525.204	97.56
525.419	89.56
525.634	88.56
525.849	88.56
526.064	86.56
526.28	91.56
526.495	80.56
526.71	95.56
526.925	76.56
527.14	104.56
527.355	77.56
527.57	98.56
527.785	96.56
527.999	95.56
528.214	80.56
528.429	90.56
528.644	81.56
528.859	98.56
529.074	88.56
529.289	115.56
529.503	166.56
529.718	84.56
529.933	82.56
530.148	86.56
530.363	88.56
530.577	93.56
530.792	76.56
531.007	88.56
531.221	84.56
531.436	88.56
531.651	84.56
531.865	89.56
532.08	94.56
532.295	104.56
532.509	90.56
532.724	80.56
532.938	98.56
533.153	76.56
533.367	110.56
533.582	99.56
533.796	83.56
534.011	84.56
534.225	86.56
534.44	91.56
534.654	96.56
534.868	97.56
535.083	84.56
535.297	78.56
535.511	96.56
535.726	107.56
535.94	108.56
536.154	97.56
536.369	90.56
536.583	80.56
536.797	80.56
537.011	80.56
537.225	76.56
537.44	95.56
537.654	92.56
537.868	92.56
538.082	90.56
538.296	84.56
538.51	79.56
538.724	94.56
538.938	90.56
539.153	93.56
539.367	92.56
539.581	91.56
539.795	83.56
540.009	98.56
540.222	97.56
540.436	90.56
540.65	79.56
540.864	97.56
541.078	81.56
541.292	95.56
541.506	80.56
541.72	79.56
541.934	82.56
542.147	96.56
542.361	85.56
542.575	85.56
542.789	82.56
543.002	75.56
543.216	85.56
543.43	91.56
543.644	70.56
543.857	91.56
544.071	97.56
544.285	90.56
544.498	76.56
544.712	77.56
544.925	86.56
545.139	90.56
545.352	85.56
545.566	89.56
545.779	87.56
545.993	93.56
546.206	89.56
546.42	91.56
546.633	74.56
546.847	76.56
547.06	91.56
547.274	96.56
547.487	89.56
547.7	74.56
547.914	87.56
548.127	86.56
548.34	85.56
548.554	84.56
548.767	84.56
548.98	88.56
549.193	76.56
549.407	91.56
549.62	90.56
549.833	83.56
550.046	92.56
550.259	88.56
550.473	91.56
550.686	65.56
550.899	87.56
551.112	102.56
551.325	97.56
551.538	86.56
551.751	100.56
551.964	95.56
552.177	90.56
552.39	89.56
552.603	95.56
552.816	86.56
553.029	99.56
553.242	78.56
553.455	93.56
553.667	107.56
553.88	99.56
554.093	87.56
554.306	82.56
554.519	84.56
554.732	94.56
554.944	92.56
555.157	84.56
555.37	87.56
555.583	88.56
555.795	97.56
556.008	78.56
556.221	94.56
556.433	90.56
556.646	89.56
556.859	88.56
557.071	80.56
557.284	87.56
557.496	84.56
557.709	73.56
557.921	73.56
558.134	77.56
558.346	97.56
558.559	84.56
558.771	95.56
558.984	94.56
559.196	92.56
559.409	84.56
559.621	84.56
559.833	73.56
560.046	79.56
560.258	86.56
560.47	93.56
560.683	78.56
560.895	86.56
561.107	86.56
561.32	94.56
561.532	92.56
561.744	85.56
561.956	95.56
562.168	99.56
562.381	88.56
562.593	78.56
562.805	84.56
563.017	96.56
563.229	95.56
563.441	83.56
563.653	79.56
563.865	92.56
564.077	88.56
564.289	78.56
564.501	81.56
564.713	90.56
564.925	89.56
565.137	106.56
565.349	102.56
565.561	93.56
565.773	85.56
565.985	97.56
566.197	90.56
566.408	87.56
566.62	90.56
566.832	71.56
567.044	78.56
567.255	78.56
567.467	79.56
567.679	87.56
567.891	89.56
568.102	94.56
568.314	86.56
568.526	86.56
568.737	94.56
568.949	82.56
569.161	78.56
569.372	93.56
569.584	87.56
569.795	96.56
570.007	113.56
570.218	229.56
570.43	144.56
570.641	72.56
570.853	72.56
571.064	90.56
571.276	80.56
571.487	90.56
571.698	80.56
571.91	85.56
572.121	87.56
572.333	77.56
572.544	85.56
572.755	94.56
572.966	88.56
573.178	84.56
573.389	91.56
573.6	80.56
573.811	81.56
574.023	95.56
574.234	97.56
574.445	99.56
574.656	71.56
574.867	77.56
575.078	88.56
575.289	88.56
575.501	92.56
575.712	82.56
575.923	90.56
576.134	72.56
576.345	89.56
576.556	80.56
576.767	71.56
576.978	83.56
577.188	89.56
577.399	84.56
577.61	92.56
577.821	100.56
578.032	112.56
578.243	235.56
578.454	673.56
578.665	188.56
578.875	96.56
579.086	82.56
579.297	89.56
579.508	96.56
579.718	80.56
579.929	74.56
580.14	94.56
580.35	88.56
580.561	89.56
580.772	79.56
580.982	78.56
581.193	82.56
581.403	77.56
581.614	102.56
581.825	87.56
582.035	89.56
582.246	88.56
582.456	88.56
582.667	77.56
582.877	92.56
583.087	95.56
583.298	92.56
583.508	84.56
583.719	89.56
583.929	83.56
584.139	75.56
584.35	94.56
584.56	96.56
584.77	92.56
584.981	79.56
585.191	78.56
585.401	91.56
585.611	83.56
585.821	84.56
586.032	90.56
586.242	75.56
586.452	88.56
586.662	72.56
586.872	77.56
587.082	78.56
587.292	87.56
587.502	78.56
587.713	89.56
587.923	89.56
588.133	82.56
588.343	86.56
588.553	100.56
588.762	90.56
588.972	104.56
589.182	82.56
589.392	83.56
589.602	83.56
589.812	73.56
590.022	76.56
590.232	95.56
590.441	97.56
590.651	77.56
590.861	84.56
591.071	82.56
591.281	72.56
591.49	79.56
591.7	84.56
591.91	93.56
592.119	65.56
592.329	102.56
592.539	83.56
592.748	82.56
592.958	65.56
593.167	91.56
593.377	76.56
593.587	89.56
593.796	86.56
594.006	65.56
594.215	82.56
594.424	86.56
594.634	88.56
594.843	102.56
595.053	91.56
595.262	70.56
595.472	79.56
595.681	91.56
595.89	78.56
596.1	72.56
596.309	84.56
596.518	78.56
596.727	86.56
596.937	86.56
597.146	80.56
597.355	93.56
597.564	88.56
597.774	89.56
597.983	92.56
598.192	75.56
598.401	84.56
598.61	76.56
598.819	88.56
599.028	89.56
599.237	90.56
599.446	92.56
599.655	95.56
599.864	97.56
600.073	92.56
600.282	81.56
600.491	94.56
600.7	79.56
600.909	80.56
601.118	87.56
601.327	84.56
601.536	68.56
601.745	83.56
601.953	84.56
602.162	80.56
602.371	81.56
602.58	84.56
602.789	81.56
602.997	97.56
603.206	89.56
603.415	86.56
603.623	77.56
603.832	88.56
604.041	91.56
604.249	80.56
604.458	85.56
604.666	91.56
604.875	91.56
605.084	76.56
605.292	84.56
605.501	91.56
605.709	79.56
605.918	80.56
606.126	87.56
606.334	78.56
606.543	83.56
606.751	68.56
606.96	97.56
607.168	97.56
607.376	93.56
607.585	71.56
607.793	80.56
608.001	90.56
608.21	95.56
608.418	84.56
608.626	78.56
608.834	90.56
609.043	71.56
609.251	77.56
609.459	86.56
609.667	89.56
609.875	102.56
610.083	73.56
610.291	66.56
610.499	77.56
610.707	94.56
610.916	93.56
611.124	83.56
611.332	88.56
611.54	86.56
611.748	74.56
611.955	83.56
612.163	84.56
612.371	87.56
612.579	93.56
612.787	75.56
612.995	82.56
613.203	80.56
613.411	79.56
613.618	74.56
613.826	88.56
614.034	90.56
614.242	66.56
614.449	92.56
614.657	98.56
614.865	77.56
615.072	94.56
615.28	91.56
615.488	79.56
615.695	99.56
615.903	90.56
616.111	101.56
616.318	93.56
616.526	77.56
616.733	89.56
616.941	91.56
617.148	81.56
617.356	94.56
617.563	82.56
617.771	94.56
617.978	83.56
618.185	97.56
618.393	92.56
618.6	77.56
618.807	75.56
619.015	86.56
619.222	91.56
619.429	84.56
619.637	75.56
619.844	99.56
620.051	85.56
620.258	84.56
620.466	66.56
620.673	84.56
620.88	84.56
621.087	78.56
621.294	84.56
621.501	84.56
621.708	87.56
621.915	82.56
622.122	66.56
622.329	82.56
622.536	87.56
622.743	72.56
622.95	73.56
623.157	92.56
623.364	106.56
623.571	74.56
623.778	80.56
623.985	86.56
624.192	82.56
624.399	93.56
624.606	77.56
624.812	79.56
625.019	93.56
625.226	63.56
625.433	91.56
625.639	82.56
625.846	78.56
626.053	81.56
626.259	89.56
626.466	77.56
626.673	66.56
626.879	87.56
627.086	72.56
627.293	90.56
627.499	79.56
627.706	97.56
627.912	99.56
628.119	95.56
628.325	82.56
628.532	85.56
628.738	74.56
628.945	80.56
629.151	87.56
629.357	80.56
629.564	90.56
629.77	92.56
629.976	90.56
630.183	85.56
630.389	79.56
630.595	72.56
630.802	85.56
631.008	80.56
631.214	85.56
631.42	80.56
631.627	89.56
631.833	87.56
632.039	82.56
632.245	81.56
632.451	77.56
632.657	83.56
632.863	82.56
633.069	94.56
633.275	86.56
633.481	66.56
633.688	76.56
633.893	83.56
634.099	97.56
634.305	71.56
634.511	68.56
634.717	70.56
634.923	84.56
635.129	74.56
635.335	80.56
635.541	78.56
635.747	83.56
635.952	83.56
636.158	74.56
636.364	91.56
636.57	71.56
636.775	68.56
636.981	88.56
637.187	77.56
637.392	72.56
637.598	79.56
637.804	74.56
638.009	64.56
638.215	82.56
638.421	89.56
638.626	78.56
638.832	104.56
639.037	80.56
639.243	78.56
639.448	84.56
639.654	96.56
639.859	77.56
640.065	78.56
640.27	87.56
640.475	72.56
640.681	85.56
640.886	86.56
641.091	73.56
641.297	83.56
641.502	83.56
641.707	88.56
641.913	81.56
642.118	87.56
642.323	88.56
642.528	78.56
642.733	82.56
642.939	75.56
643.144	83.56
643.349	86.56
643.554	83.56
643.759	81.56
643.964	89.56
644.169	71.56
644.374	85.56
644.579	100.56
644.784	73.56
644.989	78.56
645.194	86.56
645.399	78.56
645.604	73.56
645.809	80.56
646.014	65.56
646.219	84.56
646.423	92.56
646.628	83.56
646.833	81.56
647.038	75.56
647.243	91.56
647.447	87.56
647.652	72.56
647.857	71.56
648.062	98.56
648.266	84.56
648.471	86.56
648.676	90.56
648.88	82.56
649.085	78.56
649.289	82.56
649.494	88.56
649.698	136.56
649.903	106.56
650.107	84.56
650.312	91.56
650.516	72.56
650.721	84.56
650.925	71.56
651.13	77.56
651.334	78.56
651.539	86.56
651.743	86.56
651.947	84.56
652.152	81.56
652.356	78.56
652.56	72.56
652.764	73.56
652.969	61.56
653.173	80.56
653.377	75.56
653.581	77.56
653.785	97.56
653.99	83.56
654.194	80.56
654.398	79.56
654.602	83.56
654.806	70.56
655.01	99.56
655.214	92.56
655.418	94.56
655.622	79.56
655.826	91.56
656.03	83.56
656.234	82.56
656.438	92.56
656.642	81.56
656.846	92.56
657.049	74.56
657.253	82.56
657.457	91.56
657.661	90.56
657.865	81.56
658.068	79.56
658.272	87.56
658.476	89.56
658.68	82.56
658.883	74.56
659.087	70.56
659.291	86.56
659.494	66.56
659.698	83.56
659.901	80.56
660.105	71.56
660.309	73.56
660.512	84.56
660.716	82.56
660.919	83.56
661.123	93.56
661.326	74.56
661.53	79.56
661.733	57.56
661.936	82.56
662.14	83.56
662.343	80.56
662.546	73.56
662.75	86.56
662.953	80.56
663.156	77.56
663.36	73.56
663.563	79.56
663.766	82.56
663.969	75.56
664.173	78.56
664.376	94.56
664.579	82.56
664.782	81.56
664.985	78.56
665.188	63.56
665.391	75.56
665.594	88.56
665.797	80.56
666	81.56
666.203	79.56
666.406	74.56
666.609	77.56
666.812	78.56
667.015	79.56
667.218	67.56
667.421	78.56
667.624	84.56
667.827	73.56
668.03	82.56
668.232	65.56
668.435	77.56
668.638	68.56
668.841	92.56
669.043	73.56
669.246	80.56
669.449	76.56
669.651	78.56
669.854	89.56
670.057	82.56
670.259	75.56
670.462	74.56
670.665	77.56
670.867	66.56
671.07	87.56
671.272	78.56
671.475	90.56
671.677	81.56
671.88	92.56
672.082	76.56
672.284	84.56
672.487	67.56
672.689	75.56
672.892	80.56
