Data from Uncirc_1991_H10_HRD10591_00047.txt Node
Date: Wed Jan 03 11:50:47 EST 2024
User: Yrep
Spectrometer: HR+D1059
Trigger mode: 1
Integration Time (sec): 1.000000E-1
Scans to average: 1
Electric dark correction enabled: true
Nonlinearity correction enabled: false
Boxcar width: 0
XAxis mode: Wavelengths
Number of Pixels in Spectrum: 2048
>>>>>Begin Spectral Data<<<<<
223.165	-24.5
223.4	-24.5
223.635	-24.5
223.869	-17.5
224.104	-21.5
224.338	-26.5
224.573	-15.5
224.808	-11.5
225.042	3.5
225.277	-5.5
225.511	-3.5
225.746	10.5
225.98	10.5
226.215	7.5
226.449	30.5
226.683	20.5
226.918	25.5
227.152	17.5
227.387	34.5
227.621	48.5
227.856	50.5
228.09	58.5
228.324	57.5
228.559	50.5
228.793	52.5
229.027	70.5
229.262	69.5
229.496	83.5
229.73	84.5
229.964	89.5
230.199	64.5
230.433	83.5
230.667	82.5
230.901	78.5
231.136	73.5
231.37	82.5
231.604	78.5
231.838	85.5
232.072	74.5
232.306	83.5
232.541	87.5
232.775	77.5
233.009	75.5
233.243	87.5
233.477	89.5
233.711	71.5
233.945	77.5
234.179	78.5
234.413	83.5
234.647	98.5
234.881	69.5
235.115	86.5
235.349	83.5
235.583	96.5
235.817	82.5
236.051	80.5
236.285	83.5
236.519	85.5
236.753	86.5
236.987	81.5
237.221	86.5
237.455	78.5
237.689	75.5
237.922	74.5
238.156	88.5
238.39	91.5
238.624	69.5
238.858	92.5
239.091	78.5
239.325	72.5
239.559	86.5
239.793	78.5
240.027	79.5
240.26	71.5
240.494	83.5
240.728	69.5
240.961	88.5
241.195	65.5
241.429	74.5
241.662	79.5
241.896	82.5
242.13	75.5
242.363	65.5
242.597	83.5
242.83	77.5
243.064	82.5
243.298	74.5
243.531	83.5
243.765	82.5
243.998	82.5
244.232	73.5
244.465	75.5
244.699	99.5
244.932	89.5
245.166	75.5
245.399	79.5
245.633	67.5
245.866	77.5
246.099	76.5
246.333	83.5
246.566	78.5
246.8	74.5
247.033	75.5
247.266	69.5
247.5	52.5
247.733	69.5
247.966	74.5
248.2	92.5
248.433	75.5
248.666	75.5
248.899	79.5
249.133	88.5
249.366	84.5
249.599	90.5
249.832	86.5
250.066	75.5
250.299	78.5
250.532	66.5
250.765	84.5
250.998	82.5
251.231	82.5
251.465	82.5
251.698	69.5
251.931	90.5
252.164	69.5
252.397	78.5
252.63	72.5
252.863	66.5
253.096	85.5
253.329	87.5
253.562	92.5
253.795	87.5
254.028	88.5
254.261	85.5
254.494	78.5
254.727	86.5
254.96	81.5
255.193	86.5
255.426	80.5
255.659	81.5
255.892	79.5
256.124	75.5
256.357	93.5
256.59	88.5
256.823	86.5
257.056	91.5
257.289	69.5
257.521	93.5
257.754	68.5
257.987	82.5
258.22	92.5
258.452	79.5
258.685	82.5
258.918	88.5
259.151	63.5
259.383	84.5
259.616	79.5
259.849	79.5
260.081	77.5
260.314	80.5
260.547	76.5
260.779	97.5
261.012	75.5
261.244	79.5
261.477	86.5
261.71	99.5
261.942	103.5
262.175	120.5
262.407	97.5
262.64	75.5
262.872	80.5
263.105	98.5
263.337	83.5
263.57	69.5
263.802	87.5
264.035	75.5
264.267	84.5
264.499	75.5
264.732	78.5
264.964	79.5
265.197	89.5
265.429	80.5
265.661	74.5
265.894	64.5
266.126	83.5
266.358	80.5
266.591	91.5
266.823	92.5
267.055	76.5
267.287	91.5
267.52	81.5
267.752	77.5
267.984	99.5
268.216	89.5
268.448	95.5
268.681	102.5
268.913	92.5
269.145	90.5
269.377	104.5
269.609	82.5
269.841	79.5
270.073	86.5
270.306	82.5
270.538	86.5
270.77	81.5
271.002	85.5
271.234	78.5
271.466	86.5
271.698	87.5
271.93	100.5
272.162	95.5
272.394	108.5
272.626	82.5
272.858	79.5
273.09	91.5
273.322	75.5
273.553	82.5
273.785	69.5
274.017	76.5
274.249	90.5
274.481	75.5
274.713	85.5
274.945	94.5
275.176	83.5
275.408	88.5
275.64	103.5
275.872	103.5
276.104	81.5
276.335	95.5
276.567	104.5
276.799	108.5
277.031	98.5
277.262	91.5
277.494	92.5
277.726	92.5
277.957	82.5
278.189	84.5
278.421	90.5
278.652	95.5
278.884	89.5
279.115	74.5
279.347	96.5
279.579	94.5
279.81	98.5
280.042	97.5
280.273	90.5
280.505	91.5
280.736	104.5
280.968	68.5
281.199	97.5
281.431	87.5
281.662	93.5
281.894	87.5
282.125	94.5
282.356	120.5
282.588	132.5
282.819	119.5
283.051	90.5
283.282	100.5
283.513	89.5
283.745	79.5
283.976	84.5
284.207	90.5
284.439	99.5
284.67	100.5
284.901	92.5
285.132	94.5
285.364	83.5
285.595	101.5
285.826	106.5
286.057	100.5
286.288	91.5
286.52	77.5
286.751	87.5
286.982	92.5
287.213	85.5
287.444	102.5
287.675	98.5
287.906	103.5
288.138	81.5
288.369	91.5
288.6	93.5
288.831	88.5
289.062	87.5
289.293	100.5
289.524	92.5
289.755	93.5
289.986	91.5
290.217	88.5
290.448	80.5
290.679	107.5
290.91	92.5
291.141	84.5
291.371	76.5
291.602	79.5
291.833	91.5
292.064	94.5
292.295	77.5
292.526	90.5
292.757	83.5
292.987	89.5
293.218	78.5
293.449	71.5
293.68	80.5
293.91	69.5
294.141	86.5
294.372	98.5
294.603	98.5
294.833	92.5
295.064	89.5
295.295	88.5
295.525	94.5
295.756	100.5
295.987	111.5
296.217	135.5
296.448	130.5
296.679	98.5
296.909	80.5
297.14	94.5
297.37	103.5
297.601	86.5
297.831	90.5
298.062	93.5
298.292	92.5
298.523	85.5
298.753	88.5
298.984	83.5
299.214	86.5
299.445	72.5
299.675	98.5
299.905	84.5
300.136	107.5
300.366	106.5
300.597	81.5
300.827	91.5
301.057	94.5
301.288	102.5
301.518	97.5
301.748	86.5
301.979	104.5
302.209	103.5
302.439	89.5
302.669	84.5
302.9	74.5
303.13	101.5
303.36	82.5
303.59	102.5
303.82	108.5
304.051	91.5
304.281	87.5
304.511	89.5
304.741	80.5
304.971	87.5
305.201	93.5
305.431	99.5
305.661	83.5
305.891	87.5
306.121	99.5
306.352	95.5
306.582	104.5
306.812	101.5
307.042	101.5
307.272	85.5
307.502	86.5
307.731	84.5
307.961	82.5
308.191	83.5
308.421	94.5
308.651	97.5
308.881	97.5
309.111	94.5
309.341	93.5
309.571	97.5
309.8	96.5
310.03	110.5
310.26	95.5
310.49	104.5
310.72	93.5
310.949	100.5
311.179	115.5
311.409	100.5
311.639	97.5
311.868	98.5
312.098	102.5
312.328	100.5
312.557	98.5
312.787	113.5
313.017	104.5
313.246	91.5
313.476	100.5
313.706	106.5
313.935	101.5
314.165	90.5
314.394	95.5
314.624	98.5
314.853	106.5
315.083	90.5
315.312	100.5
315.542	100.5
315.771	90.5
316.001	90.5
316.23	86.5
316.46	88.5
316.689	86.5
316.919	92.5
317.148	103.5
317.377	88.5
317.607	88.5
317.836	100.5
318.065	90.5
318.295	96.5
318.524	100.5
318.753	86.5
318.983	104.5
319.212	102.5
319.441	113.5
319.67	108.5
319.9	91.5
320.129	102.5
320.358	92.5
320.587	86.5
320.816	97.5
321.046	116.5
321.275	113.5
321.504	102.5
321.733	104.5
321.962	97.5
322.191	112.5
322.42	120.5
322.649	114.5
322.878	94.5
323.108	118.5
323.337	128.5
323.566	139.5
323.795	158.5
324.024	235.5
324.253	440.5
324.482	959.5
324.71	1900.5
324.939	2635.5
325.168	946.5
325.397	273.5
325.626	142.5
325.855	137.5
326.084	131.5
326.313	135.5
326.542	180.5
326.77	228.5
326.999	507.5
327.228	1037.5
327.457	1964.5
327.686	1536.5
327.914	402.5
328.143	215.5
328.372	154.5
328.6	138.5
328.829	130.5
329.058	129.5
329.287	127.5
329.515	100.5
329.744	113.5
329.972	102.5
330.201	107.5
330.43	114.5
330.658	118.5
330.887	155.5
331.115	141.5
331.344	98.5
331.572	115.5
331.801	115.5
332.03	109.5
332.258	108.5
332.486	104.5
332.715	78.5
332.943	84.5
333.172	97.5
333.4	96.5
333.629	118.5
333.857	126.5
334.085	104.5
334.314	94.5
334.542	94.5
334.771	86.5
334.999	92.5
335.227	101.5
335.455	94.5
335.684	103.5
335.912	92.5
336.14	87.5
336.369	103.5
336.597	110.5
336.825	86.5
337.053	85.5
337.281	94.5
337.51	102.5
337.738	87.5
337.966	98.5
338.194	98.5
338.422	98.5
338.65	112.5
338.878	104.5
339.106	111.5
339.334	100.5
339.562	81.5
339.79	98.5
340.018	80.5
340.246	98.5
340.474	99.5
340.702	100.5
340.93	93.5
341.158	93.5
341.386	100.5
341.614	102.5
341.842	99.5
342.07	93.5
342.298	91.5
342.526	86.5
342.754	80.5
342.981	85.5
343.209	87.5
343.437	95.5
343.665	91.5
343.893	102.5
344.12	88.5
344.348	77.5
344.576	90.5
344.804	101.5
345.031	98.5
345.259	106.5
345.487	94.5
345.714	87.5
345.942	100.5
346.17	99.5
346.397	113.5
346.625	91.5
346.853	96.5
347.08	97.5
347.308	107.5
347.535	101.5
347.763	104.5
347.99	92.5
348.218	101.5
348.445	113.5
348.673	109.5
348.9	96.5
349.128	103.5
349.355	94.5
349.583	110.5
349.81	99.5
350.037	106.5
350.265	97.5
350.492	91.5
350.72	100.5
350.947	101.5
351.174	105.5
351.402	110.5
351.629	104.5
351.856	109.5
352.083	93.5
352.311	118.5
352.538	128.5
352.765	111.5
352.992	115.5
353.22	112.5
353.447	111.5
353.674	91.5
353.901	93.5
354.128	92.5
354.355	111.5
354.583	97.5
354.81	95.5
355.037	101.5
355.264	95.5
355.491	92.5
355.718	90.5
355.945	96.5
356.172	100.5
356.399	86.5
356.626	97.5
356.853	86.5
357.08	82.5
357.307	99.5
357.534	90.5
357.761	97.5
357.988	98.5
358.215	91.5
358.441	92.5
358.668	90.5
358.895	76.5
359.122	85.5
359.349	90.5
359.576	114.5
359.802	109.5
360.029	123.5
360.256	109.5
360.483	99.5
360.709	97.5
360.936	91.5
361.163	90.5
361.39	87.5
361.616	94.5
361.843	85.5
362.07	106.5
362.296	96.5
362.523	97.5
362.749	90.5
362.976	96.5
363.203	91.5
363.429	95.5
363.656	77.5
363.882	78.5
364.109	90.5
364.335	89.5
364.562	88.5
364.788	80.5
365.015	107.5
365.241	111.5
365.468	124.5
365.694	115.5
365.92	101.5
366.147	97.5
366.373	95.5
366.599	100.5
366.826	84.5
367.052	84.5
367.278	90.5
367.505	102.5
367.731	104.5
367.957	91.5
368.184	108.5
368.41	102.5
368.636	114.5
368.862	119.5
369.089	107.5
369.315	92.5
369.541	100.5
369.767	102.5
369.993	98.5
370.219	89.5
370.445	101.5
370.672	99.5
370.898	88.5
371.124	85.5
371.35	98.5
371.576	92.5
371.802	87.5
372.028	84.5
372.254	83.5
372.48	103.5
372.706	69.5
372.932	78.5
373.158	93.5
373.384	83.5
373.61	95.5
373.835	106.5
374.061	93.5
374.287	88.5
374.513	86.5
374.739	97.5
374.965	84.5
375.191	92.5
375.416	93.5
375.642	97.5
375.868	86.5
376.094	102.5
376.319	85.5
376.545	88.5
376.771	96.5
376.997	89.5
377.222	96.5
377.448	103.5
377.674	106.5
377.899	92.5
378.125	88.5
378.35	97.5
378.576	80.5
378.802	86.5
379.027	98.5
379.253	92.5
379.478	98.5
379.704	84.5
379.929	85.5
380.155	107.5
380.38	88.5
380.606	85.5
380.831	86.5
381.057	93.5
381.282	88.5
381.507	96.5
381.733	85.5
381.958	102.5
382.184	105.5
382.409	103.5
382.634	102.5
382.86	83.5
383.085	93.5
383.31	103.5
383.535	104.5
383.761	105.5
383.986	104.5
384.211	95.5
384.436	82.5
384.662	87.5
384.887	102.5
385.112	101.5
385.337	116.5
385.562	110.5
385.787	107.5
386.013	105.5
386.238	109.5
386.463	97.5
386.688	95.5
386.913	102.5
387.138	103.5
387.363	101.5
387.588	97.5
387.813	104.5
388.038	99.5
388.263	108.5
388.488	107.5
388.713	104.5
388.938	107.5
389.163	107.5
389.387	110.5
389.612	101.5
389.837	82.5
390.062	97.5
390.287	86.5
390.512	81.5
390.736	86.5
390.961	93.5
391.186	102.5
391.411	78.5
391.636	94.5
391.86	83.5
392.085	97.5
392.31	102.5
392.534	99.5
392.759	83.5
392.984	87.5
393.208	84.5
393.433	97.5
393.658	98.5
393.882	82.5
394.107	90.5
394.331	85.5
394.556	85.5
394.78	91.5
395.005	68.5
395.229	96.5
395.454	96.5
395.678	90.5
395.903	88.5
396.127	82.5
396.352	91.5
396.576	78.5
396.801	90.5
397.025	77.5
397.249	82.5
397.474	101.5
397.698	90.5
397.922	93.5
398.147	88.5
398.371	94.5
398.595	85.5
398.82	86.5
399.044	90.5
399.268	101.5
399.492	88.5
399.717	83.5
399.941	87.5
400.165	101.5
400.389	78.5
400.613	95.5
400.837	78.5
401.062	88.5
401.286	94.5
401.51	95.5
401.734	91.5
401.958	103.5
402.182	122.5
402.406	167.5
402.63	123.5
402.854	100.5
403.078	98.5
403.302	84.5
403.526	103.5
403.75	86.5
403.974	93.5
404.198	81.5
404.422	83.5
404.645	78.5
404.869	80.5
405.093	93.5
405.317	90.5
405.541	106.5
405.765	105.5
405.988	128.5
406.212	190.5
406.436	266.5
406.66	151.5
406.883	105.5
407.107	96.5
407.331	103.5
407.555	91.5
407.778	101.5
408.002	88.5
408.226	91.5
408.449	83.5
408.673	86.5
408.896	95.5
409.12	91.5
409.344	101.5
409.567	87.5
409.791	95.5
410.014	93.5
410.238	79.5
410.461	94.5
410.685	96.5
410.908	104.5
411.132	103.5
411.355	108.5
411.578	83.5
411.802	91.5
412.025	92.5
412.249	82.5
412.472	81.5
412.695	99.5
412.919	94.5
413.142	96.5
413.365	91.5
413.589	94.5
413.812	96.5
414.035	70.5
414.258	95.5
414.482	102.5
414.705	90.5
414.928	97.5
415.151	89.5
415.374	116.5
415.597	89.5
415.821	96.5
416.044	98.5
416.267	92.5
416.49	88.5
416.713	85.5
416.936	111.5
417.159	94.5
417.382	88.5
417.605	95.5
417.828	109.5
418.051	91.5
418.274	93.5
418.497	83.5
418.72	82.5
418.943	95.5
419.166	74.5
419.389	81.5
419.611	87.5
419.834	80.5
420.057	104.5
420.28	96.5
420.503	93.5
420.726	98.5
420.948	101.5
421.171	102.5
421.394	98.5
421.617	92.5
421.839	84.5
422.062	97.5
422.285	103.5
422.507	103.5
422.73	101.5
422.953	91.5
423.175	70.5
423.398	89.5
423.621	82.5
423.843	97.5
424.066	91.5
424.288	83.5
424.511	101.5
424.733	103.5
424.956	112.5
425.178	103.5
425.401	100.5
425.623	91.5
425.846	90.5
426.068	91.5
426.291	95.5
426.513	105.5
426.735	91.5
426.958	84.5
427.18	109.5
427.402	153.5
427.625	189.5
427.847	148.5
428.069	105.5
428.292	86.5
428.514	84.5
428.736	83.5
428.958	76.5
429.181	87.5
429.403	85.5
429.625	82.5
429.847	103.5
430.069	108.5
430.292	82.5
430.514	86.5
430.736	94.5
430.958	80.5
431.18	82.5
431.402	82.5
431.624	85.5
431.846	93.5
432.068	88.5
432.29	84.5
432.512	91.5
432.734	78.5
432.956	92.5
433.178	101.5
433.4	87.5
433.622	91.5
433.844	101.5
434.066	91.5
434.287	83.5
434.509	78.5
434.731	106.5
434.953	93.5
435.175	74.5
435.397	84.5
435.618	100.5
435.84	106.5
436.062	129.5
436.284	134.5
436.505	111.5
436.727	100.5
436.949	84.5
437.17	83.5
437.392	90.5
437.614	104.5
437.835	118.5
438.057	123.5
438.278	125.5
438.5	111.5
438.721	136.5
438.943	101.5
439.165	101.5
439.386	99.5
439.608	95.5
439.829	95.5
440.05	130.5
440.272	153.5
440.493	103.5
440.715	78.5
440.936	95.5
441.158	91.5
441.379	94.5
441.6	88.5
441.822	97.5
442.043	104.5
442.264	115.5
442.486	114.5
442.707	100.5
442.928	96.5
443.149	133.5
443.371	138.5
443.592	106.5
443.813	109.5
444.034	127.5
444.255	87.5
444.476	93.5
444.698	94.5
444.919	103.5
445.14	132.5
445.361	116.5
445.582	116.5
445.803	150.5
446.024	135.5
446.245	145.5
446.466	138.5
446.687	87.5
446.908	94.5
447.129	91.5
447.35	101.5
447.571	94.5
447.792	94.5
448.013	91.5
448.234	107.5
448.455	105.5
448.675	130.5
448.896	139.5
449.117	110.5
449.338	112.5
449.559	146.5
449.779	139.5
450	106.5
450.221	92.5
450.442	95.5
450.662	103.5
450.883	100.5
451.104	110.5
451.324	103.5
451.545	96.5
451.766	95.5
451.986	93.5
452.207	94.5
452.428	96.5
452.648	123.5
452.869	106.5
453.089	110.5
453.31	107.5
453.53	98.5
453.751	91.5
453.971	100.5
454.192	115.5
454.412	92.5
454.633	94.5
454.853	93.5
455.073	92.5
455.294	92.5
455.514	104.5
455.734	112.5
455.955	109.5
456.175	92.5
456.395	75.5
456.616	93.5
456.836	73.5
457.056	98.5
457.276	81.5
457.497	91.5
457.717	80.5
457.937	101.5
458.157	80.5
458.377	82.5
458.598	97.5
458.818	159.5
459.038	180.5
459.258	128.5
459.478	94.5
459.698	81.5
459.918	96.5
460.138	87.5
460.358	81.5
460.578	88.5
460.798	83.5
461.018	81.5
461.238	93.5
461.458	89.5
461.678	96.5
461.898	76.5
462.118	76.5
462.338	96.5
462.558	94.5
462.777	82.5
462.997	69.5
463.217	77.5
463.437	97.5
463.657	88.5
463.876	85.5
464.096	87.5
464.316	90.5
464.536	88.5
464.755	87.5
464.975	111.5
465.195	172.5
465.414	169.5
465.634	95.5
465.854	84.5
466.073	85.5
466.293	92.5
466.512	87.5
466.732	69.5
466.951	74.5
467.171	83.5
467.391	88.5
467.61	104.5
467.829	104.5
468.049	107.5
468.268	71.5
468.488	96.5
468.707	86.5
468.927	79.5
469.146	68.5
469.365	81.5
469.585	87.5
469.804	102.5
470.023	91.5
470.243	91.5
470.462	111.5
470.681	114.5
470.901	92.5
471.12	90.5
471.339	85.5
471.558	95.5
471.777	109.5
471.997	91.5
472.216	91.5
472.435	90.5
472.654	98.5
472.873	93.5
473.092	104.5
473.311	107.5
473.53	82.5
473.749	87.5
473.968	100.5
474.187	104.5
474.406	92.5
474.625	91.5
474.844	86.5
475.063	80.5
475.282	83.5
475.501	90.5
475.72	90.5
475.939	97.5
476.158	88.5
476.377	91.5
476.596	100.5
476.814	98.5
477.033	93.5
477.252	93.5
477.471	93.5
477.69	94.5
477.908	82.5
478.127	77.5
478.346	91.5
478.564	100.5
478.783	96.5
479.002	101.5
479.22	90.5
479.439	91.5
479.658	99.5
479.876	98.5
480.095	76.5
480.313	84.5
480.532	83.5
480.751	85.5
480.969	100.5
481.188	110.5
481.406	98.5
481.624	100.5
481.843	89.5
482.061	88.5
482.28	78.5
482.498	87.5
482.717	98.5
482.935	95.5
483.153	93.5
483.372	95.5
483.59	96.5
483.808	77.5
484.027	95.5
484.245	97.5
484.463	103.5
484.681	99.5
484.9	85.5
485.118	98.5
485.336	80.5
485.554	83.5
485.772	108.5
485.99	107.5
486.209	101.5
486.427	99.5
486.645	105.5
486.863	130.5
487.081	105.5
487.299	105.5
487.517	94.5
487.735	100.5
487.953	92.5
488.171	91.5
488.389	97.5
488.607	94.5
488.825	97.5
489.043	89.5
489.261	101.5
489.479	90.5
489.696	86.5
489.914	84.5
490.132	94.5
490.35	95.5
490.568	103.5
490.786	98.5
491.003	93.5
491.221	80.5
491.439	94.5
491.657	108.5
491.874	88.5
492.092	74.5
492.31	98.5
492.527	83.5
492.745	90.5
492.963	95.5
493.18	85.5
493.398	96.5
493.615	92.5
493.833	94.5
494.05	87.5
494.268	86.5
494.485	91.5
494.703	85.5
494.92	92.5
495.138	90.5
495.355	90.5
495.573	90.5
495.79	83.5
496.008	118.5
496.225	99.5
496.442	98.5
496.66	82.5
496.877	102.5
497.094	99.5
497.312	99.5
497.529	91.5
497.746	92.5
497.963	91.5
498.181	96.5
498.398	100.5
498.615	101.5
498.832	104.5
499.049	87.5
499.267	108.5
499.484	88.5
499.701	84.5
499.918	89.5
500.135	88.5
500.352	86.5
500.569	108.5
500.786	91.5
501.003	97.5
501.22	100.5
501.437	93.5
501.654	103.5
501.871	112.5
502.088	97.5
502.305	81.5
502.522	89.5
502.739	79.5
502.956	99.5
503.172	91.5
503.389	92.5
503.606	103.5
503.823	97.5
504.04	94.5
504.256	83.5
504.473	88.5
504.69	93.5
504.907	90.5
505.123	99.5
505.34	99.5
505.557	98.5
505.773	92.5
505.99	90.5
506.207	91.5
506.423	93.5
506.64	84.5
506.856	91.5
507.073	94.5
507.289	102.5
507.506	102.5
507.722	116.5
507.939	127.5
508.155	106.5
508.372	88.5
508.588	94.5
508.805	94.5
509.021	96.5
509.238	98.5
509.454	111.5
509.67	112.5
509.887	112.5
510.103	133.5
510.319	238.5
510.536	798.5
510.752	2538.5
510.968	695.5
511.184	165.5
511.401	120.5
511.617	98.5
511.833	95.5
512.049	95.5
512.265	85.5
512.481	92.5
512.698	86.5
512.914	91.5
513.13	88.5
513.346	90.5
513.562	100.5
513.778	94.5
513.994	110.5
514.21	112.5
514.426	115.5
514.642	139.5
514.858	132.5
515.074	168.5
515.29	522.5
515.506	1774.5
515.721	625.5
515.937	165.5
516.153	116.5
516.369	94.5
516.585	83.5
516.801	88.5
517.016	100.5
517.232	110.5
517.448	96.5
517.664	93.5
517.879	97.5
518.095	98.5
518.311	99.5
518.527	78.5
518.742	109.5
518.958	90.5
519.173	92.5
519.389	94.5
519.605	86.5
519.82	106.5
520.036	105.5
520.251	116.5
520.467	126.5
520.682	113.5
520.898	104.5
521.113	102.5
521.329	150.5
521.544	223.5
521.76	666.5
521.975	2928.5
522.19	1762.5
522.406	363.5
522.621	135.5
522.836	110.5
523.052	87.5
523.267	105.5
523.482	93.5
523.698	96.5
523.913	127.5
524.128	105.5
524.343	94.5
524.559	86.5
524.774	104.5
524.989	104.5
525.204	112.5
525.419	104.5
525.634	72.5
525.849	107.5
526.064	96.5
526.28	90.5
526.495	97.5
526.71	97.5
526.925	94.5
527.14	100.5
527.355	84.5
527.57	79.5
527.785	102.5
527.999	100.5
528.214	102.5
528.429	100.5
528.644	94.5
528.859	93.5
529.074	110.5
529.289	136.5
529.503	210.5
529.718	103.5
529.933	96.5
530.148	86.5
530.363	92.5
530.577	99.5
530.792	80.5
531.007	80.5
531.221	95.5
531.436	91.5
531.651	87.5
531.865	81.5
532.08	81.5
532.295	88.5
532.509	94.5
532.724	99.5
532.938	87.5
533.153	100.5
533.367	91.5
533.582	111.5
533.796	101.5
534.011	92.5
534.225	87.5
534.44	98.5
534.654	97.5
534.868	94.5
535.083	102.5
535.297	96.5
535.511	91.5
535.726	109.5
535.94	93.5
536.154	95.5
536.369	96.5
536.583	85.5
536.797	97.5
537.011	89.5
537.225	96.5
537.44	97.5
537.654	90.5
537.868	102.5
538.082	90.5
538.296	91.5
538.51	93.5
538.724	76.5
538.938	95.5
539.153	100.5
539.367	111.5
539.581	110.5
539.795	94.5
540.009	91.5
540.222	93.5
540.436	111.5
540.65	88.5
540.864	86.5
541.078	94.5
541.292	87.5
541.506	87.5
541.72	95.5
541.934	111.5
542.147	101.5
542.361	97.5
542.575	67.5
542.789	77.5
543.002	86.5
543.216	87.5
543.43	100.5
543.644	113.5
543.857	95.5
544.071	91.5
544.285	100.5
544.498	96.5
544.712	98.5
544.925	103.5
545.139	93.5
545.352	85.5
545.566	100.5
545.779	76.5
545.993	95.5
546.206	86.5
546.42	87.5
546.633	91.5
546.847	91.5
547.06	91.5
547.274	96.5
547.487	86.5
547.7	84.5
547.914	84.5
548.127	88.5
548.34	92.5
548.554	76.5
548.767	91.5
548.98	88.5
549.193	89.5
549.407	77.5
549.62	104.5
549.833	93.5
550.046	75.5
550.259	83.5
550.473	85.5
550.686	89.5
550.899	109.5
551.112	94.5
551.325	98.5
551.538	95.5
551.751	88.5
551.964	85.5
552.177	95.5
552.39	103.5
552.603	95.5
552.816	94.5
553.029	94.5
553.242	88.5
553.455	108.5
553.667	117.5
553.88	108.5
554.093	70.5
554.306	100.5
554.519	91.5
554.732	113.5
554.944	102.5
555.157	94.5
555.37	91.5
555.583	98.5
555.795	96.5
556.008	83.5
556.221	89.5
556.433	85.5
556.646	96.5
556.859	89.5
557.071	96.5
557.284	102.5
557.496	80.5
557.709	77.5
557.921	76.5
558.134	82.5
558.346	91.5
558.559	79.5
558.771	86.5
558.984	95.5
559.196	88.5
559.409	89.5
559.621	90.5
559.833	83.5
560.046	92.5
560.258	97.5
560.47	85.5
560.683	96.5
560.895	98.5
561.107	91.5
561.32	92.5
561.532	96.5
561.744	86.5
561.956	88.5
562.168	101.5
562.381	92.5
562.593	95.5
562.805	92.5
563.017	96.5
563.229	87.5
563.441	84.5
563.653	96.5
563.865	75.5
564.077	76.5
564.289	95.5
564.501	88.5
564.713	97.5
564.925	123.5
565.137	93.5
565.349	94.5
565.561	87.5
565.773	90.5
565.985	90.5
566.197	82.5
566.408	97.5
566.62	90.5
566.832	89.5
567.044	102.5
567.255	79.5
567.467	92.5
567.679	89.5
567.891	94.5
568.102	103.5
568.314	109.5
568.526	98.5
568.737	99.5
568.949	85.5
569.161	87.5
569.372	94.5
569.584	96.5
569.795	109.5
570.007	122.5
570.218	266.5
570.43	138.5
570.641	94.5
570.853	102.5
571.064	86.5
571.276	87.5
571.487	97.5
571.698	87.5
571.91	90.5
572.121	78.5
572.333	85.5
572.544	95.5
572.755	87.5
572.966	86.5
573.178	84.5
573.389	90.5
573.6	94.5
573.811	78.5
574.023	91.5
574.234	102.5
574.445	83.5
574.656	91.5
574.867	89.5
575.078	90.5
575.289	78.5
575.501	99.5
575.712	95.5
575.923	96.5
576.134	97.5
576.345	92.5
576.556	102.5
576.767	97.5
576.978	103.5
577.188	93.5
577.399	77.5
577.61	108.5
577.821	87.5
578.032	123.5
578.243	278.5
578.454	874.5
578.665	248.5
578.875	113.5
579.086	89.5
579.297	74.5
579.508	86.5
579.718	101.5
579.929	81.5
580.14	94.5
580.35	94.5
580.561	85.5
580.772	99.5
580.982	100.5
581.193	88.5
581.403	84.5
581.614	87.5
581.825	79.5
582.035	76.5
582.246	85.5
582.456	94.5
582.667	90.5
582.877	95.5
583.087	97.5
583.298	80.5
583.508	88.5
583.719	74.5
583.929	81.5
584.139	81.5
584.35	94.5
584.56	88.5
584.77	89.5
584.981	77.5
585.191	79.5
585.401	88.5
585.611	92.5
585.821	96.5
586.032	101.5
586.242	88.5
586.452	89.5
586.662	93.5
586.872	86.5
587.082	91.5
587.292	88.5
587.502	91.5
587.713	85.5
587.923	99.5
588.133	90.5
588.343	96.5
588.553	83.5
588.762	102.5
588.972	78.5
589.182	100.5
589.392	86.5
589.602	98.5
589.812	93.5
590.022	84.5
590.232	91.5
590.441	80.5
590.651	88.5
590.861	90.5
591.071	91.5
591.281	95.5
591.49	81.5
591.7	94.5
591.91	86.5
592.119	94.5
592.329	109.5
592.539	91.5
592.748	83.5
592.958	85.5
593.167	90.5
593.377	102.5
593.587	99.5
593.796	82.5
594.006	86.5
594.215	87.5
594.424	67.5
594.634	89.5
594.843	95.5
595.053	83.5
595.262	83.5
595.472	79.5
595.681	86.5
595.89	87.5
596.1	85.5
596.309	89.5
596.518	92.5
596.727	95.5
596.937	82.5
597.146	87.5
597.355	88.5
597.564	77.5
597.774	96.5
597.983	88.5
598.192	92.5
598.401	91.5
598.61	94.5
598.819	85.5
599.028	99.5
599.237	85.5
599.446	88.5
599.655	94.5
599.864	86.5
600.073	88.5
600.282	83.5
600.491	93.5
600.7	97.5
600.909	94.5
601.118	92.5
601.327	77.5
601.536	91.5
601.745	93.5
601.953	80.5
602.162	90.5
602.371	99.5
602.58	91.5
602.789	84.5
602.997	96.5
603.206	90.5
603.415	86.5
603.623	80.5
603.832	89.5
604.041	90.5
604.249	83.5
604.458	77.5
604.666	90.5
604.875	107.5
605.084	74.5
605.292	90.5
605.501	75.5
605.709	98.5
605.918	88.5
606.126	78.5
606.334	92.5
606.543	92.5
606.751	93.5
606.96	86.5
607.168	86.5
607.376	83.5
607.585	86.5
607.793	84.5
608.001	83.5
608.21	100.5
608.418	87.5
608.626	95.5
608.834	97.5
609.043	77.5
609.251	78.5
609.459	92.5
609.667	92.5
609.875	101.5
610.083	94.5
610.291	89.5
610.499	91.5
610.707	87.5
610.916	69.5
611.124	85.5
611.332	92.5
611.54	78.5
611.748	74.5
611.955	84.5
612.163	86.5
612.371	93.5
612.579	80.5
612.787	77.5
612.995	77.5
613.203	102.5
613.411	80.5
613.618	76.5
613.826	88.5
614.034	95.5
614.242	96.5
614.449	83.5
614.657	104.5
614.865	88.5
615.072	88.5
615.28	79.5
615.488	101.5
615.695	100.5
615.903	97.5
616.111	112.5
616.318	114.5
616.526	98.5
616.733	93.5
616.941	98.5
617.148	87.5
617.356	93.5
617.563	97.5
617.771	93.5
617.978	79.5
618.185	84.5
618.393	65.5
618.6	88.5
618.807	78.5
619.015	94.5
619.222	89.5
619.429	77.5
619.637	91.5
619.844	91.5
620.051	85.5
620.258	100.5
620.466	92.5
620.673	75.5
620.88	68.5
621.087	87.5
621.294	87.5
621.501	95.5
621.708	86.5
621.915	84.5
622.122	84.5
622.329	84.5
622.536	84.5
622.743	91.5
622.95	90.5
623.157	90.5
623.364	84.5
623.571	84.5
623.778	91.5
623.985	83.5
624.192	88.5
624.399	85.5
624.606	96.5
624.812	93.5
625.019	74.5
625.226	93.5
625.433	93.5
625.639	94.5
625.846	85.5
626.053	90.5
626.259	93.5
626.466	91.5
626.673	84.5
626.879	77.5
627.086	99.5
627.293	86.5
627.499	75.5
627.706	94.5
627.912	82.5
628.119	75.5
628.325	82.5
628.532	107.5
628.738	87.5
628.945	88.5
629.151	92.5
629.357	72.5
629.564	86.5
629.77	100.5
629.976	82.5
630.183	86.5
630.389	84.5
630.595	86.5
630.802	92.5
631.008	93.5
631.214	90.5
631.42	95.5
631.627	85.5
631.833	90.5
632.039	88.5
632.245	71.5
632.451	88.5
632.657	92.5
632.863	80.5
633.069	96.5
633.275	88.5
633.481	72.5
633.688	90.5
633.893	77.5
634.099	88.5
634.305	87.5
634.511	78.5
634.717	83.5
634.923	78.5
635.129	106.5
635.335	85.5
635.541	100.5
635.747	87.5
635.952	82.5
636.158	96.5
636.364	82.5
636.57	85.5
636.775	78.5
636.981	94.5
637.187	101.5
637.392	76.5
637.598	93.5
637.804	89.5
638.009	91.5
638.215	83.5
638.421	75.5
638.626	71.5
638.832	87.5
639.037	84.5
639.243	90.5
639.448	86.5
639.654	83.5
639.859	98.5
640.065	80.5
640.27	87.5
640.475	81.5
640.681	87.5
640.886	95.5
641.091	76.5
641.297	90.5
641.502	92.5
641.707	96.5
641.913	79.5
642.118	87.5
642.323	91.5
642.528	84.5
642.733	97.5
642.939	100.5
643.144	86.5
643.349	82.5
643.554	98.5
643.759	90.5
643.964	83.5
644.169	88.5
644.374	69.5
644.579	91.5
644.784	92.5
644.989	93.5
645.194	75.5
645.399	93.5
645.604	75.5
645.809	90.5
646.014	106.5
646.219	92.5
646.423	86.5
646.628	93.5
646.833	91.5
647.038	91.5
647.243	100.5
647.447	79.5
647.652	97.5
647.857	94.5
648.062	99.5
648.266	85.5
648.471	91.5
648.676	91.5
648.88	87.5
649.085	92.5
649.289	82.5
649.494	98.5
649.698	143.5
649.903	104.5
650.107	97.5
650.312	100.5
650.516	80.5
650.721	93.5
650.925	70.5
651.13	82.5
651.334	87.5
651.539	90.5
651.743	98.5
651.947	84.5
652.152	84.5
652.356	70.5
652.56	96.5
652.764	101.5
652.969	93.5
653.173	86.5
653.377	86.5
653.581	83.5
653.785	98.5
653.99	91.5
654.194	99.5
654.398	84.5
654.602	84.5
654.806	84.5
655.01	99.5
655.214	93.5
655.418	84.5
655.622	82.5
655.826	93.5
656.03	83.5
656.234	90.5
656.438	101.5
656.642	99.5
656.846	82.5
657.049	92.5
657.253	99.5
657.457	87.5
657.661	77.5
657.865	80.5
658.068	87.5
658.272	93.5
658.476	91.5
658.68	69.5
658.883	69.5
659.087	81.5
659.291	66.5
659.494	69.5
659.698	73.5
659.901	64.5
660.105	83.5
660.309	81.5
660.512	67.5
660.716	88.5
660.919	70.5
661.123	106.5
661.326	76.5
661.53	86.5
661.733	76.5
661.936	85.5
662.14	82.5
662.343	84.5
662.546	88.5
662.75	76.5
662.953	79.5
663.156	93.5
663.36	79.5
663.563	74.5
663.766	96.5
663.969	90.5
664.173	96.5
664.376	86.5
664.579	79.5
664.782	80.5
664.985	76.5
665.188	84.5
665.391	86.5
665.594	69.5
665.797	92.5
666	71.5
666.203	86.5
666.406	95.5
666.609	81.5
666.812	78.5
667.015	67.5
667.218	86.5
667.421	80.5
667.624	80.5
667.827	70.5
668.03	74.5
668.232	78.5
668.435	94.5
668.638	79.5
668.841	65.5
669.043	85.5
669.246	91.5
669.449	82.5
669.651	78.5
669.854	78.5
670.057	83.5
670.259	82.5
670.462	66.5
670.665	76.5
670.867	85.5
671.07	84.5
671.272	81.5
671.475	85.5
671.677	70.5
671.88	75.5
672.082	82.5
672.284	89.5
672.487	79.5
672.689	95.5
672.892	74.5
