Data from Uncirc_1991_H10_HRD10591_00002.txt Node
Date: Wed Jan 03 11:50:38 EST 2024
User: Yrep
Spectrometer: HR+D1059
Trigger mode: 1
Integration Time (sec): 1.000000E-1
Scans to average: 1
Electric dark correction enabled: true
Nonlinearity correction enabled: false
Boxcar width: 0
XAxis mode: Wavelengths
Number of Pixels in Spectrum: 2048
>>>>>Begin Spectral Data<<<<<
223.165	-21.25
223.4	-21.25
223.635	-21.25
223.869	-14.25
224.104	-26.25
224.338	-8.25
224.573	-12.25
224.808	-15.25
225.042	-9.25
225.277	-16.25
225.511	-11.25
225.746	2.75
225.98	19.75
226.215	2.75
226.449	35.75
226.683	13.75
226.918	29.75
227.152	29.75
227.387	32.75
227.621	41.75
227.856	44.75
228.09	33.75
228.324	49.75
228.559	59.75
228.793	56.75
229.027	70.75
229.262	62.75
229.496	82.75
229.73	77.75
229.964	85.75
230.199	69.75
230.433	74.75
230.667	81.75
230.901	68.75
231.136	73.75
231.37	65.75
231.604	86.75
231.838	83.75
232.072	73.75
232.306	83.75
232.541	91.75
232.775	85.75
233.009	82.75
233.243	97.75
233.477	86.75
233.711	73.75
233.945	97.75
234.179	67.75
234.413	77.75
234.647	94.75
234.881	89.75
235.115	84.75
235.349	85.75
235.583	96.75
235.817	87.75
236.051	84.75
236.285	73.75
236.519	83.75
236.753	83.75
236.987	60.75
237.221	69.75
237.455	84.75
237.689	77.75
237.922	79.75
238.156	97.75
238.39	76.75
238.624	92.75
238.858	72.75
239.091	78.75
239.325	70.75
239.559	75.75
239.793	92.75
240.027	83.75
240.26	76.75
240.494	75.75
240.728	77.75
240.961	72.75
241.195	63.75
241.429	79.75
241.662	87.75
241.896	80.75
242.13	79.75
242.363	75.75
242.597	71.75
242.83	73.75
243.064	76.75
243.298	74.75
243.531	80.75
243.765	89.75
243.998	78.75
244.232	63.75
244.465	69.75
244.699	96.75
244.932	73.75
245.166	69.75
245.399	87.75
245.633	89.75
245.866	75.75
246.099	77.75
246.333	65.75
246.566	65.75
246.8	85.75
247.033	82.75
247.266	95.75
247.5	83.75
247.733	73.75
247.966	68.75
248.2	73.75
248.433	90.75
248.666	75.75
248.899	73.75
249.133	88.75
249.366	83.75
249.599	98.75
249.832	87.75
250.066	86.75
250.299	96.75
250.532	75.75
250.765	73.75
250.998	83.75
251.231	71.75
251.465	75.75
251.698	78.75
251.931	86.75
252.164	84.75
252.397	77.75
252.63	78.75
252.863	105.75
253.096	94.75
253.329	81.75
253.562	83.75
253.795	82.75
254.028	73.75
254.261	83.75
254.494	90.75
254.727	78.75
254.96	78.75
255.193	96.75
255.426	103.75
255.659	64.75
255.892	77.75
256.124	80.75
256.357	81.75
256.59	99.75
256.823	90.75
257.056	74.75
257.289	93.75
257.521	89.75
257.754	74.75
257.987	92.75
258.22	89.75
258.452	76.75
258.685	90.75
258.918	70.75
259.151	75.75
259.383	90.75
259.616	97.75
259.849	71.75
260.081	87.75
260.314	85.75
260.547	63.75
260.779	94.75
261.012	89.75
261.244	89.75
261.477	104.75
261.71	94.75
261.942	94.75
262.175	109.75
262.407	94.75
262.64	81.75
262.872	83.75
263.105	87.75
263.337	90.75
263.57	86.75
263.802	79.75
264.035	77.75
264.267	77.75
264.499	79.75
264.732	81.75
264.964	78.75
265.197	69.75
265.429	103.75
265.661	89.75
265.894	89.75
266.126	87.75
266.358	74.75
266.591	81.75
266.823	90.75
267.055	75.75
267.287	66.75
267.52	86.75
267.752	74.75
267.984	91.75
268.216	87.75
268.448	72.75
268.681	69.75
268.913	82.75
269.145	85.75
269.377	93.75
269.609	85.75
269.841	96.75
270.073	83.75
270.306	84.75
270.538	89.75
270.77	69.75
271.002	85.75
271.234	86.75
271.466	87.75
271.698	85.75
271.93	89.75
272.162	81.75
272.394	68.75
272.626	100.75
272.858	88.75
273.09	90.75
273.322	75.75
273.553	91.75
273.785	74.75
274.017	88.75
274.249	71.75
274.481	83.75
274.713	78.75
274.945	90.75
275.176	84.75
275.408	84.75
275.64	89.75
275.872	94.75
276.104	94.75
276.335	93.75
276.567	94.75
276.799	108.75
277.031	93.75
277.262	89.75
277.494	76.75
277.726	93.75
277.957	92.75
278.189	79.75
278.421	77.75
278.652	85.75
278.884	83.75
279.115	98.75
279.347	90.75
279.579	94.75
279.81	94.75
280.042	92.75
280.273	77.75
280.505	94.75
280.736	77.75
280.968	83.75
281.199	77.75
281.431	70.75
281.662	75.75
281.894	83.75
282.125	78.75
282.356	117.75
282.588	114.75
282.819	106.75
283.051	83.75
283.282	81.75
283.513	89.75
283.745	86.75
283.976	75.75
284.207	86.75
284.439	84.75
284.67	83.75
284.901	91.75
285.132	87.75
285.364	99.75
285.595	94.75
285.826	93.75
286.057	85.75
286.288	97.75
286.52	81.75
286.751	78.75
286.982	93.75
287.213	102.75
287.444	97.75
287.675	83.75
287.906	98.75
288.138	100.75
288.369	90.75
288.6	97.75
288.831	81.75
289.062	95.75
289.293	82.75
289.524	79.75
289.755	81.75
289.986	79.75
290.217	93.75
290.448	82.75
290.679	86.75
290.91	85.75
291.141	96.75
291.371	90.75
291.602	80.75
291.833	97.75
292.064	84.75
292.295	94.75
292.526	80.75
292.757	95.75
292.987	81.75
293.218	75.75
293.449	85.75
293.68	86.75
293.91	81.75
294.141	93.75
294.372	96.75
294.603	85.75
294.833	79.75
295.064	84.75
295.295	93.75
295.525	86.75
295.756	92.75
295.987	104.75
296.217	117.75
296.448	93.75
296.679	87.75
296.909	98.75
297.14	63.75
297.37	81.75
297.601	86.75
297.831	93.75
298.062	86.75
298.292	89.75
298.523	91.75
298.753	96.75
298.984	87.75
299.214	82.75
299.445	93.75
299.675	101.75
299.905	86.75
300.136	78.75
300.366	82.75
300.597	84.75
300.827	94.75
301.057	85.75
301.288	85.75
301.518	91.75
301.748	85.75
301.979	99.75
302.209	86.75
302.439	92.75
302.669	85.75
302.9	87.75
303.13	97.75
303.36	92.75
303.59	100.75
303.82	107.75
304.051	95.75
304.281	86.75
304.511	89.75
304.741	79.75
304.971	91.75
305.201	79.75
305.431	95.75
305.661	97.75
305.891	81.75
306.121	85.75
306.352	84.75
306.582	94.75
306.812	98.75
307.042	75.75
307.272	89.75
307.502	84.75
307.731	98.75
307.961	91.75
308.191	93.75
308.421	87.75
308.651	85.75
308.881	87.75
309.111	97.75
309.341	88.75
309.571	91.75
309.8	95.75
310.03	117.75
310.26	89.75
310.49	88.75
310.72	93.75
310.949	91.75
311.179	91.75
311.409	94.75
311.639	92.75
311.868	81.75
312.098	93.75
312.328	90.75
312.557	93.75
312.787	104.75
313.017	91.75
313.246	102.75
313.476	108.75
313.706	96.75
313.935	98.75
314.165	95.75
314.394	103.75
314.624	101.75
314.853	77.75
315.083	94.75
315.312	91.75
315.542	83.75
315.771	94.75
316.001	91.75
316.23	92.75
316.46	88.75
316.689	93.75
316.919	94.75
317.148	106.75
317.377	92.75
317.607	99.75
317.836	106.75
318.065	80.75
318.295	97.75
318.524	87.75
318.753	94.75
318.983	103.75
319.212	100.75
319.441	91.75
319.67	103.75
319.9	100.75
320.129	77.75
320.358	91.75
320.587	105.75
320.816	94.75
321.046	100.75
321.275	103.75
321.504	83.75
321.733	95.75
321.962	103.75
322.191	100.75
322.42	98.75
322.649	100.75
322.878	103.75
323.108	95.75
323.337	115.75
323.566	118.75
323.795	146.75
324.024	198.75
324.253	380.75
324.482	800.75
324.71	1636.75
324.939	2221.75
325.168	803.75
325.397	245.75
325.626	126.75
325.855	129.75
326.084	115.75
326.313	120.75
326.542	151.75
326.77	235.75
326.999	441.75
327.228	921.75
327.457	1717.75
327.686	1373.75
327.914	354.75
328.143	169.75
328.372	134.75
328.6	123.75
328.829	113.75
329.058	129.75
329.287	131.75
329.515	101.75
329.744	99.75
329.972	104.75
330.201	91.75
330.43	112.75
330.658	104.75
330.887	134.75
331.115	114.75
331.344	96.75
331.572	119.75
331.801	109.75
332.03	96.75
332.258	107.75
332.486	99.75
332.715	83.75
332.943	98.75
333.172	79.75
333.4	92.75
333.629	80.75
333.857	102.75
334.085	98.75
334.314	84.75
334.542	105.75
334.771	90.75
334.999	95.75
335.227	101.75
335.455	93.75
335.684	95.75
335.912	100.75
336.14	83.75
336.369	107.75
336.597	91.75
336.825	89.75
337.053	93.75
337.281	110.75
337.51	94.75
337.738	87.75
337.966	86.75
338.194	101.75
338.422	94.75
338.65	92.75
338.878	89.75
339.106	89.75
339.334	98.75
339.562	87.75
339.79	101.75
340.018	89.75
340.246	82.75
340.474	94.75
340.702	93.75
340.93	92.75
341.158	90.75
341.386	81.75
341.614	93.75
341.842	85.75
342.07	88.75
342.298	100.75
342.526	89.75
342.754	97.75
342.981	87.75
343.209	91.75
343.437	104.75
343.665	86.75
343.893	85.75
344.12	89.75
344.348	99.75
344.576	96.75
344.804	89.75
345.031	83.75
345.259	94.75
345.487	83.75
345.714	92.75
345.942	89.75
346.17	100.75
346.397	96.75
346.625	93.75
346.853	97.75
347.08	94.75
347.308	94.75
347.535	88.75
347.763	90.75
347.99	95.75
348.218	99.75
348.445	90.75
348.673	100.75
348.9	86.75
349.128	98.75
349.355	101.75
349.583	91.75
349.81	94.75
350.037	102.75
350.265	86.75
350.492	93.75
350.72	91.75
350.947	99.75
351.174	96.75
351.402	91.75
351.629	94.75
351.856	105.75
352.083	99.75
352.311	106.75
352.538	95.75
352.765	107.75
352.992	122.75
353.22	112.75
353.447	102.75
353.674	96.75
353.901	102.75
354.128	97.75
354.355	108.75
354.583	111.75
354.81	101.75
355.037	90.75
355.264	91.75
355.491	86.75
355.718	98.75
355.945	92.75
356.172	105.75
356.399	114.75
356.626	108.75
356.853	88.75
357.08	101.75
357.307	96.75
357.534	97.75
357.761	105.75
357.988	102.75
358.215	91.75
358.441	90.75
358.668	81.75
358.895	99.75
359.122	88.75
359.349	89.75
359.576	103.75
359.802	94.75
360.029	98.75
360.256	101.75
360.483	97.75
360.709	84.75
360.936	89.75
361.163	80.75
361.39	87.75
361.616	90.75
361.843	84.75
362.07	92.75
362.296	96.75
362.523	79.75
362.749	86.75
362.976	92.75
363.203	74.75
363.429	89.75
363.656	81.75
363.882	81.75
364.109	84.75
364.335	100.75
364.562	89.75
364.788	85.75
365.015	87.75
365.241	80.75
365.468	111.75
365.694	96.75
365.92	89.75
366.147	84.75
366.373	87.75
366.599	83.75
366.826	82.75
367.052	96.75
367.278	97.75
367.505	102.75
367.731	96.75
367.957	93.75
368.184	89.75
368.41	95.75
368.636	101.75
368.862	109.75
369.089	103.75
369.315	81.75
369.541	71.75
369.767	83.75
369.993	86.75
370.219	97.75
370.445	90.75
370.672	88.75
370.898	84.75
371.124	81.75
371.35	78.75
371.576	74.75
371.802	101.75
372.028	86.75
372.254	98.75
372.48	89.75
372.706	97.75
372.932	93.75
373.158	75.75
373.384	79.75
373.61	85.75
373.835	86.75
374.061	76.75
374.287	90.75
374.513	99.75
374.739	73.75
374.965	91.75
375.191	83.75
375.416	89.75
375.642	83.75
375.868	100.75
376.094	98.75
376.319	95.75
376.545	93.75
376.771	83.75
376.997	86.75
377.222	101.75
377.448	79.75
377.674	87.75
377.899	93.75
378.125	93.75
378.35	104.75
378.576	84.75
378.802	76.75
379.027	95.75
379.253	94.75
379.478	98.75
379.704	89.75
379.929	92.75
380.155	91.75
380.38	91.75
380.606	97.75
380.831	95.75
381.057	99.75
381.282	95.75
381.507	95.75
381.733	79.75
381.958	103.75
382.184	91.75
382.409	110.75
382.634	109.75
382.86	89.75
383.085	95.75
383.31	99.75
383.535	99.75
383.761	94.75
383.986	105.75
384.211	101.75
384.436	101.75
384.662	98.75
384.887	104.75
385.112	93.75
385.337	90.75
385.562	86.75
385.787	96.75
386.013	100.75
386.238	103.75
386.463	108.75
386.688	103.75
386.913	84.75
387.138	91.75
387.363	99.75
387.588	85.75
387.813	93.75
388.038	104.75
388.263	109.75
388.488	101.75
388.713	108.75
388.938	93.75
389.163	103.75
389.387	88.75
389.612	96.75
389.837	96.75
390.062	102.75
390.287	100.75
390.512	92.75
390.736	83.75
390.961	92.75
391.186	94.75
391.411	77.75
391.636	96.75
391.86	90.75
392.085	93.75
392.31	102.75
392.534	81.75
392.759	89.75
392.984	88.75
393.208	89.75
393.433	99.75
393.658	89.75
393.882	86.75
394.107	104.75
394.331	80.75
394.556	83.75
394.78	86.75
395.005	94.75
395.229	77.75
395.454	99.75
395.678	79.75
395.903	101.75
396.127	85.75
396.352	78.75
396.576	74.75
396.801	83.75
397.025	91.75
397.249	84.75
397.474	86.75
397.698	99.75
397.922	77.75
398.147	80.75
398.371	75.75
398.595	81.75
398.82	88.75
399.044	80.75
399.268	113.75
399.492	83.75
399.717	84.75
399.941	95.75
400.165	92.75
400.389	83.75
400.613	78.75
400.837	92.75
401.062	84.75
401.286	77.75
401.51	79.75
401.734	93.75
401.958	99.75
402.182	128.75
402.406	133.75
402.63	106.75
402.854	83.75
403.078	77.75
403.302	75.75
403.526	81.75
403.75	84.75
403.974	83.75
404.198	93.75
404.422	91.75
404.645	90.75
404.869	92.75
405.093	98.75
405.317	100.75
405.541	103.75
405.765	105.75
405.988	99.75
406.212	151.75
406.436	219.75
406.66	129.75
406.883	104.75
407.107	90.75
407.331	91.75
407.555	98.75
407.778	94.75
408.002	98.75
408.226	88.75
408.449	92.75
408.673	100.75
408.896	104.75
409.12	91.75
409.344	87.75
409.567	91.75
409.791	89.75
410.014	95.75
410.238	67.75
410.461	94.75
410.685	78.75
410.908	83.75
411.132	102.75
411.355	102.75
411.578	83.75
411.802	81.75
412.025	93.75
412.249	103.75
412.472	106.75
412.695	102.75
412.919	97.75
413.142	91.75
413.365	74.75
413.589	87.75
413.812	91.75
414.035	77.75
414.258	94.75
414.482	71.75
414.705	91.75
414.928	89.75
415.151	83.75
415.374	105.75
415.597	82.75
415.821	79.75
416.044	89.75
416.267	96.75
416.49	85.75
416.713	85.75
416.936	85.75
417.159	98.75
417.382	96.75
417.605	94.75
417.828	101.75
418.051	81.75
418.274	97.75
418.497	85.75
418.72	95.75
418.943	87.75
419.166	86.75
419.389	96.75
419.611	91.75
419.834	90.75
420.057	82.75
420.28	87.75
420.503	90.75
420.726	96.75
420.948	95.75
421.171	90.75
421.394	85.75
421.617	94.75
421.839	96.75
422.062	93.75
422.285	106.75
422.507	85.75
422.73	93.75
422.953	89.75
423.175	94.75
423.398	88.75
423.621	84.75
423.843	83.75
424.066	91.75
424.288	86.75
424.511	96.75
424.733	90.75
424.956	102.75
425.178	92.75
425.401	93.75
425.623	97.75
425.846	100.75
426.068	101.75
426.291	105.75
426.513	98.75
426.735	107.75
426.958	94.75
427.18	98.75
427.402	132.75
427.625	157.75
427.847	110.75
428.069	95.75
428.292	83.75
428.514	92.75
428.736	91.75
428.958	90.75
429.181	89.75
429.403	83.75
429.625	100.75
429.847	96.75
430.069	85.75
430.292	109.75
430.514	86.75
430.736	81.75
430.958	83.75
431.18	95.75
431.402	93.75
431.624	88.75
431.846	86.75
432.068	77.75
432.29	95.75
432.512	80.75
432.734	89.75
432.956	89.75
433.178	110.75
433.4	90.75
433.622	95.75
433.844	109.75
434.066	78.75
434.287	101.75
434.509	108.75
434.731	99.75
434.953	95.75
435.175	95.75
435.397	97.75
435.618	97.75
435.84	104.75
436.062	133.75
436.284	116.75
436.505	101.75
436.727	107.75
436.949	92.75
437.17	98.75
437.392	92.75
437.614	80.75
437.835	96.75
438.057	108.75
438.278	98.75
438.5	96.75
438.721	115.75
438.943	105.75
439.165	91.75
439.386	100.75
439.608	97.75
439.829	92.75
440.05	115.75
440.272	150.75
440.493	98.75
440.715	78.75
440.936	93.75
441.158	95.75
441.379	76.75
441.6	88.75
441.822	86.75
442.043	99.75
442.264	109.75
442.486	90.75
442.707	97.75
442.928	101.75
443.149	112.75
443.371	125.75
443.592	104.75
443.813	110.75
444.034	101.75
444.255	97.75
444.476	104.75
444.698	97.75
444.919	86.75
445.14	124.75
445.361	118.75
445.582	111.75
445.803	116.75
446.024	112.75
446.245	129.75
446.466	108.75
446.687	89.75
446.908	94.75
447.129	105.75
447.35	87.75
447.571	101.75
447.792	109.75
448.013	95.75
448.234	108.75
448.455	110.75
448.675	105.75
448.896	120.75
449.117	104.75
449.338	104.75
449.559	126.75
449.779	121.75
450	98.75
450.221	83.75
450.442	94.75
450.662	82.75
450.883	95.75
451.104	119.75
451.324	100.75
451.545	85.75
451.766	94.75
451.986	87.75
452.207	92.75
452.428	96.75
452.648	87.75
452.869	96.75
453.089	98.75
453.31	115.75
453.53	87.75
453.751	87.75
453.971	98.75
454.192	108.75
454.412	83.75
454.633	84.75
454.853	90.75
455.073	79.75
455.294	88.75
455.514	94.75
455.734	89.75
455.955	87.75
456.175	101.75
456.395	97.75
456.616	86.75
456.836	79.75
457.056	70.75
457.276	94.75
457.497	77.75
457.717	86.75
457.937	93.75
458.157	81.75
458.377	96.75
458.598	102.75
458.818	143.75
459.038	157.75
459.258	104.75
459.478	96.75
459.698	95.75
459.918	83.75
460.138	71.75
460.358	74.75
460.578	85.75
460.798	94.75
461.018	93.75
461.238	93.75
461.458	90.75
461.678	89.75
461.898	69.75
462.118	97.75
462.338	91.75
462.558	94.75
462.777	75.75
462.997	79.75
463.217	98.75
463.437	99.75
463.657	87.75
463.876	95.75
464.096	95.75
464.316	85.75
464.536	90.75
464.755	101.75
464.975	103.75
465.195	146.75
465.414	142.75
465.634	102.75
465.854	100.75
466.073	102.75
466.293	75.75
466.512	91.75
466.732	98.75
466.951	83.75
467.171	106.75
467.391	96.75
467.61	91.75
467.829	97.75
468.049	93.75
468.268	83.75
468.488	92.75
468.707	95.75
468.927	94.75
469.146	94.75
469.365	90.75
469.585	74.75
469.804	111.75
470.023	94.75
470.243	104.75
470.462	102.75
470.681	94.75
470.901	82.75
471.12	81.75
471.339	79.75
471.558	97.75
471.777	83.75
471.997	92.75
472.216	76.75
472.435	82.75
472.654	91.75
472.873	95.75
473.092	111.75
473.311	82.75
473.53	106.75
473.749	97.75
473.968	100.75
474.187	99.75
474.406	111.75
474.625	85.75
474.844	88.75
475.063	79.75
475.282	76.75
475.501	88.75
475.72	111.75
475.939	90.75
476.158	90.75
476.377	92.75
476.596	103.75
476.814	102.75
477.033	83.75
477.252	83.75
477.471	82.75
477.69	84.75
477.908	86.75
478.127	93.75
478.346	80.75
478.564	92.75
478.783	83.75
479.002	89.75
479.22	102.75
479.439	97.75
479.658	105.75
479.876	93.75
480.095	101.75
480.313	85.75
480.532	103.75
480.751	89.75
480.969	86.75
481.188	101.75
481.406	110.75
481.624	92.75
481.843	103.75
482.061	94.75
482.28	88.75
482.498	73.75
482.717	75.75
482.935	78.75
483.153	95.75
483.372	94.75
483.59	92.75
483.808	92.75
484.027	78.75
484.245	86.75
484.463	92.75
484.681	98.75
484.9	87.75
485.118	80.75
485.336	97.75
485.554	91.75
485.772	100.75
485.99	98.75
486.209	90.75
486.427	105.75
486.645	102.75
486.863	105.75
487.081	97.75
487.299	93.75
487.517	94.75
487.735	95.75
487.953	96.75
488.171	93.75
488.389	89.75
488.607	100.75
488.825	93.75
489.043	85.75
489.261	77.75
489.479	98.75
489.696	81.75
489.914	95.75
490.132	93.75
490.35	87.75
490.568	90.75
490.786	106.75
491.003	85.75
491.221	95.75
491.439	90.75
491.657	94.75
491.874	93.75
492.092	94.75
492.31	78.75
492.527	89.75
492.745	107.75
492.963	97.75
493.18	103.75
493.398	94.75
493.615	95.75
493.833	93.75
494.05	84.75
494.268	89.75
494.485	98.75
494.703	91.75
494.92	69.75
495.138	96.75
495.355	85.75
495.573	103.75
495.79	85.75
496.008	84.75
496.225	81.75
496.442	101.75
496.66	86.75
496.877	89.75
497.094	93.75
497.312	94.75
497.529	90.75
497.746	76.75
497.963	88.75
498.181	91.75
498.398	106.75
498.615	107.75
498.832	86.75
499.049	89.75
499.267	95.75
499.484	96.75
499.701	100.75
499.918	80.75
500.135	76.75
500.352	93.75
500.569	85.75
500.786	97.75
501.003	106.75
501.22	92.75
501.437	73.75
501.654	87.75
501.871	98.75
502.088	94.75
502.305	87.75
502.522	92.75
502.739	94.75
502.956	99.75
503.172	100.75
503.389	106.75
503.606	106.75
503.823	103.75
504.04	80.75
504.256	89.75
504.473	96.75
504.69	95.75
504.907	90.75
505.123	85.75
505.34	86.75
505.557	92.75
505.773	92.75
505.99	87.75
506.207	89.75
506.423	90.75
506.64	101.75
506.856	97.75
507.073	93.75
507.289	103.75
507.506	93.75
507.722	110.75
507.939	103.75
508.155	92.75
508.372	99.75
508.588	87.75
508.805	98.75
509.021	103.75
509.238	101.75
509.454	101.75
509.67	97.75
509.887	109.75
510.103	108.75
510.319	181.75
510.536	634.75
510.752	1921.75
510.968	524.75
511.184	134.75
511.401	102.75
511.617	105.75
511.833	93.75
512.049	89.75
512.265	87.75
512.481	90.75
512.698	83.75
512.914	102.75
513.13	89.75
513.346	82.75
513.562	96.75
513.778	105.75
513.994	94.75
514.21	99.75
514.426	113.75
514.642	134.75
514.858	113.75
515.074	159.75
515.29	403.75
515.506	1261.75
515.721	454.75
515.937	131.75
516.153	110.75
516.369	96.75
516.585	114.75
516.801	82.75
517.016	84.75
517.232	91.75
517.448	108.75
517.664	90.75
517.879	98.75
518.095	103.75
518.311	89.75
518.527	77.75
518.742	102.75
518.958	89.75
519.173	96.75
519.389	91.75
519.605	92.75
519.82	90.75
520.036	92.75
520.251	113.75
520.467	101.75
520.682	109.75
520.898	117.75
521.113	129.75
521.329	143.75
521.544	191.75
521.76	469.75
521.975	2013.75
522.19	1220.75
522.406	274.75
522.621	121.75
522.836	91.75
523.052	108.75
523.267	82.75
523.482	90.75
523.698	103.75
523.913	121.75
524.128	103.75
524.343	89.75
524.559	93.75
524.774	98.75
524.989	96.75
525.204	91.75
525.419	102.75
525.634	91.75
525.849	90.75
526.064	101.75
526.28	87.75
526.495	87.75
526.71	97.75
526.925	101.75
527.14	90.75
527.355	89.75
527.57	86.75
527.785	92.75
527.999	91.75
528.214	112.75
528.429	85.75
528.644	83.75
528.859	98.75
529.074	91.75
529.289	129.75
529.503	165.75
529.718	99.75
529.933	78.75
530.148	84.75
530.363	96.75
530.577	78.75
530.792	97.75
531.007	99.75
531.221	100.75
531.436	80.75
531.651	92.75
531.865	85.75
532.08	78.75
532.295	94.75
532.509	101.75
532.724	89.75
532.938	94.75
533.153	104.75
533.367	96.75
533.582	98.75
533.796	94.75
534.011	86.75
534.225	92.75
534.44	107.75
534.654	96.75
534.868	83.75
535.083	97.75
535.297	98.75
535.511	91.75
535.726	87.75
535.94	101.75
536.154	92.75
536.369	92.75
536.583	92.75
536.797	86.75
537.011	90.75
537.225	98.75
537.44	93.75
537.654	94.75
537.868	91.75
538.082	72.75
538.296	88.75
538.51	89.75
538.724	103.75
538.938	89.75
539.153	96.75
539.367	101.75
539.581	100.75
539.795	89.75
540.009	85.75
540.222	94.75
540.436	89.75
540.65	82.75
540.864	91.75
541.078	102.75
541.292	90.75
541.506	95.75
541.72	94.75
541.934	92.75
542.147	105.75
542.361	98.75
542.575	83.75
542.789	89.75
543.002	93.75
543.216	86.75
543.43	89.75
543.644	80.75
543.857	97.75
544.071	93.75
544.285	99.75
544.498	95.75
544.712	79.75
544.925	87.75
545.139	100.75
545.352	83.75
545.566	87.75
545.779	90.75
545.993	100.75
546.206	90.75
546.42	96.75
546.633	100.75
546.847	93.75
547.06	95.75
547.274	87.75
547.487	89.75
547.7	85.75
547.914	79.75
548.127	76.75
548.34	89.75
548.554	103.75
548.767	107.75
548.98	85.75
549.193	87.75
549.407	98.75
549.62	80.75
549.833	88.75
550.046	83.75
550.259	97.75
550.473	90.75
550.686	78.75
550.899	85.75
551.112	82.75
551.325	81.75
551.538	92.75
551.751	97.75
551.964	93.75
552.177	83.75
552.39	91.75
552.603	94.75
552.816	84.75
553.029	99.75
553.242	101.75
553.455	88.75
553.667	109.75
553.88	94.75
554.093	96.75
554.306	96.75
554.519	108.75
554.732	100.75
554.944	93.75
555.157	92.75
555.37	101.75
555.583	92.75
555.795	96.75
556.008	90.75
556.221	81.75
556.433	97.75
556.646	91.75
556.859	89.75
557.071	91.75
557.284	83.75
557.496	97.75
557.709	90.75
557.921	98.75
558.134	92.75
558.346	81.75
558.559	79.75
558.771	77.75
558.984	96.75
559.196	92.75
559.409	91.75
559.621	92.75
559.833	85.75
560.046	81.75
560.258	91.75
560.47	79.75
560.683	85.75
560.895	83.75
561.107	86.75
561.32	78.75
561.532	87.75
561.744	87.75
561.956	79.75
562.168	91.75
562.381	100.75
562.593	94.75
562.805	96.75
563.017	92.75
563.229	84.75
563.441	86.75
563.653	77.75
563.865	79.75
564.077	85.75
564.289	84.75
564.501	82.75
564.713	81.75
564.925	90.75
565.137	86.75
565.349	98.75
565.561	77.75
565.773	96.75
565.985	81.75
566.197	83.75
566.408	77.75
566.62	84.75
566.832	85.75
567.044	74.75
567.255	69.75
567.467	89.75
567.679	84.75
567.891	88.75
568.102	87.75
568.314	75.75
568.526	82.75
568.737	96.75
568.949	85.75
569.161	71.75
569.372	96.75
569.584	91.75
569.795	88.75
570.007	116.75
570.218	213.75
570.43	129.75
570.641	91.75
570.853	85.75
571.064	77.75
571.276	94.75
571.487	88.75
571.698	87.75
571.91	94.75
572.121	87.75
572.333	91.75
572.544	85.75
572.755	98.75
572.966	75.75
573.178	92.75
573.389	84.75
573.6	101.75
573.811	79.75
574.023	86.75
574.234	95.75
574.445	101.75
574.656	72.75
574.867	78.75
575.078	91.75
575.289	110.75
575.501	85.75
575.712	84.75
575.923	91.75
576.134	92.75
576.345	83.75
576.556	85.75
576.767	82.75
576.978	91.75
577.188	86.75
577.399	81.75
577.61	77.75
577.821	110.75
578.032	102.75
578.243	237.75
578.454	653.75
578.665	186.75
578.875	86.75
579.086	87.75
579.297	100.75
579.508	93.75
579.718	81.75
579.929	84.75
580.14	73.75
580.35	84.75
580.561	78.75
580.772	75.75
580.982	87.75
581.193	87.75
581.403	86.75
581.614	90.75
581.825	91.75
582.035	76.75
582.246	83.75
582.456	80.75
582.667	68.75
582.877	81.75
583.087	81.75
583.298	98.75
583.508	94.75
583.719	84.75
583.929	90.75
584.139	86.75
584.35	78.75
584.56	83.75
584.77	107.75
584.981	90.75
585.191	78.75
585.401	84.75
585.611	101.75
585.821	93.75
586.032	93.75
586.242	76.75
586.452	76.75
586.662	86.75
586.872	83.75
587.082	63.75
587.292	85.75
587.502	83.75
587.713	90.75
587.923	90.75
588.133	93.75
588.343	88.75
588.553	73.75
588.762	93.75
588.972	82.75
589.182	85.75
589.392	94.75
589.602	89.75
589.812	90.75
590.022	98.75
590.232	91.75
590.441	87.75
590.651	83.75
590.861	80.75
591.071	86.75
591.281	87.75
591.49	74.75
591.7	101.75
591.91	101.75
592.119	76.75
592.329	90.75
592.539	85.75
592.748	90.75
592.958	82.75
593.167	85.75
593.377	90.75
593.587	77.75
593.796	84.75
594.006	92.75
594.215	74.75
594.424	89.75
594.634	74.75
594.843	74.75
595.053	78.75
595.262	70.75
595.472	73.75
595.681	77.75
595.89	92.75
596.1	84.75
596.309	87.75
596.518	94.75
596.727	90.75
596.937	96.75
597.146	96.75
597.355	90.75
597.564	86.75
597.774	94.75
597.983	89.75
598.192	66.75
598.401	77.75
598.61	80.75
598.819	77.75
599.028	77.75
599.237	89.75
599.446	111.75
599.655	97.75
599.864	83.75
600.073	79.75
600.282	84.75
600.491	87.75
600.7	87.75
600.909	106.75
601.118	97.75
601.327	100.75
601.536	83.75
601.745	97.75
601.953	87.75
602.162	90.75
602.371	84.75
602.58	103.75
602.789	76.75
602.997	89.75
603.206	90.75
603.415	82.75
603.623	83.75
603.832	81.75
604.041	76.75
604.249	77.75
604.458	77.75
604.666	83.75
604.875	88.75
605.084	69.75
605.292	85.75
605.501	73.75
605.709	71.75
605.918	77.75
606.126	68.75
606.334	66.75
606.543	82.75
606.751	85.75
606.96	89.75
607.168	76.75
607.376	84.75
607.585	90.75
607.793	69.75
608.001	80.75
608.21	77.75
608.418	89.75
608.626	96.75
608.834	88.75
609.043	95.75
609.251	78.75
609.459	85.75
609.667	74.75
609.875	79.75
610.083	75.75
610.291	94.75
610.499	95.75
610.707	89.75
610.916	93.75
611.124	93.75
611.332	83.75
611.54	93.75
611.748	81.75
611.955	80.75
612.163	94.75
612.371	94.75
612.579	76.75
612.787	81.75
612.995	91.75
613.203	87.75
613.411	82.75
613.618	84.75
613.826	93.75
614.034	77.75
614.242	101.75
614.449	92.75
614.657	84.75
614.865	90.75
615.072	84.75
615.28	95.75
615.488	99.75
615.695	94.75
615.903	101.75
616.111	90.75
616.318	94.75
616.526	99.75
616.733	84.75
616.941	87.75
617.148	94.75
617.356	89.75
617.563	92.75
617.771	90.75
617.978	96.75
618.185	90.75
618.393	87.75
618.6	91.75
618.807	93.75
619.015	91.75
619.222	67.75
619.429	83.75
619.637	87.75
619.844	85.75
620.051	83.75
620.258	75.75
620.466	107.75
620.673	76.75
620.88	77.75
621.087	81.75
621.294	71.75
621.501	71.75
621.708	86.75
621.915	83.75
622.122	74.75
622.329	86.75
622.536	74.75
622.743	89.75
622.95	82.75
623.157	89.75
623.364	94.75
623.571	86.75
623.778	83.75
623.985	85.75
624.192	85.75
624.399	87.75
624.606	78.75
624.812	78.75
625.019	104.75
625.226	84.75
625.433	93.75
625.639	99.75
625.846	81.75
626.053	81.75
626.259	99.75
626.466	89.75
626.673	94.75
626.879	78.75
627.086	75.75
627.293	86.75
627.499	90.75
627.706	100.75
627.912	97.75
628.119	84.75
628.325	91.75
628.532	86.75
628.738	86.75
628.945	81.75
629.151	80.75
629.357	89.75
629.564	89.75
629.77	85.75
629.976	67.75
630.183	78.75
630.389	70.75
630.595	89.75
630.802	98.75
631.008	81.75
631.214	87.75
631.42	90.75
631.627	89.75
631.833	91.75
632.039	85.75
632.245	67.75
632.451	77.75
632.657	79.75
632.863	89.75
633.069	76.75
633.275	85.75
633.481	86.75
633.688	89.75
633.893	91.75
634.099	71.75
634.305	89.75
634.511	96.75
634.717	84.75
634.923	82.75
635.129	68.75
635.335	81.75
635.541	80.75
635.747	90.75
635.952	77.75
636.158	82.75
636.364	91.75
636.57	90.75
636.775	83.75
636.981	101.75
637.187	80.75
637.392	94.75
637.598	76.75
637.804	96.75
638.009	89.75
638.215	89.75
638.421	73.75
638.626	78.75
638.832	85.75
639.037	86.75
639.243	78.75
639.448	81.75
639.654	84.75
639.859	78.75
640.065	68.75
640.27	86.75
640.475	77.75
640.681	77.75
640.886	71.75
641.091	100.75
641.297	89.75
641.502	76.75
641.707	82.75
641.913	100.75
642.118	79.75
642.323	82.75
642.528	91.75
642.733	94.75
642.939	83.75
643.144	78.75
643.349	100.75
643.554	84.75
643.759	80.75
643.964	75.75
644.169	77.75
644.374	82.75
644.579	73.75
644.784	87.75
644.989	89.75
645.194	73.75
645.399	92.75
645.604	85.75
645.809	86.75
646.014	94.75
646.219	100.75
646.423	86.75
646.628	86.75
646.833	84.75
647.038	79.75
647.243	81.75
647.447	88.75
647.652	75.75
647.857	89.75
648.062	75.75
648.266	96.75
648.471	85.75
648.676	98.75
648.88	97.75
649.085	106.75
649.289	80.75
649.494	101.75
649.698	137.75
649.903	96.75
650.107	87.75
650.312	85.75
650.516	85.75
650.721	84.75
650.925	88.75
651.13	83.75
651.334	70.75
651.539	77.75
651.743	89.75
651.947	80.75
652.152	103.75
652.356	85.75
652.56	90.75
652.764	65.75
652.969	83.75
653.173	78.75
653.377	85.75
653.581	81.75
653.785	94.75
653.99	75.75
654.194	82.75
654.398	93.75
654.602	86.75
654.806	78.75
655.01	94.75
655.214	77.75
655.418	81.75
655.622	82.75
655.826	94.75
656.03	89.75
656.234	77.75
656.438	86.75
656.642	93.75
656.846	89.75
657.049	62.75
657.253	93.75
657.457	92.75
657.661	81.75
657.865	81.75
658.068	82.75
658.272	78.75
658.476	78.75
658.68	100.75
658.883	82.75
659.087	83.75
659.291	81.75
659.494	78.75
659.698	79.75
659.901	84.75
660.105	89.75
660.309	70.75
660.512	77.75
660.716	84.75
660.919	88.75
661.123	90.75
661.326	79.75
661.53	86.75
661.733	84.75
661.936	74.75
662.14	81.75
662.343	65.75
662.546	86.75
662.75	79.75
662.953	89.75
663.156	95.75
663.36	85.75
663.563	80.75
663.766	77.75
663.969	71.75
664.173	78.75
664.376	86.75
664.579	85.75
664.782	78.75
664.985	73.75
665.188	91.75
665.391	83.75
665.594	88.75
665.797	72.75
666	101.75
666.203	84.75
666.406	85.75
666.609	81.75
666.812	95.75
667.015	80.75
667.218	87.75
667.421	79.75
667.624	86.75
667.827	85.75
668.03	66.75
668.232	70.75
668.435	87.75
668.638	69.75
668.841	83.75
669.043	82.75
669.246	73.75
669.449	89.75
669.651	86.75
669.854	79.75
670.057	77.75
670.259	83.75
670.462	73.75
670.665	77.75
670.867	73.75
671.07	73.75
671.272	70.75
671.475	81.75
671.677	83.75
671.88	66.75
672.082	89.75
672.284	73.75
672.487	86.75
672.689	81.75
672.892	81.75
