Data from Penny_2_HRD10591_00018.txt Node
Date: Wed Nov 05 15:34:35 EST 2025
User: Yrep
Spectrometer: HR+D1059
Trigger mode: 1
Integration Time (sec): 1.000000E-1
Scans to average: 1
Electric dark correction enabled: true
Nonlinearity correction enabled: false
Boxcar width: 0
XAxis mode: Wavelengths
Number of Pixels in Spectrum: 2048
>>>>>Begin Spectral Data<<<<<
223.165	-10.94
223.4	-10.94
223.635	-10.94
223.869	-22.94
224.104	-10.94
224.338	-23.94
224.573	-4.94
224.808	-13.94
225.042	-20.94
225.277	-13.94
225.511	-2.94
225.746	6.06
225.98	1.06
226.215	18.06
226.449	13.06
226.683	30.06
226.918	20.06
227.152	37.06
227.387	45.06
227.621	51.06
227.856	60.06
228.09	49.06
228.324	61.06
228.559	54.06
228.793	58.06
229.027	60.06
229.262	70.06
229.496	57.06
229.73	66.06
229.964	66.06
230.199	56.06
230.433	74.06
230.667	74.06
230.901	75.06
231.136	84.06
231.37	73.06
231.604	78.06
231.838	84.06
232.072	80.06
232.306	72.06
232.541	89.06
232.775	72.06
233.009	70.06
233.243	63.06
233.477	75.06
233.711	90.06
233.945	79.06
234.179	75.06
234.413	83.06
234.647	66.06
234.881	81.06
235.115	90.06
235.349	64.06
235.583	77.06
235.817	74.06
236.051	79.06
236.285	78.06
236.519	77.06
236.753	81.06
236.987	78.06
237.221	67.06
237.455	78.06
237.689	75.06
237.922	77.06
238.156	82.06
238.39	59.06
238.624	72.06
238.858	86.06
239.091	80.06
239.325	89.06
239.559	70.06
239.793	76.06
240.027	69.06
240.26	70.06
240.494	76.06
240.728	85.06
240.961	66.06
241.195	74.06
241.429	70.06
241.662	81.06
241.896	73.06
242.13	74.06
242.363	71.06
242.597	70.06
242.83	73.06
243.064	72.06
243.298	70.06
243.531	78.06
243.765	76.06
243.998	71.06
244.232	83.06
244.465	86.06
244.699	71.06
244.932	76.06
245.166	66.06
245.399	77.06
245.633	80.06
245.866	76.06
246.099	72.06
246.333	75.06
246.566	53.06
246.8	74.06
247.033	82.06
247.266	82.06
247.5	75.06
247.733	79.06
247.966	74.06
248.2	79.06
248.433	55.06
248.666	73.06
248.899	72.06
249.133	90.06
249.366	96.06
249.599	89.06
249.832	84.06
250.066	74.06
250.299	85.06
250.532	83.06
250.765	72.06
250.998	73.06
251.231	74.06
251.465	89.06
251.698	75.06
251.931	92.06
252.164	83.06
252.397	80.06
252.63	67.06
252.863	78.06
253.096	83.06
253.329	76.06
253.562	81.06
253.795	81.06
254.028	89.06
254.261	69.06
254.494	71.06
254.727	88.06
254.96	75.06
255.193	75.06
255.426	70.06
255.659	82.06
255.892	84.06
256.124	77.06
256.357	88.06
256.59	79.06
256.823	83.06
257.056	79.06
257.289	90.06
257.521	86.06
257.754	68.06
257.987	74.06
258.22	77.06
258.452	83.06
258.685	78.06
258.918	75.06
259.151	89.06
259.383	86.06
259.616	79.06
259.849	79.06
260.081	81.06
260.314	81.06
260.547	82.06
260.779	88.06
261.012	67.06
261.244	86.06
261.477	73.06
261.71	74.06
261.942	90.06
262.175	83.06
262.407	76.06
262.64	78.06
262.872	61.06
263.105	72.06
263.337	85.06
263.57	77.06
263.802	76.06
264.035	80.06
264.267	73.06
264.499	86.06
264.732	72.06
264.964	82.06
265.197	79.06
265.429	84.06
265.661	62.06
265.894	83.06
266.126	90.06
266.358	77.06
266.591	91.06
266.823	83.06
267.055	74.06
267.287	90.06
267.52	77.06
267.752	86.06
267.984	77.06
268.216	90.06
268.448	98.06
268.681	89.06
268.913	65.06
269.145	81.06
269.377	71.06
269.609	76.06
269.841	79.06
270.073	80.06
270.306	72.06
270.538	81.06
270.77	85.06
271.002	74.06
271.234	72.06
271.466	78.06
271.698	85.06
271.93	60.06
272.162	82.06
272.394	73.06
272.626	78.06
272.858	75.06
273.09	78.06
273.322	84.06
273.553	71.06
273.785	82.06
274.017	96.06
274.249	81.06
274.481	86.06
274.713	85.06
274.945	80.06
275.176	92.06
275.408	95.06
275.64	78.06
275.872	86.06
276.104	72.06
276.335	85.06
276.567	86.06
276.799	93.06
277.031	92.06
277.262	93.06
277.494	87.06
277.726	80.06
277.957	96.06
278.189	97.06
278.421	77.06
278.652	80.06
278.884	82.06
279.115	76.06
279.347	91.06
279.579	85.06
279.81	94.06
280.042	80.06
280.273	72.06
280.505	84.06
280.736	85.06
280.968	77.06
281.199	77.06
281.431	84.06
281.662	79.06
281.894	83.06
282.125	89.06
282.356	86.06
282.588	76.06
282.819	73.06
283.051	71.06
283.282	78.06
283.513	99.06
283.745	81.06
283.976	76.06
284.207	75.06
284.439	78.06
284.67	90.06
284.901	76.06
285.132	83.06
285.364	78.06
285.595	92.06
285.826	79.06
286.057	77.06
286.288	78.06
286.52	87.06
286.751	87.06
286.982	64.06
287.213	84.06
287.444	86.06
287.675	85.06
287.906	76.06
288.138	66.06
288.369	74.06
288.6	76.06
288.831	83.06
289.062	86.06
289.293	90.06
289.524	94.06
289.755	90.06
289.986	68.06
290.217	65.06
290.448	87.06
290.679	80.06
290.91	94.06
291.141	92.06
291.371	85.06
291.602	76.06
291.833	87.06
292.064	96.06
292.295	90.06
292.526	77.06
292.757	95.06
292.987	80.06
293.218	84.06
293.449	80.06
293.68	86.06
293.91	79.06
294.141	89.06
294.372	86.06
294.603	79.06
294.833	88.06
295.064	84.06
295.295	88.06
295.525	85.06
295.756	88.06
295.987	88.06
296.217	92.06
296.448	91.06
296.679	75.06
296.909	73.06
297.14	99.06
297.37	80.06
297.601	74.06
297.831	82.06
298.062	85.06
298.292	88.06
298.523	67.06
298.753	84.06
298.984	83.06
299.214	89.06
299.445	80.06
299.675	94.06
299.905	90.06
300.136	62.06
300.366	85.06
300.597	89.06
300.827	76.06
301.057	77.06
301.288	86.06
301.518	91.06
301.748	89.06
301.979	104.06
302.209	90.06
302.439	73.06
302.669	88.06
302.9	80.06
303.13	90.06
303.36	77.06
303.59	82.06
303.82	78.06
304.051	88.06
304.281	99.06
304.511	100.06
304.741	76.06
304.971	76.06
305.201	93.06
305.431	79.06
305.661	87.06
305.891	87.06
306.121	84.06
306.352	69.06
306.582	95.06
306.812	92.06
307.042	82.06
307.272	81.06
307.502	93.06
307.731	92.06
307.961	100.06
308.191	93.06
308.421	88.06
308.651	84.06
308.881	94.06
309.111	78.06
309.341	89.06
309.571	87.06
309.8	84.06
310.03	76.06
310.26	79.06
310.49	83.06
310.72	71.06
310.949	92.06
311.179	91.06
311.409	88.06
311.639	89.06
311.868	84.06
312.098	88.06
312.328	99.06
312.557	85.06
312.787	90.06
313.017	88.06
313.246	74.06
313.476	79.06
313.706	79.06
313.935	85.06
314.165	94.06
314.394	93.06
314.624	84.06
314.853	88.06
315.083	103.06
315.312	86.06
315.542	86.06
315.771	61.06
316.001	84.06
316.23	86.06
316.46	93.06
316.689	77.06
316.919	84.06
317.148	85.06
317.377	82.06
317.607	77.06
317.836	82.06
318.065	76.06
318.295	87.06
318.524	85.06
318.753	69.06
318.983	92.06
319.212	84.06
319.441	93.06
319.67	86.06
319.9	102.06
320.129	76.06
320.358	78.06
320.587	76.06
320.816	67.06
321.046	98.06
321.275	96.06
321.504	79.06
321.733	87.06
321.962	83.06
322.191	70.06
322.42	87.06
322.649	92.06
322.878	84.06
323.108	89.06
323.337	85.06
323.566	69.06
323.795	91.06
324.024	96.06
324.253	95.06
324.482	105.06
324.71	139.06
324.939	148.06
325.168	96.06
325.397	75.06
325.626	93.06
325.855	76.06
326.084	85.06
326.313	83.06
326.542	92.06
326.77	79.06
326.999	98.06
327.228	106.06
327.457	124.06
327.686	108.06
327.914	88.06
328.143	106.06
328.372	101.06
328.6	94.06
328.829	95.06
329.058	78.06
329.287	81.06
329.515	96.06
329.744	99.06
329.972	100.06
330.201	108.06
330.43	120.06
330.658	90.06
330.887	81.06
331.115	86.06
331.344	78.06
331.572	99.06
331.801	90.06
332.03	76.06
332.258	84.06
332.486	67.06
332.715	88.06
332.943	76.06
333.172	75.06
333.4	83.06
333.629	78.06
333.857	92.06
334.085	109.06
334.314	101.06
334.542	125.06
334.771	118.06
334.999	97.06
335.227	98.06
335.455	82.06
335.684	88.06
335.912	90.06
336.14	83.06
336.369	77.06
336.597	86.06
336.825	99.06
337.053	74.06
337.281	77.06
337.51	86.06
337.738	105.06
337.966	82.06
338.194	98.06
338.422	90.06
338.65	85.06
338.878	85.06
339.106	83.06
339.334	92.06
339.562	78.06
339.79	88.06
340.018	82.06
340.246	77.06
340.474	85.06
340.702	82.06
340.93	91.06
341.158	84.06
341.386	86.06
341.614	78.06
341.842	92.06
342.07	71.06
342.298	77.06
342.526	78.06
342.754	72.06
342.981	101.06
343.209	93.06
343.437	101.06
343.665	81.06
343.893	85.06
344.12	84.06
344.348	91.06
344.576	78.06
344.804	79.06
345.031	86.06
345.259	79.06
345.487	73.06
345.714	68.06
345.942	72.06
346.17	85.06
346.397	88.06
346.625	85.06
346.853	85.06
347.08	85.06
347.308	87.06
347.535	80.06
347.763	74.06
347.99	96.06
348.218	81.06
348.445	72.06
348.673	74.06
348.9	67.06
349.128	83.06
349.355	86.06
349.583	67.06
349.81	92.06
350.037	93.06
350.265	88.06
350.492	81.06
350.72	76.06
350.947	77.06
351.174	87.06
351.402	79.06
351.629	67.06
351.856	72.06
352.083	88.06
352.311	88.06
352.538	89.06
352.765	88.06
352.992	87.06
353.22	79.06
353.447	80.06
353.674	94.06
353.901	90.06
354.128	79.06
354.355	84.06
354.583	98.06
354.81	74.06
355.037	89.06
355.264	92.06
355.491	84.06
355.718	76.06
355.945	80.06
356.172	82.06
356.399	85.06
356.626	75.06
356.853	94.06
357.08	79.06
357.307	82.06
357.534	76.06
357.761	76.06
357.988	91.06
358.215	87.06
358.441	78.06
358.668	79.06
358.895	79.06
359.122	81.06
359.349	70.06
359.576	86.06
359.802	74.06
360.029	91.06
360.256	73.06
360.483	78.06
360.709	84.06
360.936	88.06
361.163	70.06
361.39	81.06
361.616	68.06
361.843	91.06
362.07	76.06
362.296	79.06
362.523	79.06
362.749	81.06
362.976	84.06
363.203	85.06
363.429	75.06
363.656	89.06
363.882	91.06
364.109	76.06
364.335	83.06
364.562	96.06
364.788	82.06
365.015	82.06
365.241	94.06
365.468	90.06
365.694	87.06
365.92	83.06
366.147	85.06
366.373	84.06
366.599	88.06
366.826	81.06
367.052	81.06
367.278	78.06
367.505	72.06
367.731	90.06
367.957	75.06
368.184	79.06
368.41	74.06
368.636	88.06
368.862	85.06
369.089	90.06
369.315	72.06
369.541	101.06
369.767	80.06
369.993	82.06
370.219	84.06
370.445	90.06
370.672	87.06
370.898	96.06
371.124	96.06
371.35	77.06
371.576	90.06
371.802	74.06
372.028	71.06
372.254	83.06
372.48	85.06
372.706	92.06
372.932	76.06
373.158	93.06
373.384	90.06
373.61	81.06
373.835	74.06
374.061	66.06
374.287	62.06
374.513	92.06
374.739	87.06
374.965	75.06
375.191	74.06
375.416	81.06
375.642	86.06
375.868	82.06
376.094	79.06
376.319	79.06
376.545	77.06
376.771	78.06
376.997	92.06
377.222	76.06
377.448	75.06
377.674	77.06
377.899	84.06
378.125	84.06
378.35	81.06
378.576	85.06
378.802	74.06
379.027	76.06
379.253	81.06
379.478	73.06
379.704	76.06
379.929	86.06
380.155	93.06
380.38	75.06
380.606	78.06
380.831	75.06
381.057	79.06
381.282	81.06
381.507	78.06
381.733	81.06
381.958	83.06
382.184	84.06
382.409	88.06
382.634	91.06
382.86	76.06
383.085	92.06
383.31	62.06
383.535	92.06
383.761	82.06
383.986	73.06
384.211	73.06
384.436	76.06
384.662	79.06
384.887	86.06
385.112	89.06
385.337	74.06
385.562	72.06
385.787	78.06
386.013	89.06
386.238	83.06
386.463	77.06
386.688	98.06
386.913	93.06
387.138	83.06
387.363	73.06
387.588	84.06
387.813	68.06
388.038	84.06
388.263	75.06
388.488	86.06
388.713	76.06
388.938	84.06
389.163	78.06
389.387	94.06
389.612	68.06
389.837	90.06
390.062	79.06
390.287	84.06
390.512	79.06
390.736	82.06
390.961	69.06
391.186	88.06
391.411	83.06
391.636	69.06
391.86	77.06
392.085	82.06
392.31	72.06
392.534	75.06
392.759	70.06
392.984	89.06
393.208	67.06
393.433	82.06
393.658	73.06
393.882	89.06
394.107	86.06
394.331	92.06
394.556	87.06
394.78	78.06
395.005	78.06
395.229	95.06
395.454	88.06
395.678	72.06
395.903	87.06
396.127	84.06
396.352	79.06
396.576	83.06
396.801	90.06
397.025	71.06
397.249	78.06
397.474	90.06
397.698	90.06
397.922	88.06
398.147	83.06
398.371	78.06
398.595	79.06
398.82	64.06
399.044	74.06
399.268	69.06
399.492	72.06
399.717	90.06
399.941	74.06
400.165	86.06
400.389	77.06
400.613	84.06
400.837	76.06
401.062	65.06
401.286	93.06
401.51	72.06
401.734	73.06
401.958	78.06
402.182	64.06
402.406	86.06
402.63	84.06
402.854	79.06
403.078	70.06
403.302	83.06
403.526	82.06
403.75	86.06
403.974	71.06
404.198	91.06
404.422	84.06
404.645	80.06
404.869	65.06
405.093	83.06
405.317	88.06
405.541	79.06
405.765	95.06
405.988	83.06
406.212	83.06
406.436	86.06
406.66	100.06
406.883	71.06
407.107	76.06
407.331	73.06
407.555	76.06
407.778	82.06
408.002	88.06
408.226	79.06
408.449	73.06
408.673	80.06
408.896	80.06
409.12	79.06
409.344	80.06
409.567	84.06
409.791	71.06
410.014	68.06
410.238	83.06
410.461	90.06
410.685	86.06
410.908	82.06
411.132	91.06
411.355	84.06
411.578	88.06
411.802	77.06
412.025	74.06
412.249	83.06
412.472	88.06
412.695	67.06
412.919	81.06
413.142	79.06
413.365	92.06
413.589	64.06
413.812	80.06
414.035	85.06
414.258	83.06
414.482	79.06
414.705	78.06
414.928	74.06
415.151	86.06
415.374	76.06
415.597	82.06
415.821	77.06
416.044	70.06
416.267	94.06
416.49	72.06
416.713	84.06
416.936	78.06
417.159	78.06
417.382	74.06
417.605	65.06
417.828	74.06
418.051	71.06
418.274	80.06
418.497	74.06
418.72	79.06
418.943	86.06
419.166	78.06
419.389	97.06
419.611	81.06
419.834	81.06
420.057	76.06
420.28	88.06
420.503	76.06
420.726	67.06
420.948	83.06
421.171	79.06
421.394	77.06
421.617	78.06
421.839	72.06
422.062	78.06
422.285	75.06
422.507	79.06
422.73	74.06
422.953	85.06
423.175	90.06
423.398	78.06
423.621	76.06
423.843	75.06
424.066	91.06
424.288	78.06
424.511	81.06
424.733	83.06
424.956	79.06
425.178	70.06
425.401	68.06
425.623	91.06
425.846	75.06
426.068	87.06
426.291	77.06
426.513	77.06
426.735	73.06
426.958	91.06
427.18	62.06
427.402	82.06
427.625	75.06
427.847	88.06
428.069	61.06
428.292	69.06
428.514	71.06
428.736	76.06
428.958	80.06
429.181	90.06
429.403	83.06
429.625	83.06
429.847	82.06
430.069	72.06
430.292	74.06
430.514	72.06
430.736	89.06
430.958	80.06
431.18	81.06
431.402	93.06
431.624	86.06
431.846	74.06
432.068	65.06
432.29	82.06
432.512	74.06
432.734	65.06
432.956	73.06
433.178	75.06
433.4	60.06
433.622	77.06
433.844	76.06
434.066	80.06
434.287	85.06
434.509	66.06
434.731	77.06
434.953	101.06
435.175	91.06
435.397	85.06
435.618	76.06
435.84	79.06
436.062	83.06
436.284	89.06
436.505	86.06
436.727	64.06
436.949	82.06
437.17	77.06
437.392	90.06
437.614	76.06
437.835	81.06
438.057	70.06
438.278	84.06
438.5	78.06
438.721	100.06
438.943	74.06
439.165	83.06
439.386	83.06
439.608	76.06
439.829	84.06
440.05	80.06
440.272	96.06
440.493	85.06
440.715	74.06
440.936	84.06
441.158	72.06
441.379	79.06
441.6	68.06
441.822	88.06
442.043	98.06
442.264	89.06
442.486	92.06
442.707	76.06
442.928	72.06
443.149	103.06
443.371	94.06
443.592	86.06
443.813	83.06
444.034	69.06
444.255	91.06
444.476	65.06
444.698	66.06
444.919	91.06
445.14	150.06
445.361	112.06
445.582	73.06
445.803	88.06
446.024	75.06
446.245	77.06
446.466	93.06
446.687	89.06
446.908	77.06
447.129	78.06
447.35	91.06
447.571	99.06
447.792	74.06
448.013	76.06
448.234	75.06
448.455	85.06
448.675	78.06
448.896	82.06
449.117	74.06
449.338	78.06
449.559	70.06
449.779	88.06
450	90.06
450.221	76.06
450.442	75.06
450.662	64.06
450.883	77.06
451.104	81.06
451.324	88.06
451.545	80.06
451.766	94.06
451.986	77.06
452.207	67.06
452.428	87.06
452.648	79.06
452.869	86.06
453.089	75.06
453.31	88.06
453.53	91.06
453.751	75.06
453.971	99.06
454.192	89.06
454.412	82.06
454.633	60.06
454.853	82.06
455.073	70.06
455.294	85.06
455.514	74.06
455.734	80.06
455.955	72.06
456.175	78.06
456.395	83.06
456.616	89.06
456.836	65.06
457.056	82.06
457.276	79.06
457.497	73.06
457.717	93.06
457.937	73.06
458.157	81.06
458.377	69.06
458.598	74.06
458.818	70.06
459.038	81.06
459.258	70.06
459.478	76.06
459.698	91.06
459.918	82.06
460.138	84.06
460.358	75.06
460.578	77.06
460.798	86.06
461.018	93.06
461.238	81.06
461.458	77.06
461.678	78.06
461.898	92.06
462.118	76.06
462.338	78.06
462.558	79.06
462.777	67.06
462.997	78.06
463.217	65.06
463.437	80.06
463.657	94.06
463.876	67.06
464.096	82.06
464.316	84.06
464.536	92.06
464.755	87.06
464.975	79.06
465.195	96.06
465.414	93.06
465.634	73.06
465.854	75.06
466.073	90.06
466.293	84.06
466.512	79.06
466.732	84.06
466.951	83.06
467.171	86.06
467.391	75.06
467.61	85.06
467.829	85.06
468.049	105.06
468.268	119.06
468.488	91.06
468.707	94.06
468.927	88.06
469.146	83.06
469.365	78.06
469.585	76.06
469.804	73.06
470.023	75.06
470.243	74.06
470.462	92.06
470.681	82.06
470.901	85.06
471.12	82.06
471.339	78.06
471.558	103.06
471.777	80.06
471.997	93.06
472.216	139.06
472.435	156.06
472.654	95.06
472.873	95.06
473.092	84.06
473.311	80.06
473.53	90.06
473.749	85.06
473.968	77.06
474.187	77.06
474.406	75.06
474.625	76.06
474.844	96.06
475.063	79.06
475.282	89.06
475.501	98.06
475.72	85.06
475.939	80.06
476.158	73.06
476.377	81.06
476.596	80.06
476.814	76.06
477.033	77.06
477.252	88.06
477.471	68.06
477.69	84.06
477.908	89.06
478.127	70.06
478.346	73.06
478.564	90.06
478.783	77.06
479.002	80.06
479.22	74.06
479.439	77.06
479.658	80.06
479.876	87.06
480.095	75.06
480.313	83.06
480.532	86.06
480.751	71.06
480.969	139.06
481.188	224.06
481.406	146.06
481.624	93.06
481.843	82.06
482.061	82.06
482.28	69.06
482.498	83.06
482.717	85.06
482.935	87.06
483.153	68.06
483.372	82.06
483.59	87.06
483.808	80.06
484.027	77.06
484.245	82.06
484.463	94.06
484.681	84.06
484.9	91.06
485.118	83.06
485.336	82.06
485.554	95.06
485.772	74.06
485.99	93.06
486.209	77.06
486.427	87.06
486.645	78.06
486.863	85.06
487.081	84.06
487.299	79.06
487.517	83.06
487.735	90.06
487.953	85.06
488.171	85.06
488.389	104.06
488.607	76.06
488.825	82.06
489.043	88.06
489.261	90.06
489.479	96.06
489.696	75.06
489.914	90.06
490.132	81.06
490.35	83.06
490.568	82.06
490.786	96.06
491.003	74.06
491.221	78.06
491.439	89.06
491.657	81.06
491.874	73.06
492.092	77.06
492.31	93.06
492.527	84.06
492.745	82.06
492.963	84.06
493.18	81.06
493.398	81.06
493.615	75.06
493.833	90.06
494.05	100.06
494.268	76.06
494.485	78.06
494.703	82.06
494.92	86.06
495.138	87.06
495.355	84.06
495.573	82.06
495.79	89.06
496.008	77.06
496.225	82.06
496.442	85.06
496.66	77.06
496.877	72.06
497.094	92.06
497.312	84.06
497.529	84.06
497.746	84.06
497.963	94.06
498.181	73.06
498.398	72.06
498.615	68.06
498.832	73.06
499.049	74.06
499.267	78.06
499.484	87.06
499.701	83.06
499.918	87.06
500.135	98.06
500.352	70.06
500.569	90.06
500.786	82.06
501.003	88.06
501.22	90.06
501.437	95.06
501.654	70.06
501.871	69.06
502.088	82.06
502.305	88.06
502.522	73.06
502.739	67.06
502.956	90.06
503.172	82.06
503.389	88.06
503.606	88.06
503.823	76.06
504.04	95.06
504.256	76.06
504.473	74.06
504.69	93.06
504.907	93.06
505.123	93.06
505.34	77.06
505.557	78.06
505.773	90.06
505.99	87.06
506.207	83.06
506.423	70.06
506.64	70.06
506.856	73.06
507.073	86.06
507.289	84.06
507.506	78.06
507.722	87.06
507.939	86.06
508.155	101.06
508.372	70.06
508.588	79.06
508.805	76.06
509.021	89.06
509.238	90.06
509.454	98.06
509.67	77.06
509.887	77.06
510.103	82.06
510.319	97.06
510.536	131.06
510.752	199.06
510.968	112.06
511.184	85.06
511.401	92.06
511.617	94.06
511.833	84.06
512.049	71.06
512.265	71.06
512.481	71.06
512.698	85.06
512.914	84.06
513.13	77.06
513.346	78.06
513.562	93.06
513.778	84.06
513.994	84.06
514.21	79.06
514.426	84.06
514.642	84.06
514.858	89.06
515.074	84.06
515.29	138.06
515.506	180.06
515.721	115.06
515.937	81.06
516.153	95.06
516.369	78.06
516.585	95.06
516.801	90.06
517.016	98.06
517.232	84.06
517.448	113.06
517.664	87.06
517.879	83.06
518.095	90.06
518.311	73.06
518.527	84.06
518.742	80.06
518.958	78.06
519.173	80.06
519.389	74.06
519.605	79.06
519.82	88.06
520.036	82.06
520.251	82.06
520.467	85.06
520.682	86.06
520.898	73.06
521.113	102.06
521.329	84.06
521.544	106.06
521.76	138.06
521.975	272.06
522.19	176.06
522.406	101.06
522.621	74.06
522.836	89.06
523.052	82.06
523.267	95.06
523.482	71.06
523.698	72.06
523.913	79.06
524.128	94.06
524.343	92.06
524.559	96.06
524.774	82.06
524.989	76.06
525.204	94.06
525.419	102.06
525.634	84.06
525.849	77.06
526.064	92.06
526.28	84.06
526.495	96.06
526.71	88.06
526.925	86.06
527.14	83.06
527.355	65.06
527.57	74.06
527.785	76.06
527.999	77.06
528.214	91.06
528.429	78.06
528.644	89.06
528.859	78.06
529.074	85.06
529.289	89.06
529.503	98.06
529.718	89.06
529.933	80.06
530.148	78.06
530.363	89.06
530.577	87.06
530.792	82.06
531.007	90.06
531.221	70.06
531.436	73.06
531.651	81.06
531.865	76.06
532.08	74.06
532.295	69.06
532.509	80.06
532.724	94.06
532.938	81.06
533.153	82.06
533.367	79.06
533.582	100.06
533.796	62.06
534.011	88.06
534.225	81.06
534.44	82.06
534.654	93.06
534.868	75.06
535.083	77.06
535.297	79.06
535.511	95.06
535.726	89.06
535.94	71.06
536.154	75.06
536.369	72.06
536.583	82.06
536.797	91.06
537.011	76.06
537.225	84.06
537.44	74.06
537.654	86.06
537.868	67.06
538.082	73.06
538.296	67.06
538.51	85.06
538.724	92.06
538.938	72.06
539.153	79.06
539.367	76.06
539.581	60.06
539.795	87.06
540.009	88.06
540.222	81.06
540.436	92.06
540.65	89.06
540.864	74.06
541.078	81.06
541.292	75.06
541.506	96.06
541.72	90.06
541.934	94.06
542.147	76.06
542.361	94.06
542.575	84.06
542.789	86.06
543.002	80.06
543.216	85.06
543.43	89.06
543.644	89.06
543.857	80.06
544.071	77.06
544.285	88.06
544.498	78.06
544.712	84.06
544.925	86.06
545.139	87.06
545.352	77.06
545.566	91.06
545.779	85.06
545.993	72.06
546.206	91.06
546.42	74.06
546.633	77.06
546.847	93.06
547.06	91.06
547.274	80.06
547.487	101.06
547.7	98.06
547.914	76.06
548.127	76.06
548.34	88.06
548.554	68.06
548.767	83.06
548.98	87.06
549.193	89.06
549.407	88.06
549.62	86.06
549.833	83.06
550.046	77.06
550.259	88.06
550.473	79.06
550.686	88.06
550.899	97.06
551.112	77.06
551.325	78.06
551.538	77.06
551.751	82.06
551.964	90.06
552.177	94.06
552.39	88.06
552.603	101.06
552.816	75.06
553.029	70.06
553.242	87.06
553.455	96.06
553.667	93.06
553.88	90.06
554.093	89.06
554.306	66.06
554.519	96.06
554.732	88.06
554.944	83.06
555.157	97.06
555.37	88.06
555.583	86.06
555.795	91.06
556.008	98.06
556.221	96.06
556.433	71.06
556.646	78.06
556.859	83.06
557.071	91.06
557.284	86.06
557.496	79.06
557.709	87.06
557.921	87.06
558.134	88.06
558.346	89.06
558.559	79.06
558.771	79.06
558.984	71.06
559.196	81.06
559.409	78.06
559.621	89.06
559.833	87.06
560.046	84.06
560.258	75.06
560.47	73.06
560.683	79.06
560.895	79.06
561.107	86.06
561.32	81.06
561.532	93.06
561.744	85.06
561.956	86.06
562.168	97.06
562.381	86.06
562.593	88.06
562.805	94.06
563.017	82.06
563.229	92.06
563.441	86.06
563.653	81.06
563.865	66.06
564.077	85.06
564.289	85.06
564.501	90.06
564.713	86.06
564.925	73.06
565.137	81.06
565.349	82.06
565.561	86.06
565.773	72.06
565.985	76.06
566.197	86.06
566.408	75.06
566.62	89.06
566.832	75.06
567.044	88.06
567.255	82.06
567.467	88.06
567.679	84.06
567.891	88.06
568.102	69.06
568.314	88.06
568.526	85.06
568.737	78.06
568.949	96.06
569.161	86.06
569.372	85.06
569.584	85.06
569.795	87.06
570.007	87.06
570.218	108.06
570.43	81.06
570.641	85.06
570.853	71.06
571.064	79.06
571.276	73.06
571.487	81.06
571.698	69.06
571.91	74.06
572.121	82.06
572.333	84.06
572.544	73.06
572.755	90.06
572.966	93.06
573.178	89.06
573.389	84.06
573.6	78.06
573.811	84.06
574.023	93.06
574.234	69.06
574.445	77.06
574.656	90.06
574.867	80.06
575.078	93.06
575.289	83.06
575.501	83.06
575.712	67.06
575.923	66.06
576.134	86.06
576.345	92.06
576.556	76.06
576.767	91.06
576.978	84.06
577.188	85.06
577.399	86.06
577.61	82.06
577.821	84.06
578.032	77.06
578.243	103.06
578.454	131.06
578.665	76.06
578.875	87.06
579.086	91.06
579.297	85.06
579.508	76.06
579.718	86.06
579.929	75.06
580.14	74.06
580.35	78.06
580.561	86.06
580.772	77.06
580.982	81.06
581.193	75.06
581.403	78.06
581.614	87.06
581.825	81.06
582.035	85.06
582.246	76.06
582.456	90.06
582.667	67.06
582.877	88.06
583.087	82.06
583.298	88.06
583.508	75.06
583.719	98.06
583.929	91.06
584.139	90.06
584.35	75.06
584.56	97.06
584.77	80.06
584.981	77.06
585.191	82.06
585.401	76.06
585.611	96.06
585.821	73.06
586.032	91.06
586.242	80.06
586.452	68.06
586.662	90.06
586.872	92.06
587.082	79.06
587.292	81.06
587.502	94.06
587.713	84.06
587.923	71.06
588.133	86.06
588.343	84.06
588.553	85.06
588.762	72.06
588.972	89.06
589.182	85.06
589.392	66.06
589.602	89.06
589.812	93.06
590.022	86.06
590.232	81.06
590.441	78.06
590.651	88.06
590.861	79.06
591.071	74.06
591.281	76.06
591.49	77.06
591.7	81.06
591.91	87.06
592.119	74.06
592.329	76.06
592.539	90.06
592.748	88.06
592.958	82.06
593.167	78.06
593.377	77.06
593.587	76.06
593.796	85.06
594.006	89.06
594.215	83.06
594.424	77.06
594.634	78.06
594.843	98.06
595.053	84.06
595.262	81.06
595.472	93.06
595.681	68.06
595.89	79.06
596.1	91.06
596.309	96.06
596.518	84.06
596.727	77.06
596.937	92.06
597.146	71.06
597.355	89.06
597.564	63.06
597.774	69.06
597.983	91.06
598.192	82.06
598.401	84.06
598.61	86.06
598.819	84.06
599.028	83.06
599.237	67.06
599.446	87.06
599.655	81.06
599.864	89.06
600.073	67.06
600.282	76.06
600.491	91.06
600.7	88.06
600.909	72.06
601.118	71.06
601.327	84.06
601.536	93.06
601.745	91.06
601.953	90.06
602.162	88.06
602.371	85.06
602.58	84.06
602.789	71.06
602.997	82.06
603.206	87.06
603.415	64.06
603.623	93.06
603.832	83.06
604.041	82.06
604.249	78.06
604.458	78.06
604.666	73.06
604.875	82.06
605.084	68.06
605.292	88.06
605.501	82.06
605.709	86.06
605.918	89.06
606.126	74.06
606.334	88.06
606.543	87.06
606.751	86.06
606.96	84.06
607.168	78.06
607.376	104.06
607.585	98.06
607.793	98.06
608.001	78.06
608.21	73.06
608.418	82.06
608.626	81.06
608.834	77.06
609.043	98.06
609.251	87.06
609.459	84.06
609.667	77.06
609.875	74.06
610.083	81.06
610.291	87.06
610.499	74.06
610.707	80.06
610.916	97.06
611.124	92.06
611.332	78.06
611.54	71.06
611.748	81.06
611.955	82.06
612.163	84.06
612.371	93.06
612.579	77.06
612.787	101.06
612.995	94.06
613.203	97.06
613.411	73.06
613.618	81.06
613.826	77.06
614.034	68.06
614.242	83.06
614.449	99.06
614.657	73.06
614.865	79.06
615.072	73.06
615.28	70.06
615.488	62.06
615.695	78.06
615.903	82.06
616.111	76.06
616.318	84.06
616.526	84.06
616.733	82.06
616.941	77.06
617.148	89.06
617.356	96.06
617.563	82.06
617.771	97.06
617.978	85.06
618.185	84.06
618.393	89.06
618.6	82.06
618.807	89.06
619.015	83.06
619.222	94.06
619.429	82.06
619.637	75.06
619.844	86.06
620.051	89.06
620.258	83.06
620.466	86.06
620.673	81.06
620.88	78.06
621.087	73.06
621.294	101.06
621.501	82.06
621.708	87.06
621.915	81.06
622.122	98.06
622.329	85.06
622.536	86.06
622.743	78.06
622.95	73.06
623.157	86.06
623.364	77.06
623.571	94.06
623.778	71.06
623.985	85.06
624.192	76.06
624.399	88.06
624.606	88.06
624.812	86.06
625.019	81.06
625.226	81.06
625.433	104.06
625.639	87.06
625.846	73.06
626.053	73.06
626.259	83.06
626.466	73.06
626.673	92.06
626.879	84.06
627.086	72.06
627.293	89.06
627.499	87.06
627.706	76.06
627.912	87.06
628.119	84.06
628.325	75.06
628.532	71.06
628.738	90.06
628.945	84.06
629.151	89.06
629.357	76.06
629.564	68.06
629.77	77.06
629.976	75.06
630.183	79.06
630.389	62.06
630.595	77.06
630.802	80.06
631.008	82.06
631.214	76.06
631.42	84.06
631.627	100.06
631.833	77.06
632.039	81.06
632.245	86.06
632.451	88.06
632.657	75.06
632.863	85.06
633.069	88.06
633.275	92.06
633.481	83.06
633.688	82.06
633.893	81.06
634.099	73.06
634.305	72.06
634.511	70.06
634.717	72.06
634.923	82.06
635.129	83.06
635.335	70.06
635.541	98.06
635.747	75.06
635.952	83.06
636.158	79.06
636.364	104.06
636.57	102.06
636.775	88.06
636.981	90.06
637.187	75.06
637.392	90.06
637.598	85.06
637.804	68.06
638.009	69.06
638.215	81.06
638.421	70.06
638.626	75.06
638.832	77.06
639.037	82.06
639.243	77.06
639.448	82.06
639.654	89.06
639.859	84.06
640.065	83.06
640.27	91.06
640.475	79.06
640.681	81.06
640.886	72.06
641.091	85.06
641.297	85.06
641.502	71.06
641.707	75.06
641.913	77.06
642.118	93.06
642.323	79.06
642.528	88.06
642.733	82.06
642.939	80.06
643.144	81.06
643.349	81.06
643.554	78.06
643.759	70.06
643.964	84.06
644.169	86.06
644.374	93.06
644.579	79.06
644.784	84.06
644.989	81.06
645.194	91.06
645.399	82.06
645.604	84.06
645.809	90.06
646.014	67.06
646.219	75.06
646.423	90.06
646.628	68.06
646.833	74.06
647.038	81.06
647.243	78.06
647.447	84.06
647.652	83.06
647.857	75.06
648.062	66.06
648.266	73.06
648.471	76.06
648.676	90.06
648.88	75.06
649.085	88.06
649.289	72.06
649.494	84.06
649.698	77.06
649.903	96.06
650.107	69.06
650.312	97.06
650.516	77.06
650.721	86.06
650.925	82.06
651.13	86.06
651.334	77.06
651.539	82.06
651.743	96.06
651.947	78.06
652.152	83.06
652.356	83.06
652.56	81.06
652.764	79.06
652.969	68.06
653.173	75.06
653.377	75.06
653.581	81.06
653.785	78.06
653.99	87.06
654.194	101.06
654.398	87.06
654.602	83.06
654.806	84.06
655.01	95.06
655.214	72.06
655.418	72.06
655.622	85.06
655.826	79.06
656.03	78.06
656.234	73.06
656.438	87.06
656.642	79.06
656.846	64.06
657.049	87.06
657.253	74.06
657.457	72.06
657.661	71.06
657.865	93.06
658.068	76.06
658.272	79.06
658.476	84.06
658.68	69.06
658.883	83.06
659.087	85.06
659.291	83.06
659.494	86.06
659.698	93.06
659.901	79.06
660.105	78.06
660.309	91.06
660.512	87.06
660.716	82.06
660.919	90.06
661.123	81.06
661.326	74.06
661.53	85.06
661.733	79.06
661.936	61.06
662.14	92.06
662.343	79.06
662.546	82.06
662.75	78.06
662.953	78.06
663.156	77.06
663.36	79.06
663.563	74.06
663.766	84.06
663.969	78.06
664.173	76.06
664.376	78.06
664.579	77.06
664.782	82.06
664.985	82.06
665.188	79.06
665.391	80.06
665.594	80.06
665.797	74.06
666	82.06
666.203	76.06
666.406	81.06
666.609	72.06
666.812	82.06
667.015	76.06
667.218	76.06
667.421	83.06
667.624	79.06
667.827	83.06
668.03	76.06
668.232	79.06
668.435	86.06
668.638	90.06
668.841	90.06
669.043	65.06
669.246	77.06
669.449	88.06
669.651	53.06
669.854	80.06
670.057	75.06
670.259	66.06
670.462	63.06
670.665	66.06
670.867	67.06
671.07	74.06
671.272	75.06
671.475	74.06
671.677	76.06
671.88	82.06
672.082	68.06
672.284	80.06
672.487	69.06
672.689	78.06
672.892	84.06
