Data from 1600_3_HRD10591_00035.txt Node
Date: Mon Jan 19 13:55:10 EST 2026
User: Yrep
Spectrometer: HR+D1059
Trigger mode: 1
Integration Time (sec): 1.000000E-1
Scans to average: 1
Electric dark correction enabled: true
Nonlinearity correction enabled: false
Boxcar width: 0
XAxis mode: Wavelengths
Number of Pixels in Spectrum: 2048
>>>>>Begin Spectral Data<<<<<
223.165	-15.25
223.4	-15.25
223.635	-15.25
223.869	-24.25
224.104	-24.25
224.338	-6.25
224.573	-10.25
224.808	-28.25
225.042	-4.25
225.277	-9.25
225.511	-11.25
225.746	14.75
225.98	0.75
226.215	23.75
226.449	17.75
226.683	17.75
226.918	22.75
227.152	35.75
227.387	35.75
227.621	49.75
227.856	39.75
228.09	49.75
228.324	55.75
228.559	60.75
228.793	55.75
229.027	73.75
229.262	56.75
229.496	72.75
229.73	63.75
229.964	66.75
230.199	62.75
230.433	75.75
230.667	70.75
230.901	79.75
231.136	73.75
231.37	83.75
231.604	83.75
231.838	89.75
232.072	80.75
232.306	64.75
232.541	78.75
232.775	70.75
233.009	61.75
233.243	91.75
233.477	77.75
233.711	81.75
233.945	75.75
234.179	71.75
234.413	80.75
234.647	73.75
234.881	71.75
235.115	83.75
235.349	83.75
235.583	74.75
235.817	81.75
236.051	76.75
236.285	79.75
236.519	77.75
236.753	90.75
236.987	75.75
237.221	72.75
237.455	66.75
237.689	63.75
237.922	64.75
238.156	78.75
238.39	75.75
238.624	63.75
238.858	74.75
239.091	59.75
239.325	85.75
239.559	76.75
239.793	74.75
240.027	78.75
240.26	84.75
240.494	78.75
240.728	64.75
240.961	73.75
241.195	75.75
241.429	87.75
241.662	68.75
241.896	64.75
242.13	85.75
242.363	76.75
242.597	60.75
242.83	61.75
243.064	70.75
243.298	71.75
243.531	85.75
243.765	76.75
243.998	87.75
244.232	84.75
244.465	75.75
244.699	76.75
244.932	82.75
245.166	89.75
245.399	68.75
245.633	77.75
245.866	80.75
246.099	60.75
246.333	72.75
246.566	96.75
246.8	75.75
247.033	111.75
247.266	80.75
247.5	70.75
247.733	76.75
247.966	74.75
248.2	61.75
248.433	85.75
248.666	81.75
248.899	83.75
249.133	85.75
249.366	80.75
249.599	74.75
249.832	70.75
250.066	79.75
250.299	78.75
250.532	80.75
250.765	65.75
250.998	71.75
251.231	67.75
251.465	73.75
251.698	70.75
251.931	65.75
252.164	81.75
252.397	76.75
252.63	78.75
252.863	77.75
253.096	89.75
253.329	72.75
253.562	69.75
253.795	75.75
254.028	83.75
254.261	79.75
254.494	85.75
254.727	79.75
254.96	73.75
255.193	79.75
255.426	81.75
255.659	76.75
255.892	72.75
256.124	89.75
256.357	69.75
256.59	62.75
256.823	79.75
257.056	70.75
257.289	74.75
257.521	69.75
257.754	79.75
257.987	68.75
258.22	87.75
258.452	88.75
258.685	77.75
258.918	74.75
259.151	66.75
259.383	85.75
259.616	83.75
259.849	78.75
260.081	80.75
260.314	78.75
260.547	80.75
260.779	84.75
261.012	76.75
261.244	68.75
261.477	83.75
261.71	79.75
261.942	83.75
262.175	87.75
262.407	87.75
262.64	73.75
262.872	70.75
263.105	80.75
263.337	79.75
263.57	76.75
263.802	78.75
264.035	80.75
264.267	72.75
264.499	84.75
264.732	94.75
264.964	70.75
265.197	56.75
265.429	101.75
265.661	83.75
265.894	74.75
266.126	83.75
266.358	61.75
266.591	73.75
266.823	77.75
267.055	77.75
267.287	67.75
267.52	75.75
267.752	85.75
267.984	85.75
268.216	82.75
268.448	73.75
268.681	70.75
268.913	72.75
269.145	70.75
269.377	82.75
269.609	74.75
269.841	88.75
270.073	70.75
270.306	74.75
270.538	63.75
270.77	83.75
271.002	91.75
271.234	76.75
271.466	92.75
271.698	76.75
271.93	68.75
272.162	89.75
272.394	84.75
272.626	76.75
272.858	78.75
273.09	82.75
273.322	69.75
273.553	66.75
273.785	72.75
274.017	76.75
274.249	87.75
274.481	69.75
274.713	74.75
274.945	77.75
275.176	79.75
275.408	73.75
275.64	88.75
275.872	69.75
276.104	82.75
276.335	97.75
276.567	88.75
276.799	96.75
277.031	78.75
277.262	81.75
277.494	71.75
277.726	81.75
277.957	92.75
278.189	96.75
278.421	80.75
278.652	91.75
278.884	73.75
279.115	72.75
279.347	85.75
279.579	73.75
279.81	79.75
280.042	83.75
280.273	83.75
280.505	95.75
280.736	86.75
280.968	82.75
281.199	82.75
281.431	80.75
281.662	83.75
281.894	91.75
282.125	90.75
282.356	88.75
282.588	77.75
282.819	80.75
283.051	90.75
283.282	82.75
283.513	88.75
283.745	80.75
283.976	76.75
284.207	84.75
284.439	87.75
284.67	83.75
284.901	80.75
285.132	87.75
285.364	100.75
285.595	74.75
285.826	83.75
286.057	83.75
286.288	80.75
286.52	89.75
286.751	85.75
286.982	83.75
287.213	78.75
287.444	91.75
287.675	83.75
287.906	92.75
288.138	70.75
288.369	79.75
288.6	72.75
288.831	78.75
289.062	90.75
289.293	86.75
289.524	73.75
289.755	78.75
289.986	92.75
290.217	87.75
290.448	89.75
290.679	87.75
290.91	73.75
291.141	84.75
291.371	73.75
291.602	81.75
291.833	73.75
292.064	89.75
292.295	71.75
292.526	83.75
292.757	77.75
292.987	83.75
293.218	75.75
293.449	68.75
293.68	75.75
293.91	77.75
294.141	78.75
294.372	80.75
294.603	76.75
294.833	88.75
295.064	76.75
295.295	66.75
295.525	85.75
295.756	88.75
295.987	74.75
296.217	80.75
296.448	87.75
296.679	79.75
296.909	76.75
297.14	93.75
297.37	78.75
297.601	74.75
297.831	84.75
298.062	73.75
298.292	62.75
298.523	91.75
298.753	71.75
298.984	69.75
299.214	93.75
299.445	65.75
299.675	78.75
299.905	91.75
300.136	79.75
300.366	81.75
300.597	86.75
300.827	80.75
301.057	81.75
301.288	76.75
301.518	93.75
301.748	99.75
301.979	110.75
302.209	80.75
302.439	84.75
302.669	80.75
302.9	82.75
303.13	66.75
303.36	93.75
303.59	91.75
303.82	76.75
304.051	64.75
304.281	81.75
304.511	87.75
304.741	79.75
304.971	71.75
305.201	79.75
305.431	88.75
305.661	89.75
305.891	73.75
306.121	91.75
306.352	85.75
306.582	85.75
306.812	79.75
307.042	68.75
307.272	81.75
307.502	77.75
307.731	85.75
307.961	85.75
308.191	73.75
308.421	85.75
308.651	96.75
308.881	80.75
309.111	90.75
309.341	73.75
309.571	78.75
309.8	77.75
310.03	76.75
310.26	86.75
310.49	76.75
310.72	73.75
310.949	75.75
311.179	86.75
311.409	86.75
311.639	78.75
311.868	81.75
312.098	79.75
312.328	87.75
312.557	94.75
312.787	92.75
313.017	86.75
313.246	79.75
313.476	88.75
313.706	85.75
313.935	76.75
314.165	84.75
314.394	92.75
314.624	82.75
314.853	71.75
315.083	72.75
315.312	68.75
315.542	74.75
315.771	90.75
316.001	73.75
316.23	72.75
316.46	89.75
316.689	84.75
316.919	80.75
317.148	91.75
317.377	84.75
317.607	81.75
317.836	85.75
318.065	78.75
318.295	94.75
318.524	84.75
318.753	91.75
318.983	87.75
319.212	93.75
319.441	81.75
319.67	85.75
319.9	84.75
320.129	93.75
320.358	97.75
320.587	95.75
320.816	79.75
321.046	102.75
321.275	89.75
321.504	82.75
321.733	81.75
321.962	76.75
322.191	71.75
322.42	86.75
322.649	99.75
322.878	85.75
323.108	82.75
323.337	90.75
323.566	94.75
323.795	97.75
324.024	82.75
324.253	83.75
324.482	71.75
324.71	74.75
324.939	81.75
325.168	98.75
325.397	87.75
325.626	103.75
325.855	72.75
326.084	94.75
326.313	83.75
326.542	77.75
326.77	92.75
326.999	79.75
327.228	84.75
327.457	89.75
327.686	80.75
327.914	80.75
328.143	88.75
328.372	86.75
328.6	87.75
328.829	85.75
329.058	79.75
329.287	88.75
329.515	80.75
329.744	84.75
329.972	73.75
330.201	85.75
330.43	85.75
330.658	73.75
330.887	68.75
331.115	82.75
331.344	85.75
331.572	96.75
331.801	85.75
332.03	93.75
332.258	86.75
332.486	79.75
332.715	74.75
332.943	71.75
333.172	96.75
333.4	88.75
333.629	76.75
333.857	79.75
334.085	75.75
334.314	85.75
334.542	80.75
334.771	90.75
334.999	83.75
335.227	70.75
335.455	93.75
335.684	88.75
335.912	79.75
336.14	88.75
336.369	90.75
336.597	91.75
336.825	87.75
337.053	83.75
337.281	89.75
337.51	80.75
337.738	81.75
337.966	76.75
338.194	84.75
338.422	83.75
338.65	80.75
338.878	88.75
339.106	75.75
339.334	86.75
339.562	79.75
339.79	84.75
340.018	78.75
340.246	93.75
340.474	81.75
340.702	74.75
340.93	95.75
341.158	93.75
341.386	79.75
341.614	75.75
341.842	76.75
342.07	73.75
342.298	91.75
342.526	77.75
342.754	91.75
342.981	88.75
343.209	83.75
343.437	91.75
343.665	84.75
343.893	79.75
344.12	96.75
344.348	76.75
344.576	79.75
344.804	86.75
345.031	74.75
345.259	72.75
345.487	79.75
345.714	78.75
345.942	69.75
346.17	72.75
346.397	73.75
346.625	78.75
346.853	84.75
347.08	72.75
347.308	80.75
347.535	79.75
347.763	71.75
347.99	77.75
348.218	87.75
348.445	75.75
348.673	82.75
348.9	88.75
349.128	85.75
349.355	84.75
349.583	74.75
349.81	91.75
350.037	68.75
350.265	78.75
350.492	84.75
350.72	68.75
350.947	79.75
351.174	93.75
351.402	88.75
351.629	79.75
351.856	71.75
352.083	84.75
352.311	87.75
352.538	73.75
352.765	76.75
352.992	92.75
353.22	85.75
353.447	83.75
353.674	76.75
353.901	68.75
354.128	69.75
354.355	92.75
354.583	71.75
354.81	92.75
355.037	92.75
355.264	83.75
355.491	85.75
355.718	87.75
355.945	74.75
356.172	77.75
356.399	81.75
356.626	95.75
356.853	69.75
357.08	88.75
357.307	92.75
357.534	83.75
357.761	88.75
357.988	93.75
358.215	73.75
358.441	73.75
358.668	68.75
358.895	96.75
359.122	79.75
359.349	84.75
359.576	71.75
359.802	69.75
360.029	70.75
360.256	71.75
360.483	88.75
360.709	80.75
360.936	88.75
361.163	84.75
361.39	84.75
361.616	76.75
361.843	80.75
362.07	89.75
362.296	86.75
362.523	88.75
362.749	72.75
362.976	93.75
363.203	94.75
363.429	75.75
363.656	79.75
363.882	85.75
364.109	72.75
364.335	86.75
364.562	80.75
364.788	81.75
365.015	81.75
365.241	69.75
365.468	96.75
365.694	84.75
365.92	83.75
366.147	77.75
366.373	83.75
366.599	86.75
366.826	81.75
367.052	80.75
367.278	86.75
367.505	83.75
367.731	92.75
367.957	84.75
368.184	91.75
368.41	88.75
368.636	80.75
368.862	82.75
369.089	87.75
369.315	67.75
369.541	70.75
369.767	89.75
369.993	81.75
370.219	84.75
370.445	76.75
370.672	82.75
370.898	96.75
371.124	87.75
371.35	73.75
371.576	83.75
371.802	83.75
372.028	67.75
372.254	97.75
372.48	69.75
372.706	75.75
372.932	80.75
373.158	73.75
373.384	78.75
373.61	87.75
373.835	87.75
374.061	82.75
374.287	78.75
374.513	80.75
374.739	95.75
374.965	89.75
375.191	76.75
375.416	96.75
375.642	90.75
375.868	79.75
376.094	88.75
376.319	78.75
376.545	75.75
376.771	81.75
376.997	87.75
377.222	67.75
377.448	77.75
377.674	85.75
377.899	97.75
378.125	77.75
378.35	75.75
378.576	91.75
378.802	85.75
379.027	76.75
379.253	80.75
379.478	94.75
379.704	89.75
379.929	86.75
380.155	84.75
380.38	88.75
380.606	76.75
380.831	88.75
381.057	82.75
381.282	94.75
381.507	93.75
381.733	85.75
381.958	84.75
382.184	80.75
382.409	80.75
382.634	86.75
382.86	88.75
383.085	76.75
383.31	93.75
383.535	82.75
383.761	85.75
383.986	79.75
384.211	77.75
384.436	64.75
384.662	65.75
384.887	73.75
385.112	77.75
385.337	83.75
385.562	68.75
385.787	93.75
386.013	93.75
386.238	99.75
386.463	78.75
386.688	72.75
386.913	79.75
387.138	91.75
387.363	92.75
387.588	76.75
387.813	96.75
388.038	74.75
388.263	83.75
388.488	83.75
388.713	84.75
388.938	90.75
389.163	73.75
389.387	77.75
389.612	71.75
389.837	87.75
390.062	82.75
390.287	83.75
390.512	94.75
390.736	75.75
390.961	82.75
391.186	77.75
391.411	80.75
391.636	84.75
391.86	78.75
392.085	71.75
392.31	71.75
392.534	87.75
392.759	90.75
392.984	91.75
393.208	116.75
393.433	165.75
393.658	126.75
393.882	91.75
394.107	87.75
394.331	94.75
394.556	93.75
394.78	74.75
395.005	80.75
395.229	68.75
395.454	88.75
395.678	81.75
395.903	89.75
396.127	97.75
396.352	102.75
396.576	96.75
396.801	123.75
397.025	141.75
397.249	87.75
397.474	88.75
397.698	92.75
397.922	92.75
398.147	65.75
398.371	74.75
398.595	72.75
398.82	84.75
399.044	89.75
399.268	87.75
399.492	84.75
399.717	85.75
399.941	89.75
400.165	84.75
400.389	85.75
400.613	78.75
400.837	74.75
401.062	80.75
401.286	95.75
401.51	87.75
401.734	76.75
401.958	85.75
402.182	76.75
402.406	78.75
402.63	83.75
402.854	76.75
403.078	85.75
403.302	93.75
403.526	86.75
403.75	64.75
403.974	81.75
404.198	93.75
404.422	67.75
404.645	93.75
404.869	73.75
405.093	68.75
405.317	77.75
405.541	77.75
405.765	62.75
405.988	84.75
406.212	88.75
406.436	79.75
406.66	67.75
406.883	84.75
407.107	71.75
407.331	66.75
407.555	58.75
407.778	76.75
408.002	81.75
408.226	87.75
408.449	79.75
408.673	83.75
408.896	81.75
409.12	81.75
409.344	76.75
409.567	81.75
409.791	89.75
410.014	94.75
410.238	79.75
410.461	76.75
410.685	81.75
410.908	83.75
411.132	79.75
411.355	71.75
411.578	72.75
411.802	86.75
412.025	79.75
412.249	88.75
412.472	78.75
412.695	88.75
412.919	71.75
413.142	76.75
413.365	79.75
413.589	96.75
413.812	63.75
414.035	75.75
414.258	79.75
414.482	85.75
414.705	87.75
414.928	92.75
415.151	87.75
415.374	81.75
415.597	75.75
415.821	88.75
416.044	80.75
416.267	79.75
416.49	85.75
416.713	73.75
416.936	94.75
417.159	77.75
417.382	83.75
417.605	83.75
417.828	82.75
418.051	96.75
418.274	81.75
418.497	87.75
418.72	72.75
418.943	76.75
419.166	77.75
419.389	79.75
419.611	68.75
419.834	81.75
420.057	88.75
420.28	91.75
420.503	69.75
420.726	78.75
420.948	88.75
421.171	73.75
421.394	92.75
421.617	82.75
421.839	84.75
422.062	76.75
422.285	74.75
422.507	95.75
422.73	125.75
422.953	109.75
423.175	83.75
423.398	89.75
423.621	73.75
423.843	83.75
424.066	74.75
424.288	67.75
424.511	73.75
424.733	77.75
424.956	79.75
425.178	76.75
425.401	83.75
425.623	82.75
425.846	81.75
426.068	79.75
426.291	82.75
426.513	92.75
426.735	87.75
426.958	77.75
427.18	73.75
427.402	78.75
427.625	78.75
427.847	77.75
428.069	71.75
428.292	89.75
428.514	99.75
428.736	87.75
428.958	88.75
429.181	87.75
429.403	82.75
429.625	86.75
429.847	81.75
430.069	85.75
430.292	96.75
430.514	81.75
430.736	86.75
430.958	87.75
431.18	75.75
431.402	84.75
431.624	86.75
431.846	67.75
432.068	96.75
432.29	81.75
432.512	74.75
432.734	73.75
432.956	69.75
433.178	79.75
433.4	79.75
433.622	89.75
433.844	73.75
434.066	83.75
434.287	77.75
434.509	78.75
434.731	82.75
434.953	89.75
435.175	70.75
435.397	85.75
435.618	94.75
435.84	73.75
436.062	74.75
436.284	90.75
436.505	90.75
436.727	74.75
436.949	88.75
437.17	67.75
437.392	89.75
437.614	77.75
437.835	86.75
438.057	74.75
438.278	80.75
438.5	74.75
438.721	67.75
438.943	87.75
439.165	83.75
439.386	77.75
439.608	71.75
439.829	69.75
440.05	75.75
440.272	87.75
440.493	78.75
440.715	96.75
440.936	78.75
441.158	83.75
441.379	91.75
441.6	98.75
441.822	91.75
442.043	74.75
442.264	90.75
442.486	77.75
442.707	79.75
442.928	86.75
443.149	85.75
443.371	83.75
443.592	97.75
443.813	76.75
444.034	71.75
444.255	69.75
444.476	93.75
444.698	71.75
444.919	90.75
445.14	149.75
445.361	113.75
445.582	94.75
445.803	89.75
446.024	84.75
446.245	80.75
446.466	61.75
446.687	79.75
446.908	90.75
447.129	99.75
447.35	86.75
447.571	81.75
447.792	91.75
448.013	88.75
448.234	73.75
448.455	86.75
448.675	89.75
448.896	67.75
449.117	84.75
449.338	83.75
449.559	87.75
449.779	80.75
450	73.75
450.221	79.75
450.442	88.75
450.662	99.75
450.883	77.75
451.104	80.75
451.324	71.75
451.545	84.75
451.766	85.75
451.986	82.75
452.207	65.75
452.428	75.75
452.648	79.75
452.869	83.75
453.089	83.75
453.31	67.75
453.53	79.75
453.751	72.75
453.971	88.75
454.192	88.75
454.412	77.75
454.633	95.75
454.853	77.75
455.073	77.75
455.294	93.75
455.514	72.75
455.734	77.75
455.955	77.75
456.175	70.75
456.395	79.75
456.616	68.75
456.836	87.75
457.056	84.75
457.276	76.75
457.497	74.75
457.717	83.75
457.937	83.75
458.157	71.75
458.377	78.75
458.598	81.75
458.818	81.75
459.038	86.75
459.258	97.75
459.478	84.75
459.698	70.75
459.918	72.75
460.138	75.75
460.358	84.75
460.578	91.75
460.798	80.75
461.018	69.75
461.238	80.75
461.458	69.75
461.678	82.75
461.898	85.75
462.118	92.75
462.338	87.75
462.558	89.75
462.777	80.75
462.997	85.75
463.217	78.75
463.437	81.75
463.657	81.75
463.876	85.75
464.096	88.75
464.316	70.75
464.536	79.75
464.755	71.75
464.975	67.75
465.195	100.75
465.414	82.75
465.634	71.75
465.854	79.75
466.073	78.75
466.293	75.75
466.512	67.75
466.732	84.75
466.951	84.75
467.171	73.75
467.391	73.75
467.61	81.75
467.829	90.75
468.049	73.75
468.268	79.75
468.488	77.75
468.707	80.75
468.927	85.75
469.146	73.75
469.365	88.75
469.585	93.75
469.804	86.75
470.023	77.75
470.243	75.75
470.462	70.75
470.681	84.75
470.901	78.75
471.12	91.75
471.339	82.75
471.558	73.75
471.777	81.75
471.997	91.75
472.216	72.75
472.435	79.75
472.654	75.75
472.873	92.75
473.092	75.75
473.311	76.75
473.53	86.75
473.749	78.75
473.968	88.75
474.187	79.75
474.406	85.75
474.625	66.75
474.844	88.75
475.063	81.75
475.282	87.75
475.501	72.75
475.72	81.75
475.939	77.75
476.158	76.75
476.377	75.75
476.596	56.75
476.814	68.75
477.033	90.75
477.252	87.75
477.471	83.75
477.69	91.75
477.908	80.75
478.127	83.75
478.346	79.75
478.564	69.75
478.783	88.75
479.002	89.75
479.22	82.75
479.439	63.75
479.658	73.75
479.876	73.75
480.095	71.75
480.313	81.75
480.532	71.75
480.751	94.75
480.969	86.75
481.188	85.75
481.406	92.75
481.624	64.75
481.843	75.75
482.061	77.75
482.28	76.75
482.498	76.75
482.717	89.75
482.935	79.75
483.153	83.75
483.372	85.75
483.59	82.75
483.808	78.75
484.027	87.75
484.245	86.75
484.463	73.75
484.681	73.75
484.9	90.75
485.118	85.75
485.336	91.75
485.554	82.75
485.772	70.75
485.99	80.75
486.209	87.75
486.427	61.75
486.645	82.75
486.863	87.75
487.081	85.75
487.299	78.75
487.517	91.75
487.735	81.75
487.953	80.75
488.171	85.75
488.389	69.75
488.607	79.75
488.825	91.75
489.043	93.75
489.261	83.75
489.479	87.75
489.696	90.75
489.914	67.75
490.132	80.75
490.35	75.75
490.568	79.75
490.786	99.75
491.003	71.75
491.221	78.75
491.439	79.75
491.657	82.75
491.874	81.75
492.092	96.75
492.31	83.75
492.527	94.75
492.745	77.75
492.963	74.75
493.18	87.75
493.398	78.75
493.615	85.75
493.833	77.75
494.05	64.75
494.268	85.75
494.485	91.75
494.703	89.75
494.92	81.75
495.138	72.75
495.355	97.75
495.573	84.75
495.79	89.75
496.008	74.75
496.225	86.75
496.442	75.75
496.66	83.75
496.877	81.75
497.094	90.75
497.312	78.75
497.529	81.75
497.746	81.75
497.963	82.75
498.181	77.75
498.398	84.75
498.615	84.75
498.832	86.75
499.049	79.75
499.267	85.75
499.484	71.75
499.701	84.75
499.918	68.75
500.135	79.75
500.352	81.75
500.569	83.75
500.786	81.75
501.003	81.75
501.22	73.75
501.437	77.75
501.654	72.75
501.871	92.75
502.088	76.75
502.305	87.75
502.522	83.75
502.739	80.75
502.956	83.75
503.172	88.75
503.389	79.75
503.606	77.75
503.823	74.75
504.04	86.75
504.256	75.75
504.473	71.75
504.69	91.75
504.907	98.75
505.123	76.75
505.34	83.75
505.557	72.75
505.773	90.75
505.99	87.75
506.207	84.75
506.423	87.75
506.64	78.75
506.856	81.75
507.073	81.75
507.289	87.75
507.506	80.75
507.722	83.75
507.939	92.75
508.155	83.75
508.372	84.75
508.588	89.75
508.805	75.75
509.021	91.75
509.238	83.75
509.454	96.75
509.67	77.75
509.887	83.75
510.103	88.75
510.319	70.75
510.536	80.75
510.752	74.75
510.968	84.75
511.184	79.75
511.401	72.75
511.617	76.75
511.833	91.75
512.049	81.75
512.265	69.75
512.481	94.75
512.698	83.75
512.914	69.75
513.13	69.75
513.346	72.75
513.562	69.75
513.778	91.75
513.994	92.75
514.21	95.75
514.426	81.75
514.642	77.75
514.858	87.75
515.074	77.75
515.29	86.75
515.506	88.75
515.721	96.75
515.937	78.75
516.153	69.75
516.369	85.75
516.585	82.75
516.801	91.75
517.016	95.75
517.232	71.75
517.448	70.75
517.664	89.75
517.879	83.75
518.095	81.75
518.311	76.75
518.527	86.75
518.742	88.75
518.958	94.75
519.173	86.75
519.389	68.75
519.605	67.75
519.82	75.75
520.036	79.75
520.251	91.75
520.467	86.75
520.682	81.75
520.898	89.75
521.113	78.75
521.329	67.75
521.544	72.75
521.76	94.75
521.975	76.75
522.19	77.75
522.406	80.75
522.621	94.75
522.836	85.75
523.052	93.75
523.267	56.75
523.482	72.75
523.698	74.75
523.913	97.75
524.128	81.75
524.343	82.75
524.559	71.75
524.774	74.75
524.989	88.75
525.204	73.75
525.419	74.75
525.634	91.75
525.849	84.75
526.064	111.75
526.28	96.75
526.495	86.75
526.71	102.75
526.925	91.75
527.14	91.75
527.355	84.75
527.57	81.75
527.785	67.75
527.999	63.75
528.214	82.75
528.429	67.75
528.644	86.75
528.859	91.75
529.074	77.75
529.289	85.75
529.503	83.75
529.718	88.75
529.933	79.75
530.148	93.75
530.363	86.75
530.577	83.75
530.792	92.75
531.007	77.75
531.221	91.75
531.436	76.75
531.651	85.75
531.865	84.75
532.08	93.75
532.295	83.75
532.509	78.75
532.724	91.75
532.938	84.75
533.153	77.75
533.367	78.75
533.582	80.75
533.796	81.75
534.011	69.75
534.225	85.75
534.44	86.75
534.654	81.75
534.868	87.75
535.083	85.75
535.297	93.75
535.511	95.75
535.726	87.75
535.94	77.75
536.154	77.75
536.369	80.75
536.583	81.75
536.797	96.75
537.011	81.75
537.225	82.75
537.44	85.75
537.654	84.75
537.868	79.75
538.082	74.75
538.296	88.75
538.51	77.75
538.724	82.75
538.938	76.75
539.153	76.75
539.367	91.75
539.581	83.75
539.795	71.75
540.009	78.75
540.222	81.75
540.436	89.75
540.65	73.75
540.864	89.75
541.078	84.75
541.292	78.75
541.506	78.75
541.72	87.75
541.934	85.75
542.147	83.75
542.361	77.75
542.575	79.75
542.789	80.75
543.002	73.75
543.216	82.75
543.43	85.75
543.644	83.75
543.857	82.75
544.071	94.75
544.285	92.75
544.498	96.75
544.712	77.75
544.925	76.75
545.139	87.75
545.352	80.75
545.566	72.75
545.779	83.75
545.993	85.75
546.206	63.75
546.42	82.75
546.633	92.75
546.847	82.75
547.06	86.75
547.274	82.75
547.487	74.75
547.7	80.75
547.914	95.75
548.127	88.75
548.34	78.75
548.554	74.75
548.767	90.75
548.98	94.75
549.193	79.75
549.407	73.75
549.62	92.75
549.833	91.75
550.046	86.75
550.259	75.75
550.473	79.75
550.686	83.75
550.899	97.75
551.112	93.75
551.325	95.75
551.538	83.75
551.751	91.75
551.964	86.75
552.177	85.75
552.39	81.75
552.603	95.75
552.816	107.75
553.029	88.75
553.242	95.75
553.455	79.75
553.667	99.75
553.88	86.75
554.093	88.75
554.306	95.75
554.519	97.75
554.732	93.75
554.944	88.75
555.157	100.75
555.37	70.75
555.583	82.75
555.795	96.75
556.008	84.75
556.221	77.75
556.433	85.75
556.646	83.75
556.859	84.75
557.071	84.75
557.284	78.75
557.496	89.75
557.709	74.75
557.921	77.75
558.134	95.75
558.346	85.75
558.559	87.75
558.771	93.75
558.984	100.75
559.196	104.75
559.409	88.75
559.621	85.75
559.833	87.75
560.046	94.75
560.258	87.75
560.47	85.75
560.683	81.75
560.895	91.75
561.107	83.75
561.32	81.75
561.532	99.75
561.744	87.75
561.956	87.75
562.168	76.75
562.381	82.75
562.593	86.75
562.805	87.75
563.017	89.75
563.229	76.75
563.441	71.75
563.653	71.75
563.865	80.75
564.077	74.75
564.289	76.75
564.501	86.75
564.713	73.75
564.925	76.75
565.137	89.75
565.349	89.75
565.561	88.75
565.773	79.75
565.985	76.75
566.197	73.75
566.408	84.75
566.62	95.75
566.832	87.75
567.044	89.75
567.255	85.75
567.467	76.75
567.679	93.75
567.891	80.75
568.102	83.75
568.314	100.75
568.526	99.75
568.737	78.75
568.949	81.75
569.161	97.75
569.372	79.75
569.584	78.75
569.795	88.75
570.007	84.75
570.218	86.75
570.43	85.75
570.641	88.75
570.853	87.75
571.064	79.75
571.276	83.75
571.487	79.75
571.698	77.75
571.91	72.75
572.121	73.75
572.333	71.75
572.544	88.75
572.755	83.75
572.966	84.75
573.178	66.75
573.389	75.75
573.6	82.75
573.811	87.75
574.023	76.75
574.234	82.75
574.445	85.75
574.656	81.75
574.867	95.75
575.078	97.75
575.289	99.75
575.501	90.75
575.712	93.75
575.923	82.75
576.134	104.75
576.345	85.75
576.556	87.75
576.767	79.75
576.978	80.75
577.188	90.75
577.399	86.75
577.61	88.75
577.821	77.75
578.032	81.75
578.243	71.75
578.454	79.75
578.665	94.75
578.875	93.75
579.086	95.75
579.297	67.75
579.508	72.75
579.718	84.75
579.929	84.75
580.14	83.75
580.35	82.75
580.561	84.75
580.772	96.75
580.982	90.75
581.193	91.75
581.403	83.75
581.614	86.75
581.825	89.75
582.035	93.75
582.246	77.75
582.456	68.75
582.667	89.75
582.877	79.75
583.087	93.75
583.298	81.75
583.508	94.75
583.719	90.75
583.929	92.75
584.139	74.75
584.35	83.75
584.56	89.75
584.77	74.75
584.981	82.75
585.191	73.75
585.401	63.75
585.611	83.75
585.821	83.75
586.032	89.75
586.242	80.75
586.452	87.75
586.662	64.75
586.872	91.75
587.082	89.75
587.292	66.75
587.502	85.75
587.713	95.75
587.923	86.75
588.133	84.75
588.343	79.75
588.553	85.75
588.762	95.75
588.972	103.75
589.182	172.75
589.392	148.75
589.602	109.75
589.812	159.75
590.022	111.75
590.232	97.75
590.441	90.75
590.651	91.75
590.861	84.75
591.071	87.75
591.281	73.75
591.49	80.75
591.7	87.75
591.91	88.75
592.119	85.75
592.329	86.75
592.539	83.75
592.748	96.75
592.958	75.75
593.167	90.75
593.377	96.75
593.587	92.75
593.796	101.75
594.006	90.75
594.215	73.75
594.424	73.75
594.634	73.75
594.843	80.75
595.053	76.75
595.262	82.75
595.472	84.75
595.681	74.75
595.89	90.75
596.1	94.75
596.309	75.75
596.518	83.75
596.727	87.75
596.937	90.75
597.146	79.75
597.355	89.75
597.564	87.75
597.774	93.75
597.983	83.75
598.192	73.75
598.401	85.75
598.61	82.75
598.819	86.75
599.028	84.75
599.237	81.75
599.446	67.75
599.655	81.75
599.864	74.75
600.073	92.75
600.282	84.75
600.491	68.75
600.7	92.75
600.909	83.75
601.118	94.75
601.327	88.75
601.536	93.75
601.745	83.75
601.953	80.75
602.162	87.75
602.371	78.75
602.58	96.75
602.789	85.75
602.997	91.75
603.206	96.75
603.415	80.75
603.623	78.75
603.832	98.75
604.041	86.75
604.249	69.75
604.458	86.75
604.666	85.75
604.875	93.75
605.084	91.75
605.292	82.75
605.501	79.75
605.709	83.75
605.918	95.75
606.126	97.75
606.334	93.75
606.543	90.75
606.751	88.75
606.96	85.75
607.168	103.75
607.376	84.75
607.585	88.75
607.793	104.75
608.001	73.75
608.21	90.75
608.418	94.75
608.626	87.75
608.834	88.75
609.043	82.75
609.251	71.75
609.459	85.75
609.667	82.75
609.875	99.75
610.083	94.75
610.291	92.75
610.499	110.75
610.707	102.75
610.916	97.75
611.124	81.75
611.332	97.75
611.54	80.75
611.748	77.75
611.955	86.75
612.163	96.75
612.371	102.75
612.579	93.75
612.787	87.75
612.995	103.75
613.203	84.75
613.411	71.75
613.618	91.75
613.826	93.75
614.034	91.75
614.242	96.75
614.449	103.75
614.657	100.75
614.865	95.75
615.072	90.75
615.28	80.75
615.488	92.75
615.695	80.75
615.903	92.75
616.111	89.75
616.318	112.75
616.526	100.75
616.733	90.75
616.941	98.75
617.148	95.75
617.356	80.75
617.563	77.75
617.771	85.75
617.978	93.75
618.185	87.75
618.393	84.75
618.6	96.75
618.807	93.75
619.015	101.75
619.222	89.75
619.429	79.75
619.637	84.75
619.844	73.75
620.051	100.75
620.258	84.75
620.466	100.75
620.673	85.75
620.88	87.75
621.087	79.75
621.294	74.75
621.501	92.75
621.708	91.75
621.915	96.75
622.122	83.75
622.329	88.75
622.536	93.75
622.743	83.75
622.95	84.75
623.157	81.75
623.364	83.75
623.571	98.75
623.778	83.75
623.985	75.75
624.192	90.75
624.399	84.75
624.606	100.75
624.812	87.75
625.019	73.75
625.226	85.75
625.433	68.75
625.639	87.75
625.846	93.75
626.053	81.75
626.259	92.75
626.466	84.75
626.673	87.75
626.879	80.75
627.086	79.75
627.293	81.75
627.499	73.75
627.706	85.75
627.912	71.75
628.119	91.75
628.325	93.75
628.532	80.75
628.738	83.75
628.945	73.75
629.151	79.75
629.357	101.75
629.564	97.75
629.77	87.75
629.976	81.75
630.183	77.75
630.389	83.75
630.595	77.75
630.802	72.75
631.008	77.75
631.214	79.75
631.42	80.75
631.627	78.75
631.833	85.75
632.039	77.75
632.245	91.75
632.451	88.75
632.657	87.75
632.863	81.75
633.069	83.75
633.275	83.75
633.481	79.75
633.688	71.75
633.893	76.75
634.099	80.75
634.305	90.75
634.511	83.75
634.717	79.75
634.923	74.75
635.129	95.75
635.335	83.75
635.541	81.75
635.747	81.75
635.952	84.75
636.158	81.75
636.364	89.75
636.57	91.75
636.775	73.75
636.981	70.75
637.187	68.75
637.392	82.75
637.598	84.75
637.804	92.75
638.009	77.75
638.215	79.75
638.421	80.75
638.626	79.75
638.832	73.75
639.037	87.75
639.243	69.75
639.448	85.75
639.654	90.75
639.859	85.75
640.065	59.75
640.27	76.75
640.475	79.75
640.681	79.75
640.886	77.75
641.091	95.75
641.297	92.75
641.502	77.75
641.707	92.75
641.913	73.75
642.118	81.75
642.323	86.75
642.528	93.75
642.733	95.75
642.939	91.75
643.144	83.75
643.349	79.75
643.554	97.75
643.759	68.75
643.964	81.75
644.169	101.75
644.374	90.75
644.579	81.75
644.784	74.75
644.989	79.75
645.194	77.75
645.399	85.75
645.604	80.75
645.809	94.75
646.014	78.75
646.219	88.75
646.423	85.75
646.628	88.75
646.833	86.75
647.038	82.75
647.243	96.75
647.447	87.75
647.652	70.75
647.857	84.75
648.062	85.75
648.266	99.75
648.471	80.75
648.676	86.75
648.88	97.75
649.085	87.75
649.289	79.75
649.494	81.75
649.698	82.75
649.903	81.75
650.107	88.75
650.312	100.75
650.516	97.75
650.721	84.75
650.925	83.75
651.13	87.75
651.334	63.75
651.539	71.75
651.743	67.75
651.947	84.75
652.152	86.75
652.356	79.75
652.56	80.75
652.764	87.75
652.969	80.75
653.173	79.75
653.377	78.75
653.581	83.75
653.785	77.75
653.99	86.75
654.194	77.75
654.398	76.75
654.602	69.75
654.806	81.75
655.01	72.75
655.214	72.75
655.418	76.75
655.622	90.75
655.826	88.75
656.03	75.75
656.234	90.75
656.438	77.75
656.642	78.75
656.846	82.75
657.049	79.75
657.253	79.75
657.457	67.75
657.661	88.75
657.865	81.75
658.068	95.75
658.272	100.75
658.476	88.75
658.68	91.75
658.883	79.75
659.087	79.75
659.291	75.75
659.494	85.75
659.698	78.75
659.901	70.75
660.105	85.75
660.309	91.75
660.512	75.75
660.716	76.75
660.919	65.75
661.123	91.75
661.326	88.75
661.53	86.75
661.733	93.75
661.936	93.75
662.14	89.75
662.343	70.75
662.546	74.75
662.75	83.75
662.953	79.75
663.156	90.75
663.36	75.75
663.563	84.75
663.766	83.75
663.969	72.75
664.173	79.75
664.376	85.75
664.579	65.75
664.782	74.75
664.985	85.75
665.188	82.75
665.391	94.75
665.594	76.75
665.797	80.75
666	77.75
666.203	68.75
666.406	68.75
666.609	76.75
666.812	90.75
667.015	74.75
667.218	88.75
667.421	87.75
667.624	80.75
667.827	85.75
668.03	71.75
668.232	93.75
668.435	80.75
668.638	91.75
668.841	89.75
669.043	83.75
669.246	81.75
669.449	101.75
669.651	78.75
669.854	79.75
670.057	79.75
670.259	76.75
670.462	76.75
670.665	74.75
670.867	77.75
671.07	79.75
671.272	69.75
671.475	86.75
671.677	78.75
671.88	81.75
672.082	84.75
672.284	70.75
672.487	82.75
672.689	77.75
672.892	79.75
