Data from 1600_3_HRD10591_00046.txt Node
Date: Mon Jan 19 13:55:16 EST 2026
User: Yrep
Spectrometer: HR+D1059
Trigger mode: 1
Integration Time (sec): 1.000000E-1
Scans to average: 1
Electric dark correction enabled: true
Nonlinearity correction enabled: false
Boxcar width: 0
XAxis mode: Wavelengths
Number of Pixels in Spectrum: 2048
>>>>>Begin Spectral Data<<<<<
223.165	-10.62
223.4	-10.62
223.635	-10.62
223.869	-28.62
224.104	-15.62
224.338	-11.62
224.573	-19.62
224.808	-24.62
225.042	-3.62
225.277	-13.62
225.511	-0.62
225.746	10.38
225.98	16.38
226.215	10.38
226.449	19.38
226.683	12.38
226.918	29.38
227.152	30.38
227.387	32.38
227.621	39.38
227.856	58.38
228.09	48.38
228.324	48.38
228.559	53.38
228.793	50.38
229.027	60.38
229.262	72.38
229.496	58.38
229.73	78.38
229.964	75.38
230.199	64.38
230.433	61.38
230.667	75.38
230.901	82.38
231.136	70.38
231.37	76.38
231.604	76.38
231.838	76.38
232.072	74.38
232.306	76.38
232.541	72.38
232.775	88.38
233.009	71.38
233.243	65.38
233.477	80.38
233.711	61.38
233.945	77.38
234.179	89.38
234.413	82.38
234.647	80.38
234.881	74.38
235.115	72.38
235.349	86.38
235.583	88.38
235.817	91.38
236.051	74.38
236.285	66.38
236.519	85.38
236.753	61.38
236.987	55.38
237.221	67.38
237.455	82.38
237.689	74.38
237.922	82.38
238.156	80.38
238.39	72.38
238.624	66.38
238.858	78.38
239.091	74.38
239.325	75.38
239.559	67.38
239.793	70.38
240.027	58.38
240.26	73.38
240.494	68.38
240.728	71.38
240.961	90.38
241.195	68.38
241.429	81.38
241.662	74.38
241.896	88.38
242.13	72.38
242.363	76.38
242.597	70.38
242.83	83.38
243.064	74.38
243.298	92.38
243.531	69.38
243.765	82.38
243.998	80.38
244.232	80.38
244.465	75.38
244.699	79.38
244.932	68.38
245.166	77.38
245.399	67.38
245.633	74.38
245.866	58.38
246.099	87.38
246.333	88.38
246.566	85.38
246.8	76.38
247.033	81.38
247.266	75.38
247.5	82.38
247.733	85.38
247.966	80.38
248.2	62.38
248.433	77.38
248.666	89.38
248.899	75.38
249.133	78.38
249.366	73.38
249.599	76.38
249.832	81.38
250.066	74.38
250.299	69.38
250.532	79.38
250.765	76.38
250.998	66.38
251.231	84.38
251.465	75.38
251.698	71.38
251.931	86.38
252.164	82.38
252.397	79.38
252.63	76.38
252.863	73.38
253.096	80.38
253.329	76.38
253.562	81.38
253.795	81.38
254.028	90.38
254.261	78.38
254.494	94.38
254.727	90.38
254.96	81.38
255.193	72.38
255.426	80.38
255.659	81.38
255.892	66.38
256.124	63.38
256.357	91.38
256.59	93.38
256.823	64.38
257.056	76.38
257.289	81.38
257.521	60.38
257.754	64.38
257.987	67.38
258.22	86.38
258.452	74.38
258.685	84.38
258.918	67.38
259.151	81.38
259.383	86.38
259.616	74.38
259.849	75.38
260.081	82.38
260.314	80.38
260.547	92.38
260.779	70.38
261.012	82.38
261.244	79.38
261.477	80.38
261.71	84.38
261.942	77.38
262.175	80.38
262.407	80.38
262.64	84.38
262.872	97.38
263.105	77.38
263.337	80.38
263.57	72.38
263.802	72.38
264.035	80.38
264.267	80.38
264.499	90.38
264.732	92.38
264.964	85.38
265.197	86.38
265.429	67.38
265.661	77.38
265.894	69.38
266.126	86.38
266.358	79.38
266.591	70.38
266.823	80.38
267.055	80.38
267.287	80.38
267.52	80.38
267.752	72.38
267.984	82.38
268.216	79.38
268.448	74.38
268.681	80.38
268.913	83.38
269.145	82.38
269.377	80.38
269.609	83.38
269.841	74.38
270.073	69.38
270.306	76.38
270.538	80.38
270.77	73.38
271.002	78.38
271.234	77.38
271.466	90.38
271.698	84.38
271.93	83.38
272.162	78.38
272.394	78.38
272.626	76.38
272.858	88.38
273.09	78.38
273.322	80.38
273.553	93.38
273.785	82.38
274.017	76.38
274.249	73.38
274.481	93.38
274.713	81.38
274.945	91.38
275.176	88.38
275.408	90.38
275.64	72.38
275.872	69.38
276.104	68.38
276.335	72.38
276.567	74.38
276.799	76.38
277.031	87.38
277.262	70.38
277.494	83.38
277.726	82.38
277.957	78.38
278.189	93.38
278.421	85.38
278.652	90.38
278.884	83.38
279.115	86.38
279.347	80.38
279.579	93.38
279.81	94.38
280.042	93.38
280.273	81.38
280.505	86.38
280.736	82.38
280.968	86.38
281.199	82.38
281.431	80.38
281.662	78.38
281.894	87.38
282.125	88.38
282.356	86.38
282.588	88.38
282.819	91.38
283.051	87.38
283.282	68.38
283.513	78.38
283.745	82.38
283.976	90.38
284.207	67.38
284.439	76.38
284.67	79.38
284.901	84.38
285.132	102.38
285.364	84.38
285.595	99.38
285.826	89.38
286.057	97.38
286.288	93.38
286.52	76.38
286.751	93.38
286.982	83.38
287.213	85.38
287.444	85.38
287.675	86.38
287.906	83.38
288.138	80.38
288.369	77.38
288.6	82.38
288.831	80.38
289.062	87.38
289.293	89.38
289.524	70.38
289.755	82.38
289.986	90.38
290.217	70.38
290.448	88.38
290.679	81.38
290.91	76.38
291.141	78.38
291.371	78.38
291.602	75.38
291.833	90.38
292.064	92.38
292.295	90.38
292.526	86.38
292.757	74.38
292.987	77.38
293.218	76.38
293.449	95.38
293.68	87.38
293.91	81.38
294.141	83.38
294.372	85.38
294.603	93.38
294.833	97.38
295.064	71.38
295.295	79.38
295.525	71.38
295.756	82.38
295.987	73.38
296.217	77.38
296.448	85.38
296.679	89.38
296.909	76.38
297.14	94.38
297.37	87.38
297.601	82.38
297.831	87.38
298.062	76.38
298.292	79.38
298.523	99.38
298.753	72.38
298.984	75.38
299.214	88.38
299.445	94.38
299.675	86.38
299.905	90.38
300.136	72.38
300.366	90.38
300.597	87.38
300.827	72.38
301.057	82.38
301.288	88.38
301.518	78.38
301.748	80.38
301.979	106.38
302.209	97.38
302.439	80.38
302.669	85.38
302.9	87.38
303.13	84.38
303.36	78.38
303.59	87.38
303.82	78.38
304.051	86.38
304.281	73.38
304.511	93.38
304.741	92.38
304.971	96.38
305.201	78.38
305.431	74.38
305.661	80.38
305.891	63.38
306.121	79.38
306.352	81.38
306.582	75.38
306.812	82.38
307.042	84.38
307.272	79.38
307.502	83.38
307.731	73.38
307.961	92.38
308.191	97.38
308.421	85.38
308.651	90.38
308.881	89.38
309.111	90.38
309.341	72.38
309.571	72.38
309.8	86.38
310.03	72.38
310.26	77.38
310.49	70.38
310.72	97.38
310.949	73.38
311.179	85.38
311.409	83.38
311.639	81.38
311.868	98.38
312.098	77.38
312.328	93.38
312.557	90.38
312.787	93.38
313.017	90.38
313.246	87.38
313.476	95.38
313.706	72.38
313.935	73.38
314.165	79.38
314.394	81.38
314.624	86.38
314.853	81.38
315.083	90.38
315.312	84.38
315.542	73.38
315.771	84.38
316.001	66.38
316.23	81.38
316.46	78.38
316.689	71.38
316.919	92.38
317.148	76.38
317.377	85.38
317.607	90.38
317.836	81.38
318.065	89.38
318.295	81.38
318.524	80.38
318.753	81.38
318.983	76.38
319.212	91.38
319.441	87.38
319.67	79.38
319.9	92.38
320.129	84.38
320.358	88.38
320.587	85.38
320.816	77.38
321.046	81.38
321.275	84.38
321.504	76.38
321.733	79.38
321.962	82.38
322.191	70.38
322.42	79.38
322.649	77.38
322.878	94.38
323.108	76.38
323.337	90.38
323.566	84.38
323.795	84.38
324.024	79.38
324.253	83.38
324.482	83.38
324.71	92.38
324.939	80.38
325.168	83.38
325.397	87.38
325.626	82.38
325.855	78.38
326.084	77.38
326.313	82.38
326.542	66.38
326.77	79.38
326.999	83.38
327.228	79.38
327.457	86.38
327.686	79.38
327.914	72.38
328.143	105.38
328.372	72.38
328.6	81.38
328.829	71.38
329.058	84.38
329.287	72.38
329.515	97.38
329.744	78.38
329.972	81.38
330.201	86.38
330.43	77.38
330.658	83.38
330.887	82.38
331.115	91.38
331.344	94.38
331.572	80.38
331.801	67.38
332.03	85.38
332.258	83.38
332.486	66.38
332.715	79.38
332.943	82.38
333.172	92.38
333.4	88.38
333.629	76.38
333.857	78.38
334.085	82.38
334.314	77.38
334.542	80.38
334.771	79.38
334.999	85.38
335.227	75.38
335.455	86.38
335.684	76.38
335.912	78.38
336.14	86.38
336.369	86.38
336.597	70.38
336.825	89.38
337.053	79.38
337.281	85.38
337.51	78.38
337.738	93.38
337.966	85.38
338.194	69.38
338.422	79.38
338.65	85.38
338.878	77.38
339.106	73.38
339.334	63.38
339.562	78.38
339.79	83.38
340.018	80.38
340.246	86.38
340.474	87.38
340.702	68.38
340.93	79.38
341.158	84.38
341.386	71.38
341.614	98.38
341.842	79.38
342.07	74.38
342.298	79.38
342.526	83.38
342.754	86.38
342.981	87.38
343.209	93.38
343.437	78.38
343.665	80.38
343.893	85.38
344.12	99.38
344.348	94.38
344.576	85.38
344.804	83.38
345.031	77.38
345.259	76.38
345.487	91.38
345.714	83.38
345.942	87.38
346.17	71.38
346.397	71.38
346.625	87.38
346.853	87.38
347.08	88.38
347.308	80.38
347.535	89.38
347.763	82.38
347.99	84.38
348.218	79.38
348.445	91.38
348.673	91.38
348.9	93.38
349.128	79.38
349.355	79.38
349.583	90.38
349.81	75.38
350.037	79.38
350.265	82.38
350.492	90.38
350.72	72.38
350.947	91.38
351.174	84.38
351.402	77.38
351.629	84.38
351.856	88.38
352.083	55.38
352.311	70.38
352.538	73.38
352.765	93.38
352.992	89.38
353.22	103.38
353.447	87.38
353.674	90.38
353.901	98.38
354.128	78.38
354.355	81.38
354.583	85.38
354.81	81.38
355.037	70.38
355.264	85.38
355.491	88.38
355.718	87.38
355.945	66.38
356.172	77.38
356.399	95.38
356.626	94.38
356.853	82.38
357.08	92.38
357.307	73.38
357.534	88.38
357.761	90.38
357.988	83.38
358.215	84.38
358.441	86.38
358.668	75.38
358.895	78.38
359.122	84.38
359.349	71.38
359.576	82.38
359.802	79.38
360.029	70.38
360.256	78.38
360.483	83.38
360.709	77.38
360.936	77.38
361.163	82.38
361.39	84.38
361.616	70.38
361.843	70.38
362.07	89.38
362.296	84.38
362.523	86.38
362.749	87.38
362.976	85.38
363.203	97.38
363.429	93.38
363.656	67.38
363.882	72.38
364.109	78.38
364.335	80.38
364.562	90.38
364.788	78.38
365.015	83.38
365.241	85.38
365.468	94.38
365.694	85.38
365.92	78.38
366.147	84.38
366.373	85.38
366.599	74.38
366.826	72.38
367.052	83.38
367.278	68.38
367.505	80.38
367.731	79.38
367.957	66.38
368.184	67.38
368.41	79.38
368.636	76.38
368.862	93.38
369.089	94.38
369.315	78.38
369.541	83.38
369.767	86.38
369.993	75.38
370.219	83.38
370.445	79.38
370.672	103.38
370.898	86.38
371.124	90.38
371.35	88.38
371.576	84.38
371.802	71.38
372.028	94.38
372.254	81.38
372.48	88.38
372.706	89.38
372.932	96.38
373.158	100.38
373.384	101.38
373.61	95.38
373.835	94.38
374.061	97.38
374.287	93.38
374.513	97.38
374.739	87.38
374.965	102.38
375.191	89.38
375.416	86.38
375.642	79.38
375.868	76.38
376.094	92.38
376.319	82.38
376.545	87.38
376.771	99.38
376.997	85.38
377.222	75.38
377.448	69.38
377.674	73.38
377.899	79.38
378.125	81.38
378.35	80.38
378.576	76.38
378.802	91.38
379.027	91.38
379.253	84.38
379.478	92.38
379.704	80.38
379.929	78.38
380.155	66.38
380.38	80.38
380.606	84.38
380.831	76.38
381.057	86.38
381.282	86.38
381.507	83.38
381.733	92.38
381.958	99.38
382.184	108.38
382.409	80.38
382.634	87.38
382.86	103.38
383.085	84.38
383.31	110.38
383.535	101.38
383.761	97.38
383.986	86.38
384.211	80.38
384.436	80.38
384.662	87.38
384.887	86.38
385.112	84.38
385.337	73.38
385.562	82.38
385.787	93.38
386.013	88.38
386.238	86.38
386.463	76.38
386.688	89.38
386.913	78.38
387.138	92.38
387.363	82.38
387.588	84.38
387.813	72.38
388.038	76.38
388.263	90.38
388.488	71.38
388.713	91.38
388.938	76.38
389.163	66.38
389.387	64.38
389.612	81.38
389.837	97.38
390.062	85.38
390.287	94.38
390.512	84.38
390.736	94.38
390.961	77.38
391.186	95.38
391.411	83.38
391.636	69.38
391.86	87.38
392.085	90.38
392.31	84.38
392.534	87.38
392.759	98.38
392.984	117.38
393.208	166.38
393.433	231.38
393.658	188.38
393.882	104.38
394.107	85.38
394.331	91.38
394.556	92.38
394.78	90.38
395.005	82.38
395.229	86.38
395.454	96.38
395.678	90.38
395.903	87.38
396.127	120.38
396.352	124.38
396.576	122.38
396.801	180.38
397.025	201.38
397.249	123.38
397.474	98.38
397.698	84.38
397.922	80.38
398.147	91.38
398.371	76.38
398.595	84.38
398.82	83.38
399.044	80.38
399.268	72.38
399.492	73.38
399.717	72.38
399.941	69.38
400.165	71.38
400.389	72.38
400.613	84.38
400.837	84.38
401.062	79.38
401.286	73.38
401.51	84.38
401.734	85.38
401.958	86.38
402.182	76.38
402.406	56.38
402.63	56.38
402.854	78.38
403.078	85.38
403.302	83.38
403.526	75.38
403.75	79.38
403.974	80.38
404.198	82.38
404.422	86.38
404.645	106.38
404.869	87.38
405.093	88.38
405.317	68.38
405.541	73.38
405.765	66.38
405.988	79.38
406.212	66.38
406.436	83.38
406.66	66.38
406.883	87.38
407.107	85.38
407.331	77.38
407.555	87.38
407.778	91.38
408.002	86.38
408.226	80.38
408.449	85.38
408.673	72.38
408.896	80.38
409.12	87.38
409.344	78.38
409.567	83.38
409.791	77.38
410.014	82.38
410.238	75.38
410.461	87.38
410.685	91.38
410.908	84.38
411.132	69.38
411.355	79.38
411.578	91.38
411.802	79.38
412.025	69.38
412.249	76.38
412.472	81.38
412.695	72.38
412.919	77.38
413.142	86.38
413.365	90.38
413.589	70.38
413.812	84.38
414.035	93.38
414.258	78.38
414.482	90.38
414.705	88.38
414.928	87.38
415.151	78.38
415.374	77.38
415.597	93.38
415.821	83.38
416.044	82.38
416.267	79.38
416.49	83.38
416.713	79.38
416.936	83.38
417.159	80.38
417.382	85.38
417.605	91.38
417.828	84.38
418.051	77.38
418.274	83.38
418.497	84.38
418.72	77.38
418.943	79.38
419.166	78.38
419.389	88.38
419.611	74.38
419.834	76.38
420.057	76.38
420.28	86.38
420.503	79.38
420.726	78.38
420.948	82.38
421.171	76.38
421.394	82.38
421.617	73.38
421.839	112.38
422.062	85.38
422.285	97.38
422.507	150.38
422.73	199.38
422.953	164.38
423.175	86.38
423.398	76.38
423.621	74.38
423.843	94.38
424.066	75.38
424.288	86.38
424.511	101.38
424.733	77.38
424.956	96.38
425.178	74.38
425.401	80.38
425.623	77.38
425.846	79.38
426.068	79.38
426.291	81.38
426.513	78.38
426.735	68.38
426.958	69.38
427.18	76.38
427.402	78.38
427.625	83.38
427.847	76.38
428.069	97.38
428.292	110.38
428.514	95.38
428.736	98.38
428.958	76.38
429.181	83.38
429.403	72.38
429.625	77.38
429.847	84.38
430.069	94.38
430.292	110.38
430.514	96.38
430.736	89.38
430.958	90.38
431.18	78.38
431.402	71.38
431.624	85.38
431.846	87.38
432.068	90.38
432.29	84.38
432.512	86.38
432.734	79.38
432.956	82.38
433.178	80.38
433.4	95.38
433.622	89.38
433.844	82.38
434.066	80.38
434.287	77.38
434.509	93.38
434.731	85.38
434.953	76.38
435.175	89.38
435.397	85.38
435.618	90.38
435.84	80.38
436.062	86.38
436.284	74.38
436.505	87.38
436.727	82.38
436.949	76.38
437.17	80.38
437.392	84.38
437.614	89.38
437.835	86.38
438.057	92.38
438.278	76.38
438.5	82.38
438.721	81.38
438.943	80.38
439.165	84.38
439.386	73.38
439.608	87.38
439.829	81.38
440.05	79.38
440.272	90.38
440.493	77.38
440.715	66.38
440.936	88.38
441.158	84.38
441.379	75.38
441.6	84.38
441.822	96.38
442.043	86.38
442.264	90.38
442.486	80.38
442.707	95.38
442.928	87.38
443.149	78.38
443.371	108.38
443.592	108.38
443.813	103.38
444.034	76.38
444.255	92.38
444.476	72.38
444.698	80.38
444.919	71.38
445.14	166.38
445.361	114.38
445.582	118.38
445.803	110.38
446.024	80.38
446.245	78.38
446.466	78.38
446.687	75.38
446.908	70.38
447.129	88.38
447.35	89.38
447.571	91.38
447.792	87.38
448.013	85.38
448.234	98.38
448.455	72.38
448.675	70.38
448.896	83.38
449.117	76.38
449.338	68.38
449.559	66.38
449.779	88.38
450	79.38
450.221	78.38
450.442	76.38
450.662	86.38
450.883	67.38
451.104	78.38
451.324	86.38
451.545	79.38
451.766	88.38
451.986	80.38
452.207	76.38
452.428	83.38
452.648	92.38
452.869	82.38
453.089	71.38
453.31	95.38
453.53	79.38
453.751	69.38
453.971	79.38
454.192	86.38
454.412	72.38
454.633	77.38
454.853	86.38
455.073	91.38
455.294	82.38
455.514	78.38
455.734	69.38
455.955	76.38
456.175	82.38
456.395	70.38
456.616	72.38
456.836	75.38
457.056	85.38
457.276	73.38
457.497	82.38
457.717	82.38
457.937	84.38
458.157	64.38
458.377	87.38
458.598	92.38
458.818	76.38
459.038	87.38
459.258	91.38
459.478	84.38
459.698	80.38
459.918	76.38
460.138	82.38
460.358	80.38
460.578	94.38
460.798	83.38
461.018	80.38
461.238	89.38
461.458	74.38
461.678	90.38
461.898	91.38
462.118	72.38
462.338	79.38
462.558	83.38
462.777	93.38
462.997	74.38
463.217	73.38
463.437	83.38
463.657	71.38
463.876	73.38
464.096	72.38
464.316	86.38
464.536	83.38
464.755	82.38
464.975	75.38
465.195	69.38
465.414	78.38
465.634	73.38
465.854	85.38
466.073	84.38
466.293	86.38
466.512	80.38
466.732	67.38
466.951	85.38
467.171	74.38
467.391	73.38
467.61	82.38
467.829	86.38
468.049	86.38
468.268	84.38
468.488	91.38
468.707	84.38
468.927	82.38
469.146	78.38
469.365	81.38
469.585	80.38
469.804	75.38
470.023	78.38
470.243	83.38
470.462	91.38
470.681	80.38
470.901	90.38
471.12	72.38
471.339	67.38
471.558	91.38
471.777	72.38
471.997	66.38
472.216	79.38
472.435	85.38
472.654	81.38
472.873	85.38
473.092	78.38
473.311	64.38
473.53	68.38
473.749	83.38
473.968	78.38
474.187	82.38
474.406	86.38
474.625	91.38
474.844	92.38
475.063	77.38
475.282	55.38
475.501	78.38
475.72	82.38
475.939	87.38
476.158	83.38
476.377	89.38
476.596	73.38
476.814	82.38
477.033	84.38
477.252	76.38
477.471	82.38
477.69	85.38
477.908	83.38
478.127	82.38
478.346	77.38
478.564	82.38
478.783	72.38
479.002	67.38
479.22	73.38
479.439	80.38
479.658	81.38
479.876	78.38
480.095	82.38
480.313	87.38
480.532	81.38
480.751	88.38
480.969	91.38
481.188	69.38
481.406	78.38
481.624	66.38
481.843	83.38
482.061	90.38
482.28	79.38
482.498	91.38
482.717	89.38
482.935	82.38
483.153	72.38
483.372	88.38
483.59	78.38
483.808	88.38
484.027	79.38
484.245	86.38
484.463	91.38
484.681	84.38
484.9	78.38
485.118	79.38
485.336	80.38
485.554	80.38
485.772	83.38
485.99	87.38
486.209	79.38
486.427	84.38
486.645	91.38
486.863	90.38
487.081	73.38
487.299	73.38
487.517	79.38
487.735	100.38
487.953	102.38
488.171	95.38
488.389	81.38
488.607	86.38
488.825	87.38
489.043	89.38
489.261	75.38
489.479	80.38
489.696	85.38
489.914	79.38
490.132	54.38
490.35	89.38
490.568	83.38
490.786	90.38
491.003	78.38
491.221	94.38
491.439	87.38
491.657	80.38
491.874	70.38
492.092	78.38
492.31	85.38
492.527	78.38
492.745	72.38
492.963	80.38
493.18	79.38
493.398	79.38
493.615	86.38
493.833	93.38
494.05	82.38
494.268	79.38
494.485	75.38
494.703	84.38
494.92	73.38
495.138	77.38
495.355	84.38
495.573	88.38
495.79	79.38
496.008	82.38
496.225	72.38
496.442	91.38
496.66	67.38
496.877	70.38
497.094	94.38
497.312	82.38
497.529	84.38
497.746	80.38
497.963	78.38
498.181	96.38
498.398	77.38
498.615	84.38
498.832	80.38
499.049	81.38
499.267	72.38
499.484	88.38
499.701	83.38
499.918	75.38
500.135	64.38
500.352	89.38
500.569	92.38
500.786	99.38
501.003	80.38
501.22	79.38
501.437	90.38
501.654	80.38
501.871	77.38
502.088	83.38
502.305	78.38
502.522	76.38
502.739	92.38
502.956	79.38
503.172	74.38
503.389	79.38
503.606	86.38
503.823	88.38
504.04	81.38
504.256	98.38
504.473	91.38
504.69	78.38
504.907	88.38
505.123	65.38
505.34	85.38
505.557	71.38
505.773	68.38
505.99	89.38
506.207	84.38
506.423	71.38
506.64	89.38
506.856	86.38
507.073	80.38
507.289	90.38
507.506	76.38
507.722	86.38
507.939	72.38
508.155	80.38
508.372	83.38
508.588	80.38
508.805	90.38
509.021	86.38
509.238	71.38
509.454	71.38
509.67	79.38
509.887	88.38
510.103	84.38
510.319	73.38
510.536	87.38
510.752	82.38
510.968	89.38
511.184	93.38
511.401	85.38
511.617	77.38
511.833	90.38
512.049	85.38
512.265	76.38
512.481	89.38
512.698	90.38
512.914	91.38
513.13	92.38
513.346	73.38
513.562	79.38
513.778	84.38
513.994	90.38
514.21	80.38
514.426	88.38
514.642	83.38
514.858	91.38
515.074	90.38
515.29	81.38
515.506	76.38
515.721	85.38
515.937	77.38
516.153	85.38
516.369	81.38
516.585	72.38
516.801	80.38
517.016	78.38
517.232	89.38
517.448	93.38
517.664	72.38
517.879	71.38
518.095	85.38
518.311	98.38
518.527	88.38
518.742	79.38
518.958	91.38
519.173	97.38
519.389	80.38
519.605	87.38
519.82	75.38
520.036	72.38
520.251	87.38
520.467	84.38
520.682	73.38
520.898	82.38
521.113	81.38
521.329	75.38
521.544	70.38
521.76	66.38
521.975	77.38
522.19	79.38
522.406	67.38
522.621	75.38
522.836	70.38
523.052	74.38
523.267	86.38
523.482	77.38
523.698	99.38
523.913	84.38
524.128	83.38
524.343	73.38
524.559	90.38
524.774	89.38
524.989	82.38
525.204	85.38
525.419	89.38
525.634	82.38
525.849	88.38
526.064	88.38
526.28	107.38
526.495	110.38
526.71	128.38
526.925	100.38
527.14	111.38
527.355	115.38
527.57	87.38
527.785	87.38
527.999	83.38
528.214	73.38
528.429	73.38
528.644	69.38
528.859	81.38
529.074	84.38
529.289	82.38
529.503	76.38
529.718	86.38
529.933	78.38
530.148	88.38
530.363	78.38
530.577	80.38
530.792	73.38
531.007	89.38
531.221	79.38
531.436	76.38
531.651	96.38
531.865	96.38
532.08	77.38
532.295	83.38
532.509	68.38
532.724	86.38
532.938	84.38
533.153	81.38
533.367	83.38
533.582	90.38
533.796	83.38
534.011	86.38
534.225	72.38
534.44	82.38
534.654	84.38
534.868	103.38
535.083	110.38
535.297	100.38
535.511	86.38
535.726	86.38
535.94	86.38
536.154	84.38
536.369	86.38
536.583	77.38
536.797	79.38
537.011	73.38
537.225	63.38
537.44	80.38
537.654	83.38
537.868	84.38
538.082	85.38
538.296	84.38
538.51	73.38
538.724	79.38
538.938	84.38
539.153	71.38
539.367	79.38
539.581	80.38
539.795	75.38
540.009	85.38
540.222	76.38
540.436	86.38
540.65	80.38
540.864	88.38
541.078	72.38
541.292	82.38
541.506	91.38
541.72	84.38
541.934	68.38
542.147	75.38
542.361	69.38
542.575	86.38
542.789	75.38
543.002	77.38
543.216	92.38
543.43	96.38
543.644	83.38
543.857	85.38
544.071	77.38
544.285	81.38
544.498	80.38
544.712	82.38
544.925	87.38
545.139	78.38
545.352	71.38
545.566	88.38
545.779	97.38
545.993	75.38
546.206	68.38
546.42	86.38
546.633	91.38
546.847	89.38
547.06	93.38
547.274	91.38
547.487	108.38
547.7	97.38
547.914	96.38
548.127	86.38
548.34	84.38
548.554	93.38
548.767	92.38
548.98	100.38
549.193	105.38
549.407	93.38
549.62	79.38
549.833	93.38
550.046	86.38
550.259	82.38
550.473	95.38
550.686	95.38
550.899	100.38
551.112	95.38
551.325	88.38
551.538	110.38
551.751	104.38
551.964	94.38
552.177	105.38
552.39	93.38
552.603	88.38
552.816	104.38
553.029	95.38
553.242	77.38
553.455	92.38
553.667	98.38
553.88	99.38
554.093	99.38
554.306	92.38
554.519	112.38
554.732	87.38
554.944	82.38
555.157	86.38
555.37	94.38
555.583	104.38
555.795	85.38
556.008	78.38
556.221	91.38
556.433	94.38
556.646	87.38
556.859	87.38
557.071	102.38
557.284	87.38
557.496	106.38
557.709	95.38
557.921	84.38
558.134	87.38
558.346	101.38
558.559	92.38
558.771	106.38
558.984	131.38
559.196	136.38
559.409	99.38
559.621	115.38
559.833	133.38
560.046	134.38
560.258	95.38
560.47	115.38
560.683	94.38
560.895	80.38
561.107	99.38
561.32	80.38
561.532	76.38
561.744	95.38
561.956	78.38
562.168	86.38
562.381	88.38
562.593	77.38
562.805	71.38
563.017	67.38
563.229	83.38
563.441	78.38
563.653	75.38
563.865	95.38
564.077	91.38
564.289	81.38
564.501	89.38
564.713	88.38
564.925	85.38
565.137	84.38
565.349	76.38
565.561	88.38
565.773	77.38
565.985	88.38
566.197	85.38
566.408	86.38
566.62	79.38
566.832	82.38
567.044	71.38
567.255	84.38
567.467	76.38
567.679	79.38
567.891	86.38
568.102	82.38
568.314	85.38
568.526	85.38
568.737	99.38
568.949	91.38
569.161	77.38
569.372	72.38
569.584	87.38
569.795	98.38
570.007	97.38
570.218	90.38
570.43	79.38
570.641	86.38
570.853	77.38
571.064	84.38
571.276	82.38
571.487	89.38
571.698	78.38
571.91	92.38
572.121	76.38
572.333	84.38
572.544	80.38
572.755	83.38
572.966	78.38
573.178	85.38
573.389	92.38
573.6	84.38
573.811	87.38
574.023	94.38
574.234	90.38
574.445	73.38
574.656	77.38
574.867	77.38
575.078	82.38
575.289	80.38
575.501	90.38
575.712	79.38
575.923	83.38
576.134	76.38
576.345	77.38
576.556	78.38
576.767	82.38
576.978	94.38
577.188	80.38
577.399	79.38
577.61	90.38
577.821	85.38
578.032	85.38
578.243	79.38
578.454	88.38
578.665	74.38
578.875	72.38
579.086	98.38
579.297	84.38
579.508	85.38
579.718	84.38
579.929	92.38
580.14	85.38
580.35	86.38
580.561	88.38
580.772	89.38
580.982	68.38
581.193	60.38
581.403	84.38
581.614	71.38
581.825	71.38
582.035	81.38
582.246	90.38
582.456	83.38
582.667	79.38
582.877	85.38
583.087	90.38
583.298	77.38
583.508	87.38
583.719	97.38
583.929	86.38
584.139	86.38
584.35	78.38
584.56	88.38
584.77	85.38
584.981	81.38
585.191	88.38
585.401	86.38
585.611	83.38
585.821	97.38
586.032	106.38
586.242	94.38
586.452	81.38
586.662	85.38
586.872	68.38
587.082	93.38
587.292	70.38
587.502	87.38
587.713	84.38
587.923	98.38
588.133	90.38
588.343	81.38
588.553	98.38
588.762	91.38
588.972	139.38
589.182	341.38
589.392	231.38
589.602	143.38
589.812	286.38
590.022	157.38
590.232	91.38
590.441	71.38
590.651	86.38
590.861	83.38
591.071	82.38
591.281	84.38
591.49	112.38
591.7	71.38
591.91	81.38
592.119	81.38
592.329	90.38
592.539	84.38
592.748	79.38
592.958	93.38
593.167	83.38
593.377	93.38
593.587	111.38
593.796	87.38
594.006	90.38
594.215	96.38
594.424	88.38
594.634	68.38
594.843	83.38
595.053	85.38
595.262	94.38
595.472	78.38
595.681	86.38
595.89	94.38
596.1	97.38
596.309	86.38
596.518	86.38
596.727	102.38
596.937	97.38
597.146	85.38
597.355	94.38
597.564	100.38
597.774	82.38
597.983	71.38
598.192	79.38
598.401	79.38
598.61	86.38
598.819	82.38
599.028	89.38
599.237	103.38
599.446	97.38
599.655	89.38
599.864	83.38
600.073	87.38
600.282	80.38
600.491	78.38
600.7	92.38
600.909	99.38
601.118	67.38
601.327	80.38
601.536	80.38
601.745	100.38
601.953	95.38
602.162	86.38
602.371	93.38
602.58	91.38
602.789	93.38
602.997	91.38
603.206	93.38
603.415	85.38
603.623	71.38
603.832	101.38
604.041	106.38
604.249	91.38
604.458	93.38
604.666	95.38
604.875	100.38
605.084	91.38
605.292	86.38
605.501	83.38
605.709	111.38
605.918	111.38
606.126	99.38
606.334	96.38
606.543	91.38
606.751	85.38
606.96	84.38
607.168	86.38
607.376	83.38
607.585	104.38
607.793	98.38
608.001	102.38
608.21	79.38
608.418	84.38
608.626	90.38
608.834	81.38
609.043	94.38
609.251	110.38
609.459	90.38
609.667	92.38
609.875	90.38
610.083	91.38
610.291	106.38
610.499	109.38
610.707	80.38
610.916	83.38
611.124	91.38
611.332	90.38
611.54	97.38
611.748	92.38
611.955	92.38
612.163	99.38
612.371	129.38
612.579	132.38
612.787	113.38
612.995	89.38
613.203	92.38
613.411	103.38
613.618	87.38
613.826	100.38
614.034	83.38
614.242	88.38
614.449	100.38
614.657	86.38
614.865	91.38
615.072	104.38
615.28	90.38
615.488	99.38
615.695	96.38
615.903	108.38
616.111	100.38
616.318	119.38
616.526	138.38
616.733	110.38
616.941	115.38
617.148	108.38
617.356	104.38
617.563	91.38
617.771	85.38
617.978	85.38
618.185	86.38
618.393	90.38
618.6	84.38
618.807	97.38
619.015	97.38
619.222	89.38
619.429	107.38
619.637	78.38
619.844	91.38
620.051	97.38
620.258	84.38
620.466	94.38
620.673	86.38
620.88	87.38
621.087	84.38
621.294	87.38
621.501	87.38
621.708	89.38
621.915	84.38
622.122	96.38
622.329	85.38
622.536	79.38
622.743	81.38
622.95	90.38
623.157	93.38
623.364	90.38
623.571	90.38
623.778	88.38
623.985	92.38
624.192	90.38
624.399	86.38
624.606	102.38
624.812	95.38
625.019	86.38
625.226	94.38
625.433	96.38
625.639	87.38
625.846	84.38
626.053	77.38
626.259	80.38
626.466	73.38
626.673	83.38
626.879	78.38
627.086	98.38
627.293	94.38
627.499	91.38
627.706	101.38
627.912	93.38
628.119	80.38
628.325	87.38
628.532	99.38
628.738	87.38
628.945	90.38
629.151	87.38
629.357	74.38
629.564	77.38
629.77	89.38
629.976	90.38
630.183	82.38
630.389	86.38
630.595	80.38
630.802	93.38
631.008	79.38
631.214	86.38
631.42	79.38
631.627	88.38
631.833	81.38
632.039	91.38
632.245	80.38
632.451	73.38
632.657	69.38
632.863	81.38
633.069	86.38
633.275	100.38
633.481	86.38
633.688	86.38
633.893	90.38
634.099	68.38
634.305	74.38
634.511	88.38
634.717	93.38
634.923	84.38
635.129	82.38
635.335	91.38
635.541	80.38
635.747	84.38
635.952	92.38
636.158	84.38
636.364	81.38
636.57	86.38
636.775	93.38
636.981	75.38
637.187	84.38
637.392	89.38
637.598	60.38
637.804	68.38
638.009	80.38
638.215	94.38
638.421	73.38
638.626	84.38
638.832	87.38
639.037	79.38
639.243	71.38
639.448	78.38
639.654	94.38
639.859	78.38
640.065	77.38
640.27	83.38
640.475	66.38
640.681	86.38
640.886	91.38
641.091	66.38
641.297	90.38
641.502	76.38
641.707	72.38
641.913	94.38
642.118	83.38
642.323	72.38
642.528	90.38
642.733	86.38
642.939	90.38
643.144	82.38
643.349	73.38
643.554	84.38
643.759	73.38
643.964	80.38
644.169	104.38
644.374	82.38
644.579	76.38
644.784	82.38
644.989	83.38
645.194	81.38
645.399	83.38
645.604	92.38
645.809	94.38
646.014	86.38
646.219	86.38
646.423	107.38
646.628	88.38
646.833	95.38
647.038	84.38
647.243	87.38
647.447	80.38
647.652	85.38
647.857	82.38
648.062	86.38
648.266	93.38
648.471	78.38
648.676	72.38
648.88	82.38
649.085	84.38
649.289	75.38
649.494	93.38
649.698	98.38
649.903	72.38
650.107	95.38
650.312	89.38
650.516	82.38
650.721	82.38
650.925	78.38
651.13	80.38
651.334	77.38
651.539	91.38
651.743	84.38
651.947	74.38
652.152	89.38
652.356	68.38
652.56	88.38
652.764	71.38
652.969	70.38
653.173	77.38
653.377	77.38
653.581	88.38
653.785	82.38
653.99	79.38
654.194	69.38
654.398	70.38
654.602	79.38
654.806	91.38
655.01	74.38
655.214	83.38
655.418	70.38
655.622	78.38
655.826	70.38
656.03	91.38
656.234	83.38
656.438	77.38
656.642	92.38
656.846	70.38
657.049	76.38
657.253	88.38
657.457	99.38
657.661	77.38
657.865	70.38
658.068	74.38
658.272	62.38
658.476	82.38
658.68	80.38
658.883	83.38
659.087	67.38
659.291	79.38
659.494	88.38
659.698	83.38
659.901	82.38
660.105	75.38
660.309	73.38
660.512	84.38
660.716	78.38
660.919	80.38
661.123	86.38
661.326	87.38
661.53	84.38
661.733	85.38
661.936	80.38
662.14	82.38
662.343	76.38
662.546	81.38
662.75	95.38
662.953	88.38
663.156	80.38
663.36	71.38
663.563	81.38
663.766	86.38
663.969	80.38
664.173	87.38
664.376	86.38
664.579	90.38
664.782	77.38
664.985	76.38
665.188	82.38
665.391	78.38
665.594	68.38
665.797	76.38
666	79.38
666.203	84.38
666.406	78.38
666.609	95.38
666.812	84.38
667.015	102.38
667.218	86.38
667.421	73.38
667.624	80.38
667.827	81.38
668.03	72.38
668.232	85.38
668.435	90.38
668.638	78.38
668.841	86.38
669.043	82.38
669.246	78.38
669.449	86.38
669.651	76.38
669.854	82.38
670.057	95.38
670.259	85.38
670.462	79.38
670.665	81.38
670.867	71.38
671.07	74.38
671.272	94.38
671.475	81.38
671.677	72.38
671.88	85.38
672.082	71.38
672.284	81.38
672.487	90.38
672.689	75.38
672.892	69.38
