Data from 1600_3_HRD10591_00021.txt Node
Date: Mon Jan 19 13:55:03 EST 2026
User: Yrep
Spectrometer: HR+D1059
Trigger mode: 1
Integration Time (sec): 1.000000E-1
Scans to average: 1
Electric dark correction enabled: true
Nonlinearity correction enabled: false
Boxcar width: 0
XAxis mode: Wavelengths
Number of Pixels in Spectrum: 2048
>>>>>Begin Spectral Data<<<<<
223.165	-14.81
223.4	-14.81
223.635	-14.81
223.869	-20.81
224.104	-23.81
224.338	4.19
224.573	-7.81
224.808	-20.81
225.042	-1.81
225.277	-7.81
225.511	-6.81
225.746	-0.81
225.98	12.19
226.215	2.19
226.449	12.19
226.683	15.19
226.918	23.19
227.152	36.19
227.387	42.19
227.621	24.19
227.856	44.19
228.09	37.19
228.324	48.19
228.559	53.19
228.793	53.19
229.027	58.19
229.262	34.19
229.496	72.19
229.73	64.19
229.964	78.19
230.199	65.19
230.433	66.19
230.667	71.19
230.901	66.19
231.136	86.19
231.37	77.19
231.604	94.19
231.838	76.19
232.072	62.19
232.306	80.19
232.541	78.19
232.775	72.19
233.009	64.19
233.243	85.19
233.477	88.19
233.711	78.19
233.945	58.19
234.179	81.19
234.413	86.19
234.647	83.19
234.881	88.19
235.115	66.19
235.349	76.19
235.583	79.19
235.817	87.19
236.051	85.19
236.285	85.19
236.519	73.19
236.753	76.19
236.987	79.19
237.221	62.19
237.455	78.19
237.689	81.19
237.922	73.19
238.156	65.19
238.39	72.19
238.624	86.19
238.858	67.19
239.091	72.19
239.325	82.19
239.559	68.19
239.793	75.19
240.027	75.19
240.26	69.19
240.494	63.19
240.728	72.19
240.961	79.19
241.195	60.19
241.429	76.19
241.662	78.19
241.896	79.19
242.13	80.19
242.363	85.19
242.597	85.19
242.83	67.19
243.064	75.19
243.298	85.19
243.531	70.19
243.765	70.19
243.998	67.19
244.232	85.19
244.465	80.19
244.699	71.19
244.932	64.19
245.166	76.19
245.399	76.19
245.633	88.19
245.866	78.19
246.099	71.19
246.333	72.19
246.566	82.19
246.8	76.19
247.033	73.19
247.266	78.19
247.5	70.19
247.733	72.19
247.966	75.19
248.2	77.19
248.433	77.19
248.666	73.19
248.899	67.19
249.133	79.19
249.366	74.19
249.599	72.19
249.832	80.19
250.066	73.19
250.299	80.19
250.532	67.19
250.765	87.19
250.998	80.19
251.231	86.19
251.465	79.19
251.698	80.19
251.931	78.19
252.164	83.19
252.397	82.19
252.63	77.19
252.863	83.19
253.096	85.19
253.329	72.19
253.562	77.19
253.795	92.19
254.028	80.19
254.261	74.19
254.494	75.19
254.727	76.19
254.96	76.19
255.193	94.19
255.426	74.19
255.659	71.19
255.892	78.19
256.124	70.19
256.357	78.19
256.59	72.19
256.823	79.19
257.056	82.19
257.289	77.19
257.521	70.19
257.754	68.19
257.987	79.19
258.22	77.19
258.452	75.19
258.685	93.19
258.918	78.19
259.151	86.19
259.383	80.19
259.616	80.19
259.849	77.19
260.081	81.19
260.314	80.19
260.547	60.19
260.779	75.19
261.012	79.19
261.244	89.19
261.477	74.19
261.71	64.19
261.942	76.19
262.175	81.19
262.407	81.19
262.64	84.19
262.872	89.19
263.105	84.19
263.337	86.19
263.57	79.19
263.802	79.19
264.035	73.19
264.267	84.19
264.499	82.19
264.732	83.19
264.964	77.19
265.197	85.19
265.429	84.19
265.661	67.19
265.894	66.19
266.126	73.19
266.358	87.19
266.591	83.19
266.823	78.19
267.055	65.19
267.287	72.19
267.52	86.19
267.752	82.19
267.984	71.19
268.216	80.19
268.448	80.19
268.681	84.19
268.913	69.19
269.145	83.19
269.377	81.19
269.609	90.19
269.841	75.19
270.073	90.19
270.306	94.19
270.538	81.19
270.77	80.19
271.002	82.19
271.234	71.19
271.466	75.19
271.698	72.19
271.93	70.19
272.162	74.19
272.394	84.19
272.626	71.19
272.858	76.19
273.09	75.19
273.322	88.19
273.553	63.19
273.785	83.19
274.017	74.19
274.249	85.19
274.481	86.19
274.713	85.19
274.945	70.19
275.176	77.19
275.408	72.19
275.64	76.19
275.872	71.19
276.104	67.19
276.335	79.19
276.567	83.19
276.799	72.19
277.031	76.19
277.262	79.19
277.494	80.19
277.726	94.19
277.957	89.19
278.189	84.19
278.421	90.19
278.652	78.19
278.884	67.19
279.115	88.19
279.347	76.19
279.579	68.19
279.81	74.19
280.042	80.19
280.273	95.19
280.505	74.19
280.736	77.19
280.968	70.19
281.199	86.19
281.431	96.19
281.662	84.19
281.894	88.19
282.125	93.19
282.356	96.19
282.588	82.19
282.819	80.19
283.051	83.19
283.282	92.19
283.513	83.19
283.745	83.19
283.976	84.19
284.207	79.19
284.439	79.19
284.67	80.19
284.901	87.19
285.132	74.19
285.364	96.19
285.595	95.19
285.826	87.19
286.057	101.19
286.288	74.19
286.52	70.19
286.751	87.19
286.982	82.19
287.213	84.19
287.444	95.19
287.675	84.19
287.906	85.19
288.138	78.19
288.369	89.19
288.6	85.19
288.831	90.19
289.062	86.19
289.293	78.19
289.524	79.19
289.755	83.19
289.986	86.19
290.217	87.19
290.448	70.19
290.679	79.19
290.91	66.19
291.141	81.19
291.371	94.19
291.602	85.19
291.833	70.19
292.064	78.19
292.295	83.19
292.526	76.19
292.757	69.19
292.987	88.19
293.218	85.19
293.449	79.19
293.68	89.19
293.91	82.19
294.141	85.19
294.372	79.19
294.603	87.19
294.833	72.19
295.064	80.19
295.295	96.19
295.525	95.19
295.756	84.19
295.987	85.19
296.217	79.19
296.448	82.19
296.679	78.19
296.909	73.19
297.14	87.19
297.37	92.19
297.601	88.19
297.831	85.19
298.062	83.19
298.292	79.19
298.523	84.19
298.753	91.19
298.984	73.19
299.214	77.19
299.445	80.19
299.675	87.19
299.905	86.19
300.136	74.19
300.366	86.19
300.597	79.19
300.827	80.19
301.057	85.19
301.288	77.19
301.518	68.19
301.748	82.19
301.979	108.19
302.209	82.19
302.439	79.19
302.669	85.19
302.9	79.19
303.13	87.19
303.36	86.19
303.59	72.19
303.82	69.19
304.051	100.19
304.281	87.19
304.511	84.19
304.741	75.19
304.971	86.19
305.201	86.19
305.431	88.19
305.661	79.19
305.891	68.19
306.121	82.19
306.352	73.19
306.582	74.19
306.812	78.19
307.042	82.19
307.272	80.19
307.502	79.19
307.731	84.19
307.961	87.19
308.191	75.19
308.421	78.19
308.651	92.19
308.881	93.19
309.111	92.19
309.341	90.19
309.571	80.19
309.8	75.19
310.03	84.19
310.26	87.19
310.49	86.19
310.72	78.19
310.949	83.19
311.179	74.19
311.409	78.19
311.639	79.19
311.868	82.19
312.098	87.19
312.328	87.19
312.557	80.19
312.787	82.19
313.017	78.19
313.246	82.19
313.476	78.19
313.706	83.19
313.935	72.19
314.165	91.19
314.394	80.19
314.624	72.19
314.853	74.19
315.083	73.19
315.312	79.19
315.542	79.19
315.771	82.19
316.001	70.19
316.23	83.19
316.46	82.19
316.689	85.19
316.919	86.19
317.148	86.19
317.377	67.19
317.607	83.19
317.836	81.19
318.065	76.19
318.295	88.19
318.524	88.19
318.753	78.19
318.983	75.19
319.212	86.19
319.441	82.19
319.67	96.19
319.9	66.19
320.129	73.19
320.358	78.19
320.587	89.19
320.816	77.19
321.046	86.19
321.275	81.19
321.504	85.19
321.733	87.19
321.962	94.19
322.191	94.19
322.42	85.19
322.649	89.19
322.878	87.19
323.108	81.19
323.337	91.19
323.566	72.19
323.795	86.19
324.024	90.19
324.253	82.19
324.482	81.19
324.71	98.19
324.939	91.19
325.168	87.19
325.397	73.19
325.626	80.19
325.855	92.19
326.084	70.19
326.313	86.19
326.542	93.19
326.77	96.19
326.999	96.19
327.228	83.19
327.457	78.19
327.686	73.19
327.914	88.19
328.143	80.19
328.372	83.19
328.6	85.19
328.829	85.19
329.058	88.19
329.287	75.19
329.515	82.19
329.744	81.19
329.972	87.19
330.201	91.19
330.43	76.19
330.658	79.19
330.887	83.19
331.115	90.19
331.344	78.19
331.572	85.19
331.801	92.19
332.03	74.19
332.258	81.19
332.486	76.19
332.715	75.19
332.943	75.19
333.172	88.19
333.4	77.19
333.629	74.19
333.857	71.19
334.085	74.19
334.314	84.19
334.542	88.19
334.771	94.19
334.999	76.19
335.227	89.19
335.455	78.19
335.684	88.19
335.912	86.19
336.14	88.19
336.369	76.19
336.597	80.19
336.825	88.19
337.053	91.19
337.281	83.19
337.51	91.19
337.738	75.19
337.966	79.19
338.194	65.19
338.422	87.19
338.65	87.19
338.878	83.19
339.106	92.19
339.334	76.19
339.562	84.19
339.79	94.19
340.018	82.19
340.246	77.19
340.474	90.19
340.702	85.19
340.93	81.19
341.158	71.19
341.386	77.19
341.614	63.19
341.842	79.19
342.07	81.19
342.298	81.19
342.526	86.19
342.754	82.19
342.981	90.19
343.209	93.19
343.437	100.19
343.665	79.19
343.893	78.19
344.12	83.19
344.348	91.19
344.576	89.19
344.804	97.19
345.031	83.19
345.259	78.19
345.487	67.19
345.714	89.19
345.942	91.19
346.17	70.19
346.397	73.19
346.625	76.19
346.853	79.19
347.08	86.19
347.308	74.19
347.535	84.19
347.763	63.19
347.99	72.19
348.218	86.19
348.445	72.19
348.673	73.19
348.9	69.19
349.128	82.19
349.355	79.19
349.583	84.19
349.81	80.19
350.037	86.19
350.265	82.19
350.492	98.19
350.72	67.19
350.947	87.19
351.174	95.19
351.402	80.19
351.629	99.19
351.856	90.19
352.083	77.19
352.311	81.19
352.538	72.19
352.765	91.19
352.992	96.19
353.22	83.19
353.447	72.19
353.674	76.19
353.901	87.19
354.128	82.19
354.355	87.19
354.583	86.19
354.81	76.19
355.037	85.19
355.264	81.19
355.491	83.19
355.718	82.19
355.945	71.19
356.172	92.19
356.399	75.19
356.626	74.19
356.853	77.19
357.08	80.19
357.307	89.19
357.534	86.19
357.761	94.19
357.988	83.19
358.215	87.19
358.441	80.19
358.668	87.19
358.895	78.19
359.122	80.19
359.349	67.19
359.576	87.19
359.802	82.19
360.029	70.19
360.256	73.19
360.483	86.19
360.709	71.19
360.936	83.19
361.163	89.19
361.39	77.19
361.616	78.19
361.843	83.19
362.07	76.19
362.296	78.19
362.523	80.19
362.749	78.19
362.976	80.19
363.203	58.19
363.429	65.19
363.656	84.19
363.882	80.19
364.109	69.19
364.335	79.19
364.562	76.19
364.788	71.19
365.015	70.19
365.241	70.19
365.468	78.19
365.694	84.19
365.92	86.19
366.147	81.19
366.373	63.19
366.599	77.19
366.826	84.19
367.052	76.19
367.278	92.19
367.505	75.19
367.731	82.19
367.957	86.19
368.184	76.19
368.41	59.19
368.636	78.19
368.862	80.19
369.089	92.19
369.315	82.19
369.541	83.19
369.767	69.19
369.993	82.19
370.219	91.19
370.445	87.19
370.672	75.19
370.898	73.19
371.124	78.19
371.35	72.19
371.576	67.19
371.802	83.19
372.028	81.19
372.254	72.19
372.48	82.19
372.706	93.19
372.932	78.19
373.158	77.19
373.384	98.19
373.61	88.19
373.835	72.19
374.061	74.19
374.287	80.19
374.513	95.19
374.739	92.19
374.965	72.19
375.191	81.19
375.416	88.19
375.642	75.19
375.868	90.19
376.094	80.19
376.319	87.19
376.545	79.19
376.771	81.19
376.997	93.19
377.222	64.19
377.448	70.19
377.674	80.19
377.899	82.19
378.125	67.19
378.35	80.19
378.576	87.19
378.802	79.19
379.027	91.19
379.253	90.19
379.478	87.19
379.704	79.19
379.929	71.19
380.155	80.19
380.38	70.19
380.606	72.19
380.831	80.19
381.057	75.19
381.282	70.19
381.507	65.19
381.733	84.19
381.958	79.19
382.184	85.19
382.409	87.19
382.634	83.19
382.86	87.19
383.085	96.19
383.31	77.19
383.535	101.19
383.761	77.19
383.986	80.19
384.211	95.19
384.436	74.19
384.662	79.19
384.887	96.19
385.112	89.19
385.337	80.19
385.562	95.19
385.787	67.19
386.013	79.19
386.238	84.19
386.463	78.19
386.688	85.19
386.913	77.19
387.138	74.19
387.363	76.19
387.588	91.19
387.813	87.19
388.038	83.19
388.263	71.19
388.488	73.19
388.713	72.19
388.938	66.19
389.163	63.19
389.387	71.19
389.612	76.19
389.837	82.19
390.062	86.19
390.287	86.19
390.512	92.19
390.736	66.19
390.961	79.19
391.186	70.19
391.411	78.19
391.636	81.19
391.86	91.19
392.085	94.19
392.31	94.19
392.534	80.19
392.759	83.19
392.984	93.19
393.208	108.19
393.433	124.19
393.658	113.19
393.882	71.19
394.107	79.19
394.331	85.19
394.556	82.19
394.78	84.19
395.005	92.19
395.229	84.19
395.454	76.19
395.678	71.19
395.903	68.19
396.127	89.19
396.352	105.19
396.576	95.19
396.801	104.19
397.025	99.19
397.249	98.19
397.474	91.19
397.698	100.19
397.922	75.19
398.147	76.19
398.371	92.19
398.595	88.19
398.82	80.19
399.044	79.19
399.268	74.19
399.492	84.19
399.717	84.19
399.941	80.19
400.165	87.19
400.389	84.19
400.613	62.19
400.837	79.19
401.062	97.19
401.286	80.19
401.51	93.19
401.734	75.19
401.958	72.19
402.182	81.19
402.406	74.19
402.63	75.19
402.854	86.19
403.078	83.19
403.302	77.19
403.526	83.19
403.75	87.19
403.974	74.19
404.198	83.19
404.422	84.19
404.645	83.19
404.869	71.19
405.093	94.19
405.317	70.19
405.541	80.19
405.765	82.19
405.988	72.19
406.212	101.19
406.436	72.19
406.66	93.19
406.883	87.19
407.107	82.19
407.331	80.19
407.555	79.19
407.778	71.19
408.002	85.19
408.226	79.19
408.449	86.19
408.673	77.19
408.896	79.19
409.12	74.19
409.344	85.19
409.567	72.19
409.791	75.19
410.014	76.19
410.238	82.19
410.461	80.19
410.685	81.19
410.908	91.19
411.132	78.19
411.355	77.19
411.578	78.19
411.802	81.19
412.025	79.19
412.249	67.19
412.472	79.19
412.695	86.19
412.919	73.19
413.142	85.19
413.365	90.19
413.589	92.19
413.812	90.19
414.035	78.19
414.258	78.19
414.482	69.19
414.705	76.19
414.928	79.19
415.151	84.19
415.374	70.19
415.597	87.19
415.821	84.19
416.044	68.19
416.267	76.19
416.49	82.19
416.713	75.19
416.936	74.19
417.159	67.19
417.382	75.19
417.605	87.19
417.828	70.19
418.051	67.19
418.274	78.19
418.497	71.19
418.72	71.19
418.943	80.19
419.166	79.19
419.389	68.19
419.611	74.19
419.834	83.19
420.057	92.19
420.28	77.19
420.503	79.19
420.726	79.19
420.948	87.19
421.171	71.19
421.394	90.19
421.617	91.19
421.839	90.19
422.062	78.19
422.285	87.19
422.507	87.19
422.73	113.19
422.953	104.19
423.175	80.19
423.398	79.19
423.621	84.19
423.843	79.19
424.066	75.19
424.288	72.19
424.511	76.19
424.733	74.19
424.956	89.19
425.178	76.19
425.401	90.19
425.623	91.19
425.846	78.19
426.068	81.19
426.291	61.19
426.513	78.19
426.735	83.19
426.958	80.19
427.18	84.19
427.402	82.19
427.625	82.19
427.847	89.19
428.069	92.19
428.292	78.19
428.514	70.19
428.736	88.19
428.958	87.19
429.181	70.19
429.403	94.19
429.625	80.19
429.847	76.19
430.069	98.19
430.292	92.19
430.514	90.19
430.736	99.19
430.958	83.19
431.18	71.19
431.402	83.19
431.624	68.19
431.846	79.19
432.068	70.19
432.29	82.19
432.512	68.19
432.734	85.19
432.956	70.19
433.178	85.19
433.4	82.19
433.622	78.19
433.844	74.19
434.066	83.19
434.287	78.19
434.509	78.19
434.731	79.19
434.953	71.19
435.175	96.19
435.397	93.19
435.618	73.19
435.84	88.19
436.062	87.19
436.284	86.19
436.505	76.19
436.727	91.19
436.949	82.19
437.17	73.19
437.392	72.19
437.614	76.19
437.835	78.19
438.057	66.19
438.278	78.19
438.5	61.19
438.721	86.19
438.943	86.19
439.165	73.19
439.386	90.19
439.608	88.19
439.829	83.19
440.05	96.19
440.272	78.19
440.493	84.19
440.715	83.19
440.936	72.19
441.158	89.19
441.379	78.19
441.6	86.19
441.822	91.19
442.043	95.19
442.264	84.19
442.486	85.19
442.707	83.19
442.928	74.19
443.149	78.19
443.371	79.19
443.592	84.19
443.813	90.19
444.034	72.19
444.255	78.19
444.476	81.19
444.698	90.19
444.919	69.19
445.14	131.19
445.361	98.19
445.582	94.19
445.803	91.19
446.024	85.19
446.245	92.19
446.466	90.19
446.687	85.19
446.908	82.19
447.129	76.19
447.35	92.19
447.571	70.19
447.792	74.19
448.013	94.19
448.234	79.19
448.455	64.19
448.675	61.19
448.896	69.19
449.117	82.19
449.338	89.19
449.559	81.19
449.779	78.19
450	92.19
450.221	85.19
450.442	81.19
450.662	75.19
450.883	75.19
451.104	80.19
451.324	77.19
451.545	81.19
451.766	68.19
451.986	74.19
452.207	71.19
452.428	79.19
452.648	75.19
452.869	75.19
453.089	76.19
453.31	70.19
453.53	94.19
453.751	72.19
453.971	68.19
454.192	77.19
454.412	78.19
454.633	72.19
454.853	77.19
455.073	85.19
455.294	79.19
455.514	74.19
455.734	82.19
455.955	69.19
456.175	62.19
456.395	75.19
456.616	78.19
456.836	79.19
457.056	85.19
457.276	80.19
457.497	75.19
457.717	69.19
457.937	87.19
458.157	71.19
458.377	72.19
458.598	86.19
458.818	76.19
459.038	76.19
459.258	82.19
459.478	82.19
459.698	73.19
459.918	71.19
460.138	76.19
460.358	80.19
460.578	71.19
460.798	84.19
461.018	64.19
461.238	56.19
461.458	90.19
461.678	71.19
461.898	80.19
462.118	89.19
462.338	94.19
462.558	86.19
462.777	87.19
462.997	70.19
463.217	76.19
463.437	73.19
463.657	78.19
463.876	80.19
464.096	85.19
464.316	82.19
464.536	90.19
464.755	78.19
464.975	78.19
465.195	81.19
465.414	76.19
465.634	80.19
465.854	96.19
466.073	84.19
466.293	77.19
466.512	102.19
466.732	78.19
466.951	89.19
467.171	90.19
467.391	72.19
467.61	78.19
467.829	77.19
468.049	66.19
468.268	76.19
468.488	71.19
468.707	84.19
468.927	87.19
469.146	78.19
469.365	83.19
469.585	86.19
469.804	77.19
470.023	67.19
470.243	78.19
470.462	82.19
470.681	71.19
470.901	74.19
471.12	68.19
471.339	80.19
471.558	67.19
471.777	78.19
471.997	68.19
472.216	84.19
472.435	73.19
472.654	62.19
472.873	87.19
473.092	74.19
473.311	79.19
473.53	71.19
473.749	74.19
473.968	85.19
474.187	83.19
474.406	90.19
474.625	68.19
474.844	77.19
475.063	76.19
475.282	76.19
475.501	75.19
475.72	69.19
475.939	81.19
476.158	82.19
476.377	77.19
476.596	69.19
476.814	78.19
477.033	68.19
477.252	78.19
477.471	93.19
477.69	72.19
477.908	84.19
478.127	80.19
478.346	86.19
478.564	71.19
478.783	71.19
479.002	91.19
479.22	81.19
479.439	77.19
479.658	86.19
479.876	79.19
480.095	78.19
480.313	65.19
480.532	87.19
480.751	73.19
480.969	79.19
481.188	72.19
481.406	82.19
481.624	69.19
481.843	68.19
482.061	83.19
482.28	71.19
482.498	79.19
482.717	77.19
482.935	73.19
483.153	81.19
483.372	89.19
483.59	83.19
483.808	77.19
484.027	82.19
484.245	78.19
484.463	93.19
484.681	110.19
484.9	85.19
485.118	60.19
485.336	90.19
485.554	90.19
485.772	71.19
485.99	76.19
486.209	72.19
486.427	86.19
486.645	88.19
486.863	76.19
487.081	77.19
487.299	79.19
487.517	86.19
487.735	100.19
487.953	87.19
488.171	71.19
488.389	61.19
488.607	75.19
488.825	77.19
489.043	71.19
489.261	86.19
489.479	82.19
489.696	91.19
489.914	76.19
490.132	76.19
490.35	72.19
490.568	64.19
490.786	75.19
491.003	73.19
491.221	68.19
491.439	88.19
491.657	68.19
491.874	84.19
492.092	100.19
492.31	72.19
492.527	77.19
492.745	83.19
492.963	70.19
493.18	84.19
493.398	75.19
493.615	91.19
493.833	79.19
494.05	95.19
494.268	75.19
494.485	68.19
494.703	71.19
494.92	84.19
495.138	68.19
495.355	94.19
495.573	82.19
495.79	80.19
496.008	92.19
496.225	81.19
496.442	90.19
496.66	83.19
496.877	88.19
497.094	86.19
497.312	75.19
497.529	81.19
497.746	84.19
497.963	82.19
498.181	92.19
498.398	84.19
498.615	80.19
498.832	69.19
499.049	93.19
499.267	79.19
499.484	80.19
499.701	73.19
499.918	79.19
500.135	76.19
500.352	92.19
500.569	77.19
500.786	78.19
501.003	92.19
501.22	68.19
501.437	83.19
501.654	93.19
501.871	80.19
502.088	78.19
502.305	75.19
502.522	88.19
502.739	68.19
502.956	88.19
503.172	90.19
503.389	90.19
503.606	73.19
503.823	82.19
504.04	65.19
504.256	80.19
504.473	63.19
504.69	84.19
504.907	75.19
505.123	71.19
505.34	66.19
505.557	83.19
505.773	83.19
505.99	70.19
506.207	80.19
506.423	81.19
506.64	70.19
506.856	74.19
507.073	82.19
507.289	69.19
507.506	82.19
507.722	70.19
507.939	84.19
508.155	87.19
508.372	75.19
508.588	85.19
508.805	85.19
509.021	78.19
509.238	90.19
509.454	92.19
509.67	84.19
509.887	78.19
510.103	77.19
510.319	79.19
510.536	83.19
510.752	83.19
510.968	87.19
511.184	77.19
511.401	72.19
511.617	95.19
511.833	78.19
512.049	78.19
512.265	70.19
512.481	70.19
512.698	86.19
512.914	73.19
513.13	77.19
513.346	81.19
513.562	90.19
513.778	80.19
513.994	92.19
514.21	86.19
514.426	79.19
514.642	80.19
514.858	87.19
515.074	81.19
515.29	76.19
515.506	82.19
515.721	88.19
515.937	94.19
516.153	86.19
516.369	66.19
516.585	72.19
516.801	90.19
517.016	88.19
517.232	90.19
517.448	87.19
517.664	81.19
517.879	83.19
518.095	57.19
518.311	66.19
518.527	83.19
518.742	77.19
518.958	82.19
519.173	84.19
519.389	69.19
519.605	92.19
519.82	78.19
520.036	80.19
520.251	89.19
520.467	90.19
520.682	91.19
520.898	91.19
521.113	80.19
521.329	76.19
521.544	71.19
521.76	83.19
521.975	79.19
522.19	87.19
522.406	69.19
522.621	79.19
522.836	83.19
523.052	82.19
523.267	61.19
523.482	76.19
523.698	80.19
523.913	87.19
524.128	84.19
524.343	80.19
524.559	83.19
524.774	77.19
524.989	89.19
525.204	78.19
525.419	95.19
525.634	76.19
525.849	82.19
526.064	83.19
526.28	84.19
526.495	95.19
526.71	97.19
526.925	90.19
527.14	99.19
527.355	92.19
527.57	80.19
527.785	84.19
527.999	83.19
528.214	73.19
528.429	78.19
528.644	72.19
528.859	76.19
529.074	84.19
529.289	86.19
529.503	87.19
529.718	66.19
529.933	76.19
530.148	79.19
530.363	90.19
530.577	80.19
530.792	82.19
531.007	86.19
531.221	89.19
531.436	90.19
531.651	88.19
531.865	82.19
532.08	91.19
532.295	75.19
532.509	84.19
532.724	76.19
532.938	77.19
533.153	97.19
533.367	80.19
533.582	75.19
533.796	77.19
534.011	84.19
534.225	80.19
534.44	70.19
534.654	84.19
534.868	84.19
535.083	90.19
535.297	100.19
535.511	68.19
535.726	77.19
535.94	75.19
536.154	79.19
536.369	70.19
536.583	80.19
536.797	91.19
537.011	88.19
537.225	78.19
537.44	75.19
537.654	90.19
537.868	79.19
538.082	74.19
538.296	88.19
538.51	85.19
538.724	87.19
538.938	70.19
539.153	76.19
539.367	69.19
539.581	84.19
539.795	78.19
540.009	76.19
540.222	79.19
540.436	87.19
540.65	62.19
540.864	74.19
541.078	70.19
541.292	68.19
541.506	79.19
541.72	78.19
541.934	89.19
542.147	87.19
542.361	72.19
542.575	85.19
542.789	82.19
543.002	83.19
543.216	95.19
543.43	93.19
543.644	82.19
543.857	75.19
544.071	80.19
544.285	92.19
544.498	91.19
544.712	86.19
544.925	71.19
545.139	80.19
545.352	84.19
545.566	78.19
545.779	65.19
545.993	84.19
546.206	82.19
546.42	85.19
546.633	95.19
546.847	88.19
547.06	86.19
547.274	77.19
547.487	83.19
547.7	79.19
547.914	86.19
548.127	81.19
548.34	73.19
548.554	100.19
548.767	107.19
548.98	98.19
549.193	102.19
549.407	66.19
549.62	95.19
549.833	66.19
550.046	92.19
550.259	92.19
550.473	101.19
550.686	100.19
550.899	87.19
551.112	94.19
551.325	91.19
551.538	87.19
551.751	97.19
551.964	89.19
552.177	94.19
552.39	92.19
552.603	85.19
552.816	84.19
553.029	83.19
553.242	78.19
553.455	96.19
553.667	84.19
553.88	95.19
554.093	90.19
554.306	92.19
554.519	93.19
554.732	92.19
554.944	92.19
555.157	80.19
555.37	108.19
555.583	84.19
555.795	79.19
556.008	96.19
556.221	84.19
556.433	89.19
556.646	85.19
556.859	80.19
557.071	79.19
557.284	95.19
557.496	78.19
557.709	82.19
557.921	75.19
558.134	71.19
558.346	90.19
558.559	95.19
558.771	76.19
558.984	112.19
559.196	102.19
559.409	103.19
559.621	90.19
559.833	92.19
560.046	93.19
560.258	76.19
560.47	85.19
560.683	78.19
560.895	84.19
561.107	86.19
561.32	72.19
561.532	83.19
561.744	82.19
561.956	85.19
562.168	79.19
562.381	102.19
562.593	86.19
562.805	80.19
563.017	73.19
563.229	76.19
563.441	76.19
563.653	83.19
563.865	78.19
564.077	68.19
564.289	84.19
564.501	74.19
564.713	82.19
564.925	98.19
565.137	75.19
565.349	82.19
565.561	85.19
565.773	86.19
565.985	79.19
566.197	86.19
566.408	80.19
566.62	66.19
566.832	87.19
567.044	90.19
567.255	88.19
567.467	80.19
567.679	78.19
567.891	78.19
568.102	76.19
568.314	72.19
568.526	83.19
568.737	80.19
568.949	86.19
569.161	85.19
569.372	92.19
569.584	68.19
569.795	82.19
570.007	78.19
570.218	75.19
570.43	84.19
570.641	81.19
570.853	93.19
571.064	79.19
571.276	78.19
571.487	81.19
571.698	67.19
571.91	97.19
572.121	65.19
572.333	83.19
572.544	94.19
572.755	77.19
572.966	91.19
573.178	74.19
573.389	82.19
573.6	81.19
573.811	93.19
574.023	80.19
574.234	78.19
574.445	82.19
574.656	94.19
574.867	76.19
575.078	74.19
575.289	77.19
575.501	91.19
575.712	70.19
575.923	68.19
576.134	88.19
576.345	87.19
576.556	87.19
576.767	95.19
576.978	88.19
577.188	76.19
577.399	74.19
577.61	74.19
577.821	96.19
578.032	93.19
578.243	78.19
578.454	78.19
578.665	76.19
578.875	75.19
579.086	85.19
579.297	91.19
579.508	76.19
579.718	91.19
579.929	84.19
580.14	86.19
580.35	85.19
580.561	67.19
580.772	87.19
580.982	86.19
581.193	83.19
581.403	72.19
581.614	76.19
581.825	78.19
582.035	88.19
582.246	83.19
582.456	59.19
582.667	82.19
582.877	81.19
583.087	86.19
583.298	85.19
583.508	87.19
583.719	81.19
583.929	91.19
584.139	83.19
584.35	80.19
584.56	90.19
584.77	81.19
584.981	79.19
585.191	78.19
585.401	76.19
585.611	86.19
585.821	81.19
586.032	78.19
586.242	79.19
586.452	64.19
586.662	69.19
586.872	84.19
587.082	84.19
587.292	83.19
587.502	84.19
587.713	82.19
587.923	87.19
588.133	76.19
588.343	67.19
588.553	94.19
588.762	92.19
588.972	126.19
589.182	192.19
589.392	146.19
589.602	133.19
589.812	170.19
590.022	113.19
590.232	99.19
590.441	90.19
590.651	93.19
590.861	81.19
591.071	74.19
591.281	102.19
591.49	67.19
591.7	81.19
591.91	88.19
592.119	79.19
592.329	77.19
592.539	83.19
592.748	82.19
592.958	88.19
593.167	84.19
593.377	88.19
593.587	93.19
593.796	79.19
594.006	72.19
594.215	80.19
594.424	77.19
594.634	83.19
594.843	83.19
595.053	88.19
595.262	92.19
595.472	62.19
595.681	77.19
595.89	89.19
596.1	91.19
596.309	109.19
596.518	68.19
596.727	94.19
596.937	95.19
597.146	80.19
597.355	74.19
597.564	94.19
597.774	96.19
597.983	98.19
598.192	83.19
598.401	79.19
598.61	82.19
598.819	83.19
599.028	90.19
599.237	82.19
599.446	86.19
599.655	81.19
599.864	86.19
600.073	75.19
600.282	93.19
600.491	84.19
600.7	91.19
600.909	82.19
601.118	84.19
601.327	94.19
601.536	82.19
601.745	90.19
601.953	88.19
602.162	84.19
602.371	84.19
602.58	85.19
602.789	86.19
602.997	97.19
603.206	76.19
603.415	79.19
603.623	87.19
603.832	90.19
604.041	80.19
604.249	86.19
604.458	95.19
604.666	74.19
604.875	84.19
605.084	77.19
605.292	89.19
605.501	94.19
605.709	94.19
605.918	72.19
606.126	84.19
606.334	86.19
606.543	105.19
606.751	96.19
606.96	80.19
607.168	86.19
607.376	92.19
607.585	107.19
607.793	95.19
608.001	85.19
608.21	79.19
608.418	88.19
608.626	90.19
608.834	86.19
609.043	86.19
609.251	99.19
609.459	104.19
609.667	85.19
609.875	84.19
610.083	92.19
610.291	76.19
610.499	108.19
610.707	81.19
610.916	82.19
611.124	91.19
611.332	96.19
611.54	95.19
611.748	75.19
611.955	94.19
612.163	95.19
612.371	99.19
612.579	84.19
612.787	84.19
612.995	83.19
613.203	92.19
613.411	92.19
613.618	90.19
613.826	103.19
614.034	86.19
614.242	81.19
614.449	86.19
614.657	95.19
614.865	86.19
615.072	73.19
615.28	93.19
615.488	92.19
615.695	102.19
615.903	98.19
616.111	86.19
616.318	101.19
616.526	101.19
616.733	94.19
616.941	90.19
617.148	93.19
617.356	91.19
617.563	94.19
617.771	100.19
617.978	100.19
618.185	96.19
618.393	72.19
618.6	86.19
618.807	80.19
619.015	88.19
619.222	87.19
619.429	87.19
619.637	91.19
619.844	110.19
620.051	87.19
620.258	101.19
620.466	91.19
620.673	91.19
620.88	95.19
621.087	77.19
621.294	82.19
621.501	99.19
621.708	106.19
621.915	94.19
622.122	75.19
622.329	85.19
622.536	98.19
622.743	94.19
622.95	81.19
623.157	98.19
623.364	74.19
623.571	104.19
623.778	87.19
623.985	91.19
624.192	89.19
624.399	80.19
624.606	84.19
624.812	84.19
625.019	94.19
625.226	80.19
625.433	94.19
625.639	68.19
625.846	83.19
626.053	69.19
626.259	70.19
626.466	103.19
626.673	87.19
626.879	83.19
627.086	80.19
627.293	82.19
627.499	84.19
627.706	79.19
627.912	80.19
628.119	82.19
628.325	90.19
628.532	76.19
628.738	77.19
628.945	72.19
629.151	88.19
629.357	79.19
629.564	77.19
629.77	75.19
629.976	83.19
630.183	84.19
630.389	57.19
630.595	88.19
630.802	76.19
631.008	64.19
631.214	85.19
631.42	87.19
631.627	80.19
631.833	78.19
632.039	78.19
632.245	104.19
632.451	94.19
632.657	94.19
632.863	78.19
633.069	90.19
633.275	90.19
633.481	74.19
633.688	80.19
633.893	95.19
634.099	75.19
634.305	78.19
634.511	80.19
634.717	90.19
634.923	89.19
635.129	84.19
635.335	71.19
635.541	76.19
635.747	81.19
635.952	96.19
636.158	72.19
636.364	97.19
636.57	82.19
636.775	71.19
636.981	86.19
637.187	93.19
637.392	75.19
637.598	87.19
637.804	89.19
638.009	78.19
638.215	84.19
638.421	87.19
638.626	63.19
638.832	75.19
639.037	87.19
639.243	69.19
639.448	74.19
639.654	87.19
639.859	73.19
640.065	77.19
640.27	79.19
640.475	79.19
640.681	72.19
640.886	86.19
641.091	75.19
641.297	85.19
641.502	72.19
641.707	80.19
641.913	71.19
642.118	90.19
642.323	86.19
642.528	93.19
642.733	76.19
642.939	77.19
643.144	78.19
643.349	80.19
643.554	77.19
643.759	80.19
643.964	85.19
644.169	98.19
644.374	77.19
644.579	80.19
644.784	70.19
644.989	87.19
645.194	92.19
645.399	97.19
645.604	79.19
645.809	88.19
646.014	75.19
646.219	65.19
646.423	82.19
646.628	79.19
646.833	84.19
647.038	76.19
647.243	89.19
647.447	91.19
647.652	80.19
647.857	77.19
648.062	84.19
648.266	84.19
648.471	82.19
648.676	84.19
648.88	83.19
649.085	66.19
649.289	81.19
649.494	87.19
649.698	80.19
649.903	85.19
650.107	90.19
650.312	81.19
650.516	85.19
650.721	92.19
650.925	77.19
651.13	75.19
651.334	79.19
651.539	85.19
651.743	81.19
651.947	87.19
652.152	73.19
652.356	66.19
652.56	84.19
652.764	71.19
652.969	78.19
653.173	74.19
653.377	84.19
653.581	78.19
653.785	94.19
653.99	73.19
654.194	73.19
654.398	70.19
654.602	65.19
654.806	79.19
655.01	83.19
655.214	81.19
655.418	80.19
655.622	67.19
655.826	72.19
656.03	74.19
656.234	79.19
656.438	75.19
656.642	70.19
656.846	89.19
657.049	88.19
657.253	84.19
657.457	72.19
657.661	67.19
657.865	73.19
658.068	82.19
658.272	83.19
658.476	88.19
658.68	85.19
658.883	71.19
659.087	71.19
659.291	83.19
659.494	78.19
659.698	75.19
659.901	83.19
660.105	73.19
660.309	87.19
660.512	80.19
660.716	83.19
660.919	96.19
661.123	79.19
661.326	67.19
661.53	79.19
661.733	83.19
661.936	83.19
662.14	86.19
662.343	91.19
662.546	85.19
662.75	90.19
662.953	68.19
663.156	98.19
663.36	85.19
663.563	71.19
663.766	86.19
663.969	76.19
664.173	75.19
664.376	84.19
664.579	90.19
664.782	78.19
664.985	68.19
665.188	72.19
665.391	91.19
665.594	94.19
665.797	84.19
666	88.19
666.203	71.19
666.406	62.19
666.609	73.19
666.812	81.19
667.015	75.19
667.218	72.19
667.421	88.19
667.624	82.19
667.827	89.19
668.03	83.19
668.232	78.19
668.435	81.19
668.638	93.19
668.841	78.19
669.043	71.19
669.246	81.19
669.449	68.19
669.651	78.19
669.854	77.19
670.057	76.19
670.259	77.19
670.462	78.19
670.665	71.19
670.867	77.19
671.07	78.19
671.272	84.19
671.475	79.19
671.677	71.19
671.88	87.19
672.082	86.19
672.284	73.19
672.487	82.19
672.689	77.19
672.892	90.19
