Data from Uncirc_2007_H10_HRD10591_00045.txt Node
Date: Wed Jan 03 10:20:51 EST 2024
User: Yrep
Spectrometer: HR+D1059
Trigger mode: 1
Integration Time (sec): 1.000000E-1
Scans to average: 1
Electric dark correction enabled: true
Nonlinearity correction enabled: false
Boxcar width: 0
XAxis mode: Wavelengths
Number of Pixels in Spectrum: 2048
>>>>>Begin Spectral Data<<<<<
223.165	-24.69
223.4	-24.69
223.635	-24.69
223.869	-16.69
224.104	-28.69
224.338	-14.69
224.573	-8.69
224.808	-15.69
225.042	-1.69
225.277	2.31
225.511	-4.69
225.746	1.31
225.98	2.31
226.215	8.31
226.449	20.31
226.683	23.31
226.918	27.31
227.152	30.31
227.387	45.31
227.621	41.31
227.856	41.31
228.09	39.31
228.324	53.31
228.559	66.31
228.793	73.31
229.027	73.31
229.262	66.31
229.496	73.31
229.73	91.31
229.964	72.31
230.199	71.31
230.433	73.31
230.667	78.31
230.901	60.31
231.136	86.31
231.37	69.31
231.604	80.31
231.838	78.31
232.072	77.31
232.306	81.31
232.541	73.31
232.775	88.31
233.009	78.31
233.243	93.31
233.477	79.31
233.711	69.31
233.945	79.31
234.179	77.31
234.413	83.31
234.647	80.31
234.881	91.31
235.115	82.31
235.349	92.31
235.583	76.31
235.817	75.31
236.051	84.31
236.285	83.31
236.519	81.31
236.753	65.31
236.987	79.31
237.221	80.31
237.455	88.31
237.689	87.31
237.922	72.31
238.156	89.31
238.39	68.31
238.624	75.31
238.858	77.31
239.091	83.31
239.325	72.31
239.559	81.31
239.793	77.31
240.027	71.31
240.26	76.31
240.494	79.31
240.728	80.31
240.961	74.31
241.195	85.31
241.429	81.31
241.662	60.31
241.896	76.31
242.13	60.31
242.363	82.31
242.597	84.31
242.83	82.31
243.064	61.31
243.298	86.31
243.531	69.31
243.765	60.31
243.998	84.31
244.232	84.31
244.465	77.31
244.699	88.31
244.932	83.31
245.166	69.31
245.399	74.31
245.633	80.31
245.866	66.31
246.099	76.31
246.333	86.31
246.566	92.31
246.8	81.31
247.033	65.31
247.266	82.31
247.5	78.31
247.733	73.31
247.966	77.31
248.2	88.31
248.433	86.31
248.666	67.31
248.899	91.31
249.133	85.31
249.366	107.31
249.599	95.31
249.832	67.31
250.066	73.31
250.299	91.31
250.532	88.31
250.765	91.31
250.998	91.31
251.231	73.31
251.465	92.31
251.698	82.31
251.931	79.31
252.164	96.31
252.397	89.31
252.63	94.31
252.863	72.31
253.096	83.31
253.329	66.31
253.562	85.31
253.795	70.31
254.028	68.31
254.261	90.31
254.494	91.31
254.727	88.31
254.96	85.31
255.193	74.31
255.426	80.31
255.659	83.31
255.892	75.31
256.124	91.31
256.357	84.31
256.59	80.31
256.823	79.31
257.056	69.31
257.289	92.31
257.521	74.31
257.754	78.31
257.987	81.31
258.22	81.31
258.452	82.31
258.685	76.31
258.918	73.31
259.151	86.31
259.383	91.31
259.616	77.31
259.849	89.31
260.081	80.31
260.314	76.31
260.547	79.31
260.779	80.31
261.012	82.31
261.244	93.31
261.477	94.31
261.71	91.31
261.942	103.31
262.175	111.31
262.407	87.31
262.64	70.31
262.872	80.31
263.105	82.31
263.337	99.31
263.57	84.31
263.802	67.31
264.035	77.31
264.267	80.31
264.499	85.31
264.732	83.31
264.964	83.31
265.197	68.31
265.429	79.31
265.661	80.31
265.894	72.31
266.126	79.31
266.358	79.31
266.591	78.31
266.823	81.31
267.055	77.31
267.287	87.31
267.52	78.31
267.752	81.31
267.984	80.31
268.216	68.31
268.448	76.31
268.681	83.31
268.913	88.31
269.145	103.31
269.377	87.31
269.609	78.31
269.841	92.31
270.073	99.31
270.306	95.31
270.538	90.31
270.77	91.31
271.002	90.31
271.234	83.31
271.466	93.31
271.698	78.31
271.93	68.31
272.162	98.31
272.394	103.31
272.626	78.31
272.858	77.31
273.09	71.31
273.322	84.31
273.553	74.31
273.785	69.31
274.017	76.31
274.249	96.31
274.481	69.31
274.713	80.31
274.945	85.31
275.176	74.31
275.408	89.31
275.64	92.31
275.872	93.31
276.104	82.31
276.335	77.31
276.567	96.31
276.799	92.31
277.031	113.31
277.262	99.31
277.494	100.31
277.726	75.31
277.957	74.31
278.189	80.31
278.421	91.31
278.652	85.31
278.884	89.31
279.115	84.31
279.347	79.31
279.579	81.31
279.81	83.31
280.042	86.31
280.273	94.31
280.505	99.31
280.736	80.31
280.968	91.31
281.199	87.31
281.431	87.31
281.662	78.31
281.894	91.31
282.125	91.31
282.356	112.31
282.588	135.31
282.819	93.31
283.051	81.31
283.282	82.31
283.513	75.31
283.745	73.31
283.976	86.31
284.207	91.31
284.439	80.31
284.67	92.31
284.901	88.31
285.132	80.31
285.364	69.31
285.595	72.31
285.826	81.31
286.057	88.31
286.288	84.31
286.52	94.31
286.751	82.31
286.982	89.31
287.213	104.31
287.444	83.31
287.675	98.31
287.906	88.31
288.138	95.31
288.369	95.31
288.6	81.31
288.831	82.31
289.062	105.31
289.293	103.31
289.524	95.31
289.755	79.31
289.986	71.31
290.217	97.31
290.448	84.31
290.679	80.31
290.91	75.31
291.141	93.31
291.371	89.31
291.602	92.31
291.833	84.31
292.064	76.31
292.295	81.31
292.526	94.31
292.757	68.31
292.987	81.31
293.218	82.31
293.449	90.31
293.68	80.31
293.91	79.31
294.141	96.31
294.372	93.31
294.603	86.31
294.833	90.31
295.064	92.31
295.295	70.31
295.525	85.31
295.756	106.31
295.987	124.31
296.217	149.31
296.448	130.31
296.679	89.31
296.909	91.31
297.14	95.31
297.37	92.31
297.601	80.31
297.831	87.31
298.062	80.31
298.292	82.31
298.523	97.31
298.753	85.31
298.984	74.31
299.214	91.31
299.445	98.31
299.675	98.31
299.905	95.31
300.136	85.31
300.366	92.31
300.597	69.31
300.827	85.31
301.057	109.31
301.288	106.31
301.518	90.31
301.748	90.31
301.979	101.31
302.209	90.31
302.439	100.31
302.669	92.31
302.9	89.31
303.13	87.31
303.36	103.31
303.59	76.31
303.82	105.31
304.051	100.31
304.281	79.31
304.511	96.31
304.741	74.31
304.971	94.31
305.201	88.31
305.431	94.31
305.661	88.31
305.891	81.31
306.121	79.31
306.352	111.31
306.582	93.31
306.812	96.31
307.042	93.31
307.272	87.31
307.502	84.31
307.731	91.31
307.961	83.31
308.191	81.31
308.421	94.31
308.651	98.31
308.881	106.31
309.111	79.31
309.341	82.31
309.571	91.31
309.8	98.31
310.03	84.31
310.26	102.31
310.49	100.31
310.72	96.31
310.949	103.31
311.179	93.31
311.409	100.31
311.639	96.31
311.868	87.31
312.098	107.31
312.328	93.31
312.557	98.31
312.787	100.31
313.017	91.31
313.246	85.31
313.476	79.31
313.706	81.31
313.935	101.31
314.165	91.31
314.394	102.31
314.624	94.31
314.853	85.31
315.083	89.31
315.312	92.31
315.542	98.31
315.771	76.31
316.001	87.31
316.23	101.31
316.46	93.31
316.689	88.31
316.919	97.31
317.148	97.31
317.377	78.31
317.607	96.31
317.836	90.31
318.065	92.31
318.295	84.31
318.524	81.31
318.753	103.31
318.983	99.31
319.212	90.31
319.441	98.31
319.67	93.31
319.9	79.31
320.129	83.31
320.358	92.31
320.587	94.31
320.816	96.31
321.046	103.31
321.275	108.31
321.504	100.31
321.733	108.31
321.962	104.31
322.191	101.31
322.42	100.31
322.649	126.31
322.878	116.31
323.108	109.31
323.337	128.31
323.566	136.31
323.795	159.31
324.024	225.31
324.253	432.31
324.482	905.31
324.71	1880.31
324.939	2497.31
325.168	899.31
325.397	251.31
325.626	162.31
325.855	133.31
326.084	129.31
326.313	148.31
326.542	179.31
326.77	260.31
326.999	521.31
327.228	1039.31
327.457	1888.31
327.686	1503.31
327.914	395.31
328.143	207.31
328.372	155.31
328.6	119.31
328.829	101.31
329.058	140.31
329.287	134.31
329.515	98.31
329.744	82.31
329.972	95.31
330.201	110.31
330.43	104.31
330.658	128.31
330.887	144.31
331.115	117.31
331.344	100.31
331.572	107.31
331.801	93.31
332.03	103.31
332.258	84.31
332.486	93.31
332.715	88.31
332.943	99.31
333.172	83.31
333.4	91.31
333.629	104.31
333.857	105.31
334.085	100.31
334.314	87.31
334.542	98.31
334.771	103.31
334.999	106.31
335.227	89.31
335.455	107.31
335.684	105.31
335.912	107.31
336.14	109.31
336.369	95.31
336.597	96.31
336.825	105.31
337.053	97.31
337.281	101.31
337.51	97.31
337.738	87.31
337.966	95.31
338.194	93.31
338.422	91.31
338.65	88.31
338.878	93.31
339.106	92.31
339.334	93.31
339.562	91.31
339.79	83.31
340.018	88.31
340.246	93.31
340.474	104.31
340.702	98.31
340.93	85.31
341.158	90.31
341.386	98.31
341.614	96.31
341.842	107.31
342.07	88.31
342.298	92.31
342.526	82.31
342.754	83.31
342.981	83.31
343.209	87.31
343.437	108.31
343.665	90.31
343.893	90.31
344.12	95.31
344.348	91.31
344.576	100.31
344.804	96.31
345.031	85.31
345.259	75.31
345.487	69.31
345.714	98.31
345.942	92.31
346.17	94.31
346.397	96.31
346.625	83.31
346.853	92.31
347.08	95.31
347.308	104.31
347.535	101.31
347.763	101.31
347.99	91.31
348.218	107.31
348.445	92.31
348.673	98.31
348.9	93.31
349.128	93.31
349.355	84.31
349.583	104.31
349.81	98.31
350.037	102.31
350.265	93.31
350.492	100.31
350.72	95.31
350.947	103.31
351.174	103.31
351.402	94.31
351.629	90.31
351.856	98.31
352.083	115.31
352.311	116.31
352.538	104.31
352.765	91.31
352.992	111.31
353.22	106.31
353.447	106.31
353.674	97.31
353.901	89.31
354.128	96.31
354.355	107.31
354.583	104.31
354.81	98.31
355.037	94.31
355.264	92.31
355.491	99.31
355.718	97.31
355.945	86.31
356.172	83.31
356.399	94.31
356.626	105.31
356.853	89.31
357.08	90.31
357.307	103.31
357.534	88.31
357.761	104.31
357.988	85.31
358.215	85.31
358.441	97.31
358.668	85.31
358.895	89.31
359.122	105.31
359.349	75.31
359.576	87.31
359.802	95.31
360.029	111.31
360.256	109.31
360.483	103.31
360.709	78.31
360.936	79.31
361.163	82.31
361.39	93.31
361.616	92.31
361.843	103.31
362.07	96.31
362.296	85.31
362.523	89.31
362.749	92.31
362.976	79.31
363.203	89.31
363.429	85.31
363.656	100.31
363.882	97.31
364.109	90.31
364.335	95.31
364.562	92.31
364.788	97.31
365.015	94.31
365.241	92.31
365.468	95.31
365.694	115.31
365.92	106.31
366.147	99.31
366.373	92.31
366.599	84.31
366.826	83.31
367.052	89.31
367.278	85.31
367.505	79.31
367.731	85.31
367.957	86.31
368.184	94.31
368.41	110.31
368.636	93.31
368.862	116.31
369.089	95.31
369.315	96.31
369.541	85.31
369.767	93.31
369.993	98.31
370.219	101.31
370.445	97.31
370.672	87.31
370.898	82.31
371.124	100.31
371.35	87.31
371.576	91.31
371.802	95.31
372.028	95.31
372.254	83.31
372.48	78.31
372.706	91.31
372.932	94.31
373.158	91.31
373.384	93.31
373.61	96.31
373.835	96.31
374.061	86.31
374.287	93.31
374.513	86.31
374.739	89.31
374.965	78.31
375.191	96.31
375.416	109.31
375.642	95.31
375.868	96.31
376.094	92.31
376.319	79.31
376.545	81.31
376.771	85.31
376.997	82.31
377.222	96.31
377.448	85.31
377.674	102.31
377.899	94.31
378.125	95.31
378.35	91.31
378.576	103.31
378.802	81.31
379.027	99.31
379.253	106.31
379.478	89.31
379.704	99.31
379.929	83.31
380.155	88.31
380.38	83.31
380.606	80.31
380.831	96.31
381.057	88.31
381.282	107.31
381.507	79.31
381.733	94.31
381.958	93.31
382.184	99.31
382.409	106.31
382.634	108.31
382.86	104.31
383.085	90.31
383.31	96.31
383.535	97.31
383.761	104.31
383.986	104.31
384.211	99.31
384.436	88.31
384.662	93.31
384.887	104.31
385.112	103.31
385.337	97.31
385.562	107.31
385.787	94.31
386.013	91.31
386.238	114.31
386.463	100.31
386.688	100.31
386.913	95.31
387.138	101.31
387.363	104.31
387.588	101.31
387.813	93.31
388.038	87.31
388.263	108.31
388.488	100.31
388.713	88.31
388.938	96.31
389.163	103.31
389.387	95.31
389.612	89.31
389.837	94.31
390.062	92.31
390.287	88.31
390.512	82.31
390.736	91.31
390.961	87.31
391.186	98.31
391.411	91.31
391.636	95.31
391.86	77.31
392.085	83.31
392.31	85.31
392.534	93.31
392.759	83.31
392.984	93.31
393.208	85.31
393.433	80.31
393.658	82.31
393.882	89.31
394.107	92.31
394.331	91.31
394.556	87.31
394.78	90.31
395.005	86.31
395.229	99.31
395.454	83.31
395.678	84.31
395.903	90.31
396.127	88.31
396.352	91.31
396.576	78.31
396.801	95.31
397.025	93.31
397.249	90.31
397.474	102.31
397.698	92.31
397.922	93.31
398.147	72.31
398.371	80.31
398.595	97.31
398.82	99.31
399.044	83.31
399.268	96.31
399.492	90.31
399.717	102.31
399.941	85.31
400.165	96.31
400.389	103.31
400.613	83.31
400.837	83.31
401.062	85.31
401.286	91.31
401.51	99.31
401.734	94.31
401.958	110.31
402.182	126.31
402.406	164.31
402.63	112.31
402.854	80.31
403.078	77.31
403.302	89.31
403.526	79.31
403.75	83.31
403.974	76.31
404.198	85.31
404.422	89.31
404.645	98.31
404.869	87.31
405.093	99.31
405.317	92.31
405.541	98.31
405.765	97.31
405.988	118.31
406.212	172.31
406.436	237.31
406.66	138.31
406.883	93.31
407.107	104.31
407.331	98.31
407.555	96.31
407.778	105.31
408.002	91.31
408.226	97.31
408.449	75.31
408.673	87.31
408.896	112.31
409.12	83.31
409.344	77.31
409.567	83.31
409.791	98.31
410.014	91.31
410.238	90.31
410.461	93.31
410.685	86.31
410.908	105.31
411.132	119.31
411.355	107.31
411.578	97.31
411.802	85.31
412.025	98.31
412.249	87.31
412.472	96.31
412.695	79.31
412.919	93.31
413.142	66.31
413.365	83.31
413.589	83.31
413.812	79.31
414.035	85.31
414.258	100.31
414.482	96.31
414.705	90.31
414.928	92.31
415.151	104.31
415.374	89.31
415.597	87.31
415.821	92.31
416.044	85.31
416.267	80.31
416.49	89.31
416.713	87.31
416.936	85.31
417.159	75.31
417.382	100.31
417.605	87.31
417.828	99.31
418.051	104.31
418.274	105.31
418.497	95.31
418.72	80.31
418.943	97.31
419.166	75.31
419.389	87.31
419.611	88.31
419.834	91.31
420.057	85.31
420.28	92.31
420.503	80.31
420.726	87.31
420.948	96.31
421.171	94.31
421.394	107.31
421.617	92.31
421.839	84.31
422.062	89.31
422.285	95.31
422.507	101.31
422.73	97.31
422.953	92.31
423.175	84.31
423.398	78.31
423.621	91.31
423.843	84.31
424.066	93.31
424.288	78.31
424.511	97.31
424.733	100.31
424.956	110.31
425.178	94.31
425.401	114.31
425.623	116.31
425.846	79.31
426.068	93.31
426.291	78.31
426.513	81.31
426.735	107.31
426.958	86.31
427.18	108.31
427.402	126.31
427.625	154.31
427.847	119.31
428.069	87.31
428.292	90.31
428.514	71.31
428.736	88.31
428.958	74.31
429.181	92.31
429.403	91.31
429.625	86.31
429.847	77.31
430.069	97.31
430.292	90.31
430.514	96.31
430.736	108.31
430.958	86.31
431.18	95.31
431.402	88.31
431.624	86.31
431.846	95.31
432.068	103.31
432.29	81.31
432.512	77.31
432.734	77.31
432.956	80.31
433.178	94.31
433.4	104.31
433.622	92.31
433.844	95.31
434.066	105.31
434.287	103.31
434.509	92.31
434.731	93.31
434.953	87.31
435.175	95.31
435.397	85.31
435.618	91.31
435.84	92.31
436.062	115.31
436.284	125.31
436.505	103.31
436.727	106.31
436.949	92.31
437.17	89.31
437.392	86.31
437.614	98.31
437.835	91.31
438.057	112.31
438.278	119.31
438.5	108.31
438.721	107.31
438.943	90.31
439.165	92.31
439.386	96.31
439.608	105.31
439.829	98.31
440.05	120.31
440.272	147.31
440.493	93.31
440.715	94.31
440.936	82.31
441.158	94.31
441.379	90.31
441.6	85.31
441.822	93.31
442.043	106.31
442.264	89.31
442.486	91.31
442.707	81.31
442.928	103.31
443.149	113.31
443.371	113.31
443.592	112.31
443.813	90.31
444.034	111.31
444.255	112.31
444.476	88.31
444.698	80.31
444.919	85.31
445.14	141.31
445.361	130.31
445.582	116.31
445.803	142.31
446.024	137.31
446.245	149.31
446.466	112.31
446.687	92.31
446.908	85.31
447.129	93.31
447.35	89.31
447.571	94.31
447.792	79.31
448.013	96.31
448.234	116.31
448.455	91.31
448.675	104.31
448.896	105.31
449.117	100.31
449.338	111.31
449.559	116.31
449.779	137.31
450	98.31
450.221	98.31
450.442	89.31
450.662	89.31
450.883	99.31
451.104	107.31
451.324	96.31
451.545	89.31
451.766	80.31
451.986	85.31
452.207	92.31
452.428	93.31
452.648	100.31
452.869	96.31
453.089	104.31
453.31	113.31
453.53	90.31
453.751	102.31
453.971	100.31
454.192	115.31
454.412	98.31
454.633	85.31
454.853	88.31
455.073	73.31
455.294	89.31
455.514	84.31
455.734	93.31
455.955	85.31
456.175	90.31
456.395	84.31
456.616	94.31
456.836	82.31
457.056	90.31
457.276	91.31
457.497	98.31
457.717	87.31
457.937	88.31
458.157	87.31
458.377	85.31
458.598	120.31
458.818	143.31
459.038	156.31
459.258	116.31
459.478	82.31
459.698	77.31
459.918	99.31
460.138	95.31
460.358	107.31
460.578	94.31
460.798	93.31
461.018	93.31
461.238	77.31
461.458	80.31
461.678	74.31
461.898	90.31
462.118	92.31
462.338	85.31
462.558	85.31
462.777	98.31
462.997	80.31
463.217	98.31
463.437	79.31
463.657	85.31
463.876	91.31
464.096	93.31
464.316	82.31
464.536	98.31
464.755	98.31
464.975	100.31
465.195	161.31
465.414	146.31
465.634	98.31
465.854	92.31
466.073	95.31
466.293	86.31
466.512	86.31
466.732	100.31
466.951	84.31
467.171	95.31
467.391	94.31
467.61	106.31
467.829	97.31
468.049	87.31
468.268	94.31
468.488	80.31
468.707	84.31
468.927	100.31
469.146	89.31
469.365	79.31
469.585	94.31
469.804	97.31
470.023	77.31
470.243	86.31
470.462	94.31
470.681	103.31
470.901	86.31
471.12	77.31
471.339	98.31
471.558	104.31
471.777	81.31
471.997	91.31
472.216	81.31
472.435	75.31
472.654	88.31
472.873	88.31
473.092	86.31
473.311	83.31
473.53	83.31
473.749	82.31
473.968	108.31
474.187	108.31
474.406	87.31
474.625	94.31
474.844	100.31
475.063	93.31
475.282	86.31
475.501	89.31
475.72	83.31
475.939	79.31
476.158	94.31
476.377	90.31
476.596	92.31
476.814	92.31
477.033	97.31
477.252	103.31
477.471	85.31
477.69	81.31
477.908	83.31
478.127	81.31
478.346	93.31
478.564	94.31
478.783	92.31
479.002	89.31
479.22	99.31
479.439	91.31
479.658	100.31
479.876	95.31
480.095	96.31
480.313	81.31
480.532	87.31
480.751	92.31
480.969	101.31
481.188	105.31
481.406	101.31
481.624	95.31
481.843	85.31
482.061	87.31
482.28	109.31
482.498	82.31
482.717	90.31
482.935	83.31
483.153	91.31
483.372	107.31
483.59	76.31
483.808	77.31
484.027	72.31
484.245	102.31
484.463	88.31
484.681	96.31
484.9	90.31
485.118	84.31
485.336	96.31
485.554	102.31
485.772	91.31
485.99	107.31
486.209	107.31
486.427	104.31
486.645	110.31
486.863	108.31
487.081	97.31
487.299	96.31
487.517	105.31
487.735	89.31
487.953	94.31
488.171	84.31
488.389	88.31
488.607	84.31
488.825	91.31
489.043	64.31
489.261	96.31
489.479	87.31
489.696	94.31
489.914	98.31
490.132	91.31
490.35	93.31
490.568	85.31
490.786	102.31
491.003	89.31
491.221	96.31
491.439	82.31
491.657	96.31
491.874	93.31
492.092	92.31
492.31	83.31
492.527	94.31
492.745	93.31
492.963	99.31
493.18	84.31
493.398	86.31
493.615	87.31
493.833	94.31
494.05	82.31
494.268	83.31
494.485	92.31
494.703	83.31
494.92	101.31
495.138	83.31
495.355	83.31
495.573	77.31
495.79	84.31
496.008	96.31
496.225	89.31
496.442	82.31
496.66	88.31
496.877	89.31
497.094	98.31
497.312	93.31
497.529	96.31
497.746	90.31
497.963	84.31
498.181	90.31
498.398	90.31
498.615	100.31
498.832	103.31
499.049	85.31
499.267	85.31
499.484	91.31
499.701	94.31
499.918	91.31
500.135	88.31
500.352	97.31
500.569	78.31
500.786	103.31
501.003	97.31
501.22	72.31
501.437	91.31
501.654	98.31
501.871	108.31
502.088	83.31
502.305	89.31
502.522	76.31
502.739	80.31
502.956	98.31
503.172	90.31
503.389	107.31
503.606	110.31
503.823	97.31
504.04	101.31
504.256	95.31
504.473	91.31
504.69	90.31
504.907	90.31
505.123	82.31
505.34	84.31
505.557	87.31
505.773	87.31
505.99	98.31
506.207	99.31
506.423	92.31
506.64	80.31
506.856	78.31
507.073	113.31
507.289	93.31
507.506	98.31
507.722	101.31
507.939	95.31
508.155	94.31
508.372	75.31
508.588	99.31
508.805	93.31
509.021	104.31
509.238	97.31
509.454	98.31
509.67	104.31
509.887	96.31
510.103	119.31
510.319	211.31
510.536	818.31
510.752	2559.31
510.968	735.31
511.184	176.31
511.401	112.31
511.617	99.31
511.833	104.31
512.049	92.31
512.265	93.31
512.481	106.31
512.698	95.31
512.914	81.31
513.13	86.31
513.346	97.31
513.562	96.31
513.778	85.31
513.994	103.31
514.21	112.31
514.426	110.31
514.642	138.31
514.858	139.31
515.074	188.31
515.29	466.31
515.506	1557.31
515.721	577.31
515.937	165.31
516.153	107.31
516.369	107.31
516.585	105.31
516.801	91.31
517.016	69.31
517.232	91.31
517.448	81.31
517.664	82.31
517.879	93.31
518.095	93.31
518.311	97.31
518.527	82.31
518.742	77.31
518.958	96.31
519.173	94.31
519.389	85.31
519.605	96.31
519.82	81.31
520.036	100.31
520.251	119.31
520.467	110.31
520.682	93.31
520.898	92.31
521.113	121.31
521.329	155.31
521.544	197.31
521.76	580.31
521.975	2539.31
522.19	1566.31
522.406	315.31
522.621	130.31
522.836	99.31
523.052	102.31
523.267	96.31
523.482	85.31
523.698	98.31
523.913	135.31
524.128	112.31
524.343	95.31
524.559	103.31
524.774	88.31
524.989	104.31
525.204	113.31
525.419	93.31
525.634	94.31
525.849	97.31
526.064	95.31
526.28	95.31
526.495	88.31
526.71	92.31
526.925	84.31
527.14	92.31
527.355	99.31
527.57	90.31
527.785	102.31
527.999	101.31
528.214	101.31
528.429	95.31
528.644	99.31
528.859	92.31
529.074	100.31
529.289	121.31
529.503	185.31
529.718	107.31
529.933	93.31
530.148	95.31
530.363	96.31
530.577	88.31
530.792	91.31
531.007	91.31
531.221	93.31
531.436	88.31
531.651	85.31
531.865	90.31
532.08	82.31
532.295	85.31
532.509	98.31
532.724	95.31
532.938	103.31
533.153	99.31
533.367	103.31
533.582	105.31
533.796	96.31
534.011	92.31
534.225	94.31
534.44	82.31
534.654	97.31
534.868	79.31
535.083	82.31
535.297	101.31
535.511	105.31
535.726	114.31
535.94	102.31
536.154	89.31
536.369	105.31
536.583	91.31
536.797	85.31
537.011	84.31
537.225	77.31
537.44	88.31
537.654	91.31
537.868	90.31
538.082	73.31
538.296	84.31
538.51	98.31
538.724	93.31
538.938	103.31
539.153	80.31
539.367	95.31
539.581	91.31
539.795	85.31
540.009	81.31
540.222	97.31
540.436	85.31
540.65	85.31
540.864	73.31
541.078	100.31
541.292	77.31
541.506	85.31
541.72	89.31
541.934	99.31
542.147	79.31
542.361	93.31
542.575	91.31
542.789	90.31
543.002	88.31
543.216	93.31
543.43	93.31
543.644	86.31
543.857	102.31
544.071	103.31
544.285	99.31
544.498	96.31
544.712	81.31
544.925	84.31
545.139	95.31
545.352	79.31
545.566	87.31
545.779	98.31
545.993	88.31
546.206	91.31
546.42	85.31
546.633	94.31
546.847	91.31
547.06	93.31
547.274	85.31
547.487	91.31
547.7	93.31
547.914	95.31
548.127	83.31
548.34	102.31
548.554	84.31
548.767	83.31
548.98	93.31
549.193	90.31
549.407	95.31
549.62	74.31
549.833	91.31
550.046	83.31
550.259	90.31
550.473	77.31
550.686	76.31
550.899	83.31
551.112	81.31
551.325	110.31
551.538	90.31
551.751	101.31
551.964	95.31
552.177	95.31
552.39	80.31
552.603	79.31
552.816	92.31
553.029	89.31
553.242	106.31
553.455	95.31
553.667	106.31
553.88	100.31
554.093	98.31
554.306	96.31
554.519	84.31
554.732	84.31
554.944	94.31
555.157	97.31
555.37	92.31
555.583	96.31
555.795	92.31
556.008	83.31
556.221	103.31
556.433	85.31
556.646	87.31
556.859	96.31
557.071	97.31
557.284	92.31
557.496	100.31
557.709	78.31
557.921	100.31
558.134	91.31
558.346	93.31
558.559	84.31
558.771	85.31
558.984	98.31
559.196	84.31
559.409	78.31
559.621	87.31
559.833	84.31
560.046	81.31
560.258	100.31
560.47	90.31
560.683	98.31
560.895	94.31
561.107	89.31
561.32	92.31
561.532	88.31
561.744	95.31
561.956	85.31
562.168	93.31
562.381	85.31
562.593	92.31
562.805	92.31
563.017	88.31
563.229	91.31
563.441	91.31
563.653	92.31
563.865	81.31
564.077	80.31
564.289	92.31
564.501	89.31
564.713	99.31
564.925	103.31
565.137	101.31
565.349	95.31
565.561	79.31
565.773	87.31
565.985	87.31
566.197	99.31
566.408	80.31
566.62	105.31
566.832	86.31
567.044	103.31
567.255	88.31
567.467	85.31
567.679	86.31
567.891	77.31
568.102	89.31
568.314	84.31
568.526	90.31
568.737	81.31
568.949	83.31
569.161	90.31
569.372	78.31
569.584	85.31
569.795	108.31
570.007	120.31
570.218	260.31
570.43	146.31
570.641	92.31
570.853	101.31
571.064	88.31
571.276	85.31
571.487	80.31
571.698	84.31
571.91	84.31
572.121	89.31
572.333	85.31
572.544	92.31
572.755	92.31
572.966	79.31
573.178	90.31
573.389	90.31
573.6	79.31
573.811	77.31
574.023	88.31
574.234	90.31
574.445	90.31
574.656	77.31
574.867	80.31
575.078	79.31
575.289	82.31
575.501	71.31
575.712	81.31
575.923	91.31
576.134	90.31
576.345	95.31
576.556	96.31
576.767	85.31
576.978	90.31
577.188	85.31
577.399	84.31
577.61	92.31
577.821	99.31
578.032	112.31
578.243	286.31
578.454	842.31
578.665	231.31
578.875	100.31
579.086	85.31
579.297	86.31
579.508	87.31
579.718	84.31
579.929	88.31
580.14	81.31
580.35	73.31
580.561	91.31
580.772	79.31
580.982	85.31
581.193	81.31
581.403	83.31
581.614	82.31
581.825	84.31
582.035	81.31
582.246	88.31
582.456	95.31
582.667	85.31
582.877	98.31
583.087	82.31
583.298	87.31
583.508	90.31
583.719	88.31
583.929	96.31
584.139	83.31
584.35	95.31
584.56	98.31
584.77	82.31
584.981	84.31
585.191	89.31
585.401	93.31
585.611	85.31
585.821	95.31
586.032	95.31
586.242	81.31
586.452	96.31
586.662	86.31
586.872	76.31
587.082	97.31
587.292	84.31
587.502	91.31
587.713	89.31
587.923	93.31
588.133	83.31
588.343	74.31
588.553	97.31
588.762	81.31
588.972	88.31
589.182	97.31
589.392	78.31
589.602	72.31
589.812	98.31
590.022	102.31
590.232	82.31
590.441	82.31
590.651	91.31
590.861	93.31
591.071	75.31
591.281	80.31
591.49	93.31
591.7	81.31
591.91	92.31
592.119	81.31
592.329	80.31
592.539	96.31
592.748	80.31
592.958	75.31
593.167	80.31
593.377	92.31
593.587	81.31
593.796	60.31
594.006	88.31
594.215	92.31
594.424	95.31
594.634	90.31
594.843	91.31
595.053	90.31
595.262	73.31
595.472	79.31
595.681	77.31
595.89	95.31
596.1	92.31
596.309	92.31
596.518	90.31
596.727	85.31
596.937	97.31
597.146	76.31
597.355	83.31
597.564	102.31
597.774	89.31
597.983	96.31
598.192	77.31
598.401	69.31
598.61	91.31
598.819	96.31
599.028	90.31
599.237	96.31
599.446	76.31
599.655	78.31
599.864	75.31
600.073	78.31
600.282	88.31
600.491	98.31
600.7	88.31
600.909	88.31
601.118	81.31
601.327	83.31
601.536	82.31
601.745	80.31
601.953	93.31
602.162	95.31
602.371	97.31
602.58	72.31
602.789	92.31
602.997	75.31
603.206	83.31
603.415	91.31
603.623	78.31
603.832	99.31
604.041	92.31
604.249	84.31
604.458	73.31
604.666	74.31
604.875	74.31
605.084	84.31
605.292	97.31
605.501	95.31
605.709	81.31
605.918	81.31
606.126	89.31
606.334	82.31
606.543	79.31
606.751	96.31
606.96	81.31
607.168	89.31
607.376	83.31
607.585	77.31
607.793	84.31
608.001	86.31
608.21	86.31
608.418	75.31
608.626	84.31
608.834	76.31
609.043	95.31
609.251	74.31
609.459	92.31
609.667	105.31
609.875	86.31
610.083	82.31
610.291	94.31
610.499	101.31
610.707	74.31
610.916	80.31
611.124	84.31
611.332	82.31
611.54	90.31
611.748	84.31
611.955	85.31
612.163	94.31
612.371	79.31
612.579	92.31
612.787	81.31
612.995	102.31
613.203	83.31
613.411	88.31
613.618	91.31
613.826	97.31
614.034	79.31
614.242	82.31
614.449	83.31
614.657	70.31
614.865	81.31
615.072	84.31
615.28	97.31
615.488	106.31
615.695	87.31
615.903	92.31
616.111	111.31
616.318	100.31
616.526	102.31
616.733	96.31
616.941	89.31
617.148	78.31
617.356	84.31
617.563	82.31
617.771	80.31
617.978	94.31
618.185	96.31
618.393	89.31
618.6	95.31
618.807	84.31
619.015	100.31
619.222	92.31
619.429	82.31
619.637	85.31
619.844	85.31
620.051	63.31
620.258	91.31
620.466	84.31
620.673	90.31
620.88	94.31
621.087	90.31
621.294	80.31
621.501	85.31
621.708	70.31
621.915	82.31
622.122	85.31
622.329	75.31
622.536	84.31
622.743	81.31
622.95	77.31
623.157	86.31
623.364	76.31
623.571	77.31
623.778	71.31
623.985	82.31
624.192	73.31
624.399	76.31
624.606	87.31
624.812	97.31
625.019	90.31
625.226	82.31
625.433	105.31
625.639	97.31
625.846	89.31
626.053	84.31
626.259	85.31
626.466	81.31
626.673	83.31
626.879	94.31
627.086	93.31
627.293	78.31
627.499	73.31
627.706	94.31
627.912	71.31
628.119	79.31
628.325	87.31
628.532	66.31
628.738	80.31
628.945	75.31
629.151	87.31
629.357	88.31
629.564	73.31
629.77	77.31
629.976	77.31
630.183	80.31
630.389	82.31
630.595	76.31
630.802	84.31
631.008	77.31
631.214	88.31
631.42	93.31
631.627	91.31
631.833	86.31
632.039	80.31
632.245	67.31
632.451	91.31
632.657	92.31
632.863	90.31
633.069	91.31
633.275	90.31
633.481	91.31
633.688	70.31
633.893	93.31
634.099	83.31
634.305	71.31
634.511	82.31
634.717	82.31
634.923	82.31
635.129	87.31
635.335	85.31
635.541	83.31
635.747	83.31
635.952	75.31
636.158	78.31
636.364	85.31
636.57	76.31
636.775	83.31
636.981	81.31
637.187	81.31
637.392	71.31
637.598	83.31
637.804	93.31
638.009	85.31
638.215	83.31
638.421	80.31
638.626	84.31
638.832	76.31
639.037	85.31
639.243	88.31
639.448	98.31
639.654	89.31
639.859	84.31
640.065	74.31
640.27	101.31
640.475	106.31
640.681	89.31
640.886	88.31
641.091	73.31
641.297	88.31
641.502	84.31
641.707	82.31
641.913	78.31
642.118	89.31
642.323	88.31
642.528	93.31
642.733	102.31
642.939	81.31
643.144	76.31
643.349	76.31
643.554	88.31
643.759	93.31
643.964	91.31
644.169	94.31
644.374	77.31
644.579	87.31
644.784	86.31
644.989	77.31
645.194	85.31
645.399	76.31
645.604	83.31
645.809	98.31
646.014	93.31
646.219	83.31
646.423	96.31
646.628	80.31
646.833	77.31
647.038	99.31
647.243	93.31
647.447	84.31
647.652	87.31
647.857	87.31
648.062	83.31
648.266	87.31
648.471	85.31
648.676	87.31
648.88	94.31
649.085	88.31
649.289	94.31
649.494	92.31
649.698	139.31
649.903	89.31
650.107	98.31
650.312	79.31
650.516	92.31
650.721	82.31
650.925	88.31
651.13	89.31
651.334	83.31
651.539	72.31
651.743	83.31
651.947	83.31
652.152	72.31
652.356	75.31
652.56	80.31
652.764	86.31
652.969	88.31
653.173	98.31
653.377	89.31
653.581	90.31
653.785	89.31
653.99	88.31
654.194	94.31
654.398	72.31
654.602	80.31
654.806	81.31
655.01	114.31
655.214	99.31
655.418	84.31
655.622	104.31
655.826	88.31
656.03	89.31
656.234	96.31
656.438	102.31
656.642	96.31
656.846	85.31
657.049	84.31
657.253	95.31
657.457	80.31
657.661	75.31
657.865	81.31
658.068	83.31
658.272	79.31
658.476	74.31
658.68	68.31
658.883	82.31
659.087	84.31
659.291	94.31
659.494	85.31
659.698	73.31
659.901	74.31
660.105	75.31
660.309	80.31
660.512	82.31
660.716	65.31
660.919	80.31
661.123	75.31
661.326	76.31
661.53	91.31
661.733	80.31
661.936	82.31
662.14	79.31
662.343	74.31
662.546	88.31
662.75	81.31
662.953	90.31
663.156	89.31
663.36	84.31
663.563	91.31
663.766	88.31
663.969	90.31
664.173	82.31
664.376	81.31
664.579	75.31
664.782	81.31
664.985	81.31
665.188	91.31
665.391	82.31
665.594	72.31
665.797	93.31
666	79.31
666.203	76.31
666.406	84.31
666.609	81.31
666.812	98.31
667.015	78.31
667.218	80.31
667.421	81.31
667.624	76.31
667.827	97.31
668.03	79.31
668.232	90.31
668.435	84.31
668.638	76.31
668.841	97.31
669.043	83.31
669.246	79.31
669.449	79.31
669.651	60.31
669.854	83.31
670.057	71.31
670.259	82.31
670.462	72.31
670.665	81.31
670.867	104.31
671.07	91.31
671.272	77.31
671.475	76.31
671.677	78.31
671.88	94.31
672.082	82.31
672.284	90.31
672.487	73.31
672.689	75.31
672.892	81.31
