Data from Uncirc_2007_H10_HRD10591_00009.txt Node
Date: Wed Jan 03 10:20:44 EST 2024
User: Yrep
Spectrometer: HR+D1059
Trigger mode: 1
Integration Time (sec): 1.000000E-1
Scans to average: 1
Electric dark correction enabled: true
Nonlinearity correction enabled: false
Boxcar width: 0
XAxis mode: Wavelengths
Number of Pixels in Spectrum: 2048
>>>>>Begin Spectral Data<<<<<
223.165	-30.62
223.4	-30.62
223.635	-30.62
223.869	-34.62
224.104	-24.62
224.338	-12.62
224.573	-20.62
224.808	-4.62
225.042	-4.62
225.277	-12.62
225.511	-5.62
225.746	3.38
225.98	14.38
226.215	16.38
226.449	27.38
226.683	27.38
226.918	29.38
227.152	32.38
227.387	49.38
227.621	46.38
227.856	50.38
228.09	56.38
228.324	55.38
228.559	66.38
228.793	170.38
229.027	452.38
229.262	524.38
229.496	612.38
229.73	795.38
229.964	816.38
230.199	559.38
230.433	475.38
230.667	476.38
230.901	447.38
231.136	431.38
231.37	466.38
231.604	442.38
231.838	452.38
232.072	448.38
232.306	449.38
232.541	470.38
232.775	458.38
233.009	498.38
233.243	476.38
233.477	469.38
233.711	469.38
233.945	491.38
234.179	519.38
234.413	525.38
234.647	501.38
234.881	517.38
235.115	527.38
235.349	552.38
235.583	562.38
235.817	619.38
236.051	677.38
236.285	645.38
236.519	608.38
236.753	723.38
236.987	921.38
237.221	1422.38
237.455	1567.38
237.689	915.38
237.922	756.38
238.156	743.38
238.39	704.38
238.624	632.38
238.858	666.38
239.091	655.38
239.325	638.38
239.559	665.38
239.793	708.38
240.027	792.38
240.26	915.38
240.494	982.38
240.728	983.38
240.961	914.38
241.195	816.38
241.429	765.38
241.662	773.38
241.896	778.38
242.13	759.38
242.363	754.38
242.597	795.38
242.83	799.38
243.064	842.38
243.298	827.38
243.531	808.38
243.765	849.38
243.998	829.38
244.232	862.38
244.465	860.38
244.699	896.38
244.932	916.38
245.166	899.38
245.399	893.38
245.633	901.38
245.866	899.38
246.099	916.38
246.333	944.38
246.566	932.38
246.8	953.38
247.033	1023.38
247.266	1044.38
247.5	1106.38
247.733	1144.38
247.966	1161.38
248.2	1154.38
248.433	1140.38
248.666	1185.38
248.899	1353.38
249.133	1482.38
249.366	1448.38
249.599	1325.38
249.832	1203.38
250.066	1199.38
250.299	1235.38
250.532	1330.38
250.765	1476.38
250.998	1716.38
251.231	1656.38
251.465	1552.38
251.698	1408.38
251.931	1375.38
252.164	1358.38
252.397	1439.38
252.63	1466.38
252.863	1576.38
253.096	1721.38
253.329	1787.38
253.562	1681.38
253.795	1577.38
254.028	1565.38
254.261	1645.38
254.494	1863.38
254.727	2219.38
254.96	2353.38
255.193	1979.38
255.426	1765.38
255.659	1626.38
255.892	1571.38
256.124	1559.38
256.357	1487.38
256.59	1488.38
256.823	1500.38
257.056	1491.38
257.289	1488.38
257.521	1517.38
257.754	1531.38
257.987	1529.38
258.22	1520.38
258.452	1560.38
258.685	1556.38
258.918	1579.38
259.151	1597.38
259.383	1687.38
259.616	1715.38
259.849	1816.38
260.081	1952.38
260.314	2154.38
260.547	2055.38
260.779	1861.38
261.012	1773.38
261.244	1755.38
261.477	1686.38
261.71	1698.38
261.942	1742.38
262.175	1767.38
262.407	1685.38
262.64	1629.38
262.872	1636.38
263.105	1628.38
263.337	1624.38
263.57	1669.38
263.802	1678.38
264.035	1620.38
264.267	1662.38
264.499	1652.38
264.732	1706.38
264.964	1710.38
265.197	1683.38
265.429	1695.38
265.661	1682.38
265.894	1724.38
266.126	1706.38
266.358	1716.38
266.591	1799.38
266.823	1863.38
267.055	1870.38
267.287	1866.38
267.52	1841.38
267.752	1874.38
267.984	1858.38
268.216	1863.38
268.448	1918.38
268.681	2025.38
268.913	2147.38
269.145	2384.38
269.377	2396.38
269.609	2311.38
269.841	2282.38
270.073	2411.38
270.306	2681.38
270.538	2912.38
270.77	2703.38
271.002	2553.38
271.234	2511.38
271.466	2640.38
271.698	2824.38
271.93	2825.38
272.162	2793.38
272.394	2714.38
272.626	2543.38
272.858	2404.38
273.09	2342.38
273.322	2236.38
273.553	2276.38
273.785	2260.38
274.017	2272.38
274.249	2263.38
274.481	2226.38
274.713	2285.38
274.945	2312.38
275.176	2271.38
275.408	2251.38
275.64	2247.38
275.872	2285.38
276.104	2290.38
276.335	2306.38
276.567	2460.38
276.799	2539.38
277.031	2831.38
277.262	2929.38
277.494	2763.38
277.726	2564.38
277.957	2500.38
278.189	2412.38
278.421	2387.38
278.652	2414.38
278.884	2399.38
279.115	2347.38
279.347	2370.38
279.579	2375.38
279.81	2382.38
280.042	2318.38
280.273	2406.38
280.505	2389.38
280.736	2415.38
280.968	2404.38
281.199	2425.38
281.431	2426.38
281.662	2506.38
281.894	2465.38
282.125	2564.38
282.356	2686.38
282.588	2771.38
282.819	2648.38
283.051	2523.38
283.282	2487.38
283.513	2519.38
283.745	2542.38
283.976	2641.38
284.207	2611.38
284.439	2618.38
284.67	2602.38
284.901	2629.38
285.132	2635.38
285.364	2592.38
285.595	2613.38
285.826	2630.38
286.057	2659.38
286.288	2625.38
286.52	2685.38
286.751	2691.38
286.982	2722.38
287.213	2701.38
287.444	2740.38
287.675	2816.38
287.906	2939.38
288.138	2914.38
288.369	2953.38
288.6	2877.38
288.831	2898.38
289.062	2792.38
289.293	2756.38
289.524	2851.38
289.755	2758.38
289.986	2819.38
290.217	2791.38
290.448	2800.38
290.679	2872.38
290.91	2765.38
291.141	2738.38
291.371	2787.38
291.602	2825.38
291.833	2851.38
292.064	2807.38
292.295	2861.38
292.526	2805.38
292.757	2832.38
292.987	2815.38
293.218	2809.38
293.449	2837.38
293.68	2794.38
293.91	2811.38
294.141	2827.38
294.372	2825.38
294.603	2810.38
294.833	2877.38
295.064	2899.38
295.295	2887.38
295.525	2883.38
295.756	2969.38
295.987	2989.38
296.217	3185.38
296.448	3078.38
296.679	2930.38
296.909	2940.38
297.14	2939.38
297.37	3045.38
297.601	3045.38
297.831	3015.38
298.062	3056.38
298.292	2997.38
298.523	3110.38
298.753	3092.38
298.984	3069.38
299.214	3089.38
299.445	3002.38
299.675	3097.38
299.905	3154.38
300.136	3108.38
300.366	3119.38
300.597	3209.38
300.827	3261.38
301.057	3368.38
301.288	3391.38
301.518	3318.38
301.748	3361.38
301.979	3416.38
302.209	3320.38
302.439	3384.38
302.669	3340.38
302.9	3337.38
303.13	3321.38
303.36	3279.38
303.59	3403.38
303.82	3410.38
304.051	3320.38
304.281	3317.38
304.511	3287.38
304.741	3303.38
304.971	3289.38
305.201	3251.38
305.431	3259.38
305.661	3280.38
305.891	3245.38
306.121	3263.38
306.352	3314.38
306.582	3297.38
306.812	3197.38
307.042	3268.38
307.272	3258.38
307.502	3266.38
307.731	3273.38
307.961	3220.38
308.191	3311.38
308.421	3253.38
308.651	3336.38
308.881	3287.38
309.111	3323.38
309.341	3316.38
309.571	3422.38
309.8	3485.38
310.03	3605.38
310.26	3618.38
310.49	3546.38
310.72	3708.38
310.949	3829.38
311.179	3752.38
311.409	3583.38
311.639	3614.38
311.868	3644.38
312.098	3741.38
312.328	3852.38
312.557	3848.38
312.787	3981.38
313.017	3848.38
313.246	3770.38
313.476	3733.38
313.706	3839.38
313.935	3846.38
314.165	4003.38
314.394	3919.38
314.624	3928.38
314.853	3836.38
315.083	3785.38
315.312	3761.38
315.542	3726.38
315.771	3667.38
316.001	3672.38
316.23	3705.38
316.46	3639.38
316.689	3703.38
316.919	3787.38
317.148	3732.38
317.377	3690.38
317.607	3703.38
317.836	3693.38
318.065	3664.38
318.295	3674.38
318.524	3659.38
318.753	3646.38
318.983	3680.38
319.212	3666.38
319.441	3694.38
319.67	3780.38
319.9	3650.38
320.129	3688.38
320.358	3689.38
320.587	3748.38
320.816	3843.38
321.046	3800.38
321.275	3749.38
321.504	3843.38
321.733	3885.38
321.962	3935.38
322.191	3973.38
322.42	4139.38
322.649	4198.38
322.878	4200.38
323.108	4288.38
323.337	4531.38
323.566	4668.38
323.795	4999.38
324.024	5541.38
324.253	7309.38
324.482	11030.38
324.71	15335.38
324.939	15605.38
325.168	13271.38
325.397	6603.38
325.626	5296.38
325.855	4891.38
326.084	4685.38
326.313	4777.38
326.542	4937.38
326.77	5523.38
326.999	7125.38
327.228	10348.38
327.457	14483.38
327.686	13798.38
327.914	7395.38
328.143	5874.38
328.372	5412.38
328.6	5225.38
328.829	5154.38
329.058	5251.38
329.287	5341.38
329.515	4943.38
329.744	4735.38
329.972	4766.38
330.201	4845.38
330.43	5068.38
330.658	5335.38
330.887	5658.38
331.115	5316.38
331.344	4950.38
331.572	4795.38
331.801	4966.38
332.03	4977.38
332.258	4948.38
332.486	4954.38
332.715	4947.38
332.943	5076.38
333.172	5288.38
333.4	5410.38
333.629	5490.38
333.857	5539.38
334.085	5431.38
334.314	5340.38
334.542	5319.38
334.771	5338.38
334.999	5195.38
335.227	5131.38
335.455	5136.38
335.684	5052.38
335.912	5003.38
336.14	4943.38
336.369	4980.38
336.597	4963.38
336.825	4949.38
337.053	4889.38
337.281	4829.38
337.51	4788.38
337.738	4761.38
337.966	4713.38
338.194	4677.38
338.422	4594.38
338.65	4509.38
338.878	4481.38
339.106	4559.38
339.334	4501.38
339.562	4510.38
339.79	4409.38
340.018	4383.38
340.246	4432.38
340.474	4448.38
340.702	4421.38
340.93	4412.38
341.158	4428.38
341.386	4364.38
341.614	4452.38
341.842	4347.38
342.07	4296.38
342.298	4341.38
342.526	4201.38
342.754	4292.38
342.981	4344.38
343.209	4424.38
343.437	4673.38
343.665	4915.38
343.893	5179.38
344.12	5145.38
344.348	4957.38
344.576	4780.38
344.804	4716.38
345.031	4635.38
345.259	4633.38
345.487	4420.38
345.714	4410.38
345.942	4249.38
346.17	4276.38
346.397	4245.38
346.625	4216.38
346.853	4184.38
347.08	4143.38
347.308	4180.38
347.535	4320.38
347.763	4384.38
347.99	4252.38
348.218	4283.38
348.445	4280.38
348.673	4232.38
348.9	4157.38
349.128	4109.38
349.355	4037.38
349.583	4112.38
349.81	4108.38
350.037	4082.38
350.265	4088.38
350.492	4067.38
350.72	4079.38
350.947	4071.38
351.174	4249.38
351.402	4215.38
351.629	4165.38
351.856	4139.38
352.083	4209.38
352.311	4224.38
352.538	4280.38
352.765	4216.38
352.992	4132.38
353.22	4145.38
353.447	4069.38
353.674	4015.38
353.901	4008.38
354.128	3944.38
354.355	3992.38
354.583	3960.38
354.81	3988.38
355.037	4019.38
355.264	3959.38
355.491	3893.38
355.718	3995.38
355.945	3946.38
356.172	3976.38
356.399	4024.38
356.626	3919.38
356.853	3927.38
357.08	3871.38
357.307	3962.38
357.534	3951.38
357.761	3991.38
357.988	4032.38
358.215	4012.38
358.441	3968.38
358.668	4013.38
358.895	4047.38
359.122	4067.38
359.349	4146.38
359.576	4259.38
359.802	4524.38
360.029	4621.38
360.256	4635.38
360.483	4465.38
360.709	4260.38
360.936	4236.38
361.163	4228.38
361.39	4230.38
361.616	4231.38
361.843	4162.38
362.07	4205.38
362.296	4216.38
362.523	4142.38
362.749	4121.38
362.976	4123.38
363.203	4088.38
363.429	4049.38
363.656	4167.38
363.882	4021.38
364.109	4004.38
364.335	4034.38
364.562	4080.38
364.788	4003.38
365.015	4095.38
365.241	4055.38
365.468	4061.38
365.694	4099.38
365.92	4104.38
366.147	4022.38
366.373	4051.38
366.599	4027.38
366.826	4014.38
367.052	3988.38
367.278	4056.38
367.505	4031.38
367.731	4128.38
367.957	4073.38
368.184	4106.38
368.41	4129.38
368.636	4259.38
368.862	4296.38
369.089	4175.38
369.315	4176.38
369.541	4159.38
369.767	4138.38
369.993	4200.38
370.219	4242.38
370.445	4149.38
370.672	4255.38
370.898	4192.38
371.124	4288.38
371.35	4364.38
371.576	4297.38
371.802	4274.38
372.028	4259.38
372.254	4295.38
372.48	4325.38
372.706	4444.38
372.932	4550.38
373.158	4435.38
373.384	4379.38
373.61	4356.38
373.835	4431.38
374.061	4346.38
374.287	4425.38
374.513	4476.38
374.739	4609.38
374.965	4711.38
375.191	4727.38
375.416	4697.38
375.642	4498.38
375.868	4562.38
376.094	4433.38
376.319	4394.38
376.545	4355.38
376.771	4335.38
376.997	4407.38
377.222	4315.38
377.448	4358.38
377.674	4279.38
377.899	4306.38
378.125	4304.38
378.35	4237.38
378.576	4253.38
378.802	4270.38
379.027	4293.38
379.253	4246.38
379.478	4252.38
379.704	4307.38
379.929	4355.38
380.155	4323.38
380.38	4334.38
380.606	4350.38
380.831	4291.38
381.057	4398.38
381.282	4369.38
381.507	4370.38
381.733	4411.38
381.958	4405.38
382.184	4459.38
382.409	4547.38
382.634	4582.38
382.86	4615.38
383.085	4601.38
383.31	4681.38
383.535	4762.38
383.761	4840.38
383.986	4879.38
384.211	4963.38
384.436	5011.38
384.662	5061.38
384.887	5166.38
385.112	5114.38
385.337	5240.38
385.562	5254.38
385.787	5249.38
386.013	5332.38
386.238	5327.38
386.463	5359.38
386.688	5270.38
386.913	5221.38
387.138	5188.38
387.363	5211.38
387.588	5156.38
387.813	5169.38
388.038	5173.38
388.263	5187.38
388.488	5178.38
388.713	5180.38
388.938	5176.38
389.163	5137.38
389.387	5140.38
389.612	5069.38
389.837	5033.38
390.062	5085.38
390.287	5113.38
390.512	5113.38
390.736	5197.38
390.961	5281.38
391.186	5348.38
391.411	5495.38
391.636	5584.38
391.86	5815.38
392.085	5872.38
392.31	5695.38
392.534	5576.38
392.759	5459.38
392.984	5373.38
393.208	5425.38
393.433	5321.38
393.658	5336.38
393.882	5348.38
394.107	5436.38
394.331	5454.38
394.556	5452.38
394.78	5504.38
395.005	5483.38
395.229	5514.38
395.454	5717.38
395.678	5802.38
395.903	5864.38
396.127	5890.38
396.352	5727.38
396.576	5499.38
396.801	5470.38
397.025	5515.38
397.249	5650.38
397.474	5825.38
397.698	5817.38
397.922	5991.38
398.147	6157.38
398.371	6167.38
398.595	6345.38
398.82	6608.38
399.044	7117.38
399.268	7927.38
399.492	9057.38
399.717	9601.38
399.941	9326.38
400.165	8731.38
400.389	8153.38
400.613	7300.38
400.837	6871.38
401.062	6726.38
401.286	6586.38
401.51	6494.38
401.734	6514.38
401.958	6612.38
402.182	6713.38
402.406	6819.38
402.63	6925.38
402.854	7023.38
403.078	7099.38
403.302	7277.38
403.526	7302.38
403.75	7319.38
403.974	7466.38
404.198	7311.38
404.422	7504.38
404.645	7345.38
404.869	7340.38
405.093	7423.38
405.317	7445.38
405.541	7498.38
405.765	7267.38
405.988	7203.38
406.212	7490.38
406.436	7633.38
406.66	7807.38
406.883	7776.38
407.107	8319.38
407.331	8860.38
407.555	9350.38
407.778	9099.38
408.002	8343.38
408.226	7914.38
408.449	7805.38
408.673	7705.38
408.896	7927.38
409.12	8026.38
409.344	7540.38
409.567	7096.38
409.791	7131.38
410.014	6972.38
410.238	7018.38
410.461	7043.38
410.685	7048.38
410.908	7169.38
411.132	7373.38
411.355	7436.38
411.578	6978.38
411.802	6762.38
412.025	6842.38
412.249	6809.38
412.472	6772.38
412.695	6600.38
412.919	6507.38
413.142	6478.38
413.365	6309.38
413.589	6467.38
413.812	6417.38
414.035	6291.38
414.258	6320.38
414.482	6405.38
414.705	6431.38
414.928	6372.38
415.151	6372.38
415.374	6405.38
415.597	6335.38
415.821	6240.38
416.044	6269.38
416.267	6248.38
416.49	6181.38
416.713	6175.38
416.936	6316.38
417.159	6304.38
417.382	6339.38
417.605	6348.38
417.828	6529.38
418.051	6570.38
418.274	6572.38
418.497	6357.38
418.72	6551.38
418.943	6529.38
419.166	6910.38
419.389	7321.38
419.611	7118.38
419.834	6909.38
420.057	6841.38
420.28	6639.38
420.503	6336.38
420.726	6444.38
420.948	6711.38
421.171	7184.38
421.394	7055.38
421.617	6501.38
421.839	6543.38
422.062	6668.38
422.285	6852.38
422.507	7545.38
422.73	8088.38
422.953	7399.38
423.175	7024.38
423.398	6977.38
423.621	7113.38
423.843	7349.38
424.066	7265.38
424.288	7143.38
424.511	7377.38
424.733	7907.38
424.956	8441.38
425.178	7885.38
425.401	7990.38
425.623	7888.38
425.846	6867.38
426.068	6694.38
426.291	6723.38
426.513	6629.38
426.735	6849.38
426.958	7284.38
427.18	8079.38
427.402	9211.38
427.625	9217.38
427.847	7673.38
428.069	6760.38
428.292	6421.38
428.514	6159.38
428.736	6099.38
428.958	6023.38
429.181	5798.38
429.403	5804.38
429.625	6116.38
429.847	6449.38
430.069	6940.38
430.292	6531.38
430.514	5881.38
430.736	5862.38
430.958	5777.38
431.18	5732.38
431.402	5670.38
431.624	5735.38
431.846	5752.38
432.068	5757.38
432.29	5890.38
432.512	5711.38
432.734	5798.38
432.956	5796.38
433.178	5888.38
433.4	5821.38
433.622	5768.38
433.844	5865.38
434.066	5820.38
434.287	5949.38
434.509	6131.38
434.731	6336.38
434.953	6559.38
435.175	6691.38
435.397	6762.38
435.618	6712.38
435.84	7132.38
436.062	7912.38
436.284	7854.38
436.505	6652.38
436.727	6349.38
436.949	5964.38
437.17	5916.38
437.392	5893.38
437.614	6055.38
437.835	6446.38
438.057	7431.38
438.278	8269.38
438.5	8052.38
438.721	8866.38
438.943	7795.38
439.165	6504.38
439.386	6315.38
439.608	6337.38
439.829	6449.38
440.05	6749.38
440.272	7129.38
440.493	6486.38
440.715	6233.38
440.936	6141.38
441.158	6211.38
441.379	6344.38
441.6	6613.38
441.822	6781.38
442.043	7360.38
442.264	8213.38
442.486	7857.38
442.707	7029.38
442.928	6753.38
443.149	7042.38
443.371	7268.38
443.592	7751.38
443.813	8877.38
444.034	8735.38
444.255	7607.38
444.476	7462.38
444.698	7675.38
444.919	7650.38
445.14	7408.38
445.361	7291.38
445.582	7516.38
445.803	8047.38
446.024	8786.38
446.245	8434.38
446.466	7594.38
446.687	6599.38
446.908	6232.38
447.129	5883.38
447.35	5678.38
447.571	5684.38
447.792	5618.38
448.013	5739.38
448.234	5972.38
448.455	6584.38
448.675	7905.38
448.896	8416.38
449.117	6843.38
449.338	7086.38
449.559	8399.38
449.779	8715.38
450	6603.38
450.221	5944.38
450.442	5585.38
450.662	5543.38
450.883	5563.38
451.104	5673.38
451.324	5572.38
451.545	5387.38
451.766	5242.38
451.986	5123.38
452.207	5127.38
452.428	5067.38
452.648	5103.38
452.869	5142.38
453.089	5296.38
453.31	5344.38
453.53	5098.38
453.751	5027.38
453.971	5155.38
454.192	5154.38
454.412	4964.38
454.633	4901.38
454.853	4905.38
455.073	5002.38
455.294	5348.38
455.514	6055.38
455.734	5521.38
455.955	4870.38
456.175	4789.38
456.395	4698.38
456.616	4686.38
456.836	4675.38
457.056	4688.38
457.276	4580.38
457.497	4723.38
457.717	4770.38
457.937	4840.38
458.157	4891.38
458.377	4988.38
458.598	5358.38
458.818	6044.38
459.038	6765.38
459.258	6780.38
459.478	6016.38
459.698	5844.38
459.918	5923.38
460.138	6022.38
460.358	6275.38
460.578	6244.38
460.798	6405.38
461.018	6360.38
461.238	6337.38
461.458	6217.38
461.678	6158.38
461.898	6354.38
462.118	6336.38
462.338	6722.38
462.558	6917.38
462.777	7116.38
462.997	7685.38
463.217	8137.38
463.437	8001.38
463.657	7337.38
463.876	7155.38
464.096	7163.38
464.316	7152.38
464.536	7193.38
464.755	6958.38
464.975	6871.38
465.195	7034.38
465.414	7121.38
465.634	6324.38
465.854	5928.38
466.073	5669.38
466.293	5465.38
466.512	5380.38
466.732	5229.38
466.951	5312.38
467.171	5205.38
467.391	5401.38
467.61	5356.38
467.829	5303.38
468.049	5271.38
468.268	5109.38
468.488	4991.38
468.707	5030.38
468.927	5033.38
469.146	4999.38
469.365	5065.38
469.585	5113.38
469.804	5320.38
470.023	5468.38
470.243	5378.38
470.462	5482.38
470.681	5663.38
470.901	5566.38
471.12	5368.38
471.339	5311.38
471.558	5346.38
471.777	5216.38
471.997	5098.38
472.216	4976.38
472.435	5083.38
472.654	4938.38
472.873	4954.38
473.092	5020.38
473.311	4923.38
473.53	5026.38
473.749	5162.38
473.968	5716.38
474.187	6655.38
474.406	6352.38
474.625	5342.38
474.844	5033.38
475.063	5056.38
475.282	5040.38
475.501	5127.38
475.72	5183.38
475.939	5160.38
476.158	5255.38
476.377	5216.38
476.596	5175.38
476.814	5416.38
477.033	5445.38
477.252	5475.38
477.471	5636.38
477.69	5697.38
477.908	5800.38
478.127	5973.38
478.346	5988.38
478.564	6115.38
478.783	6260.38
479.002	6351.38
479.22	6385.38
479.439	6388.38
479.658	6516.38
479.876	6600.38
480.095	6919.38
480.313	7272.38
480.532	7095.38
480.751	6908.38
480.969	6806.38
481.188	6699.38
481.406	6413.38
481.624	6347.38
481.843	6013.38
482.061	6049.38
482.28	5973.38
482.498	5948.38
482.717	5903.38
482.935	5917.38
483.153	5838.38
483.372	5881.38
483.59	5873.38
483.808	5912.38
484.027	5854.38
484.245	5981.38
484.463	5971.38
484.681	5980.38
484.9	6092.38
485.118	6219.38
485.336	6242.38
485.554	6290.38
485.772	6307.38
485.99	6298.38
486.209	6332.38
486.427	6318.38
486.645	6384.38
486.863	6443.38
487.081	6451.38
487.299	6388.38
487.517	6410.38
487.735	6327.38
487.953	6300.38
488.171	6355.38
488.389	6320.38
488.607	6352.38
488.825	6322.38
489.043	6320.38
489.261	6481.38
489.479	6423.38
489.696	6514.38
489.914	6537.38
490.132	6577.38
490.35	6748.38
490.568	6682.38
490.786	6804.38
491.003	6942.38
491.221	7049.38
491.439	7069.38
491.657	7180.38
491.874	7218.38
492.092	7245.38
492.31	7224.38
492.527	7279.38
492.745	7305.38
492.963	7335.38
493.18	7428.38
493.398	7491.38
493.615	7618.38
493.833	7603.38
494.05	7637.38
494.268	7601.38
494.485	7627.38
494.703	7541.38
494.92	7544.38
495.138	7539.38
495.355	7570.38
495.573	7584.38
495.79	7600.38
496.008	7645.38
496.225	7631.38
496.442	7687.38
496.66	7699.38
496.877	7776.38
497.094	7751.38
497.312	7982.38
497.529	8171.38
497.746	8405.38
497.963	8497.38
498.181	9023.38
498.398	9258.38
498.615	9697.38
498.832	10041.38
499.049	10588.38
499.267	11194.38
499.484	11833.38
499.701	12672.38
499.918	13319.38
500.135	14199.38
500.352	14851.38
500.569	14893.38
500.786	14799.38
501.003	14404.38
501.22	13761.38
501.437	12916.38
501.654	12197.38
501.871	11687.38
502.088	10850.38
502.305	10254.38
502.522	9807.38
502.739	9511.38
502.956	8865.38
503.172	8688.38
503.389	8491.38
503.606	8239.38
503.823	8201.38
504.04	8208.38
504.256	8295.38
504.473	8311.38
504.69	8406.38
504.907	8289.38
505.123	7811.38
505.34	7509.38
505.557	7374.38
505.773	7328.38
505.99	7260.38
506.207	7163.38
506.423	7140.38
506.64	7033.38
506.856	6874.38
507.073	6812.38
507.289	6834.38
507.506	6744.38
507.722	6793.38
507.939	6843.38
508.155	6680.38
508.372	6571.38
508.588	6455.38
508.805	6509.38
509.021	6563.38
509.238	6745.38
509.454	6763.38
509.67	6591.38
509.887	6493.38
510.103	6426.38
510.319	6618.38
510.536	7776.38
510.752	11385.38
510.968	7656.38
511.184	6249.38
511.401	6148.38
511.617	6042.38
511.833	5995.38
512.049	5848.38
512.265	5959.38
512.481	6002.38
512.698	5901.38
512.914	5834.38
513.13	5898.38
513.346	5865.38
513.562	5886.38
513.778	6035.38
513.994	6026.38
514.21	6107.38
514.426	6260.38
514.642	6563.38
514.858	6793.38
515.074	7124.38
515.29	8515.38
515.506	11191.38
515.721	8160.38
515.937	6840.38
516.153	6752.38
516.369	6695.38
516.585	6836.38
516.801	6829.38
517.016	6997.38
517.232	7306.38
517.448	7383.38
517.664	7628.38
517.879	7642.38
518.095	7540.38
518.311	7384.38
518.527	7127.38
518.742	6995.38
518.958	6718.38
519.173	6500.38
519.389	6381.38
519.605	6184.38
519.82	6239.38
520.036	6265.38
520.251	6442.38
520.467	6487.38
520.682	6516.38
520.898	6442.38
521.113	6544.38
521.329	6764.38
521.544	7415.38
521.76	9293.38
521.975	13757.38
522.19	10999.38
522.406	7122.38
522.621	6159.38
522.836	5788.38
523.052	5645.38
523.267	5452.38
523.482	5273.38
523.698	5270.38
523.913	5282.38
524.128	5287.38
524.343	5130.38
524.559	5044.38
524.774	4973.38
524.989	5050.38
525.204	5029.38
525.419	5054.38
525.634	4999.38
525.849	4948.38
526.064	4851.38
526.28	4866.38
526.495	4855.38
526.71	4771.38
526.925	4793.38
527.14	4857.38
527.355	4783.38
527.57	4778.38
527.785	4784.38
527.999	4813.38
528.214	4751.38
528.429	4755.38
528.644	4820.38
528.859	4737.38
529.074	4816.38
529.289	4981.38
529.503	5503.38
529.718	5210.38
529.933	4997.38
530.148	4925.38
530.363	4803.38
530.577	4684.38
530.792	4775.38
531.007	4708.38
531.221	4718.38
531.436	4702.38
531.651	4669.38
531.865	4735.38
532.08	4746.38
532.295	4768.38
532.509	4671.38
532.724	4676.38
532.938	4720.38
533.153	4687.38
533.367	4659.38
533.582	4684.38
533.796	4670.38
534.011	4685.38
534.225	4621.38
534.44	4485.38
534.654	4553.38
534.868	4569.38
535.083	4560.38
535.297	4553.38
535.511	4610.38
535.726	4605.38
535.94	4661.38
536.154	4466.38
536.369	4442.38
536.583	4396.38
536.797	4324.38
537.011	4383.38
537.225	4375.38
537.44	4399.38
537.654	4348.38
537.868	4430.38
538.082	4387.38
538.296	4413.38
538.51	4396.38
538.724	4403.38
538.938	4389.38
539.153	4308.38
539.367	4429.38
539.581	4303.38
539.795	4235.38
540.009	4244.38
540.222	4315.38
540.436	4300.38
540.65	4326.38
540.864	4352.38
541.078	4379.38
541.292	4355.38
541.506	4293.38
541.72	4173.38
541.934	4065.38
542.147	4167.38
542.361	4065.38
542.575	4087.38
542.789	4104.38
543.002	4185.38
543.216	4228.38
543.43	4214.38
543.644	4229.38
543.857	4112.38
544.071	4181.38
544.285	4206.38
544.498	4148.38
544.712	4183.38
544.925	4204.38
545.139	4181.38
545.352	4233.38
545.566	4223.38
545.779	4202.38
545.993	4226.38
546.206	4216.38
546.42	4168.38
546.633	4163.38
546.847	4140.38
547.06	4033.38
547.274	4088.38
547.487	4120.38
547.7	4110.38
547.914	4139.38
548.127	4140.38
548.34	4153.38
548.554	4126.38
548.767	4175.38
548.98	4103.38
549.193	4141.38
549.407	4198.38
549.62	4208.38
549.833	4261.38
550.046	4163.38
550.259	4123.38
550.473	4096.38
550.686	4076.38
550.899	4023.38
551.112	4038.38
551.325	4002.38
551.538	4045.38
551.751	4019.38
551.964	4041.38
552.177	4090.38
552.39	4174.38
552.603	4263.38
552.816	4327.38
553.029	4416.38
553.242	4482.38
553.455	4547.38
553.667	4611.38
553.88	4592.38
554.093	4420.38
554.306	4354.38
554.519	4247.38
554.732	4173.38
554.944	4080.38
555.157	4039.38
555.37	3903.38
555.583	3828.38
555.795	3781.38
556.008	3711.38
556.221	3654.38
556.433	3630.38
556.646	3530.38
556.859	3516.38
557.071	3523.38
557.284	3514.38
557.496	3495.38
557.709	3452.38
557.921	3416.38
558.134	3422.38
558.346	3414.38
558.559	3424.38
558.771	3395.38
558.984	3348.38
559.196	3333.38
559.409	3304.38
559.621	3323.38
559.833	3383.38
560.046	3328.38
560.258	3378.38
560.47	3282.38
560.683	3280.38
560.895	3341.38
561.107	3264.38
561.32	3291.38
561.532	3323.38
561.744	3295.38
561.956	3313.38
562.168	3353.38
562.381	3311.38
562.593	3340.38
562.805	3367.38
563.017	3377.38
563.229	3370.38
563.441	3389.38
563.653	3433.38
563.865	3432.38
564.077	3474.38
564.289	3447.38
564.501	3514.38
564.713	3576.38
564.925	3645.38
565.137	3814.38
565.349	3795.38
565.561	3964.38
565.773	4062.38
565.985	4227.38
566.197	4450.38
566.408	4797.38
566.62	5109.38
566.832	5345.38
567.044	5337.38
567.255	5437.38
567.467	5643.38
567.679	5901.38
567.891	6148.38
568.102	6227.38
568.314	5792.38
568.526	5330.38
568.737	4892.38
568.949	4507.38
569.161	4153.38
569.372	3946.38
569.584	3797.38
569.795	3703.38
570.007	3575.38
570.218	3759.38
570.43	3581.38
570.641	3466.38
570.853	3428.38
571.064	3396.38
571.276	3387.38
571.487	3219.38
571.698	3152.38
571.91	3116.38
572.121	2996.38
572.333	2934.38
572.544	2908.38
572.755	2840.38
572.966	2749.38
573.178	2719.38
573.389	2811.38
573.6	2711.38
573.811	2740.38
574.023	2683.38
574.234	2637.38
574.445	2669.38
574.656	2709.38
574.867	2652.38
575.078	2641.38
575.289	2571.38
575.501	2601.38
575.712	2526.38
575.923	2559.38
576.134	2568.38
576.345	2535.38
576.556	2543.38
576.767	2569.38
576.978	2528.38
577.188	2476.38
577.399	2472.38
577.61	2432.38
577.821	2403.38
578.032	2463.38
578.243	2737.38
578.454	3895.38
578.665	2695.38
578.875	2384.38
579.086	2341.38
579.297	2336.38
579.508	2302.38
579.718	2250.38
579.929	2281.38
580.14	2225.38
580.35	2228.38
580.561	2206.38
580.772	2197.38
580.982	2233.38
581.193	2184.38
581.403	2250.38
581.614	2215.38
581.825	2196.38
582.035	2162.38
582.246	2190.38
582.456	2201.38
582.667	2175.38
582.877	2135.38
583.087	2115.38
583.298	2133.38
583.508	2096.38
583.719	2157.38
583.929	2139.38
584.139	2111.38
584.35	2070.38
584.56	2123.38
584.77	2082.38
584.981	2067.38
585.191	2079.38
585.401	2065.38
585.611	2079.38
585.821	2067.38
586.032	2055.38
586.242	2055.38
586.452	2040.38
586.662	2029.38
586.872	1996.38
587.082	2066.38
587.292	2043.38
587.502	2015.38
587.713	2067.38
587.923	2062.38
588.133	2021.38
588.343	2016.38
588.553	2029.38
588.762	1994.38
588.972	2063.38
589.182	2070.38
589.392	2018.38
589.602	2036.38
589.812	2018.38
590.022	2069.38
590.232	2048.38
590.441	2061.38
590.651	2054.38
590.861	2053.38
591.071	2133.38
591.281	2142.38
591.49	2138.38
591.7	2138.38
591.91	2193.38
592.119	2241.38
592.329	2301.38
592.539	2414.38
592.748	2439.38
592.958	2466.38
593.167	2515.38
593.377	2589.38
593.587	2610.38
593.796	2607.38
594.006	2631.38
594.215	2616.38
594.424	2605.38
594.634	2543.38
594.843	2477.38
595.053	2408.38
595.262	2282.38
595.472	2194.38
595.681	2110.38
595.89	2048.38
596.1	2046.38
596.309	1989.38
596.518	1943.38
596.727	1915.38
596.937	1914.38
597.146	1898.38
597.355	1863.38
597.564	1836.38
597.774	1784.38
597.983	1772.38
598.192	1781.38
598.401	1791.38
598.61	1725.38
598.819	1719.38
599.028	1700.38
599.237	1711.38
599.446	1691.38
599.655	1661.38
599.864	1685.38
600.073	1690.38
600.282	1646.38
600.491	1646.38
600.7	1649.38
600.909	1619.38
601.118	1620.38
601.327	1612.38
601.536	1603.38
601.745	1603.38
601.953	1613.38
602.162	1591.38
602.371	1593.38
602.58	1566.38
602.789	1559.38
602.997	1567.38
603.206	1556.38
603.415	1556.38
603.623	1558.38
603.832	1511.38
604.041	1533.38
604.249	1509.38
604.458	1488.38
604.666	1503.38
604.875	1511.38
605.084	1517.38
605.292	1488.38
605.501	1493.38
605.709	1465.38
605.918	1456.38
606.126	1467.38
606.334	1493.38
606.543	1502.38
606.751	1452.38
606.96	1465.38
607.168	1460.38
607.376	1391.38
607.585	1475.38
607.793	1452.38
608.001	1453.38
608.21	1399.38
608.418	1461.38
608.626	1424.38
608.834	1449.38
609.043	1418.38
609.251	1406.38
609.459	1407.38
609.667	1385.38
609.875	1374.38
610.083	1414.38
610.291	1395.38
610.499	1377.38
610.707	1396.38
610.916	1430.38
611.124	1364.38
611.332	1418.38
611.54	1392.38
611.748	1349.38
611.955	1392.38
612.163	1379.38
612.371	1372.38
612.579	1371.38
612.787	1359.38
612.995	1352.38
613.203	1322.38
613.411	1346.38
613.618	1377.38
613.826	1359.38
614.034	1333.38
614.242	1331.38
614.449	1345.38
614.657	1353.38
614.865	1346.38
615.072	1380.38
615.28	1377.38
615.488	1357.38
615.695	1371.38
615.903	1379.38
616.111	1365.38
616.318	1416.38
616.526	1407.38
616.733	1421.38
616.941	1412.38
617.148	1400.38
617.356	1417.38
617.563	1364.38
617.771	1379.38
617.978	1355.38
618.185	1353.38
618.393	1369.38
618.6	1348.38
618.807	1359.38
619.015	1345.38
619.222	1339.38
619.429	1316.38
619.637	1320.38
619.844	1364.38
620.051	1325.38
620.258	1295.38
620.466	1244.38
620.673	1208.38
620.88	1232.38
621.087	1237.38
621.294	1242.38
621.501	1243.38
621.708	1266.38
621.915	1247.38
622.122	1284.38
622.329	1245.38
622.536	1209.38
622.743	1240.38
622.95	1204.38
623.157	1251.38
623.364	1215.38
623.571	1201.38
623.778	1216.38
623.985	1197.38
624.192	1184.38
624.399	1188.38
624.606	1136.38
624.812	1144.38
625.019	1178.38
625.226	1173.38
625.433	1154.38
625.639	1116.38
625.846	1144.38
626.053	1107.38
626.259	1138.38
626.466	1124.38
626.673	1148.38
626.879	1119.38
627.086	1120.38
627.293	1107.38
627.499	1124.38
627.706	1109.38
627.912	1069.38
628.119	1068.38
628.325	1060.38
628.532	1059.38
628.738	1091.38
628.945	1070.38
629.151	1000.38
629.357	1056.38
629.564	1035.38
629.77	997.38
629.976	1029.38
630.183	1039.38
630.389	990.38
630.595	990.38
630.802	968.38
631.008	1017.38
631.214	1006.38
631.42	1003.38
631.627	987.38
631.833	974.38
632.039	954.38
632.245	963.38
632.451	964.38
632.657	985.38
632.863	895.38
633.069	933.38
633.275	919.38
633.481	953.38
633.688	916.38
633.893	924.38
634.099	925.38
634.305	922.38
634.511	878.38
634.717	881.38
634.923	879.38
635.129	891.38
635.335	903.38
635.541	868.38
635.747	873.38
635.952	862.38
636.158	867.38
636.364	872.38
636.57	883.38
636.775	886.38
636.981	859.38
637.187	868.38
637.392	862.38
637.598	846.38
637.804	875.38
638.009	883.38
638.215	853.38
638.421	813.38
638.626	848.38
638.832	839.38
639.037	823.38
639.243	833.38
639.448	812.38
639.654	805.38
639.859	823.38
640.065	799.38
640.27	798.38
640.475	816.38
640.681	822.38
640.886	810.38
641.091	805.38
641.297	766.38
641.502	771.38
641.707	795.38
641.913	799.38
642.118	746.38
642.323	756.38
642.528	761.38
642.733	739.38
642.939	747.38
643.144	740.38
643.349	748.38
643.554	766.38
643.759	716.38
643.964	714.38
644.169	712.38
644.374	742.38
644.579	734.38
644.784	733.38
644.989	743.38
645.194	755.38
645.399	771.38
645.604	748.38
645.809	747.38
646.014	759.38
646.219	744.38
646.423	745.38
646.628	733.38
646.833	737.38
647.038	756.38
647.243	791.38
647.447	768.38
647.652	796.38
647.857	772.38
648.062	783.38
648.266	795.38
648.471	788.38
648.676	855.38
648.88	814.38
649.085	801.38
649.289	799.38
649.494	863.38
649.698	1007.38
649.903	851.38
650.107	743.38
650.312	705.38
650.516	691.38
650.721	679.38
650.925	637.38
651.13	646.38
651.334	620.38
651.539	607.38
651.743	603.38
651.947	589.38
652.152	581.38
652.356	556.38
652.56	560.38
652.764	542.38
652.969	575.38
653.173	527.38
653.377	508.38
653.581	519.38
653.785	511.38
653.99	513.38
654.194	498.38
654.398	480.38
654.602	459.38
654.806	504.38
655.01	553.38
655.214	501.38
655.418	469.38
655.622	451.38
655.826	464.38
656.03	466.38
656.234	480.38
656.438	484.38
656.642	469.38
656.846	460.38
657.049	414.38
657.253	370.38
657.457	350.38
657.661	338.38
657.865	319.38
658.068	306.38
658.272	280.38
658.476	265.38
658.68	257.38
658.883	243.38
659.087	231.38
659.291	213.38
659.494	213.38
659.698	208.38
659.901	206.38
660.105	188.38
660.309	185.38
660.512	173.38
660.716	170.38
660.919	165.38
661.123	173.38
661.326	139.38
661.53	130.38
661.733	146.38
661.936	141.38
662.14	136.38
662.343	112.38
662.546	111.38
662.75	122.38
662.953	128.38
663.156	103.38
663.36	87.38
663.563	92.38
663.766	91.38
663.969	101.38
664.173	104.38
664.376	89.38
664.579	82.38
664.782	78.38
664.985	71.38
665.188	71.38
665.391	68.38
665.594	83.38
665.797	96.38
666	81.38
666.203	77.38
666.406	78.38
666.609	94.38
666.812	83.38
667.015	71.38
667.218	83.38
667.421	84.38
667.624	75.38
667.827	74.38
668.03	94.38
668.232	65.38
668.435	80.38
668.638	73.38
668.841	91.38
669.043	92.38
669.246	79.38
669.449	80.38
669.651	84.38
669.854	89.38
670.057	73.38
670.259	83.38
670.462	77.38
670.665	92.38
670.867	88.38
671.07	87.38
671.272	89.38
671.475	87.38
671.677	74.38
671.88	84.38
672.082	79.38
672.284	85.38
672.487	77.38
672.689	78.38
672.892	88.38
