Data from Uncirc_2007_H10_HRD10591_00048.txt Node
Date: Wed Jan 03 10:20:52 EST 2024
User: Yrep
Spectrometer: HR+D1059
Trigger mode: 1
Integration Time (sec): 1.000000E-1
Scans to average: 1
Electric dark correction enabled: true
Nonlinearity correction enabled: false
Boxcar width: 0
XAxis mode: Wavelengths
Number of Pixels in Spectrum: 2048
>>>>>Begin Spectral Data<<<<<
223.165	-14.62
223.4	-14.62
223.635	-14.62
223.869	-21.62
224.104	-16.62
224.338	-14.62
224.573	-15.62
224.808	2.38
225.042	-5.62
225.277	-2.62
225.511	0.38
225.746	7.38
225.98	2.38
226.215	10.38
226.449	16.38
226.683	12.38
226.918	13.38
227.152	26.38
227.387	21.38
227.621	40.38
227.856	61.38
228.09	54.38
228.324	50.38
228.559	46.38
228.793	65.38
229.027	70.38
229.262	73.38
229.496	71.38
229.73	91.38
229.964	74.38
230.199	76.38
230.433	79.38
230.667	73.38
230.901	85.38
231.136	77.38
231.37	81.38
231.604	83.38
231.838	91.38
232.072	61.38
232.306	79.38
232.541	75.38
232.775	74.38
233.009	80.38
233.243	86.38
233.477	67.38
233.711	94.38
233.945	88.38
234.179	91.38
234.413	76.38
234.647	68.38
234.881	81.38
235.115	64.38
235.349	81.38
235.583	80.38
235.817	69.38
236.051	91.38
236.285	75.38
236.519	75.38
236.753	79.38
236.987	82.38
237.221	84.38
237.455	80.38
237.689	76.38
237.922	73.38
238.156	81.38
238.39	69.38
238.624	90.38
238.858	67.38
239.091	88.38
239.325	76.38
239.559	70.38
239.793	62.38
240.027	82.38
240.26	67.38
240.494	78.38
240.728	78.38
240.961	72.38
241.195	67.38
241.429	78.38
241.662	87.38
241.896	83.38
242.13	79.38
242.363	81.38
242.597	73.38
242.83	82.38
243.064	63.38
243.298	75.38
243.531	84.38
243.765	77.38
243.998	78.38
244.232	88.38
244.465	90.38
244.699	90.38
244.932	74.38
245.166	83.38
245.399	61.38
245.633	68.38
245.866	78.38
246.099	68.38
246.333	75.38
246.566	76.38
246.8	90.38
247.033	80.38
247.266	73.38
247.5	82.38
247.733	87.38
247.966	71.38
248.2	85.38
248.433	79.38
248.666	68.38
248.899	82.38
249.133	76.38
249.366	92.38
249.599	102.38
249.832	80.38
250.066	98.38
250.299	77.38
250.532	94.38
250.765	95.38
250.998	76.38
251.231	89.38
251.465	79.38
251.698	79.38
251.931	85.38
252.164	71.38
252.397	78.38
252.63	86.38
252.863	79.38
253.096	62.38
253.329	84.38
253.562	79.38
253.795	72.38
254.028	94.38
254.261	83.38
254.494	93.38
254.727	82.38
254.96	83.38
255.193	75.38
255.426	90.38
255.659	79.38
255.892	77.38
256.124	86.38
256.357	90.38
256.59	79.38
256.823	82.38
257.056	74.38
257.289	85.38
257.521	90.38
257.754	67.38
257.987	75.38
258.22	81.38
258.452	76.38
258.685	97.38
258.918	95.38
259.151	73.38
259.383	80.38
259.616	85.38
259.849	71.38
260.081	77.38
260.314	92.38
260.547	85.38
260.779	80.38
261.012	77.38
261.244	86.38
261.477	98.38
261.71	94.38
261.942	102.38
262.175	124.38
262.407	90.38
262.64	92.38
262.872	85.38
263.105	74.38
263.337	82.38
263.57	84.38
263.802	86.38
264.035	103.38
264.267	91.38
264.499	76.38
264.732	100.38
264.964	91.38
265.197	84.38
265.429	81.38
265.661	76.38
265.894	80.38
266.126	93.38
266.358	90.38
266.591	84.38
266.823	87.38
267.055	76.38
267.287	83.38
267.52	92.38
267.752	96.38
267.984	96.38
268.216	89.38
268.448	96.38
268.681	67.38
268.913	83.38
269.145	77.38
269.377	67.38
269.609	83.38
269.841	93.38
270.073	87.38
270.306	71.38
270.538	80.38
270.77	90.38
271.002	97.38
271.234	103.38
271.466	82.38
271.698	79.38
271.93	89.38
272.162	79.38
272.394	83.38
272.626	89.38
272.858	84.38
273.09	80.38
273.322	85.38
273.553	90.38
273.785	74.38
274.017	80.38
274.249	81.38
274.481	90.38
274.713	86.38
274.945	90.38
275.176	92.38
275.408	90.38
275.64	87.38
275.872	80.38
276.104	84.38
276.335	103.38
276.567	89.38
276.799	104.38
277.031	93.38
277.262	96.38
277.494	82.38
277.726	87.38
277.957	85.38
278.189	80.38
278.421	90.38
278.652	95.38
278.884	79.38
279.115	82.38
279.347	91.38
279.579	95.38
279.81	90.38
280.042	76.38
280.273	83.38
280.505	82.38
280.736	93.38
280.968	85.38
281.199	87.38
281.431	90.38
281.662	97.38
281.894	88.38
282.125	100.38
282.356	108.38
282.588	145.38
282.819	107.38
283.051	89.38
283.282	80.38
283.513	94.38
283.745	89.38
283.976	83.38
284.207	82.38
284.439	73.38
284.67	93.38
284.901	84.38
285.132	73.38
285.364	74.38
285.595	93.38
285.826	80.38
286.057	90.38
286.288	91.38
286.52	84.38
286.751	73.38
286.982	99.38
287.213	75.38
287.444	87.38
287.675	85.38
287.906	81.38
288.138	81.38
288.369	103.38
288.6	79.38
288.831	77.38
289.062	80.38
289.293	94.38
289.524	79.38
289.755	82.38
289.986	84.38
290.217	88.38
290.448	98.38
290.679	85.38
290.91	82.38
291.141	87.38
291.371	91.38
291.602	84.38
291.833	66.38
292.064	92.38
292.295	73.38
292.526	80.38
292.757	83.38
292.987	91.38
293.218	92.38
293.449	93.38
293.68	98.38
293.91	81.38
294.141	94.38
294.372	99.38
294.603	88.38
294.833	84.38
295.064	94.38
295.295	98.38
295.525	104.38
295.756	106.38
295.987	119.38
296.217	159.38
296.448	116.38
296.679	97.38
296.909	88.38
297.14	76.38
297.37	107.38
297.601	95.38
297.831	95.38
298.062	88.38
298.292	93.38
298.523	93.38
298.753	91.38
298.984	83.38
299.214	79.38
299.445	95.38
299.675	96.38
299.905	92.38
300.136	88.38
300.366	90.38
300.597	100.38
300.827	89.38
301.057	108.38
301.288	93.38
301.518	86.38
301.748	85.38
301.979	121.38
302.209	92.38
302.439	84.38
302.669	84.38
302.9	100.38
303.13	80.38
303.36	97.38
303.59	113.38
303.82	89.38
304.051	102.38
304.281	88.38
304.511	91.38
304.741	92.38
304.971	89.38
305.201	97.38
305.431	111.38
305.661	80.38
305.891	98.38
306.121	101.38
306.352	91.38
306.582	112.38
306.812	98.38
307.042	80.38
307.272	87.38
307.502	95.38
307.731	90.38
307.961	106.38
308.191	96.38
308.421	79.38
308.651	101.38
308.881	92.38
309.111	79.38
309.341	98.38
309.571	87.38
309.8	86.38
310.03	105.38
310.26	99.38
310.49	92.38
310.72	107.38
310.949	97.38
311.179	96.38
311.409	94.38
311.639	85.38
311.868	98.38
312.098	99.38
312.328	105.38
312.557	114.38
312.787	95.38
313.017	99.38
313.246	90.38
313.476	91.38
313.706	85.38
313.935	99.38
314.165	97.38
314.394	107.38
314.624	103.38
314.853	94.38
315.083	90.38
315.312	95.38
315.542	74.38
315.771	99.38
316.001	107.38
316.23	85.38
316.46	91.38
316.689	87.38
316.919	87.38
317.148	84.38
317.377	105.38
317.607	113.38
317.836	86.38
318.065	90.38
318.295	90.38
318.524	89.38
318.753	86.38
318.983	112.38
319.212	104.38
319.441	110.38
319.67	120.38
319.9	99.38
320.129	97.38
320.358	100.38
320.587	116.38
320.816	109.38
321.046	100.38
321.275	106.38
321.504	105.38
321.733	86.38
321.962	102.38
322.191	108.38
322.42	103.38
322.649	105.38
322.878	113.38
323.108	121.38
323.337	139.38
323.566	139.38
323.795	165.38
324.024	219.38
324.253	441.38
324.482	971.38
324.71	1993.38
324.939	2601.38
325.168	929.38
325.397	268.38
325.626	169.38
325.855	145.38
326.084	140.38
326.313	133.38
326.542	158.38
326.77	267.38
326.999	499.38
327.228	1088.38
327.457	1981.38
327.686	1593.38
327.914	426.38
328.143	194.38
328.372	142.38
328.6	120.38
328.829	121.38
329.058	147.38
329.287	140.38
329.515	109.38
329.744	105.38
329.972	101.38
330.201	105.38
330.43	116.38
330.658	127.38
330.887	139.38
331.115	121.38
331.344	107.38
331.572	103.38
331.801	97.38
332.03	105.38
332.258	88.38
332.486	92.38
332.715	92.38
332.943	97.38
333.172	104.38
333.4	103.38
333.629	105.38
333.857	114.38
334.085	109.38
334.314	96.38
334.542	95.38
334.771	87.38
334.999	93.38
335.227	93.38
335.455	89.38
335.684	108.38
335.912	92.38
336.14	97.38
336.369	106.38
336.597	99.38
336.825	106.38
337.053	87.38
337.281	96.38
337.51	73.38
337.738	93.38
337.966	98.38
338.194	100.38
338.422	103.38
338.65	84.38
338.878	92.38
339.106	85.38
339.334	89.38
339.562	94.38
339.79	100.38
340.018	92.38
340.246	98.38
340.474	106.38
340.702	82.38
340.93	79.38
341.158	95.38
341.386	103.38
341.614	94.38
341.842	99.38
342.07	105.38
342.298	89.38
342.526	95.38
342.754	84.38
342.981	84.38
343.209	98.38
343.437	83.38
343.665	88.38
343.893	91.38
344.12	99.38
344.348	96.38
344.576	78.38
344.804	91.38
345.031	97.38
345.259	103.38
345.487	95.38
345.714	96.38
345.942	94.38
346.17	89.38
346.397	86.38
346.625	91.38
346.853	91.38
347.08	105.38
347.308	93.38
347.535	101.38
347.763	102.38
347.99	96.38
348.218	101.38
348.445	100.38
348.673	95.38
348.9	100.38
349.128	97.38
349.355	100.38
349.583	112.38
349.81	98.38
350.037	83.38
350.265	105.38
350.492	82.38
350.72	91.38
350.947	119.38
351.174	98.38
351.402	102.38
351.629	114.38
351.856	101.38
352.083	98.38
352.311	109.38
352.538	114.38
352.765	106.38
352.992	117.38
353.22	112.38
353.447	113.38
353.674	107.38
353.901	94.38
354.128	92.38
354.355	112.38
354.583	96.38
354.81	95.38
355.037	89.38
355.264	97.38
355.491	98.38
355.718	98.38
355.945	92.38
356.172	98.38
356.399	87.38
356.626	100.38
356.853	92.38
357.08	96.38
357.307	97.38
357.534	90.38
357.761	92.38
357.988	97.38
358.215	93.38
358.441	99.38
358.668	88.38
358.895	93.38
359.122	95.38
359.349	103.38
359.576	90.38
359.802	108.38
360.029	112.38
360.256	105.38
360.483	114.38
360.709	78.38
360.936	108.38
361.163	95.38
361.39	88.38
361.616	97.38
361.843	90.38
362.07	90.38
362.296	91.38
362.523	100.38
362.749	93.38
362.976	88.38
363.203	92.38
363.429	95.38
363.656	91.38
363.882	101.38
364.109	93.38
364.335	91.38
364.562	86.38
364.788	90.38
365.015	91.38
365.241	106.38
365.468	108.38
365.694	116.38
365.92	101.38
366.147	90.38
366.373	86.38
366.599	87.38
366.826	103.38
367.052	96.38
367.278	100.38
367.505	104.38
367.731	98.38
367.957	82.38
368.184	81.38
368.41	87.38
368.636	100.38
368.862	125.38
369.089	110.38
369.315	100.38
369.541	93.38
369.767	97.38
369.993	101.38
370.219	79.38
370.445	96.38
370.672	91.38
370.898	103.38
371.124	84.38
371.35	91.38
371.576	88.38
371.802	92.38
372.028	92.38
372.254	97.38
372.48	91.38
372.706	77.38
372.932	79.38
373.158	94.38
373.384	92.38
373.61	84.38
373.835	94.38
374.061	70.38
374.287	86.38
374.513	80.38
374.739	93.38
374.965	105.38
375.191	96.38
375.416	84.38
375.642	88.38
375.868	96.38
376.094	100.38
376.319	107.38
376.545	82.38
376.771	83.38
376.997	89.38
377.222	90.38
377.448	99.38
377.674	96.38
377.899	89.38
378.125	96.38
378.35	75.38
378.576	87.38
378.802	88.38
379.027	92.38
379.253	104.38
379.478	92.38
379.704	90.38
379.929	89.38
380.155	84.38
380.38	87.38
380.606	102.38
380.831	101.38
381.057	89.38
381.282	102.38
381.507	95.38
381.733	88.38
381.958	96.38
382.184	103.38
382.409	98.38
382.634	100.38
382.86	110.38
383.085	103.38
383.31	105.38
383.535	111.38
383.761	105.38
383.986	101.38
384.211	100.38
384.436	105.38
384.662	83.38
384.887	90.38
385.112	108.38
385.337	94.38
385.562	101.38
385.787	108.38
386.013	105.38
386.238	118.38
386.463	104.38
386.688	112.38
386.913	94.38
387.138	89.38
387.363	90.38
387.588	101.38
387.813	96.38
388.038	92.38
388.263	97.38
388.488	104.38
388.713	93.38
388.938	90.38
389.163	89.38
389.387	100.38
389.612	102.38
389.837	104.38
390.062	90.38
390.287	98.38
390.512	88.38
390.736	91.38
390.961	80.38
391.186	88.38
391.411	100.38
391.636	76.38
391.86	63.38
392.085	87.38
392.31	83.38
392.534	84.38
392.759	97.38
392.984	86.38
393.208	87.38
393.433	75.38
393.658	87.38
393.882	89.38
394.107	85.38
394.331	102.38
394.556	93.38
394.78	77.38
395.005	81.38
395.229	82.38
395.454	89.38
395.678	87.38
395.903	90.38
396.127	82.38
396.352	83.38
396.576	83.38
396.801	78.38
397.025	77.38
397.249	98.38
397.474	83.38
397.698	93.38
397.922	96.38
398.147	91.38
398.371	91.38
398.595	94.38
398.82	85.38
399.044	87.38
399.268	81.38
399.492	78.38
399.717	90.38
399.941	87.38
400.165	94.38
400.389	103.38
400.613	85.38
400.837	89.38
401.062	98.38
401.286	75.38
401.51	84.38
401.734	88.38
401.958	83.38
402.182	139.38
402.406	169.38
402.63	129.38
402.854	99.38
403.078	85.38
403.302	78.38
403.526	93.38
403.75	87.38
403.974	79.38
404.198	93.38
404.422	84.38
404.645	98.38
404.869	99.38
405.093	92.38
405.317	88.38
405.541	97.38
405.765	87.38
405.988	98.38
406.212	171.38
406.436	259.38
406.66	150.38
406.883	108.38
407.107	99.38
407.331	100.38
407.555	106.38
407.778	99.38
408.002	75.38
408.226	113.38
408.449	101.38
408.673	104.38
408.896	109.38
409.12	101.38
409.344	85.38
409.567	82.38
409.791	98.38
410.014	90.38
410.238	91.38
410.461	98.38
410.685	105.38
410.908	103.38
411.132	104.38
411.355	97.38
411.578	81.38
411.802	89.38
412.025	90.38
412.249	97.38
412.472	87.38
412.695	78.38
412.919	85.38
413.142	76.38
413.365	77.38
413.589	89.38
413.812	82.38
414.035	99.38
414.258	92.38
414.482	81.38
414.705	84.38
414.928	86.38
415.151	93.38
415.374	90.38
415.597	84.38
415.821	81.38
416.044	71.38
416.267	90.38
416.49	84.38
416.713	101.38
416.936	110.38
417.159	89.38
417.382	82.38
417.605	86.38
417.828	94.38
418.051	99.38
418.274	100.38
418.497	95.38
418.72	78.38
418.943	82.38
419.166	89.38
419.389	77.38
419.611	86.38
419.834	94.38
420.057	86.38
420.28	95.38
420.503	92.38
420.726	67.38
420.948	80.38
421.171	93.38
421.394	88.38
421.617	99.38
421.839	99.38
422.062	93.38
422.285	87.38
422.507	98.38
422.73	97.38
422.953	80.38
423.175	81.38
423.398	83.38
423.621	86.38
423.843	99.38
424.066	75.38
424.288	95.38
424.511	94.38
424.733	93.38
424.956	113.38
425.178	86.38
425.401	99.38
425.623	104.38
425.846	99.38
426.068	102.38
426.291	95.38
426.513	104.38
426.735	96.38
426.958	95.38
427.18	111.38
427.402	132.38
427.625	179.38
427.847	122.38
428.069	113.38
428.292	91.38
428.514	72.38
428.736	77.38
428.958	81.38
429.181	84.38
429.403	103.38
429.625	81.38
429.847	75.38
430.069	96.38
430.292	96.38
430.514	69.38
430.736	108.38
430.958	87.38
431.18	80.38
431.402	89.38
431.624	90.38
431.846	81.38
432.068	83.38
432.29	72.38
432.512	89.38
432.734	85.38
432.956	78.38
433.178	96.38
433.4	102.38
433.622	82.38
433.844	83.38
434.066	93.38
434.287	87.38
434.509	94.38
434.731	88.38
434.953	87.38
435.175	99.38
435.397	90.38
435.618	83.38
435.84	112.38
436.062	116.38
436.284	101.38
436.505	100.38
436.727	97.38
436.949	109.38
437.17	102.38
437.392	92.38
437.614	89.38
437.835	94.38
438.057	130.38
438.278	113.38
438.5	99.38
438.721	106.38
438.943	104.38
439.165	85.38
439.386	82.38
439.608	85.38
439.829	84.38
440.05	119.38
440.272	127.38
440.493	91.38
440.715	88.38
440.936	103.38
441.158	96.38
441.379	90.38
441.6	95.38
441.822	94.38
442.043	107.38
442.264	110.38
442.486	104.38
442.707	101.38
442.928	113.38
443.149	132.38
443.371	149.38
443.592	112.38
443.813	104.38
444.034	100.38
444.255	101.38
444.476	90.38
444.698	85.38
444.919	83.38
445.14	132.38
445.361	121.38
445.582	125.38
445.803	145.38
446.024	144.38
446.245	139.38
446.466	111.38
446.687	84.38
446.908	85.38
447.129	89.38
447.35	88.38
447.571	85.38
447.792	95.38
448.013	101.38
448.234	116.38
448.455	113.38
448.675	116.38
448.896	126.38
449.117	108.38
449.338	105.38
449.559	126.38
449.779	136.38
450	108.38
450.221	94.38
450.442	83.38
450.662	93.38
450.883	105.38
451.104	109.38
451.324	95.38
451.545	80.38
451.766	94.38
451.986	88.38
452.207	80.38
452.428	89.38
452.648	108.38
452.869	109.38
453.089	111.38
453.31	112.38
453.53	99.38
453.751	101.38
453.971	105.38
454.192	111.38
454.412	86.38
454.633	88.38
454.853	79.38
455.073	89.38
455.294	92.38
455.514	103.38
455.734	105.38
455.955	91.38
456.175	80.38
456.395	83.38
456.616	91.38
456.836	88.38
457.056	88.38
457.276	90.38
457.497	80.38
457.717	84.38
457.937	82.38
458.157	89.38
458.377	80.38
458.598	105.38
458.818	148.38
459.038	172.38
459.258	115.38
459.478	94.38
459.698	91.38
459.918	90.38
460.138	75.38
460.358	73.38
460.578	95.38
460.798	84.38
461.018	102.38
461.238	84.38
461.458	78.38
461.678	76.38
461.898	82.38
462.118	101.38
462.338	68.38
462.558	85.38
462.777	77.38
462.997	83.38
463.217	81.38
463.437	94.38
463.657	80.38
463.876	90.38
464.096	73.38
464.316	91.38
464.536	88.38
464.755	95.38
464.975	111.38
465.195	165.38
465.414	168.38
465.634	89.38
465.854	102.38
466.073	81.38
466.293	73.38
466.512	81.38
466.732	84.38
466.951	96.38
467.171	89.38
467.391	98.38
467.61	106.38
467.829	90.38
468.049	87.38
468.268	76.38
468.488	77.38
468.707	83.38
468.927	99.38
469.146	90.38
469.365	84.38
469.585	89.38
469.804	95.38
470.023	95.38
470.243	90.38
470.462	92.38
470.681	109.38
470.901	108.38
471.12	92.38
471.339	79.38
471.558	97.38
471.777	86.38
471.997	92.38
472.216	75.38
472.435	90.38
472.654	92.38
472.873	86.38
473.092	97.38
473.311	88.38
473.53	82.38
473.749	85.38
473.968	92.38
474.187	108.38
474.406	98.38
474.625	104.38
474.844	92.38
475.063	84.38
475.282	91.38
475.501	95.38
475.72	88.38
475.939	90.38
476.158	92.38
476.377	92.38
476.596	95.38
476.814	85.38
477.033	91.38
477.252	93.38
477.471	80.38
477.69	80.38
477.908	85.38
478.127	104.38
478.346	84.38
478.564	91.38
478.783	103.38
479.002	91.38
479.22	93.38
479.439	88.38
479.658	100.38
479.876	90.38
480.095	87.38
480.313	90.38
480.532	92.38
480.751	112.38
480.969	91.38
481.188	80.38
481.406	88.38
481.624	93.38
481.843	95.38
482.061	83.38
482.28	92.38
482.498	71.38
482.717	87.38
482.935	97.38
483.153	84.38
483.372	100.38
483.59	75.38
483.808	86.38
484.027	89.38
484.245	92.38
484.463	95.38
484.681	97.38
484.9	83.38
485.118	98.38
485.336	103.38
485.554	96.38
485.772	93.38
485.99	113.38
486.209	103.38
486.427	94.38
486.645	113.38
486.863	123.38
487.081	100.38
487.299	99.38
487.517	89.38
487.735	91.38
487.953	87.38
488.171	88.38
488.389	91.38
488.607	93.38
488.825	89.38
489.043	90.38
489.261	90.38
489.479	92.38
489.696	88.38
489.914	96.38
490.132	93.38
490.35	100.38
490.568	88.38
490.786	83.38
491.003	80.38
491.221	92.38
491.439	97.38
491.657	106.38
491.874	83.38
492.092	91.38
492.31	86.38
492.527	98.38
492.745	92.38
492.963	89.38
493.18	90.38
493.398	97.38
493.615	100.38
493.833	103.38
494.05	99.38
494.268	97.38
494.485	97.38
494.703	85.38
494.92	89.38
495.138	89.38
495.355	101.38
495.573	107.38
495.79	104.38
496.008	104.38
496.225	94.38
496.442	63.38
496.66	97.38
496.877	85.38
497.094	96.38
497.312	93.38
497.529	95.38
497.746	98.38
497.963	85.38
498.181	90.38
498.398	95.38
498.615	129.38
498.832	104.38
499.049	102.38
499.267	104.38
499.484	101.38
499.701	93.38
499.918	96.38
500.135	87.38
500.352	94.38
500.569	87.38
500.786	103.38
501.003	93.38
501.22	89.38
501.437	88.38
501.654	77.38
501.871	109.38
502.088	97.38
502.305	98.38
502.522	99.38
502.739	88.38
502.956	84.38
503.172	106.38
503.389	103.38
503.606	111.38
503.823	97.38
504.04	92.38
504.256	91.38
504.473	89.38
504.69	95.38
504.907	95.38
505.123	93.38
505.34	94.38
505.557	105.38
505.773	90.38
505.99	90.38
506.207	84.38
506.423	97.38
506.64	91.38
506.856	101.38
507.073	88.38
507.289	84.38
507.506	95.38
507.722	108.38
507.939	124.38
508.155	99.38
508.372	83.38
508.588	89.38
508.805	94.38
509.021	102.38
509.238	106.38
509.454	103.38
509.67	99.38
509.887	111.38
510.103	142.38
510.319	231.38
510.536	838.38
510.752	2703.38
510.968	736.38
511.184	149.38
511.401	106.38
511.617	104.38
511.833	93.38
512.049	93.38
512.265	84.38
512.481	88.38
512.698	83.38
512.914	107.38
513.13	97.38
513.346	97.38
513.562	96.38
513.778	106.38
513.994	106.38
514.21	93.38
514.426	119.38
514.642	134.38
514.858	123.38
515.074	178.38
515.29	511.38
515.506	1708.38
515.721	648.38
515.937	172.38
516.153	108.38
516.369	90.38
516.585	99.38
516.801	99.38
517.016	104.38
517.232	90.38
517.448	96.38
517.664	91.38
517.879	100.38
518.095	100.38
518.311	105.38
518.527	92.38
518.742	96.38
518.958	92.38
519.173	90.38
519.389	81.38
519.605	94.38
519.82	96.38
520.036	109.38
520.251	127.38
520.467	119.38
520.682	104.38
520.898	95.38
521.113	121.38
521.329	144.38
521.544	226.38
521.76	645.38
521.975	2866.38
522.19	1724.38
522.406	347.38
522.621	139.38
522.836	102.38
523.052	102.38
523.267	91.38
523.482	93.38
523.698	100.38
523.913	128.38
524.128	105.38
524.343	91.38
524.559	98.38
524.774	98.38
524.989	94.38
525.204	105.38
525.419	100.38
525.634	82.38
525.849	108.38
526.064	89.38
526.28	97.38
526.495	83.38
526.71	101.38
526.925	100.38
527.14	100.38
527.355	99.38
527.57	100.38
527.785	97.38
527.999	100.38
528.214	87.38
528.429	88.38
528.644	83.38
528.859	103.38
529.074	92.38
529.289	131.38
529.503	191.38
529.718	103.38
529.933	96.38
530.148	96.38
530.363	101.38
530.577	84.38
530.792	101.38
531.007	95.38
531.221	101.38
531.436	79.38
531.651	95.38
531.865	96.38
532.08	94.38
532.295	107.38
532.509	85.38
532.724	98.38
532.938	96.38
533.153	97.38
533.367	91.38
533.582	99.38
533.796	101.38
534.011	95.38
534.225	91.38
534.44	93.38
534.654	99.38
534.868	86.38
535.083	86.38
535.297	85.38
535.511	98.38
535.726	100.38
535.94	89.38
536.154	104.38
536.369	88.38
536.583	89.38
536.797	95.38
537.011	103.38
537.225	99.38
537.44	71.38
537.654	98.38
537.868	84.38
538.082	85.38
538.296	102.38
538.51	98.38
538.724	90.38
538.938	91.38
539.153	104.38
539.367	124.38
539.581	113.38
539.795	90.38
540.009	97.38
540.222	108.38
540.436	100.38
540.65	84.38
540.864	88.38
541.078	89.38
541.292	88.38
541.506	94.38
541.72	85.38
541.934	97.38
542.147	99.38
542.361	104.38
542.575	78.38
542.789	85.38
543.002	97.38
543.216	100.38
543.43	98.38
543.644	88.38
543.857	88.38
544.071	99.38
544.285	92.38
544.498	87.38
544.712	82.38
544.925	98.38
545.139	92.38
545.352	91.38
545.566	102.38
545.779	100.38
545.993	88.38
546.206	99.38
546.42	80.38
546.633	90.38
546.847	92.38
547.06	89.38
547.274	95.38
547.487	89.38
547.7	95.38
547.914	93.38
548.127	95.38
548.34	90.38
548.554	83.38
548.767	90.38
548.98	86.38
549.193	93.38
549.407	85.38
549.62	95.38
549.833	89.38
550.046	78.38
550.259	88.38
550.473	88.38
550.686	94.38
550.899	88.38
551.112	95.38
551.325	96.38
551.538	84.38
551.751	79.38
551.964	96.38
552.177	89.38
552.39	82.38
552.603	98.38
552.816	100.38
553.029	97.38
553.242	111.38
553.455	107.38
553.667	114.38
553.88	98.38
554.093	95.38
554.306	91.38
554.519	91.38
554.732	80.38
554.944	84.38
555.157	96.38
555.37	80.38
555.583	96.38
555.795	90.38
556.008	99.38
556.221	101.38
556.433	104.38
556.646	103.38
556.859	100.38
557.071	88.38
557.284	79.38
557.496	94.38
557.709	84.38
557.921	106.38
558.134	82.38
558.346	88.38
558.559	99.38
558.771	110.38
558.984	83.38
559.196	96.38
559.409	100.38
559.621	84.38
559.833	88.38
560.046	89.38
560.258	92.38
560.47	86.38
560.683	84.38
560.895	80.38
561.107	93.38
561.32	99.38
561.532	87.38
561.744	89.38
561.956	93.38
562.168	88.38
562.381	81.38
562.593	91.38
562.805	99.38
563.017	91.38
563.229	92.38
563.441	79.38
563.653	87.38
563.865	84.38
564.077	82.38
564.289	98.38
564.501	97.38
564.713	103.38
564.925	92.38
565.137	108.38
565.349	77.38
565.561	80.38
565.773	92.38
565.985	79.38
566.197	90.38
566.408	99.38
566.62	92.38
566.832	88.38
567.044	87.38
567.255	98.38
567.467	89.38
567.679	94.38
567.891	97.38
568.102	86.38
568.314	80.38
568.526	102.38
568.737	90.38
568.949	94.38
569.161	85.38
569.372	82.38
569.584	87.38
569.795	105.38
570.007	128.38
570.218	263.38
570.43	131.38
570.641	93.38
570.853	84.38
571.064	100.38
571.276	97.38
571.487	88.38
571.698	81.38
571.91	93.38
572.121	93.38
572.333	91.38
572.544	107.38
572.755	90.38
572.966	93.38
573.178	86.38
573.389	82.38
573.6	99.38
573.811	112.38
574.023	80.38
574.234	102.38
574.445	97.38
574.656	87.38
574.867	111.38
575.078	82.38
575.289	91.38
575.501	95.38
575.712	80.38
575.923	91.38
576.134	81.38
576.345	90.38
576.556	82.38
576.767	85.38
576.978	90.38
577.188	83.38
577.399	97.38
577.61	96.38
577.821	98.38
578.032	120.38
578.243	298.38
578.454	867.38
578.665	240.38
578.875	115.38
579.086	89.38
579.297	83.38
579.508	80.38
579.718	81.38
579.929	90.38
580.14	86.38
580.35	100.38
580.561	91.38
580.772	101.38
580.982	91.38
581.193	91.38
581.403	97.38
581.614	92.38
581.825	93.38
582.035	85.38
582.246	101.38
582.456	82.38
582.667	88.38
582.877	88.38
583.087	91.38
583.298	85.38
583.508	85.38
583.719	83.38
583.929	88.38
584.139	86.38
584.35	92.38
584.56	102.38
584.77	85.38
584.981	91.38
585.191	98.38
585.401	90.38
585.611	91.38
585.821	92.38
586.032	87.38
586.242	96.38
586.452	85.38
586.662	89.38
586.872	80.38
587.082	92.38
587.292	83.38
587.502	87.38
587.713	83.38
587.923	103.38
588.133	91.38
588.343	93.38
588.553	84.38
588.762	90.38
588.972	82.38
589.182	89.38
589.392	93.38
589.602	103.38
589.812	80.38
590.022	79.38
590.232	89.38
590.441	76.38
590.651	86.38
590.861	77.38
591.071	84.38
591.281	79.38
591.49	91.38
591.7	95.38
591.91	88.38
592.119	84.38
592.329	90.38
592.539	93.38
592.748	92.38
592.958	89.38
593.167	89.38
593.377	88.38
593.587	93.38
593.796	84.38
594.006	86.38
594.215	93.38
594.424	85.38
594.634	88.38
594.843	100.38
595.053	87.38
595.262	87.38
595.472	80.38
595.681	95.38
595.89	92.38
596.1	85.38
596.309	91.38
596.518	95.38
596.727	98.38
596.937	93.38
597.146	87.38
597.355	87.38
597.564	84.38
597.774	96.38
597.983	75.38
598.192	81.38
598.401	85.38
598.61	68.38
598.819	95.38
599.028	90.38
599.237	90.38
599.446	98.38
599.655	63.38
599.864	84.38
600.073	82.38
600.282	92.38
600.491	85.38
600.7	83.38
600.909	97.38
601.118	82.38
601.327	92.38
601.536	102.38
601.745	89.38
601.953	84.38
602.162	90.38
602.371	84.38
602.58	91.38
602.789	88.38
602.997	81.38
603.206	83.38
603.415	82.38
603.623	89.38
603.832	96.38
604.041	78.38
604.249	93.38
604.458	87.38
604.666	84.38
604.875	73.38
605.084	79.38
605.292	83.38
605.501	86.38
605.709	81.38
605.918	83.38
606.126	73.38
606.334	79.38
606.543	85.38
606.751	85.38
606.96	81.38
607.168	79.38
607.376	93.38
607.585	88.38
607.793	75.38
608.001	84.38
608.21	88.38
608.418	90.38
608.626	65.38
608.834	89.38
609.043	73.38
609.251	89.38
609.459	88.38
609.667	91.38
609.875	87.38
610.083	84.38
610.291	74.38
610.499	80.38
610.707	82.38
610.916	84.38
611.124	89.38
611.332	88.38
611.54	93.38
611.748	95.38
611.955	79.38
612.163	64.38
612.371	84.38
612.579	96.38
612.787	80.38
612.995	93.38
613.203	86.38
613.411	80.38
613.618	86.38
613.826	88.38
614.034	88.38
614.242	86.38
614.449	83.38
614.657	92.38
614.865	94.38
615.072	90.38
615.28	82.38
615.488	92.38
615.695	91.38
615.903	97.38
616.111	94.38
616.318	100.38
616.526	81.38
616.733	101.38
616.941	101.38
617.148	87.38
617.356	85.38
617.563	89.38
617.771	91.38
617.978	80.38
618.185	90.38
618.393	90.38
618.6	87.38
618.807	82.38
619.015	78.38
619.222	76.38
619.429	98.38
619.637	85.38
619.844	92.38
620.051	88.38
620.258	83.38
620.466	101.38
620.673	94.38
620.88	78.38
621.087	86.38
621.294	69.38
621.501	73.38
621.708	90.38
621.915	88.38
622.122	88.38
622.329	90.38
622.536	85.38
622.743	90.38
622.95	80.38
623.157	87.38
623.364	97.38
623.571	82.38
623.778	91.38
623.985	82.38
624.192	85.38
624.399	87.38
624.606	84.38
624.812	83.38
625.019	89.38
625.226	96.38
625.433	89.38
625.639	91.38
625.846	85.38
626.053	82.38
626.259	80.38
626.466	66.38
626.673	82.38
626.879	93.38
627.086	89.38
627.293	81.38
627.499	91.38
627.706	91.38
627.912	79.38
628.119	93.38
628.325	70.38
628.532	88.38
628.738	90.38
628.945	81.38
629.151	63.38
629.357	80.38
629.564	90.38
629.77	90.38
629.976	92.38
630.183	76.38
630.389	88.38
630.595	81.38
630.802	96.38
631.008	83.38
631.214	82.38
631.42	82.38
631.627	88.38
631.833	73.38
632.039	67.38
632.245	79.38
632.451	89.38
632.657	83.38
632.863	83.38
633.069	80.38
633.275	78.38
633.481	90.38
633.688	98.38
633.893	97.38
634.099	94.38
634.305	93.38
634.511	83.38
634.717	84.38
634.923	80.38
635.129	87.38
635.335	68.38
635.541	80.38
635.747	77.38
635.952	74.38
636.158	83.38
636.364	85.38
636.57	83.38
636.775	93.38
636.981	82.38
637.187	87.38
637.392	92.38
637.598	75.38
637.804	90.38
638.009	84.38
638.215	81.38
638.421	103.38
638.626	89.38
638.832	82.38
639.037	84.38
639.243	76.38
639.448	78.38
639.654	96.38
639.859	92.38
640.065	88.38
640.27	91.38
640.475	83.38
640.681	105.38
640.886	77.38
641.091	80.38
641.297	99.38
641.502	63.38
641.707	90.38
641.913	81.38
642.118	75.38
642.323	88.38
642.528	83.38
642.733	83.38
642.939	81.38
643.144	90.38
643.349	89.38
643.554	90.38
643.759	91.38
643.964	84.38
644.169	87.38
644.374	77.38
644.579	87.38
644.784	80.38
644.989	88.38
645.194	89.38
645.399	77.38
645.604	93.38
645.809	85.38
646.014	95.38
646.219	93.38
646.423	72.38
646.628	97.38
646.833	84.38
647.038	89.38
647.243	82.38
647.447	89.38
647.652	71.38
647.857	71.38
648.062	81.38
648.266	82.38
648.471	84.38
648.676	100.38
648.88	88.38
649.085	94.38
649.289	78.38
649.494	99.38
649.698	132.38
649.903	112.38
650.107	94.38
650.312	93.38
650.516	100.38
650.721	95.38
650.925	85.38
651.13	88.38
651.334	82.38
651.539	89.38
651.743	77.38
651.947	87.38
652.152	93.38
652.356	91.38
652.56	77.38
652.764	83.38
652.969	81.38
653.173	77.38
653.377	83.38
653.581	66.38
653.785	83.38
653.99	70.38
654.194	83.38
654.398	68.38
654.602	67.38
654.806	94.38
655.01	90.38
655.214	85.38
655.418	79.38
655.622	93.38
655.826	79.38
656.03	80.38
656.234	86.38
656.438	80.38
656.642	79.38
656.846	73.38
657.049	79.38
657.253	69.38
657.457	82.38
657.661	76.38
657.865	69.38
658.068	72.38
658.272	78.38
658.476	86.38
658.68	92.38
658.883	72.38
659.087	72.38
659.291	72.38
659.494	79.38
659.698	79.38
659.901	69.38
660.105	86.38
660.309	74.38
660.512	82.38
660.716	65.38
660.919	90.38
661.123	76.38
661.326	87.38
661.53	88.38
661.733	87.38
661.936	75.38
662.14	89.38
662.343	80.38
662.546	98.38
662.75	76.38
662.953	97.38
663.156	84.38
663.36	73.38
663.563	76.38
663.766	84.38
663.969	84.38
664.173	73.38
664.376	77.38
664.579	76.38
664.782	71.38
664.985	79.38
665.188	78.38
665.391	84.38
665.594	74.38
665.797	83.38
666	78.38
666.203	78.38
666.406	82.38
666.609	76.38
666.812	81.38
667.015	70.38
667.218	76.38
667.421	85.38
667.624	82.38
667.827	82.38
668.03	84.38
668.232	71.38
668.435	71.38
668.638	64.38
668.841	73.38
669.043	68.38
669.246	84.38
669.449	90.38
669.651	82.38
669.854	90.38
670.057	96.38
670.259	76.38
670.462	71.38
670.665	71.38
670.867	71.38
671.07	74.38
671.272	84.38
671.475	91.38
671.677	78.38
671.88	72.38
672.082	77.38
672.284	68.38
672.487	66.38
672.689	84.38
672.892	70.38
