Data from Uncirc_2007_H10_HRD10591_00069.txt Node
Date: Wed Jan 03 10:20:56 EST 2024
User: Yrep
Spectrometer: HR+D1059
Trigger mode: 1
Integration Time (sec): 1.000000E-1
Scans to average: 1
Electric dark correction enabled: true
Nonlinearity correction enabled: false
Boxcar width: 0
XAxis mode: Wavelengths
Number of Pixels in Spectrum: 2048
>>>>>Begin Spectral Data<<<<<
223.165	-26.88
223.4	-26.88
223.635	-26.88
223.869	-14.88
224.104	-15.88
224.338	-13.88
224.573	-21.88
224.808	-12.88
225.042	-3.88
225.277	-4.88
225.511	-3.88
225.746	-3.88
225.98	6.12
226.215	5.12
226.449	30.12
226.683	20.12
226.918	30.12
227.152	31.12
227.387	36.12
227.621	51.12
227.856	34.12
228.09	56.12
228.324	47.12
228.559	72.12
228.793	50.12
229.027	68.12
229.262	68.12
229.496	76.12
229.73	91.12
229.964	77.12
230.199	69.12
230.433	67.12
230.667	89.12
230.901	86.12
231.136	75.12
231.37	90.12
231.604	91.12
231.838	87.12
232.072	91.12
232.306	84.12
232.541	99.12
232.775	86.12
233.009	98.12
233.243	77.12
233.477	92.12
233.711	69.12
233.945	77.12
234.179	74.12
234.413	82.12
234.647	81.12
234.881	73.12
235.115	96.12
235.349	96.12
235.583	87.12
235.817	66.12
236.051	66.12
236.285	84.12
236.519	77.12
236.753	77.12
236.987	82.12
237.221	82.12
237.455	89.12
237.689	71.12
237.922	68.12
238.156	68.12
238.39	57.12
238.624	81.12
238.858	80.12
239.091	85.12
239.325	89.12
239.559	78.12
239.793	79.12
240.027	81.12
240.26	90.12
240.494	65.12
240.728	79.12
240.961	64.12
241.195	84.12
241.429	79.12
241.662	56.12
241.896	72.12
242.13	71.12
242.363	61.12
242.597	73.12
242.83	57.12
243.064	72.12
243.298	92.12
243.531	94.12
243.765	80.12
243.998	77.12
244.232	90.12
244.465	77.12
244.699	88.12
244.932	85.12
245.166	72.12
245.399	103.12
245.633	80.12
245.866	53.12
246.099	75.12
246.333	69.12
246.566	77.12
246.8	80.12
247.033	87.12
247.266	75.12
247.5	70.12
247.733	80.12
247.966	80.12
248.2	81.12
248.433	72.12
248.666	72.12
248.899	69.12
249.133	92.12
249.366	99.12
249.599	102.12
249.832	80.12
250.066	94.12
250.299	75.12
250.532	92.12
250.765	93.12
250.998	77.12
251.231	82.12
251.465	70.12
251.698	75.12
251.931	74.12
252.164	86.12
252.397	77.12
252.63	97.12
252.863	80.12
253.096	77.12
253.329	85.12
253.562	81.12
253.795	83.12
254.028	81.12
254.261	73.12
254.494	73.12
254.727	76.12
254.96	79.12
255.193	76.12
255.426	84.12
255.659	73.12
255.892	68.12
256.124	86.12
256.357	82.12
256.59	90.12
256.823	77.12
257.056	75.12
257.289	96.12
257.521	74.12
257.754	84.12
257.987	76.12
258.22	93.12
258.452	82.12
258.685	89.12
258.918	74.12
259.151	75.12
259.383	80.12
259.616	76.12
259.849	92.12
260.081	76.12
260.314	85.12
260.547	77.12
260.779	80.12
261.012	86.12
261.244	86.12
261.477	85.12
261.71	97.12
261.942	99.12
262.175	106.12
262.407	99.12
262.64	91.12
262.872	80.12
263.105	77.12
263.337	90.12
263.57	87.12
263.802	103.12
264.035	84.12
264.267	79.12
264.499	67.12
264.732	75.12
264.964	85.12
265.197	95.12
265.429	84.12
265.661	82.12
265.894	72.12
266.126	88.12
266.358	85.12
266.591	80.12
266.823	86.12
267.055	82.12
267.287	85.12
267.52	95.12
267.752	95.12
267.984	77.12
268.216	90.12
268.448	84.12
268.681	75.12
268.913	86.12
269.145	89.12
269.377	90.12
269.609	76.12
269.841	92.12
270.073	78.12
270.306	98.12
270.538	72.12
270.77	73.12
271.002	81.12
271.234	87.12
271.466	80.12
271.698	86.12
271.93	88.12
272.162	81.12
272.394	83.12
272.626	86.12
272.858	76.12
273.09	85.12
273.322	94.12
273.553	82.12
273.785	77.12
274.017	76.12
274.249	81.12
274.481	77.12
274.713	87.12
274.945	82.12
275.176	92.12
275.408	88.12
275.64	85.12
275.872	76.12
276.104	88.12
276.335	82.12
276.567	90.12
276.799	109.12
277.031	101.12
277.262	84.12
277.494	86.12
277.726	88.12
277.957	76.12
278.189	97.12
278.421	91.12
278.652	85.12
278.884	95.12
279.115	100.12
279.347	100.12
279.579	84.12
279.81	82.12
280.042	90.12
280.273	86.12
280.505	104.12
280.736	87.12
280.968	94.12
281.199	83.12
281.431	67.12
281.662	78.12
281.894	84.12
282.125	100.12
282.356	132.12
282.588	138.12
282.819	107.12
283.051	102.12
283.282	94.12
283.513	90.12
283.745	89.12
283.976	75.12
284.207	104.12
284.439	97.12
284.67	92.12
284.901	101.12
285.132	90.12
285.364	100.12
285.595	84.12
285.826	76.12
286.057	89.12
286.288	83.12
286.52	94.12
286.751	86.12
286.982	105.12
287.213	95.12
287.444	84.12
287.675	84.12
287.906	80.12
288.138	97.12
288.369	95.12
288.6	90.12
288.831	93.12
289.062	79.12
289.293	86.12
289.524	94.12
289.755	80.12
289.986	65.12
290.217	79.12
290.448	86.12
290.679	67.12
290.91	78.12
291.141	77.12
291.371	90.12
291.602	85.12
291.833	70.12
292.064	98.12
292.295	78.12
292.526	90.12
292.757	68.12
292.987	84.12
293.218	102.12
293.449	85.12
293.68	87.12
293.91	73.12
294.141	82.12
294.372	83.12
294.603	80.12
294.833	93.12
295.064	91.12
295.295	76.12
295.525	91.12
295.756	95.12
295.987	126.12
296.217	139.12
296.448	120.12
296.679	90.12
296.909	90.12
297.14	78.12
297.37	96.12
297.601	84.12
297.831	95.12
298.062	93.12
298.292	85.12
298.523	76.12
298.753	72.12
298.984	85.12
299.214	91.12
299.445	98.12
299.675	81.12
299.905	89.12
300.136	84.12
300.366	85.12
300.597	93.12
300.827	95.12
301.057	102.12
301.288	95.12
301.518	100.12
301.748	83.12
301.979	95.12
302.209	83.12
302.439	88.12
302.669	99.12
302.9	81.12
303.13	100.12
303.36	97.12
303.59	100.12
303.82	100.12
304.051	98.12
304.281	89.12
304.511	106.12
304.741	98.12
304.971	100.12
305.201	90.12
305.431	91.12
305.661	86.12
305.891	97.12
306.121	76.12
306.352	92.12
306.582	106.12
306.812	95.12
307.042	88.12
307.272	90.12
307.502	96.12
307.731	96.12
307.961	97.12
308.191	99.12
308.421	75.12
308.651	96.12
308.881	99.12
309.111	96.12
309.341	98.12
309.571	98.12
309.8	88.12
310.03	83.12
310.26	95.12
310.49	98.12
310.72	104.12
310.949	100.12
311.179	103.12
311.409	96.12
311.639	94.12
311.868	97.12
312.098	85.12
312.328	104.12
312.557	90.12
312.787	107.12
313.017	96.12
313.246	101.12
313.476	87.12
313.706	96.12
313.935	84.12
314.165	86.12
314.394	108.12
314.624	105.12
314.853	85.12
315.083	92.12
315.312	111.12
315.542	102.12
315.771	87.12
316.001	78.12
316.23	84.12
316.46	84.12
316.689	93.12
316.919	85.12
317.148	97.12
317.377	91.12
317.607	80.12
317.836	75.12
318.065	100.12
318.295	86.12
318.524	88.12
318.753	85.12
318.983	97.12
319.212	93.12
319.441	96.12
319.67	94.12
319.9	89.12
320.129	98.12
320.358	94.12
320.587	108.12
320.816	88.12
321.046	93.12
321.275	100.12
321.504	78.12
321.733	90.12
321.962	104.12
322.191	99.12
322.42	101.12
322.649	104.12
322.878	121.12
323.108	124.12
323.337	128.12
323.566	125.12
323.795	159.12
324.024	205.12
324.253	432.12
324.482	851.12
324.71	1809.12
324.939	2418.12
325.168	858.12
325.397	253.12
325.626	142.12
325.855	130.12
326.084	109.12
326.313	138.12
326.542	166.12
326.77	243.12
326.999	475.12
327.228	1027.12
327.457	1870.12
327.686	1474.12
327.914	389.12
328.143	184.12
328.372	160.12
328.6	120.12
328.829	128.12
329.058	122.12
329.287	121.12
329.515	122.12
329.744	112.12
329.972	94.12
330.201	93.12
330.43	83.12
330.658	100.12
330.887	131.12
331.115	126.12
331.344	115.12
331.572	88.12
331.801	100.12
332.03	102.12
332.258	112.12
332.486	82.12
332.715	85.12
332.943	96.12
333.172	92.12
333.4	103.12
333.629	104.12
333.857	104.12
334.085	110.12
334.314	91.12
334.542	76.12
334.771	103.12
334.999	99.12
335.227	106.12
335.455	101.12
335.684	83.12
335.912	86.12
336.14	104.12
336.369	97.12
336.597	90.12
336.825	94.12
337.053	97.12
337.281	90.12
337.51	97.12
337.738	93.12
337.966	88.12
338.194	100.12
338.422	106.12
338.65	107.12
338.878	102.12
339.106	95.12
339.334	85.12
339.562	85.12
339.79	90.12
340.018	97.12
340.246	91.12
340.474	101.12
340.702	100.12
340.93	97.12
341.158	99.12
341.386	92.12
341.614	89.12
341.842	76.12
342.07	80.12
342.298	97.12
342.526	90.12
342.754	86.12
342.981	82.12
343.209	95.12
343.437	91.12
343.665	85.12
343.893	92.12
344.12	72.12
344.348	86.12
344.576	95.12
344.804	90.12
345.031	82.12
345.259	89.12
345.487	100.12
345.714	89.12
345.942	89.12
346.17	88.12
346.397	103.12
346.625	90.12
346.853	90.12
347.08	87.12
347.308	94.12
347.535	88.12
347.763	82.12
347.99	96.12
348.218	99.12
348.445	97.12
348.673	110.12
348.9	100.12
349.128	94.12
349.355	88.12
349.583	104.12
349.81	100.12
350.037	90.12
350.265	87.12
350.492	95.12
350.72	108.12
350.947	108.12
351.174	110.12
351.402	117.12
351.629	115.12
351.856	95.12
352.083	100.12
352.311	111.12
352.538	114.12
352.765	111.12
352.992	116.12
353.22	113.12
353.447	102.12
353.674	100.12
353.901	109.12
354.128	98.12
354.355	101.12
354.583	95.12
354.81	96.12
355.037	106.12
355.264	99.12
355.491	90.12
355.718	96.12
355.945	91.12
356.172	96.12
356.399	106.12
356.626	99.12
356.853	94.12
357.08	97.12
357.307	99.12
357.534	96.12
357.761	92.12
357.988	77.12
358.215	92.12
358.441	100.12
358.668	91.12
358.895	79.12
359.122	78.12
359.349	97.12
359.576	97.12
359.802	109.12
360.029	115.12
360.256	97.12
360.483	101.12
360.709	97.12
360.936	104.12
361.163	85.12
361.39	101.12
361.616	87.12
361.843	86.12
362.07	86.12
362.296	97.12
362.523	93.12
362.749	92.12
362.976	82.12
363.203	92.12
363.429	77.12
363.656	82.12
363.882	97.12
364.109	99.12
364.335	111.12
364.562	97.12
364.788	87.12
365.015	91.12
365.241	106.12
365.468	99.12
365.694	112.12
365.92	86.12
366.147	81.12
366.373	93.12
366.599	90.12
366.826	93.12
367.052	84.12
367.278	78.12
367.505	98.12
367.731	90.12
367.957	84.12
368.184	96.12
368.41	116.12
368.636	101.12
368.862	113.12
369.089	95.12
369.315	85.12
369.541	86.12
369.767	92.12
369.993	95.12
370.219	89.12
370.445	101.12
370.672	81.12
370.898	96.12
371.124	81.12
371.35	88.12
371.576	86.12
371.802	93.12
372.028	90.12
372.254	85.12
372.48	87.12
372.706	76.12
372.932	87.12
373.158	93.12
373.384	83.12
373.61	92.12
373.835	106.12
374.061	90.12
374.287	86.12
374.513	97.12
374.739	92.12
374.965	96.12
375.191	108.12
375.416	86.12
375.642	96.12
375.868	91.12
376.094	99.12
376.319	94.12
376.545	78.12
376.771	99.12
376.997	97.12
377.222	88.12
377.448	82.12
377.674	67.12
377.899	88.12
378.125	88.12
378.35	96.12
378.576	85.12
378.802	82.12
379.027	86.12
379.253	86.12
379.478	83.12
379.704	91.12
379.929	69.12
380.155	89.12
380.38	102.12
380.606	92.12
380.831	94.12
381.057	96.12
381.282	90.12
381.507	100.12
381.733	111.12
381.958	107.12
382.184	106.12
382.409	100.12
382.634	99.12
382.86	116.12
383.085	89.12
383.31	93.12
383.535	99.12
383.761	86.12
383.986	80.12
384.211	90.12
384.436	84.12
384.662	87.12
384.887	107.12
385.112	112.12
385.337	105.12
385.562	108.12
385.787	104.12
386.013	116.12
386.238	115.12
386.463	121.12
386.688	114.12
386.913	106.12
387.138	111.12
387.363	98.12
387.588	90.12
387.813	97.12
388.038	105.12
388.263	101.12
388.488	89.12
388.713	86.12
388.938	85.12
389.163	85.12
389.387	84.12
389.612	90.12
389.837	90.12
390.062	97.12
390.287	77.12
390.512	91.12
390.736	104.12
390.961	101.12
391.186	82.12
391.411	92.12
391.636	85.12
391.86	85.12
392.085	85.12
392.31	81.12
392.534	64.12
392.759	90.12
392.984	90.12
393.208	90.12
393.433	89.12
393.658	85.12
393.882	84.12
394.107	96.12
394.331	81.12
394.556	87.12
394.78	77.12
395.005	85.12
395.229	95.12
395.454	99.12
395.678	73.12
395.903	100.12
396.127	93.12
396.352	74.12
396.576	94.12
396.801	90.12
397.025	97.12
397.249	90.12
397.474	89.12
397.698	85.12
397.922	95.12
398.147	83.12
398.371	87.12
398.595	88.12
398.82	88.12
399.044	93.12
399.268	95.12
399.492	94.12
399.717	97.12
399.941	88.12
400.165	93.12
400.389	78.12
400.613	82.12
400.837	95.12
401.062	102.12
401.286	96.12
401.51	98.12
401.734	84.12
401.958	92.12
402.182	122.12
402.406	161.12
402.63	120.12
402.854	104.12
403.078	84.12
403.302	100.12
403.526	82.12
403.75	95.12
403.974	99.12
404.198	78.12
404.422	96.12
404.645	94.12
404.869	83.12
405.093	83.12
405.317	94.12
405.541	104.12
405.765	84.12
405.988	108.12
406.212	165.12
406.436	202.12
406.66	140.12
406.883	98.12
407.107	106.12
407.331	95.12
407.555	100.12
407.778	101.12
408.002	87.12
408.226	83.12
408.449	81.12
408.673	84.12
408.896	94.12
409.12	90.12
409.344	94.12
409.567	91.12
409.791	98.12
410.014	102.12
410.238	100.12
410.461	105.12
410.685	87.12
410.908	91.12
411.132	100.12
411.355	96.12
411.578	88.12
411.802	91.12
412.025	89.12
412.249	85.12
412.472	89.12
412.695	78.12
412.919	83.12
413.142	82.12
413.365	100.12
413.589	93.12
413.812	90.12
414.035	89.12
414.258	81.12
414.482	85.12
414.705	96.12
414.928	110.12
415.151	101.12
415.374	106.12
415.597	83.12
415.821	78.12
416.044	74.12
416.267	89.12
416.49	75.12
416.713	94.12
416.936	86.12
417.159	80.12
417.382	99.12
417.605	99.12
417.828	102.12
418.051	94.12
418.274	77.12
418.497	90.12
418.72	91.12
418.943	84.12
419.166	83.12
419.389	91.12
419.611	94.12
419.834	101.12
420.057	83.12
420.28	86.12
420.503	84.12
420.726	80.12
420.948	76.12
421.171	92.12
421.394	89.12
421.617	77.12
421.839	91.12
422.062	96.12
422.285	84.12
422.507	89.12
422.73	102.12
422.953	88.12
423.175	82.12
423.398	101.12
423.621	99.12
423.843	79.12
424.066	100.12
424.288	99.12
424.511	87.12
424.733	101.12
424.956	91.12
425.178	88.12
425.401	98.12
425.623	90.12
425.846	86.12
426.068	99.12
426.291	85.12
426.513	77.12
426.735	75.12
426.958	84.12
427.18	102.12
427.402	134.12
427.625	160.12
427.847	117.12
428.069	89.12
428.292	85.12
428.514	100.12
428.736	82.12
428.958	96.12
429.181	89.12
429.403	109.12
429.625	91.12
429.847	106.12
430.069	91.12
430.292	88.12
430.514	89.12
430.736	99.12
430.958	87.12
431.18	91.12
431.402	94.12
431.624	86.12
431.846	78.12
432.068	93.12
432.29	87.12
432.512	80.12
432.734	76.12
432.956	82.12
433.178	100.12
433.4	112.12
433.622	93.12
433.844	83.12
434.066	76.12
434.287	91.12
434.509	83.12
434.731	78.12
434.953	92.12
435.175	90.12
435.397	90.12
435.618	101.12
435.84	98.12
436.062	123.12
436.284	131.12
436.505	99.12
436.727	105.12
436.949	86.12
437.17	97.12
437.392	80.12
437.614	95.12
437.835	103.12
438.057	114.12
438.278	104.12
438.5	109.12
438.721	120.12
438.943	98.12
439.165	89.12
439.386	92.12
439.608	73.12
439.829	95.12
440.05	121.12
440.272	141.12
440.493	96.12
440.715	98.12
440.936	105.12
441.158	90.12
441.379	92.12
441.6	92.12
441.822	103.12
442.043	93.12
442.264	96.12
442.486	103.12
442.707	94.12
442.928	113.12
443.149	138.12
443.371	137.12
443.592	126.12
443.813	102.12
444.034	112.12
444.255	88.12
444.476	83.12
444.698	91.12
444.919	83.12
445.14	149.12
445.361	117.12
445.582	119.12
445.803	134.12
446.024	140.12
446.245	145.12
446.466	113.12
446.687	99.12
446.908	84.12
447.129	84.12
447.35	92.12
447.571	84.12
447.792	99.12
448.013	97.12
448.234	93.12
448.455	93.12
448.675	116.12
448.896	127.12
449.117	101.12
449.338	115.12
449.559	109.12
449.779	135.12
450	98.12
450.221	75.12
450.442	85.12
450.662	103.12
450.883	99.12
451.104	115.12
451.324	103.12
451.545	80.12
451.766	78.12
451.986	90.12
452.207	85.12
452.428	94.12
452.648	97.12
452.869	100.12
453.089	107.12
453.31	131.12
453.53	77.12
453.751	100.12
453.971	99.12
454.192	121.12
454.412	90.12
454.633	76.12
454.853	74.12
455.073	82.12
455.294	80.12
455.514	92.12
455.734	86.12
455.955	80.12
456.175	91.12
456.395	75.12
456.616	85.12
456.836	77.12
457.056	89.12
457.276	83.12
457.497	92.12
457.717	89.12
457.937	73.12
458.157	77.12
458.377	73.12
458.598	96.12
458.818	149.12
459.038	164.12
459.258	96.12
459.478	75.12
459.698	90.12
459.918	78.12
460.138	83.12
460.358	85.12
460.578	97.12
460.798	88.12
461.018	82.12
461.238	92.12
461.458	90.12
461.678	89.12
461.898	96.12
462.118	82.12
462.338	84.12
462.558	84.12
462.777	80.12
462.997	81.12
463.217	79.12
463.437	84.12
463.657	79.12
463.876	81.12
464.096	90.12
464.316	101.12
464.536	97.12
464.755	90.12
464.975	104.12
465.195	145.12
465.414	150.12
465.634	106.12
465.854	84.12
466.073	100.12
466.293	83.12
466.512	84.12
466.732	96.12
466.951	74.12
467.171	92.12
467.391	91.12
467.61	84.12
467.829	99.12
468.049	89.12
468.268	93.12
468.488	85.12
468.707	83.12
468.927	80.12
469.146	85.12
469.365	95.12
469.585	95.12
469.804	96.12
470.023	108.12
470.243	82.12
470.462	115.12
470.681	99.12
470.901	82.12
471.12	81.12
471.339	83.12
471.558	82.12
471.777	84.12
471.997	101.12
472.216	90.12
472.435	89.12
472.654	90.12
472.873	106.12
473.092	88.12
473.311	85.12
473.53	101.12
473.749	72.12
473.968	86.12
474.187	98.12
474.406	96.12
474.625	88.12
474.844	91.12
475.063	90.12
475.282	84.12
475.501	83.12
475.72	93.12
475.939	81.12
476.158	95.12
476.377	74.12
476.596	86.12
476.814	108.12
477.033	89.12
477.252	81.12
477.471	92.12
477.69	96.12
477.908	91.12
478.127	87.12
478.346	82.12
478.564	93.12
478.783	106.12
479.002	87.12
479.22	86.12
479.439	106.12
479.658	114.12
479.876	86.12
480.095	91.12
480.313	81.12
480.532	95.12
480.751	91.12
480.969	97.12
481.188	109.12
481.406	87.12
481.624	95.12
481.843	89.12
482.061	86.12
482.28	90.12
482.498	90.12
482.717	77.12
482.935	76.12
483.153	78.12
483.372	91.12
483.59	95.12
483.808	93.12
484.027	101.12
484.245	109.12
484.463	87.12
484.681	99.12
484.9	86.12
485.118	109.12
485.336	100.12
485.554	91.12
485.772	79.12
485.99	99.12
486.209	102.12
486.427	108.12
486.645	109.12
486.863	110.12
487.081	99.12
487.299	87.12
487.517	106.12
487.735	86.12
487.953	100.12
488.171	80.12
488.389	94.12
488.607	97.12
488.825	98.12
489.043	76.12
489.261	96.12
489.479	94.12
489.696	75.12
489.914	81.12
490.132	87.12
490.35	94.12
490.568	84.12
490.786	90.12
491.003	82.12
491.221	85.12
491.439	83.12
491.657	97.12
491.874	95.12
492.092	79.12
492.31	85.12
492.527	93.12
492.745	89.12
492.963	90.12
493.18	94.12
493.398	102.12
493.615	93.12
493.833	101.12
494.05	97.12
494.268	98.12
494.485	89.12
494.703	90.12
494.92	103.12
495.138	83.12
495.355	85.12
495.573	90.12
495.79	73.12
496.008	102.12
496.225	97.12
496.442	93.12
496.66	91.12
496.877	92.12
497.094	101.12
497.312	96.12
497.529	79.12
497.746	91.12
497.963	91.12
498.181	94.12
498.398	97.12
498.615	110.12
498.832	99.12
499.049	84.12
499.267	86.12
499.484	91.12
499.701	78.12
499.918	97.12
500.135	95.12
500.352	84.12
500.569	98.12
500.786	99.12
501.003	69.12
501.22	80.12
501.437	104.12
501.654	107.12
501.871	92.12
502.088	99.12
502.305	74.12
502.522	89.12
502.739	90.12
502.956	92.12
503.172	91.12
503.389	103.12
503.606	101.12
503.823	100.12
504.04	93.12
504.256	80.12
504.473	79.12
504.69	104.12
504.907	89.12
505.123	95.12
505.34	100.12
505.557	99.12
505.773	78.12
505.99	94.12
506.207	82.12
506.423	97.12
506.64	76.12
506.856	98.12
507.073	92.12
507.289	89.12
507.506	104.12
507.722	124.12
507.939	110.12
508.155	88.12
508.372	88.12
508.588	90.12
508.805	101.12
509.021	93.12
509.238	100.12
509.454	101.12
509.67	94.12
509.887	96.12
510.103	113.12
510.319	199.12
510.536	737.12
510.752	2368.12
510.968	691.12
511.184	150.12
511.401	116.12
511.617	102.12
511.833	99.12
512.049	92.12
512.265	89.12
512.481	88.12
512.698	85.12
512.914	90.12
513.13	86.12
513.346	90.12
513.562	84.12
513.778	86.12
513.994	98.12
514.21	94.12
514.426	111.12
514.642	120.12
514.858	136.12
515.074	163.12
515.29	432.12
515.506	1450.12
515.721	535.12
515.937	158.12
516.153	121.12
516.369	105.12
516.585	100.12
516.801	92.12
517.016	94.12
517.232	110.12
517.448	94.12
517.664	95.12
517.879	90.12
518.095	94.12
518.311	95.12
518.527	90.12
518.742	82.12
518.958	90.12
519.173	87.12
519.389	99.12
519.605	98.12
519.82	100.12
520.036	106.12
520.251	117.12
520.467	104.12
520.682	107.12
520.898	94.12
521.113	114.12
521.329	136.12
521.544	203.12
521.76	546.12
521.975	2429.12
522.19	1464.12
522.406	300.12
522.621	122.12
522.836	111.12
523.052	98.12
523.267	87.12
523.482	107.12
523.698	113.12
523.913	119.12
524.128	112.12
524.343	95.12
524.559	93.12
524.774	89.12
524.989	87.12
525.204	106.12
525.419	117.12
525.634	102.12
525.849	85.12
526.064	99.12
526.28	96.12
526.495	86.12
526.71	93.12
526.925	81.12
527.14	77.12
527.355	84.12
527.57	83.12
527.785	99.12
527.999	91.12
528.214	98.12
528.429	93.12
528.644	93.12
528.859	90.12
529.074	104.12
529.289	118.12
529.503	171.12
529.718	108.12
529.933	93.12
530.148	83.12
530.363	89.12
530.577	90.12
530.792	92.12
531.007	90.12
531.221	102.12
531.436	93.12
531.651	104.12
531.865	85.12
532.08	96.12
532.295	80.12
532.509	86.12
532.724	87.12
532.938	89.12
533.153	91.12
533.367	97.12
533.582	85.12
533.796	91.12
534.011	104.12
534.225	87.12
534.44	93.12
534.654	93.12
534.868	100.12
535.083	90.12
535.297	102.12
535.511	101.12
535.726	104.12
535.94	87.12
536.154	101.12
536.369	103.12
536.583	91.12
536.797	102.12
537.011	108.12
537.225	91.12
537.44	91.12
537.654	99.12
537.868	95.12
538.082	88.12
538.296	80.12
538.51	95.12
538.724	85.12
538.938	90.12
539.153	98.12
539.367	101.12
539.581	98.12
539.795	91.12
540.009	87.12
540.222	91.12
540.436	80.12
540.65	86.12
540.864	93.12
541.078	99.12
541.292	96.12
541.506	83.12
541.72	94.12
541.934	85.12
542.147	91.12
542.361	96.12
542.575	90.12
542.789	87.12
543.002	91.12
543.216	81.12
543.43	92.12
543.644	92.12
543.857	95.12
544.071	96.12
544.285	91.12
544.498	101.12
544.712	96.12
544.925	82.12
545.139	75.12
545.352	66.12
545.566	96.12
545.779	74.12
545.993	95.12
546.206	102.12
546.42	100.12
546.633	85.12
546.847	105.12
547.06	85.12
547.274	83.12
547.487	83.12
547.7	94.12
547.914	91.12
548.127	97.12
548.34	80.12
548.554	83.12
548.767	85.12
548.98	75.12
549.193	84.12
549.407	96.12
549.62	85.12
549.833	100.12
550.046	84.12
550.259	99.12
550.473	86.12
550.686	91.12
550.899	94.12
551.112	76.12
551.325	92.12
551.538	114.12
551.751	81.12
551.964	81.12
552.177	91.12
552.39	86.12
552.603	85.12
552.816	94.12
553.029	89.12
553.242	101.12
553.455	97.12
553.667	93.12
553.88	91.12
554.093	98.12
554.306	81.12
554.519	81.12
554.732	93.12
554.944	91.12
555.157	83.12
555.37	92.12
555.583	98.12
555.795	89.12
556.008	95.12
556.221	86.12
556.433	98.12
556.646	107.12
556.859	96.12
557.071	88.12
557.284	74.12
557.496	82.12
557.709	96.12
557.921	82.12
558.134	99.12
558.346	83.12
558.559	96.12
558.771	85.12
558.984	87.12
559.196	99.12
559.409	98.12
559.621	91.12
559.833	94.12
560.046	107.12
560.258	83.12
560.47	91.12
560.683	82.12
560.895	96.12
561.107	86.12
561.32	92.12
561.532	96.12
561.744	86.12
561.956	90.12
562.168	91.12
562.381	93.12
562.593	100.12
562.805	102.12
563.017	80.12
563.229	99.12
563.441	100.12
563.653	94.12
563.865	85.12
564.077	75.12
564.289	81.12
564.501	98.12
564.713	88.12
564.925	83.12
565.137	90.12
565.349	91.12
565.561	77.12
565.773	96.12
565.985	100.12
566.197	81.12
566.408	85.12
566.62	81.12
566.832	74.12
567.044	79.12
567.255	97.12
567.467	88.12
567.679	90.12
567.891	106.12
568.102	97.12
568.314	95.12
568.526	92.12
568.737	91.12
568.949	89.12
569.161	95.12
569.372	85.12
569.584	98.12
569.795	90.12
570.007	112.12
570.218	238.12
570.43	138.12
570.641	102.12
570.853	87.12
571.064	101.12
571.276	84.12
571.487	82.12
571.698	95.12
571.91	104.12
572.121	94.12
572.333	86.12
572.544	98.12
572.755	95.12
572.966	92.12
573.178	88.12
573.389	96.12
573.6	97.12
573.811	93.12
574.023	101.12
574.234	99.12
574.445	81.12
574.656	78.12
574.867	83.12
575.078	87.12
575.289	97.12
575.501	96.12
575.712	93.12
575.923	95.12
576.134	82.12
576.345	87.12
576.556	88.12
576.767	92.12
576.978	90.12
577.188	88.12
577.399	95.12
577.61	87.12
577.821	99.12
578.032	112.12
578.243	250.12
578.454	733.12
578.665	207.12
578.875	106.12
579.086	96.12
579.297	72.12
579.508	76.12
579.718	84.12
579.929	98.12
580.14	85.12
580.35	94.12
580.561	82.12
580.772	82.12
580.982	90.12
581.193	93.12
581.403	85.12
581.614	90.12
581.825	74.12
582.035	83.12
582.246	92.12
582.456	75.12
582.667	84.12
582.877	95.12
583.087	86.12
583.298	91.12
583.508	86.12
583.719	74.12
583.929	90.12
584.139	89.12
584.35	102.12
584.56	86.12
584.77	102.12
584.981	97.12
585.191	86.12
585.401	98.12
585.611	83.12
585.821	89.12
586.032	100.12
586.242	94.12
586.452	101.12
586.662	90.12
586.872	78.12
587.082	85.12
587.292	81.12
587.502	95.12
587.713	84.12
587.923	97.12
588.133	87.12
588.343	84.12
588.553	82.12
588.762	89.12
588.972	89.12
589.182	74.12
589.392	77.12
589.602	82.12
589.812	93.12
590.022	109.12
590.232	83.12
590.441	88.12
590.651	86.12
590.861	89.12
591.071	83.12
591.281	91.12
591.49	85.12
591.7	92.12
591.91	90.12
592.119	81.12
592.329	101.12
592.539	85.12
592.748	86.12
592.958	85.12
593.167	85.12
593.377	101.12
593.587	88.12
593.796	80.12
594.006	105.12
594.215	84.12
594.424	77.12
594.634	61.12
594.843	97.12
595.053	91.12
595.262	85.12
595.472	85.12
595.681	77.12
595.89	88.12
596.1	79.12
596.309	83.12
596.518	84.12
596.727	82.12
596.937	96.12
597.146	79.12
597.355	82.12
597.564	98.12
597.774	92.12
597.983	85.12
598.192	92.12
598.401	85.12
598.61	94.12
598.819	108.12
599.028	74.12
599.237	87.12
599.446	83.12
599.655	92.12
599.864	89.12
600.073	94.12
600.282	90.12
600.491	90.12
600.7	94.12
600.909	89.12
601.118	85.12
601.327	91.12
601.536	93.12
601.745	81.12
601.953	82.12
602.162	86.12
602.371	81.12
602.58	91.12
602.789	92.12
602.997	84.12
603.206	94.12
603.415	113.12
603.623	67.12
603.832	74.12
604.041	83.12
604.249	88.12
604.458	79.12
604.666	80.12
604.875	85.12
605.084	90.12
605.292	96.12
605.501	90.12
605.709	87.12
605.918	90.12
606.126	97.12
606.334	76.12
606.543	94.12
606.751	84.12
606.96	87.12
607.168	75.12
607.376	84.12
607.585	91.12
607.793	87.12
608.001	81.12
608.21	79.12
608.418	94.12
608.626	84.12
608.834	86.12
609.043	81.12
609.251	99.12
609.459	88.12
609.667	81.12
609.875	94.12
610.083	101.12
610.291	72.12
610.499	80.12
610.707	82.12
610.916	83.12
611.124	86.12
611.332	79.12
611.54	93.12
611.748	85.12
611.955	94.12
612.163	90.12
612.371	94.12
612.579	90.12
612.787	88.12
612.995	97.12
613.203	85.12
613.411	98.12
613.618	82.12
613.826	80.12
614.034	75.12
614.242	81.12
614.449	87.12
614.657	91.12
614.865	84.12
615.072	81.12
615.28	75.12
615.488	93.12
615.695	97.12
615.903	107.12
616.111	79.12
616.318	98.12
616.526	88.12
616.733	102.12
616.941	93.12
617.148	84.12
617.356	83.12
617.563	89.12
617.771	77.12
617.978	88.12
618.185	89.12
618.393	86.12
618.6	91.12
618.807	78.12
619.015	92.12
619.222	91.12
619.429	84.12
619.637	89.12
619.844	80.12
620.051	80.12
620.258	76.12
620.466	83.12
620.673	78.12
620.88	91.12
621.087	92.12
621.294	93.12
621.501	91.12
621.708	85.12
621.915	85.12
622.122	83.12
622.329	87.12
622.536	88.12
622.743	64.12
622.95	90.12
623.157	89.12
623.364	85.12
623.571	83.12
623.778	94.12
623.985	87.12
624.192	82.12
624.399	84.12
624.606	91.12
624.812	81.12
625.019	90.12
625.226	61.12
625.433	90.12
625.639	88.12
625.846	89.12
626.053	94.12
626.259	98.12
626.466	81.12
626.673	93.12
626.879	87.12
627.086	88.12
627.293	86.12
627.499	84.12
627.706	81.12
627.912	78.12
628.119	84.12
628.325	85.12
628.532	93.12
628.738	93.12
628.945	77.12
629.151	87.12
629.357	86.12
629.564	83.12
629.77	89.12
629.976	94.12
630.183	80.12
630.389	66.12
630.595	88.12
630.802	86.12
631.008	96.12
631.214	89.12
631.42	88.12
631.627	101.12
631.833	74.12
632.039	75.12
632.245	81.12
632.451	87.12
632.657	80.12
632.863	70.12
633.069	94.12
633.275	82.12
633.481	91.12
633.688	96.12
633.893	90.12
634.099	59.12
634.305	81.12
634.511	72.12
634.717	98.12
634.923	82.12
635.129	96.12
635.335	86.12
635.541	81.12
635.747	91.12
635.952	75.12
636.158	76.12
636.364	87.12
636.57	85.12
636.775	74.12
636.981	71.12
637.187	90.12
637.392	96.12
637.598	91.12
637.804	80.12
638.009	78.12
638.215	77.12
638.421	94.12
638.626	84.12
638.832	85.12
639.037	83.12
639.243	89.12
639.448	92.12
639.654	80.12
639.859	92.12
640.065	85.12
640.27	93.12
640.475	81.12
640.681	82.12
640.886	87.12
641.091	79.12
641.297	86.12
641.502	110.12
641.707	92.12
641.913	74.12
642.118	92.12
642.323	91.12
642.528	96.12
642.733	91.12
642.939	78.12
643.144	78.12
643.349	93.12
643.554	85.12
643.759	88.12
643.964	83.12
644.169	85.12
644.374	81.12
644.579	94.12
644.784	74.12
644.989	82.12
645.194	101.12
645.399	94.12
645.604	84.12
645.809	84.12
646.014	87.12
646.219	83.12
646.423	75.12
646.628	76.12
646.833	86.12
647.038	69.12
647.243	98.12
647.447	88.12
647.652	77.12
647.857	87.12
648.062	85.12
648.266	97.12
648.471	90.12
648.676	92.12
648.88	79.12
649.085	87.12
649.289	90.12
649.494	114.12
649.698	141.12
649.903	101.12
650.107	96.12
650.312	79.12
650.516	81.12
650.721	99.12
650.925	92.12
651.13	84.12
651.334	83.12
651.539	84.12
651.743	66.12
651.947	84.12
652.152	77.12
652.356	81.12
652.56	95.12
652.764	96.12
652.969	74.12
653.173	69.12
653.377	81.12
653.581	68.12
653.785	82.12
653.99	84.12
654.194	79.12
654.398	85.12
654.602	87.12
654.806	101.12
655.01	91.12
655.214	86.12
655.418	85.12
655.622	83.12
655.826	97.12
656.03	76.12
656.234	104.12
656.438	100.12
656.642	86.12
656.846	82.12
657.049	86.12
657.253	90.12
657.457	77.12
657.661	88.12
657.865	93.12
658.068	82.12
658.272	85.12
658.476	72.12
658.68	85.12
658.883	93.12
659.087	83.12
659.291	82.12
659.494	89.12
659.698	90.12
659.901	71.12
660.105	90.12
660.309	85.12
660.512	78.12
660.716	88.12
660.919	84.12
661.123	92.12
661.326	87.12
661.53	66.12
661.733	78.12
661.936	92.12
662.14	104.12
662.343	86.12
662.546	84.12
662.75	90.12
662.953	62.12
663.156	89.12
663.36	86.12
663.563	80.12
663.766	69.12
663.969	81.12
664.173	90.12
664.376	79.12
664.579	75.12
664.782	95.12
664.985	81.12
665.188	89.12
665.391	87.12
665.594	73.12
665.797	77.12
666	74.12
666.203	76.12
666.406	80.12
666.609	84.12
666.812	81.12
667.015	85.12
667.218	101.12
667.421	79.12
667.624	82.12
667.827	93.12
668.03	91.12
668.232	72.12
668.435	101.12
668.638	69.12
668.841	85.12
669.043	79.12
669.246	74.12
669.449	94.12
669.651	81.12
669.854	81.12
670.057	80.12
670.259	88.12
670.462	72.12
670.665	82.12
670.867	83.12
671.07	86.12
671.272	85.12
671.475	82.12
671.677	81.12
671.88	72.12
672.082	88.12
672.284	71.12
672.487	61.12
672.689	68.12
672.892	78.12
