Data from 237_3_HRD10591_00050.txt Node
Date: Mon Jan 19 14:13:19 EST 2026
User: Yrep
Spectrometer: HR+D1059
Trigger mode: 1
Integration Time (sec): 1.000000E-1
Scans to average: 1
Electric dark correction enabled: true
Nonlinearity correction enabled: false
Boxcar width: 0
XAxis mode: Wavelengths
Number of Pixels in Spectrum: 2048
>>>>>Begin Spectral Data<<<<<
223.165	-35.75
223.4	-35.75
223.635	-35.75
223.869	-16.75
224.104	-24.75
224.338	-11.75
224.573	-16.75
224.808	-29.75
225.042	1.25
225.277	4.25
225.511	-5.75
225.746	-3.75
225.98	11.25
226.215	6.25
226.449	19.25
226.683	31.25
226.918	29.25
227.152	42.25
227.387	24.25
227.621	42.25
227.856	46.25
228.09	53.25
228.324	54.25
228.559	64.25
228.793	63.25
229.027	68.25
229.262	70.25
229.496	78.25
229.73	60.25
229.964	83.25
230.199	82.25
230.433	89.25
230.667	94.25
230.901	87.25
231.136	72.25
231.37	89.25
231.604	92.25
231.838	88.25
232.072	81.25
232.306	77.25
232.541	90.25
232.775	89.25
233.009	76.25
233.243	92.25
233.477	86.25
233.711	92.25
233.945	92.25
234.179	96.25
234.413	86.25
234.647	84.25
234.881	88.25
235.115	70.25
235.349	83.25
235.583	89.25
235.817	75.25
236.051	68.25
236.285	80.25
236.519	87.25
236.753	81.25
236.987	86.25
237.221	92.25
237.455	87.25
237.689	85.25
237.922	69.25
238.156	84.25
238.39	74.25
238.624	98.25
238.858	76.25
239.091	81.25
239.325	93.25
239.559	95.25
239.793	73.25
240.027	90.25
240.26	79.25
240.494	97.25
240.728	81.25
240.961	88.25
241.195	82.25
241.429	79.25
241.662	88.25
241.896	94.25
242.13	79.25
242.363	98.25
242.597	77.25
242.83	90.25
243.064	81.25
243.298	83.25
243.531	90.25
243.765	98.25
243.998	89.25
244.232	89.25
244.465	77.25
244.699	88.25
244.932	86.25
245.166	83.25
245.399	83.25
245.633	87.25
245.866	80.25
246.099	90.25
246.333	82.25
246.566	81.25
246.8	79.25
247.033	78.25
247.266	75.25
247.5	80.25
247.733	85.25
247.966	86.25
248.2	98.25
248.433	80.25
248.666	84.25
248.899	68.25
249.133	79.25
249.366	94.25
249.599	74.25
249.832	82.25
250.066	77.25
250.299	78.25
250.532	89.25
250.765	80.25
250.998	88.25
251.231	81.25
251.465	90.25
251.698	85.25
251.931	85.25
252.164	75.25
252.397	74.25
252.63	82.25
252.863	106.25
253.096	75.25
253.329	79.25
253.562	74.25
253.795	100.25
254.028	82.25
254.261	83.25
254.494	81.25
254.727	91.25
254.96	80.25
255.193	94.25
255.426	84.25
255.659	82.25
255.892	87.25
256.124	80.25
256.357	80.25
256.59	83.25
256.823	89.25
257.056	78.25
257.289	74.25
257.521	86.25
257.754	80.25
257.987	86.25
258.22	99.25
258.452	79.25
258.685	96.25
258.918	74.25
259.151	86.25
259.383	74.25
259.616	76.25
259.849	78.25
260.081	82.25
260.314	80.25
260.547	87.25
260.779	80.25
261.012	81.25
261.244	88.25
261.477	96.25
261.71	82.25
261.942	91.25
262.175	102.25
262.407	79.25
262.64	100.25
262.872	90.25
263.105	93.25
263.337	103.25
263.57	78.25
263.802	82.25
264.035	79.25
264.267	74.25
264.499	80.25
264.732	86.25
264.964	92.25
265.197	80.25
265.429	72.25
265.661	83.25
265.894	84.25
266.126	77.25
266.358	101.25
266.591	100.25
266.823	97.25
267.055	83.25
267.287	93.25
267.52	82.25
267.752	90.25
267.984	80.25
268.216	87.25
268.448	82.25
268.681	100.25
268.913	101.25
269.145	81.25
269.377	83.25
269.609	95.25
269.841	97.25
270.073	83.25
270.306	82.25
270.538	90.25
270.77	94.25
271.002	95.25
271.234	92.25
271.466	96.25
271.698	94.25
271.93	95.25
272.162	84.25
272.394	100.25
272.626	83.25
272.858	67.25
273.09	93.25
273.322	73.25
273.553	63.25
273.785	89.25
274.017	88.25
274.249	79.25
274.481	102.25
274.713	91.25
274.945	89.25
275.176	88.25
275.408	100.25
275.64	95.25
275.872	84.25
276.104	76.25
276.335	95.25
276.567	90.25
276.799	89.25
277.031	79.25
277.262	88.25
277.494	103.25
277.726	82.25
277.957	92.25
278.189	80.25
278.421	86.25
278.652	95.25
278.884	97.25
279.115	82.25
279.347	88.25
279.579	88.25
279.81	79.25
280.042	94.25
280.273	80.25
280.505	71.25
280.736	82.25
280.968	98.25
281.199	97.25
281.431	88.25
281.662	80.25
281.894	78.25
282.125	83.25
282.356	81.25
282.588	83.25
282.819	86.25
283.051	80.25
283.282	88.25
283.513	84.25
283.745	85.25
283.976	80.25
284.207	84.25
284.439	89.25
284.67	80.25
284.901	79.25
285.132	89.25
285.364	108.25
285.595	105.25
285.826	90.25
286.057	84.25
286.288	86.25
286.52	87.25
286.751	107.25
286.982	90.25
287.213	87.25
287.444	95.25
287.675	98.25
287.906	93.25
288.138	81.25
288.369	86.25
288.6	79.25
288.831	79.25
289.062	88.25
289.293	84.25
289.524	104.25
289.755	87.25
289.986	89.25
290.217	77.25
290.448	88.25
290.679	82.25
290.91	94.25
291.141	84.25
291.371	92.25
291.602	79.25
291.833	88.25
292.064	89.25
292.295	101.25
292.526	80.25
292.757	93.25
292.987	94.25
293.218	90.25
293.449	70.25
293.68	79.25
293.91	95.25
294.141	107.25
294.372	88.25
294.603	104.25
294.833	91.25
295.064	86.25
295.295	76.25
295.525	88.25
295.756	89.25
295.987	80.25
296.217	94.25
296.448	92.25
296.679	94.25
296.909	94.25
297.14	90.25
297.37	94.25
297.601	92.25
297.831	87.25
298.062	89.25
298.292	77.25
298.523	87.25
298.753	97.25
298.984	94.25
299.214	97.25
299.445	76.25
299.675	72.25
299.905	91.25
300.136	95.25
300.366	91.25
300.597	80.25
300.827	79.25
301.057	75.25
301.288	98.25
301.518	76.25
301.748	86.25
301.979	101.25
302.209	85.25
302.439	82.25
302.669	74.25
302.9	89.25
303.13	96.25
303.36	82.25
303.59	91.25
303.82	94.25
304.051	95.25
304.281	80.25
304.511	88.25
304.741	89.25
304.971	99.25
305.201	85.25
305.431	102.25
305.661	86.25
305.891	88.25
306.121	85.25
306.352	88.25
306.582	88.25
306.812	78.25
307.042	82.25
307.272	92.25
307.502	91.25
307.731	96.25
307.961	92.25
308.191	89.25
308.421	71.25
308.651	101.25
308.881	88.25
309.111	88.25
309.341	85.25
309.571	79.25
309.8	83.25
310.03	93.25
310.26	90.25
310.49	88.25
310.72	88.25
310.949	95.25
311.179	85.25
311.409	98.25
311.639	97.25
311.868	104.25
312.098	106.25
312.328	89.25
312.557	89.25
312.787	93.25
313.017	87.25
313.246	92.25
313.476	79.25
313.706	94.25
313.935	84.25
314.165	100.25
314.394	78.25
314.624	82.25
314.853	109.25
315.083	95.25
315.312	82.25
315.542	78.25
315.771	94.25
316.001	79.25
316.23	90.25
316.46	86.25
316.689	90.25
316.919	101.25
317.148	86.25
317.377	92.25
317.607	92.25
317.836	90.25
318.065	91.25
318.295	76.25
318.524	90.25
318.753	88.25
318.983	81.25
319.212	82.25
319.441	88.25
319.67	86.25
319.9	89.25
320.129	88.25
320.358	94.25
320.587	87.25
320.816	90.25
321.046	80.25
321.275	94.25
321.504	93.25
321.733	87.25
321.962	86.25
322.191	88.25
322.42	81.25
322.649	98.25
322.878	82.25
323.108	101.25
323.337	76.25
323.566	84.25
323.795	81.25
324.024	93.25
324.253	80.25
324.482	103.25
324.71	92.25
324.939	91.25
325.168	91.25
325.397	78.25
325.626	78.25
325.855	81.25
326.084	94.25
326.313	86.25
326.542	91.25
326.77	98.25
326.999	95.25
327.228	87.25
327.457	98.25
327.686	88.25
327.914	93.25
328.143	98.25
328.372	101.25
328.6	102.25
328.829	90.25
329.058	88.25
329.287	91.25
329.515	81.25
329.744	103.25
329.972	98.25
330.201	85.25
330.43	92.25
330.658	93.25
330.887	96.25
331.115	103.25
331.344	95.25
331.572	83.25
331.801	86.25
332.03	99.25
332.258	102.25
332.486	83.25
332.715	96.25
332.943	82.25
333.172	86.25
333.4	92.25
333.629	88.25
333.857	71.25
334.085	104.25
334.314	99.25
334.542	89.25
334.771	86.25
334.999	80.25
335.227	89.25
335.455	85.25
335.684	78.25
335.912	88.25
336.14	82.25
336.369	99.25
336.597	84.25
336.825	80.25
337.053	90.25
337.281	100.25
337.51	91.25
337.738	102.25
337.966	86.25
338.194	92.25
338.422	85.25
338.65	98.25
338.878	94.25
339.106	89.25
339.334	99.25
339.562	102.25
339.79	90.25
340.018	89.25
340.246	93.25
340.474	99.25
340.702	93.25
340.93	91.25
341.158	85.25
341.386	109.25
341.614	94.25
341.842	93.25
342.07	94.25
342.298	85.25
342.526	83.25
342.754	88.25
342.981	96.25
343.209	92.25
343.437	93.25
343.665	78.25
343.893	83.25
344.12	81.25
344.348	81.25
344.576	86.25
344.804	100.25
345.031	107.25
345.259	90.25
345.487	93.25
345.714	87.25
345.942	88.25
346.17	86.25
346.397	92.25
346.625	82.25
346.853	93.25
347.08	97.25
347.308	94.25
347.535	79.25
347.763	83.25
347.99	82.25
348.218	92.25
348.445	85.25
348.673	90.25
348.9	97.25
349.128	92.25
349.355	90.25
349.583	81.25
349.81	100.25
350.037	85.25
350.265	95.25
350.492	91.25
350.72	102.25
350.947	84.25
351.174	86.25
351.402	89.25
351.629	98.25
351.856	83.25
352.083	78.25
352.311	92.25
352.538	91.25
352.765	77.25
352.992	95.25
353.22	94.25
353.447	90.25
353.674	91.25
353.901	90.25
354.128	82.25
354.355	92.25
354.583	83.25
354.81	93.25
355.037	86.25
355.264	92.25
355.491	79.25
355.718	84.25
355.945	78.25
356.172	96.25
356.399	90.25
356.626	79.25
356.853	84.25
357.08	91.25
357.307	103.25
357.534	75.25
357.761	74.25
357.988	85.25
358.215	70.25
358.441	80.25
358.668	91.25
358.895	87.25
359.122	91.25
359.349	88.25
359.576	90.25
359.802	83.25
360.029	88.25
360.256	86.25
360.483	87.25
360.709	101.25
360.936	89.25
361.163	97.25
361.39	88.25
361.616	86.25
361.843	95.25
362.07	94.25
362.296	77.25
362.523	84.25
362.749	85.25
362.976	87.25
363.203	82.25
363.429	100.25
363.656	84.25
363.882	95.25
364.109	92.25
364.335	95.25
364.562	91.25
364.788	80.25
365.015	89.25
365.241	94.25
365.468	95.25
365.694	102.25
365.92	84.25
366.147	95.25
366.373	90.25
366.599	90.25
366.826	80.25
367.052	93.25
367.278	89.25
367.505	85.25
367.731	92.25
367.957	92.25
368.184	79.25
368.41	81.25
368.636	79.25
368.862	75.25
369.089	95.25
369.315	96.25
369.541	90.25
369.767	97.25
369.993	94.25
370.219	81.25
370.445	83.25
370.672	83.25
370.898	83.25
371.124	91.25
371.35	79.25
371.576	88.25
371.802	86.25
372.028	91.25
372.254	91.25
372.48	79.25
372.706	87.25
372.932	86.25
373.158	85.25
373.384	103.25
373.61	82.25
373.835	76.25
374.061	89.25
374.287	72.25
374.513	86.25
374.739	93.25
374.965	94.25
375.191	94.25
375.416	93.25
375.642	83.25
375.868	93.25
376.094	80.25
376.319	82.25
376.545	81.25
376.771	77.25
376.997	83.25
377.222	78.25
377.448	88.25
377.674	80.25
377.899	75.25
378.125	90.25
378.35	85.25
378.576	94.25
378.802	81.25
379.027	88.25
379.253	81.25
379.478	86.25
379.704	90.25
379.929	88.25
380.155	75.25
380.38	88.25
380.606	90.25
380.831	82.25
381.057	88.25
381.282	95.25
381.507	77.25
381.733	73.25
381.958	96.25
382.184	99.25
382.409	95.25
382.634	85.25
382.86	82.25
383.085	79.25
383.31	82.25
383.535	79.25
383.761	77.25
383.986	85.25
384.211	82.25
384.436	88.25
384.662	88.25
384.887	88.25
385.112	65.25
385.337	67.25
385.562	93.25
385.787	89.25
386.013	88.25
386.238	102.25
386.463	79.25
386.688	104.25
386.913	99.25
387.138	74.25
387.363	101.25
387.588	90.25
387.813	78.25
388.038	95.25
388.263	84.25
388.488	91.25
388.713	86.25
388.938	84.25
389.163	79.25
389.387	84.25
389.612	89.25
389.837	94.25
390.062	97.25
390.287	89.25
390.512	95.25
390.736	101.25
390.961	84.25
391.186	87.25
391.411	102.25
391.636	88.25
391.86	77.25
392.085	79.25
392.31	83.25
392.534	76.25
392.759	97.25
392.984	102.25
393.208	114.25
393.433	111.25
393.658	100.25
393.882	77.25
394.107	89.25
394.331	97.25
394.556	90.25
394.78	83.25
395.005	93.25
395.229	91.25
395.454	85.25
395.678	86.25
395.903	101.25
396.127	95.25
396.352	111.25
396.576	91.25
396.801	93.25
397.025	111.25
397.249	94.25
397.474	100.25
397.698	82.25
397.922	88.25
398.147	88.25
398.371	81.25
398.595	94.25
398.82	90.25
399.044	85.25
399.268	83.25
399.492	95.25
399.717	95.25
399.941	80.25
400.165	90.25
400.389	82.25
400.613	97.25
400.837	95.25
401.062	93.25
401.286	89.25
401.51	91.25
401.734	86.25
401.958	77.25
402.182	79.25
402.406	76.25
402.63	90.25
402.854	92.25
403.078	91.25
403.302	79.25
403.526	90.25
403.75	89.25
403.974	88.25
404.198	81.25
404.422	88.25
404.645	90.25
404.869	88.25
405.093	82.25
405.317	86.25
405.541	82.25
405.765	81.25
405.988	92.25
406.212	83.25
406.436	89.25
406.66	94.25
406.883	77.25
407.107	97.25
407.331	87.25
407.555	81.25
407.778	76.25
408.002	69.25
408.226	89.25
408.449	76.25
408.673	106.25
408.896	92.25
409.12	75.25
409.344	90.25
409.567	88.25
409.791	80.25
410.014	88.25
410.238	82.25
410.461	84.25
410.685	74.25
410.908	89.25
411.132	103.25
411.355	101.25
411.578	101.25
411.802	81.25
412.025	82.25
412.249	79.25
412.472	83.25
412.695	69.25
412.919	89.25
413.142	90.25
413.365	82.25
413.589	83.25
413.812	116.25
414.035	92.25
414.258	87.25
414.482	91.25
414.705	90.25
414.928	96.25
415.151	94.25
415.374	90.25
415.597	81.25
415.821	86.25
416.044	76.25
416.267	70.25
416.49	83.25
416.713	87.25
416.936	88.25
417.159	96.25
417.382	81.25
417.605	87.25
417.828	88.25
418.051	91.25
418.274	89.25
418.497	85.25
418.72	71.25
418.943	91.25
419.166	85.25
419.389	89.25
419.611	78.25
419.834	68.25
420.057	86.25
420.28	90.25
420.503	95.25
420.726	90.25
420.948	74.25
421.171	97.25
421.394	86.25
421.617	83.25
421.839	89.25
422.062	94.25
422.285	95.25
422.507	108.25
422.73	116.25
422.953	118.25
423.175	85.25
423.398	80.25
423.621	88.25
423.843	82.25
424.066	84.25
424.288	88.25
424.511	82.25
424.733	76.25
424.956	90.25
425.178	85.25
425.401	82.25
425.623	87.25
425.846	87.25
426.068	83.25
426.291	81.25
426.513	88.25
426.735	92.25
426.958	83.25
427.18	85.25
427.402	83.25
427.625	86.25
427.847	86.25
428.069	90.25
428.292	99.25
428.514	83.25
428.736	91.25
428.958	99.25
429.181	95.25
429.403	80.25
429.625	91.25
429.847	91.25
430.069	92.25
430.292	90.25
430.514	109.25
430.736	75.25
430.958	91.25
431.18	80.25
431.402	86.25
431.624	81.25
431.846	84.25
432.068	88.25
432.29	77.25
432.512	88.25
432.734	82.25
432.956	82.25
433.178	93.25
433.4	89.25
433.622	94.25
433.844	86.25
434.066	103.25
434.287	88.25
434.509	81.25
434.731	74.25
434.953	93.25
435.175	92.25
435.397	103.25
435.618	81.25
435.84	82.25
436.062	102.25
436.284	90.25
436.505	87.25
436.727	82.25
436.949	90.25
437.17	90.25
437.392	87.25
437.614	86.25
437.835	94.25
438.057	89.25
438.278	80.25
438.5	74.25
438.721	91.25
438.943	83.25
439.165	91.25
439.386	92.25
439.608	88.25
439.829	74.25
440.05	80.25
440.272	75.25
440.493	82.25
440.715	82.25
440.936	90.25
441.158	73.25
441.379	91.25
441.6	96.25
441.822	82.25
442.043	86.25
442.264	66.25
442.486	100.25
442.707	86.25
442.928	92.25
443.149	85.25
443.371	98.25
443.592	95.25
443.813	109.25
444.034	83.25
444.255	85.25
444.476	82.25
444.698	85.25
444.919	95.25
445.14	168.25
445.361	138.25
445.582	110.25
445.803	81.25
446.024	90.25
446.245	70.25
446.466	82.25
446.687	97.25
446.908	88.25
447.129	80.25
447.35	80.25
447.571	83.25
447.792	72.25
448.013	77.25
448.234	80.25
448.455	86.25
448.675	87.25
448.896	94.25
449.117	80.25
449.338	81.25
449.559	78.25
449.779	79.25
450	97.25
450.221	78.25
450.442	79.25
450.662	94.25
450.883	88.25
451.104	78.25
451.324	80.25
451.545	85.25
451.766	95.25
451.986	84.25
452.207	68.25
452.428	98.25
452.648	86.25
452.869	96.25
453.089	80.25
453.31	88.25
453.53	86.25
453.751	95.25
453.971	96.25
454.192	80.25
454.412	69.25
454.633	73.25
454.853	85.25
455.073	79.25
455.294	77.25
455.514	92.25
455.734	90.25
455.955	83.25
456.175	102.25
456.395	97.25
456.616	86.25
456.836	68.25
457.056	116.25
457.276	92.25
457.497	79.25
457.717	86.25
457.937	91.25
458.157	86.25
458.377	95.25
458.598	88.25
458.818	78.25
459.038	100.25
459.258	82.25
459.478	80.25
459.698	84.25
459.918	98.25
460.138	85.25
460.358	88.25
460.578	89.25
460.798	93.25
461.018	82.25
461.238	90.25
461.458	92.25
461.678	87.25
461.898	91.25
462.118	96.25
462.338	86.25
462.558	80.25
462.777	85.25
462.997	74.25
463.217	91.25
463.437	80.25
463.657	82.25
463.876	84.25
464.096	90.25
464.316	93.25
464.536	73.25
464.755	103.25
464.975	88.25
465.195	88.25
465.414	82.25
465.634	85.25
465.854	82.25
466.073	88.25
466.293	92.25
466.512	78.25
466.732	94.25
466.951	79.25
467.171	80.25
467.391	83.25
467.61	94.25
467.829	81.25
468.049	93.25
468.268	72.25
468.488	85.25
468.707	87.25
468.927	80.25
469.146	88.25
469.365	86.25
469.585	96.25
469.804	86.25
470.023	72.25
470.243	94.25
470.462	92.25
470.681	107.25
470.901	84.25
471.12	95.25
471.339	88.25
471.558	98.25
471.777	88.25
471.997	99.25
472.216	78.25
472.435	88.25
472.654	84.25
472.873	87.25
473.092	76.25
473.311	76.25
473.53	95.25
473.749	81.25
473.968	88.25
474.187	84.25
474.406	82.25
474.625	77.25
474.844	81.25
475.063	84.25
475.282	81.25
475.501	90.25
475.72	81.25
475.939	82.25
476.158	83.25
476.377	82.25
476.596	103.25
476.814	81.25
477.033	106.25
477.252	85.25
477.471	92.25
477.69	82.25
477.908	86.25
478.127	77.25
478.346	89.25
478.564	77.25
478.783	80.25
479.002	94.25
479.22	89.25
479.439	92.25
479.658	91.25
479.876	79.25
480.095	87.25
480.313	78.25
480.532	93.25
480.751	108.25
480.969	91.25
481.188	86.25
481.406	96.25
481.624	83.25
481.843	90.25
482.061	90.25
482.28	81.25
482.498	80.25
482.717	94.25
482.935	79.25
483.153	94.25
483.372	94.25
483.59	79.25
483.808	91.25
484.027	95.25
484.245	72.25
484.463	94.25
484.681	95.25
484.9	83.25
485.118	86.25
485.336	94.25
485.554	92.25
485.772	77.25
485.99	88.25
486.209	102.25
486.427	95.25
486.645	89.25
486.863	92.25
487.081	87.25
487.299	89.25
487.517	102.25
487.735	85.25
487.953	98.25
488.171	99.25
488.389	82.25
488.607	81.25
488.825	81.25
489.043	83.25
489.261	86.25
489.479	79.25
489.696	79.25
489.914	78.25
490.132	85.25
490.35	101.25
490.568	85.25
490.786	75.25
491.003	71.25
491.221	72.25
491.439	81.25
491.657	85.25
491.874	86.25
492.092	88.25
492.31	74.25
492.527	102.25
492.745	73.25
492.963	88.25
493.18	83.25
493.398	96.25
493.615	72.25
493.833	83.25
494.05	85.25
494.268	86.25
494.485	88.25
494.703	85.25
494.92	100.25
495.138	95.25
495.355	81.25
495.573	93.25
495.79	92.25
496.008	96.25
496.225	98.25
496.442	89.25
496.66	87.25
496.877	91.25
497.094	97.25
497.312	77.25
497.529	81.25
497.746	95.25
497.963	78.25
498.181	80.25
498.398	86.25
498.615	91.25
498.832	69.25
499.049	82.25
499.267	84.25
499.484	101.25
499.701	94.25
499.918	96.25
500.135	85.25
500.352	97.25
500.569	75.25
500.786	93.25
501.003	92.25
501.22	89.25
501.437	112.25
501.654	97.25
501.871	82.25
502.088	94.25
502.305	79.25
502.522	90.25
502.739	84.25
502.956	79.25
503.172	90.25
503.389	90.25
503.606	83.25
503.823	88.25
504.04	89.25
504.256	87.25
504.473	106.25
504.69	86.25
504.907	87.25
505.123	99.25
505.34	85.25
505.557	86.25
505.773	79.25
505.99	88.25
506.207	82.25
506.423	84.25
506.64	80.25
506.856	81.25
507.073	91.25
507.289	92.25
507.506	88.25
507.722	86.25
507.939	95.25
508.155	89.25
508.372	87.25
508.588	92.25
508.805	92.25
509.021	93.25
509.238	100.25
509.454	95.25
509.67	92.25
509.887	97.25
510.103	78.25
510.319	90.25
510.536	90.25
510.752	74.25
510.968	83.25
511.184	90.25
511.401	85.25
511.617	101.25
511.833	109.25
512.049	95.25
512.265	99.25
512.481	103.25
512.698	96.25
512.914	100.25
513.13	91.25
513.346	84.25
513.562	98.25
513.778	89.25
513.994	84.25
514.21	87.25
514.426	103.25
514.642	82.25
514.858	83.25
515.074	88.25
515.29	89.25
515.506	98.25
515.721	90.25
515.937	95.25
516.153	85.25
516.369	94.25
516.585	87.25
516.801	101.25
517.016	88.25
517.232	96.25
517.448	97.25
517.664	86.25
517.879	82.25
518.095	102.25
518.311	90.25
518.527	94.25
518.742	94.25
518.958	82.25
519.173	91.25
519.389	92.25
519.605	92.25
519.82	90.25
520.036	82.25
520.251	77.25
520.467	77.25
520.682	92.25
520.898	97.25
521.113	93.25
521.329	98.25
521.544	88.25
521.76	97.25
521.975	89.25
522.19	96.25
522.406	90.25
522.621	88.25
522.836	100.25
523.052	90.25
523.267	99.25
523.482	85.25
523.698	84.25
523.913	75.25
524.128	81.25
524.343	84.25
524.559	76.25
524.774	97.25
524.989	92.25
525.204	80.25
525.419	90.25
525.634	88.25
525.849	83.25
526.064	82.25
526.28	98.25
526.495	113.25
526.71	95.25
526.925	95.25
527.14	105.25
527.355	97.25
527.57	96.25
527.785	103.25
527.999	98.25
528.214	88.25
528.429	78.25
528.644	86.25
528.859	82.25
529.074	103.25
529.289	77.25
529.503	93.25
529.718	83.25
529.933	93.25
530.148	89.25
530.363	86.25
530.577	83.25
530.792	85.25
531.007	98.25
531.221	93.25
531.436	78.25
531.651	87.25
531.865	78.25
532.08	77.25
532.295	98.25
532.509	90.25
532.724	96.25
532.938	82.25
533.153	84.25
533.367	92.25
533.582	104.25
533.796	96.25
534.011	86.25
534.225	95.25
534.44	97.25
534.654	98.25
534.868	94.25
535.083	98.25
535.297	89.25
535.511	93.25
535.726	89.25
535.94	93.25
536.154	80.25
536.369	95.25
536.583	92.25
536.797	82.25
537.011	85.25
537.225	90.25
537.44	95.25
537.654	100.25
537.868	89.25
538.082	80.25
538.296	88.25
538.51	86.25
538.724	88.25
538.938	94.25
539.153	81.25
539.367	83.25
539.581	80.25
539.795	82.25
540.009	87.25
540.222	108.25
540.436	107.25
540.65	91.25
540.864	85.25
541.078	94.25
541.292	79.25
541.506	76.25
541.72	94.25
541.934	87.25
542.147	93.25
542.361	85.25
542.575	95.25
542.789	90.25
543.002	86.25
543.216	94.25
543.43	82.25
543.644	78.25
543.857	94.25
544.071	102.25
544.285	109.25
544.498	99.25
544.712	86.25
544.925	95.25
545.139	87.25
545.352	78.25
545.566	84.25
545.779	88.25
545.993	83.25
546.206	94.25
546.42	92.25
546.633	94.25
546.847	108.25
547.06	100.25
547.274	89.25
547.487	93.25
547.7	108.25
547.914	88.25
548.127	107.25
548.34	90.25
548.554	104.25
548.767	93.25
548.98	100.25
549.193	105.25
549.407	94.25
549.62	104.25
549.833	106.25
550.046	104.25
550.259	97.25
550.473	96.25
550.686	103.25
550.899	105.25
551.112	100.25
551.325	102.25
551.538	114.25
551.751	109.25
551.964	120.25
552.177	122.25
552.39	113.25
552.603	122.25
552.816	97.25
553.029	97.25
553.242	110.25
553.455	114.25
553.667	113.25
553.88	111.25
554.093	134.25
554.306	117.25
554.519	124.25
554.732	116.25
554.944	120.25
555.157	109.25
555.37	105.25
555.583	104.25
555.795	106.25
556.008	99.25
556.221	98.25
556.433	121.25
556.646	105.25
556.859	100.25
557.071	100.25
557.284	104.25
557.496	106.25
557.709	88.25
557.921	96.25
558.134	96.25
558.346	92.25
558.559	94.25
558.771	96.25
558.984	113.25
559.196	114.25
559.409	104.25
559.621	124.25
559.833	92.25
560.046	101.25
560.258	92.25
560.47	95.25
560.683	99.25
560.895	102.25
561.107	98.25
561.32	98.25
561.532	98.25
561.744	83.25
561.956	99.25
562.168	90.25
562.381	79.25
562.593	90.25
562.805	97.25
563.017	101.25
563.229	97.25
563.441	91.25
563.653	92.25
563.865	102.25
564.077	100.25
564.289	94.25
564.501	107.25
564.713	92.25
564.925	85.25
565.137	75.25
565.349	93.25
565.561	95.25
565.773	93.25
565.985	86.25
566.197	92.25
566.408	85.25
566.62	89.25
566.832	76.25
567.044	99.25
567.255	91.25
567.467	91.25
567.679	96.25
567.891	100.25
568.102	97.25
568.314	90.25
568.526	90.25
568.737	91.25
568.949	80.25
569.161	82.25
569.372	86.25
569.584	87.25
569.795	88.25
570.007	91.25
570.218	87.25
570.43	93.25
570.641	80.25
570.853	90.25
571.064	82.25
571.276	88.25
571.487	85.25
571.698	94.25
571.91	108.25
572.121	87.25
572.333	77.25
572.544	90.25
572.755	84.25
572.966	96.25
573.178	89.25
573.389	98.25
573.6	96.25
573.811	83.25
574.023	85.25
574.234	96.25
574.445	89.25
574.656	100.25
574.867	97.25
575.078	89.25
575.289	96.25
575.501	98.25
575.712	98.25
575.923	90.25
576.134	90.25
576.345	94.25
576.556	95.25
576.767	94.25
576.978	89.25
577.188	97.25
577.399	86.25
577.61	101.25
577.821	93.25
578.032	100.25
578.243	97.25
578.454	89.25
578.665	85.25
578.875	97.25
579.086	103.25
579.297	92.25
579.508	96.25
579.718	98.25
579.929	95.25
580.14	86.25
580.35	81.25
580.561	92.25
580.772	93.25
580.982	81.25
581.193	82.25
581.403	87.25
581.614	95.25
581.825	84.25
582.035	88.25
582.246	106.25
582.456	87.25
582.667	100.25
582.877	83.25
583.087	85.25
583.298	74.25
583.508	86.25
583.719	82.25
583.929	86.25
584.139	95.25
584.35	78.25
584.56	85.25
584.77	104.25
584.981	90.25
585.191	92.25
585.401	77.25
585.611	96.25
585.821	101.25
586.032	100.25
586.242	88.25
586.452	85.25
586.662	94.25
586.872	91.25
587.082	101.25
587.292	94.25
587.502	90.25
587.713	89.25
587.923	85.25
588.133	91.25
588.343	95.25
588.553	88.25
588.762	100.25
588.972	95.25
589.182	173.25
589.392	147.25
589.602	122.25
589.812	176.25
590.022	129.25
590.232	101.25
590.441	93.25
590.651	91.25
590.861	108.25
591.071	100.25
591.281	89.25
591.49	81.25
591.7	90.25
591.91	100.25
592.119	79.25
592.329	89.25
592.539	88.25
592.748	84.25
592.958	101.25
593.167	98.25
593.377	85.25
593.587	99.25
593.796	87.25
594.006	95.25
594.215	99.25
594.424	90.25
594.634	94.25
594.843	108.25
595.053	105.25
595.262	98.25
595.472	93.25
595.681	91.25
595.89	91.25
596.1	87.25
596.309	97.25
596.518	92.25
596.727	88.25
596.937	111.25
597.146	91.25
597.355	95.25
597.564	88.25
597.774	106.25
597.983	93.25
598.192	81.25
598.401	93.25
598.61	96.25
598.819	101.25
599.028	102.25
599.237	108.25
599.446	83.25
599.655	105.25
599.864	100.25
600.073	104.25
600.282	98.25
600.491	113.25
600.7	111.25
600.909	110.25
601.118	102.25
601.327	102.25
601.536	88.25
601.745	112.25
601.953	92.25
602.162	103.25
602.371	104.25
602.58	100.25
602.789	98.25
602.997	92.25
603.206	98.25
603.415	96.25
603.623	94.25
603.832	103.25
604.041	116.25
604.249	103.25
604.458	105.25
604.666	108.25
604.875	107.25
605.084	107.25
605.292	117.25
605.501	109.25
605.709	97.25
605.918	110.25
606.126	95.25
606.334	80.25
606.543	107.25
606.751	100.25
606.96	98.25
607.168	97.25
607.376	94.25
607.585	110.25
607.793	107.25
608.001	93.25
608.21	96.25
608.418	103.25
608.626	103.25
608.834	101.25
609.043	120.25
609.251	109.25
609.459	96.25
609.667	92.25
609.875	110.25
610.083	100.25
610.291	133.25
610.499	124.25
610.707	92.25
610.916	104.25
611.124	105.25
611.332	105.25
611.54	106.25
611.748	101.25
611.955	98.25
612.163	114.25
612.371	109.25
612.579	109.25
612.787	105.25
612.995	104.25
613.203	104.25
613.411	105.25
613.618	98.25
613.826	84.25
614.034	113.25
614.242	121.25
614.449	113.25
614.657	112.25
614.865	109.25
615.072	108.25
615.28	101.25
615.488	110.25
615.695	116.25
615.903	116.25
616.111	109.25
616.318	129.25
616.526	124.25
616.733	117.25
616.941	117.25
617.148	120.25
617.356	108.25
617.563	116.25
617.771	99.25
617.978	106.25
618.185	110.25
618.393	110.25
618.6	103.25
618.807	92.25
619.015	94.25
619.222	107.25
619.429	105.25
619.637	103.25
619.844	88.25
620.051	113.25
620.258	113.25
620.466	95.25
620.673	101.25
620.88	112.25
621.087	106.25
621.294	107.25
621.501	115.25
621.708	127.25
621.915	105.25
622.122	109.25
622.329	108.25
622.536	94.25
622.743	124.25
622.95	114.25
623.157	131.25
623.364	124.25
623.571	111.25
623.778	127.25
623.985	128.25
624.192	116.25
624.399	119.25
624.606	116.25
624.812	119.25
625.019	117.25
625.226	113.25
625.433	130.25
625.639	121.25
625.846	113.25
626.053	118.25
626.259	118.25
626.466	111.25
626.673	110.25
626.879	90.25
627.086	117.25
627.293	111.25
627.499	118.25
627.706	125.25
627.912	102.25
628.119	104.25
628.325	101.25
628.532	91.25
628.738	88.25
628.945	95.25
629.151	94.25
629.357	94.25
629.564	101.25
629.77	96.25
629.976	89.25
630.183	95.25
630.389	87.25
630.595	96.25
630.802	85.25
631.008	100.25
631.214	104.25
631.42	98.25
631.627	101.25
631.833	102.25
632.039	102.25
632.245	97.25
632.451	101.25
632.657	101.25
632.863	92.25
633.069	96.25
633.275	93.25
633.481	77.25
633.688	89.25
633.893	99.25
634.099	106.25
634.305	99.25
634.511	86.25
634.717	96.25
634.923	94.25
635.129	91.25
635.335	86.25
635.541	87.25
635.747	88.25
635.952	95.25
636.158	87.25
636.364	89.25
636.57	95.25
636.775	89.25
636.981	84.25
637.187	90.25
637.392	90.25
637.598	88.25
637.804	87.25
638.009	103.25
638.215	93.25
638.421	91.25
638.626	89.25
638.832	95.25
639.037	91.25
639.243	85.25
639.448	89.25
639.654	102.25
639.859	95.25
640.065	85.25
640.27	102.25
640.475	92.25
640.681	95.25
640.886	76.25
641.091	86.25
641.297	88.25
641.502	92.25
641.707	90.25
641.913	79.25
642.118	84.25
642.323	98.25
642.528	95.25
642.733	101.25
642.939	90.25
643.144	98.25
643.349	88.25
643.554	82.25
643.759	92.25
643.964	94.25
644.169	105.25
644.374	85.25
644.579	78.25
644.784	94.25
644.989	87.25
645.194	88.25
645.399	96.25
645.604	89.25
645.809	90.25
646.014	96.25
646.219	82.25
646.423	98.25
646.628	88.25
646.833	83.25
647.038	99.25
647.243	96.25
647.447	92.25
647.652	92.25
647.857	93.25
648.062	89.25
648.266	86.25
648.471	80.25
648.676	90.25
648.88	91.25
649.085	87.25
649.289	88.25
649.494	87.25
649.698	89.25
649.903	83.25
650.107	79.25
650.312	85.25
650.516	86.25
650.721	81.25
650.925	81.25
651.13	79.25
651.334	92.25
651.539	93.25
651.743	99.25
651.947	95.25
652.152	84.25
652.356	84.25
652.56	95.25
652.764	75.25
652.969	94.25
653.173	97.25
653.377	88.25
653.581	92.25
653.785	93.25
653.99	78.25
654.194	82.25
654.398	81.25
654.602	92.25
654.806	87.25
655.01	92.25
655.214	99.25
655.418	91.25
655.622	83.25
655.826	93.25
656.03	102.25
656.234	82.25
656.438	95.25
656.642	98.25
656.846	85.25
657.049	85.25
657.253	102.25
657.457	87.25
657.661	82.25
657.865	93.25
658.068	98.25
658.272	74.25
658.476	89.25
658.68	74.25
658.883	93.25
659.087	90.25
659.291	75.25
659.494	100.25
659.698	84.25
659.901	93.25
660.105	84.25
660.309	74.25
660.512	94.25
660.716	99.25
660.919	90.25
661.123	86.25
661.326	93.25
661.53	89.25
661.733	80.25
661.936	84.25
662.14	73.25
662.343	95.25
662.546	92.25
662.75	101.25
662.953	105.25
663.156	105.25
663.36	87.25
663.563	78.25
663.766	88.25
663.969	86.25
664.173	87.25
664.376	97.25
664.579	73.25
664.782	79.25
664.985	86.25
665.188	89.25
665.391	72.25
665.594	82.25
665.797	94.25
666	82.25
666.203	90.25
666.406	81.25
666.609	75.25
666.812	87.25
667.015	90.25
667.218	87.25
667.421	87.25
667.624	69.25
667.827	84.25
668.03	73.25
668.232	93.25
668.435	98.25
668.638	95.25
668.841	80.25
669.043	86.25
669.246	88.25
669.449	85.25
669.651	80.25
669.854	92.25
670.057	117.25
670.259	99.25
670.462	82.25
670.665	88.25
670.867	94.25
671.07	94.25
671.272	82.25
671.475	90.25
671.677	96.25
671.88	101.25
672.082	89.25
672.284	85.25
672.487	90.25
672.689	81.25
672.892	87.25
