Data from Soil_50_1_HRD10591_00012.txt Node
Date: Thu Feb 19 11:30:22 EST 2026
User: Yrep
Spectrometer: HR+D1059
Trigger mode: 1
Integration Time (sec): 1.000000E-1
Scans to average: 1
Electric dark correction enabled: true
Nonlinearity correction enabled: false
Boxcar width: 0
XAxis mode: Wavelengths
Number of Pixels in Spectrum: 2048
>>>>>Begin Spectral Data<<<<<
223.165	-12.25
223.4	-12.25
223.635	-12.25
223.869	-15.25
224.104	-22.25
224.338	-17.25
224.573	-28.25
224.808	-7.25
225.042	-2.25
225.277	-12.25
225.511	-5.25
225.746	3.75
225.98	12.75
226.215	10.75
226.449	15.75
226.683	12.75
226.918	28.75
227.152	37.75
227.387	27.75
227.621	33.75
227.856	41.75
228.09	58.75
228.324	64.75
228.559	66.75
228.793	57.75
229.027	64.75
229.262	74.75
229.496	69.75
229.73	78.75
229.964	77.75
230.199	70.75
230.433	76.75
230.667	80.75
230.901	74.75
231.136	84.75
231.37	80.75
231.604	72.75
231.838	105.75
232.072	82.75
232.306	70.75
232.541	84.75
232.775	81.75
233.009	74.75
233.243	80.75
233.477	89.75
233.711	88.75
233.945	80.75
234.179	72.75
234.413	78.75
234.647	84.75
234.881	86.75
235.115	74.75
235.349	68.75
235.583	72.75
235.817	56.75
236.051	95.75
236.285	78.75
236.519	74.75
236.753	75.75
236.987	74.75
237.221	88.75
237.455	83.75
237.689	72.75
237.922	81.75
238.156	67.75
238.39	77.75
238.624	87.75
238.858	80.75
239.091	86.75
239.325	76.75
239.559	72.75
239.793	79.75
240.027	75.75
240.26	87.75
240.494	77.75
240.728	64.75
240.961	86.75
241.195	86.75
241.429	88.75
241.662	79.75
241.896	72.75
242.13	68.75
242.363	89.75
242.597	84.75
242.83	76.75
243.064	84.75
243.298	84.75
243.531	82.75
243.765	75.75
243.998	85.75
244.232	76.75
244.465	75.75
244.699	77.75
244.932	75.75
245.166	95.75
245.399	78.75
245.633	82.75
245.866	79.75
246.099	72.75
246.333	81.75
246.566	79.75
246.8	72.75
247.033	80.75
247.266	75.75
247.5	73.75
247.733	79.75
247.966	76.75
248.2	86.75
248.433	78.75
248.666	71.75
248.899	71.75
249.133	79.75
249.366	84.75
249.599	79.75
249.832	84.75
250.066	87.75
250.299	78.75
250.532	68.75
250.765	71.75
250.998	78.75
251.231	81.75
251.465	83.75
251.698	88.75
251.931	73.75
252.164	86.75
252.397	80.75
252.63	73.75
252.863	85.75
253.096	76.75
253.329	76.75
253.562	81.75
253.795	84.75
254.028	78.75
254.261	96.75
254.494	81.75
254.727	79.75
254.96	85.75
255.193	80.75
255.426	84.75
255.659	75.75
255.892	94.75
256.124	73.75
256.357	76.75
256.59	79.75
256.823	71.75
257.056	76.75
257.289	88.75
257.521	76.75
257.754	72.75
257.987	69.75
258.22	71.75
258.452	72.75
258.685	74.75
258.918	78.75
259.151	73.75
259.383	92.75
259.616	71.75
259.849	74.75
260.081	94.75
260.314	94.75
260.547	90.75
260.779	72.75
261.012	70.75
261.244	89.75
261.477	88.75
261.71	69.75
261.942	78.75
262.175	91.75
262.407	75.75
262.64	82.75
262.872	76.75
263.105	83.75
263.337	92.75
263.57	88.75
263.802	96.75
264.035	74.75
264.267	75.75
264.499	77.75
264.732	76.75
264.964	102.75
265.197	95.75
265.429	83.75
265.661	76.75
265.894	83.75
266.126	86.75
266.358	80.75
266.591	87.75
266.823	80.75
267.055	75.75
267.287	91.75
267.52	88.75
267.752	95.75
267.984	91.75
268.216	81.75
268.448	76.75
268.681	82.75
268.913	84.75
269.145	91.75
269.377	79.75
269.609	73.75
269.841	90.75
270.073	77.75
270.306	85.75
270.538	76.75
270.77	86.75
271.002	87.75
271.234	83.75
271.466	86.75
271.698	86.75
271.93	78.75
272.162	84.75
272.394	83.75
272.626	89.75
272.858	81.75
273.09	81.75
273.322	83.75
273.553	84.75
273.785	87.75
274.017	93.75
274.249	85.75
274.481	81.75
274.713	88.75
274.945	85.75
275.176	81.75
275.408	105.75
275.64	74.75
275.872	88.75
276.104	86.75
276.335	75.75
276.567	74.75
276.799	76.75
277.031	76.75
277.262	85.75
277.494	97.75
277.726	97.75
277.957	74.75
278.189	98.75
278.421	85.75
278.652	83.75
278.884	80.75
279.115	66.75
279.347	90.75
279.579	91.75
279.81	88.75
280.042	82.75
280.273	75.75
280.505	68.75
280.736	74.75
280.968	94.75
281.199	87.75
281.431	90.75
281.662	89.75
281.894	79.75
282.125	94.75
282.356	95.75
282.588	91.75
282.819	77.75
283.051	89.75
283.282	73.75
283.513	86.75
283.745	88.75
283.976	83.75
284.207	88.75
284.439	76.75
284.67	71.75
284.901	87.75
285.132	85.75
285.364	72.75
285.595	78.75
285.826	85.75
286.057	84.75
286.288	75.75
286.52	82.75
286.751	94.75
286.982	84.75
287.213	88.75
287.444	100.75
287.675	80.75
287.906	77.75
288.138	83.75
288.369	77.75
288.6	87.75
288.831	79.75
289.062	77.75
289.293	80.75
289.524	90.75
289.755	93.75
289.986	91.75
290.217	89.75
290.448	84.75
290.679	92.75
290.91	85.75
291.141	95.75
291.371	98.75
291.602	86.75
291.833	68.75
292.064	76.75
292.295	90.75
292.526	80.75
292.757	93.75
292.987	89.75
293.218	85.75
293.449	75.75
293.68	84.75
293.91	82.75
294.141	95.75
294.372	91.75
294.603	98.75
294.833	73.75
295.064	80.75
295.295	89.75
295.525	92.75
295.756	86.75
295.987	97.75
296.217	93.75
296.448	82.75
296.679	84.75
296.909	82.75
297.14	78.75
297.37	92.75
297.601	91.75
297.831	83.75
298.062	80.75
298.292	68.75
298.523	83.75
298.753	87.75
298.984	93.75
299.214	93.75
299.445	94.75
299.675	88.75
299.905	90.75
300.136	97.75
300.366	88.75
300.597	87.75
300.827	82.75
301.057	75.75
301.288	94.75
301.518	92.75
301.748	83.75
301.979	100.75
302.209	96.75
302.439	80.75
302.669	72.75
302.9	95.75
303.13	89.75
303.36	78.75
303.59	93.75
303.82	82.75
304.051	78.75
304.281	74.75
304.511	80.75
304.741	81.75
304.971	87.75
305.201	89.75
305.431	83.75
305.661	91.75
305.891	89.75
306.121	86.75
306.352	81.75
306.582	89.75
306.812	82.75
307.042	89.75
307.272	72.75
307.502	78.75
307.731	84.75
307.961	84.75
308.191	92.75
308.421	82.75
308.651	86.75
308.881	93.75
309.111	91.75
309.341	83.75
309.571	94.75
309.8	92.75
310.03	89.75
310.26	93.75
310.49	89.75
310.72	84.75
310.949	84.75
311.179	86.75
311.409	83.75
311.639	87.75
311.868	74.75
312.098	85.75
312.328	72.75
312.557	97.75
312.787	92.75
313.017	106.75
313.246	76.75
313.476	80.75
313.706	86.75
313.935	76.75
314.165	80.75
314.394	84.75
314.624	79.75
314.853	77.75
315.083	88.75
315.312	88.75
315.542	85.75
315.771	78.75
316.001	94.75
316.23	103.75
316.46	90.75
316.689	92.75
316.919	101.75
317.148	99.75
317.377	86.75
317.607	90.75
317.836	80.75
318.065	92.75
318.295	81.75
318.524	79.75
318.753	90.75
318.983	90.75
319.212	88.75
319.441	82.75
319.67	91.75
319.9	87.75
320.129	85.75
320.358	76.75
320.587	88.75
320.816	93.75
321.046	80.75
321.275	83.75
321.504	88.75
321.733	82.75
321.962	87.75
322.191	80.75
322.42	92.75
322.649	95.75
322.878	80.75
323.108	85.75
323.337	86.75
323.566	92.75
323.795	83.75
324.024	89.75
324.253	92.75
324.482	84.75
324.71	87.75
324.939	80.75
325.168	91.75
325.397	84.75
325.626	78.75
325.855	85.75
326.084	85.75
326.313	83.75
326.542	89.75
326.77	69.75
326.999	86.75
327.228	72.75
327.457	97.75
327.686	90.75
327.914	77.75
328.143	76.75
328.372	80.75
328.6	94.75
328.829	83.75
329.058	82.75
329.287	77.75
329.515	88.75
329.744	96.75
329.972	88.75
330.201	85.75
330.43	87.75
330.658	99.75
330.887	84.75
331.115	80.75
331.344	85.75
331.572	87.75
331.801	88.75
332.03	88.75
332.258	74.75
332.486	100.75
332.715	76.75
332.943	92.75
333.172	86.75
333.4	93.75
333.629	82.75
333.857	84.75
334.085	87.75
334.314	91.75
334.542	86.75
334.771	91.75
334.999	92.75
335.227	98.75
335.455	89.75
335.684	95.75
335.912	104.75
336.14	74.75
336.369	91.75
336.597	100.75
336.825	86.75
337.053	80.75
337.281	76.75
337.51	89.75
337.738	93.75
337.966	80.75
338.194	79.75
338.422	74.75
338.65	72.75
338.878	69.75
339.106	84.75
339.334	106.75
339.562	93.75
339.79	90.75
340.018	76.75
340.246	76.75
340.474	90.75
340.702	86.75
340.93	69.75
341.158	92.75
341.386	86.75
341.614	68.75
341.842	80.75
342.07	86.75
342.298	83.75
342.526	79.75
342.754	100.75
342.981	92.75
343.209	81.75
343.437	86.75
343.665	85.75
343.893	84.75
344.12	85.75
344.348	85.75
344.576	88.75
344.804	84.75
345.031	84.75
345.259	87.75
345.487	82.75
345.714	83.75
345.942	82.75
346.17	93.75
346.397	76.75
346.625	95.75
346.853	82.75
347.08	95.75
347.308	86.75
347.535	95.75
347.763	82.75
347.99	79.75
348.218	79.75
348.445	71.75
348.673	92.75
348.9	80.75
349.128	99.75
349.355	81.75
349.583	86.75
349.81	91.75
350.037	85.75
350.265	86.75
350.492	81.75
350.72	85.75
350.947	83.75
351.174	104.75
351.402	93.75
351.629	82.75
351.856	84.75
352.083	94.75
352.311	90.75
352.538	85.75
352.765	83.75
352.992	89.75
353.22	81.75
353.447	86.75
353.674	84.75
353.901	78.75
354.128	69.75
354.355	77.75
354.583	92.75
354.81	84.75
355.037	91.75
355.264	70.75
355.491	83.75
355.718	90.75
355.945	93.75
356.172	97.75
356.399	80.75
356.626	68.75
356.853	89.75
357.08	98.75
357.307	103.75
357.534	80.75
357.761	82.75
357.988	79.75
358.215	90.75
358.441	91.75
358.668	81.75
358.895	96.75
359.122	92.75
359.349	102.75
359.576	81.75
359.802	81.75
360.029	89.75
360.256	72.75
360.483	84.75
360.709	77.75
360.936	76.75
361.163	82.75
361.39	89.75
361.616	84.75
361.843	78.75
362.07	89.75
362.296	78.75
362.523	73.75
362.749	81.75
362.976	87.75
363.203	91.75
363.429	69.75
363.656	81.75
363.882	74.75
364.109	89.75
364.335	91.75
364.562	89.75
364.788	96.75
365.015	87.75
365.241	80.75
365.468	88.75
365.694	78.75
365.92	91.75
366.147	91.75
366.373	76.75
366.599	75.75
366.826	89.75
367.052	71.75
367.278	87.75
367.505	86.75
367.731	93.75
367.957	84.75
368.184	73.75
368.41	90.75
368.636	84.75
368.862	80.75
369.089	99.75
369.315	89.75
369.541	84.75
369.767	87.75
369.993	84.75
370.219	88.75
370.445	86.75
370.672	75.75
370.898	88.75
371.124	74.75
371.35	90.75
371.576	73.75
371.802	85.75
372.028	98.75
372.254	90.75
372.48	91.75
372.706	85.75
372.932	80.75
373.158	91.75
373.384	90.75
373.61	96.75
373.835	81.75
374.061	86.75
374.287	88.75
374.513	90.75
374.739	94.75
374.965	91.75
375.191	92.75
375.416	88.75
375.642	91.75
375.868	97.75
376.094	106.75
376.319	62.75
376.545	88.75
376.771	80.75
376.997	75.75
377.222	74.75
377.448	91.75
377.674	74.75
377.899	84.75
378.125	83.75
378.35	92.75
378.576	82.75
378.802	94.75
379.027	90.75
379.253	95.75
379.478	84.75
379.704	73.75
379.929	86.75
380.155	90.75
380.38	89.75
380.606	86.75
380.831	82.75
381.057	92.75
381.282	100.75
381.507	91.75
381.733	80.75
381.958	83.75
382.184	88.75
382.409	88.75
382.634	85.75
382.86	90.75
383.085	88.75
383.31	92.75
383.535	93.75
383.761	87.75
383.986	86.75
384.211	83.75
384.436	88.75
384.662	102.75
384.887	93.75
385.112	85.75
385.337	104.75
385.562	98.75
385.787	89.75
386.013	91.75
386.238	82.75
386.463	99.75
386.688	103.75
386.913	87.75
387.138	90.75
387.363	76.75
387.588	71.75
387.813	85.75
388.038	84.75
388.263	102.75
388.488	79.75
388.713	85.75
388.938	96.75
389.163	76.75
389.387	98.75
389.612	85.75
389.837	82.75
390.062	97.75
390.287	91.75
390.512	92.75
390.736	83.75
390.961	85.75
391.186	84.75
391.411	80.75
391.636	81.75
391.86	92.75
392.085	82.75
392.31	70.75
392.534	71.75
392.759	80.75
392.984	98.75
393.208	105.75
393.433	123.75
393.658	92.75
393.882	89.75
394.107	90.75
394.331	91.75
394.556	96.75
394.78	81.75
395.005	84.75
395.229	80.75
395.454	82.75
395.678	81.75
395.903	94.75
396.127	83.75
396.352	96.75
396.576	89.75
396.801	98.75
397.025	110.75
397.249	98.75
397.474	97.75
397.698	88.75
397.922	78.75
398.147	91.75
398.371	74.75
398.595	71.75
398.82	82.75
399.044	82.75
399.268	84.75
399.492	90.75
399.717	86.75
399.941	72.75
400.165	94.75
400.389	82.75
400.613	92.75
400.837	97.75
401.062	90.75
401.286	80.75
401.51	95.75
401.734	80.75
401.958	76.75
402.182	88.75
402.406	81.75
402.63	72.75
402.854	72.75
403.078	93.75
403.302	78.75
403.526	80.75
403.75	80.75
403.974	97.75
404.198	88.75
404.422	84.75
404.645	75.75
404.869	80.75
405.093	81.75
405.317	90.75
405.541	85.75
405.765	82.75
405.988	86.75
406.212	80.75
406.436	97.75
406.66	78.75
406.883	86.75
407.107	65.75
407.331	80.75
407.555	89.75
407.778	84.75
408.002	77.75
408.226	97.75
408.449	84.75
408.673	78.75
408.896	103.75
409.12	93.75
409.344	80.75
409.567	72.75
409.791	79.75
410.014	94.75
410.238	81.75
410.461	84.75
410.685	80.75
410.908	81.75
411.132	77.75
411.355	73.75
411.578	93.75
411.802	78.75
412.025	78.75
412.249	75.75
412.472	78.75
412.695	74.75
412.919	80.75
413.142	88.75
413.365	81.75
413.589	88.75
413.812	77.75
414.035	83.75
414.258	92.75
414.482	80.75
414.705	77.75
414.928	90.75
415.151	88.75
415.374	92.75
415.597	82.75
415.821	72.75
416.044	77.75
416.267	99.75
416.49	86.75
416.713	75.75
416.936	72.75
417.159	80.75
417.382	83.75
417.605	94.75
417.828	86.75
418.051	90.75
418.274	76.75
418.497	90.75
418.72	84.75
418.943	75.75
419.166	84.75
419.389	89.75
419.611	76.75
419.834	69.75
420.057	70.75
420.28	80.75
420.503	88.75
420.726	80.75
420.948	86.75
421.171	103.75
421.394	96.75
421.617	86.75
421.839	90.75
422.062	89.75
422.285	88.75
422.507	96.75
422.73	108.75
422.953	103.75
423.175	79.75
423.398	80.75
423.621	80.75
423.843	82.75
424.066	86.75
424.288	85.75
424.511	81.75
424.733	93.75
424.956	87.75
425.178	82.75
425.401	73.75
425.623	91.75
425.846	89.75
426.068	81.75
426.291	87.75
426.513	89.75
426.735	74.75
426.958	86.75
427.18	82.75
427.402	73.75
427.625	83.75
427.847	93.75
428.069	75.75
428.292	93.75
428.514	82.75
428.736	80.75
428.958	76.75
429.181	56.75
429.403	80.75
429.625	74.75
429.847	88.75
430.069	83.75
430.292	98.75
430.514	90.75
430.736	81.75
430.958	86.75
431.18	100.75
431.402	80.75
431.624	97.75
431.846	86.75
432.068	76.75
432.29	84.75
432.512	88.75
432.734	68.75
432.956	89.75
433.178	82.75
433.4	86.75
433.622	102.75
433.844	102.75
434.066	87.75
434.287	91.75
434.509	77.75
434.731	87.75
434.953	84.75
435.175	75.75
435.397	89.75
435.618	89.75
435.84	81.75
436.062	77.75
436.284	75.75
436.505	91.75
436.727	77.75
436.949	98.75
437.17	76.75
437.392	78.75
437.614	75.75
437.835	76.75
438.057	79.75
438.278	87.75
438.5	78.75
438.721	94.75
438.943	85.75
439.165	76.75
439.386	92.75
439.608	91.75
439.829	91.75
440.05	93.75
440.272	85.75
440.493	84.75
440.715	81.75
440.936	98.75
441.158	77.75
441.379	96.75
441.6	81.75
441.822	86.75
442.043	80.75
442.264	78.75
442.486	77.75
442.707	94.75
442.928	89.75
443.149	89.75
443.371	85.75
443.592	104.75
443.813	76.75
444.034	77.75
444.255	84.75
444.476	84.75
444.698	87.75
444.919	90.75
445.14	158.75
445.361	126.75
445.582	108.75
445.803	104.75
446.024	90.75
446.245	87.75
446.466	89.75
446.687	84.75
446.908	86.75
447.129	68.75
447.35	82.75
447.571	80.75
447.792	101.75
448.013	87.75
448.234	82.75
448.455	78.75
448.675	81.75
448.896	66.75
449.117	77.75
449.338	75.75
449.559	81.75
449.779	82.75
450	81.75
450.221	79.75
450.442	74.75
450.662	74.75
450.883	74.75
451.104	89.75
451.324	83.75
451.545	85.75
451.766	87.75
451.986	86.75
452.207	86.75
452.428	99.75
452.648	80.75
452.869	88.75
453.089	88.75
453.31	87.75
453.53	80.75
453.751	72.75
453.971	80.75
454.192	82.75
454.412	93.75
454.633	89.75
454.853	83.75
455.073	86.75
455.294	85.75
455.514	81.75
455.734	90.75
455.955	87.75
456.175	81.75
456.395	84.75
456.616	78.75
456.836	77.75
457.056	78.75
457.276	80.75
457.497	72.75
457.717	93.75
457.937	88.75
458.157	78.75
458.377	80.75
458.598	80.75
458.818	82.75
459.038	100.75
459.258	89.75
459.478	80.75
459.698	88.75
459.918	82.75
460.138	81.75
460.358	82.75
460.578	94.75
460.798	93.75
461.018	83.75
461.238	96.75
461.458	80.75
461.678	80.75
461.898	84.75
462.118	90.75
462.338	96.75
462.558	85.75
462.777	74.75
462.997	86.75
463.217	85.75
463.437	87.75
463.657	75.75
463.876	89.75
464.096	95.75
464.316	86.75
464.536	87.75
464.755	92.75
464.975	88.75
465.195	74.75
465.414	76.75
465.634	72.75
465.854	79.75
466.073	88.75
466.293	84.75
466.512	90.75
466.732	80.75
466.951	87.75
467.171	89.75
467.391	85.75
467.61	72.75
467.829	87.75
468.049	79.75
468.268	78.75
468.488	79.75
468.707	86.75
468.927	94.75
469.146	65.75
469.365	74.75
469.585	88.75
469.804	82.75
470.023	76.75
470.243	86.75
470.462	85.75
470.681	85.75
470.901	82.75
471.12	78.75
471.339	81.75
471.558	91.75
471.777	91.75
471.997	98.75
472.216	86.75
472.435	91.75
472.654	100.75
472.873	88.75
473.092	85.75
473.311	84.75
473.53	73.75
473.749	86.75
473.968	80.75
474.187	83.75
474.406	93.75
474.625	89.75
474.844	77.75
475.063	87.75
475.282	72.75
475.501	80.75
475.72	90.75
475.939	83.75
476.158	83.75
476.377	74.75
476.596	87.75
476.814	92.75
477.033	82.75
477.252	87.75
477.471	69.75
477.69	90.75
477.908	82.75
478.127	88.75
478.346	85.75
478.564	80.75
478.783	71.75
479.002	81.75
479.22	88.75
479.439	113.75
479.658	84.75
479.876	92.75
480.095	75.75
480.313	91.75
480.532	74.75
480.751	92.75
480.969	88.75
481.188	85.75
481.406	94.75
481.624	82.75
481.843	80.75
482.061	84.75
482.28	93.75
482.498	95.75
482.717	85.75
482.935	88.75
483.153	80.75
483.372	98.75
483.59	94.75
483.808	90.75
484.027	81.75
484.245	82.75
484.463	89.75
484.681	90.75
484.9	86.75
485.118	97.75
485.336	72.75
485.554	98.75
485.772	81.75
485.99	76.75
486.209	97.75
486.427	77.75
486.645	80.75
486.863	72.75
487.081	104.75
487.299	84.75
487.517	84.75
487.735	93.75
487.953	95.75
488.171	82.75
488.389	106.75
488.607	82.75
488.825	85.75
489.043	79.75
489.261	86.75
489.479	80.75
489.696	83.75
489.914	84.75
490.132	93.75
490.35	92.75
490.568	81.75
490.786	76.75
491.003	90.75
491.221	95.75
491.439	102.75
491.657	74.75
491.874	79.75
492.092	88.75
492.31	91.75
492.527	82.75
492.745	80.75
492.963	78.75
493.18	98.75
493.398	86.75
493.615	90.75
493.833	93.75
494.05	72.75
494.268	82.75
494.485	83.75
494.703	70.75
494.92	88.75
495.138	97.75
495.355	88.75
495.573	84.75
495.79	83.75
496.008	82.75
496.225	82.75
496.442	75.75
496.66	82.75
496.877	90.75
497.094	95.75
497.312	85.75
497.529	88.75
497.746	88.75
497.963	81.75
498.181	90.75
498.398	84.75
498.615	87.75
498.832	91.75
499.049	79.75
499.267	82.75
499.484	80.75
499.701	97.75
499.918	94.75
500.135	96.75
500.352	90.75
500.569	86.75
500.786	86.75
501.003	84.75
501.22	99.75
501.437	82.75
501.654	96.75
501.871	88.75
502.088	85.75
502.305	85.75
502.522	89.75
502.739	90.75
502.956	91.75
503.172	83.75
503.389	101.75
503.606	92.75
503.823	87.75
504.04	92.75
504.256	82.75
504.473	86.75
504.69	96.75
504.907	89.75
505.123	87.75
505.34	87.75
505.557	79.75
505.773	86.75
505.99	94.75
506.207	77.75
506.423	91.75
506.64	84.75
506.856	81.75
507.073	90.75
507.289	83.75
507.506	72.75
507.722	78.75
507.939	94.75
508.155	98.75
508.372	78.75
508.588	91.75
508.805	87.75
509.021	100.75
509.238	92.75
509.454	82.75
509.67	81.75
509.887	78.75
510.103	90.75
510.319	81.75
510.536	86.75
510.752	91.75
510.968	92.75
511.184	97.75
511.401	85.75
511.617	90.75
511.833	83.75
512.049	96.75
512.265	89.75
512.481	90.75
512.698	89.75
512.914	78.75
513.13	90.75
513.346	90.75
513.562	88.75
513.778	79.75
513.994	92.75
514.21	82.75
514.426	80.75
514.642	102.75
514.858	93.75
515.074	76.75
515.29	95.75
515.506	94.75
515.721	79.75
515.937	94.75
516.153	102.75
516.369	80.75
516.585	86.75
516.801	92.75
517.016	86.75
517.232	81.75
517.448	77.75
517.664	83.75
517.879	72.75
518.095	80.75
518.311	86.75
518.527	105.75
518.742	96.75
518.958	88.75
519.173	93.75
519.389	88.75
519.605	88.75
519.82	84.75
520.036	89.75
520.251	75.75
520.467	77.75
520.682	88.75
520.898	75.75
521.113	90.75
521.329	93.75
521.544	87.75
521.76	82.75
521.975	88.75
522.19	92.75
522.406	93.75
522.621	99.75
522.836	94.75
523.052	95.75
523.267	78.75
523.482	88.75
523.698	66.75
523.913	80.75
524.128	94.75
524.343	97.75
524.559	80.75
524.774	82.75
524.989	82.75
525.204	96.75
525.419	99.75
525.634	81.75
525.849	84.75
526.064	88.75
526.28	80.75
526.495	105.75
526.71	103.75
526.925	99.75
527.14	94.75
527.355	82.75
527.57	83.75
527.785	80.75
527.999	89.75
528.214	92.75
528.429	97.75
528.644	83.75
528.859	87.75
529.074	87.75
529.289	85.75
529.503	93.75
529.718	88.75
529.933	92.75
530.148	85.75
530.363	87.75
530.577	89.75
530.792	89.75
531.007	94.75
531.221	90.75
531.436	85.75
531.651	90.75
531.865	82.75
532.08	87.75
532.295	98.75
532.509	83.75
532.724	80.75
532.938	60.75
533.153	84.75
533.367	76.75
533.582	94.75
533.796	75.75
534.011	82.75
534.225	88.75
534.44	70.75
534.654	89.75
534.868	87.75
535.083	96.75
535.297	87.75
535.511	100.75
535.726	88.75
535.94	96.75
536.154	93.75
536.369	72.75
536.583	84.75
536.797	74.75
537.011	88.75
537.225	83.75
537.44	89.75
537.654	77.75
537.868	100.75
538.082	86.75
538.296	92.75
538.51	92.75
538.724	69.75
538.938	78.75
539.153	107.75
539.367	90.75
539.581	96.75
539.795	82.75
540.009	84.75
540.222	88.75
540.436	89.75
540.65	84.75
540.864	82.75
541.078	77.75
541.292	73.75
541.506	80.75
541.72	86.75
541.934	85.75
542.147	84.75
542.361	99.75
542.575	78.75
542.789	82.75
543.002	75.75
543.216	87.75
543.43	85.75
543.644	98.75
543.857	87.75
544.071	98.75
544.285	82.75
544.498	86.75
544.712	105.75
544.925	95.75
545.139	81.75
545.352	86.75
545.566	90.75
545.779	91.75
545.993	97.75
546.206	92.75
546.42	94.75
546.633	83.75
546.847	80.75
547.06	84.75
547.274	92.75
547.487	85.75
547.7	87.75
547.914	95.75
548.127	104.75
548.34	93.75
548.554	102.75
548.767	80.75
548.98	103.75
549.193	99.75
549.407	95.75
549.62	86.75
549.833	98.75
550.046	104.75
550.259	93.75
550.473	81.75
550.686	84.75
550.899	105.75
551.112	112.75
551.325	116.75
551.538	106.75
551.751	121.75
551.964	102.75
552.177	110.75
552.39	101.75
552.603	100.75
552.816	109.75
553.029	104.75
553.242	104.75
553.455	112.75
553.667	112.75
553.88	113.75
554.093	112.75
554.306	95.75
554.519	97.75
554.732	108.75
554.944	101.75
555.157	105.75
555.37	92.75
555.583	92.75
555.795	109.75
556.008	96.75
556.221	77.75
556.433	98.75
556.646	92.75
556.859	98.75
557.071	104.75
557.284	86.75
557.496	89.75
557.709	90.75
557.921	101.75
558.134	121.75
558.346	94.75
558.559	99.75
558.771	89.75
558.984	107.75
559.196	114.75
559.409	89.75
559.621	97.75
559.833	92.75
560.046	105.75
560.258	78.75
560.47	86.75
560.683	83.75
560.895	77.75
561.107	83.75
561.32	88.75
561.532	84.75
561.744	83.75
561.956	81.75
562.168	91.75
562.381	85.75
562.593	92.75
562.805	91.75
563.017	101.75
563.229	90.75
563.441	88.75
563.653	100.75
563.865	73.75
564.077	79.75
564.289	105.75
564.501	93.75
564.713	99.75
564.925	93.75
565.137	83.75
565.349	84.75
565.561	85.75
565.773	97.75
565.985	82.75
566.197	79.75
566.408	83.75
566.62	86.75
566.832	93.75
567.044	86.75
567.255	86.75
567.467	81.75
567.679	73.75
567.891	77.75
568.102	90.75
568.314	83.75
568.526	99.75
568.737	90.75
568.949	87.75
569.161	85.75
569.372	106.75
569.584	77.75
569.795	82.75
570.007	84.75
570.218	82.75
570.43	87.75
570.641	72.75
570.853	96.75
571.064	95.75
571.276	94.75
571.487	87.75
571.698	82.75
571.91	76.75
572.121	94.75
572.333	94.75
572.544	86.75
572.755	87.75
572.966	78.75
573.178	82.75
573.389	81.75
573.6	78.75
573.811	77.75
574.023	88.75
574.234	78.75
574.445	77.75
574.656	78.75
574.867	86.75
575.078	90.75
575.289	92.75
575.501	80.75
575.712	82.75
575.923	84.75
576.134	85.75
576.345	85.75
576.556	98.75
576.767	106.75
576.978	84.75
577.188	100.75
577.399	79.75
577.61	100.75
577.821	82.75
578.032	86.75
578.243	80.75
578.454	93.75
578.665	88.75
578.875	80.75
579.086	82.75
579.297	76.75
579.508	91.75
579.718	85.75
579.929	76.75
580.14	88.75
580.35	87.75
580.561	76.75
580.772	98.75
580.982	81.75
581.193	94.75
581.403	83.75
581.614	79.75
581.825	90.75
582.035	91.75
582.246	86.75
582.456	80.75
582.667	85.75
582.877	82.75
583.087	76.75
583.298	83.75
583.508	80.75
583.719	87.75
583.929	87.75
584.139	78.75
584.35	89.75
584.56	99.75
584.77	84.75
584.981	99.75
585.191	94.75
585.401	76.75
585.611	88.75
585.821	84.75
586.032	85.75
586.242	86.75
586.452	91.75
586.662	88.75
586.872	101.75
587.082	74.75
587.292	100.75
587.502	98.75
587.713	73.75
587.923	99.75
588.133	98.75
588.343	109.75
588.553	102.75
588.762	136.75
588.972	201.75
589.182	280.75
589.392	242.75
589.602	233.75
589.812	262.75
590.022	186.75
590.232	141.75
590.441	124.75
590.651	104.75
590.861	103.75
591.071	102.75
591.281	98.75
591.49	88.75
591.7	104.75
591.91	110.75
592.119	91.75
592.329	87.75
592.539	91.75
592.748	89.75
592.958	114.75
593.167	94.75
593.377	74.75
593.587	114.75
593.796	118.75
594.006	120.75
594.215	100.75
594.424	88.75
594.634	100.75
594.843	80.75
595.053	99.75
595.262	98.75
595.472	98.75
595.681	91.75
595.89	100.75
596.1	95.75
596.309	104.75
596.518	103.75
596.727	89.75
596.937	89.75
597.146	95.75
597.355	88.75
597.564	89.75
597.774	99.75
597.983	97.75
598.192	84.75
598.401	85.75
598.61	96.75
598.819	95.75
599.028	95.75
599.237	92.75
599.446	104.75
599.655	97.75
599.864	85.75
600.073	85.75
600.282	97.75
600.491	86.75
600.7	81.75
600.909	90.75
601.118	104.75
601.327	86.75
601.536	86.75
601.745	86.75
601.953	93.75
602.162	105.75
602.371	111.75
602.58	104.75
602.789	108.75
602.997	106.75
603.206	100.75
603.415	95.75
603.623	93.75
603.832	105.75
604.041	96.75
604.249	98.75
604.458	89.75
604.666	93.75
604.875	89.75
605.084	105.75
605.292	98.75
605.501	112.75
605.709	89.75
605.918	101.75
606.126	89.75
606.334	89.75
606.543	98.75
606.751	97.75
606.96	98.75
607.168	90.75
607.376	93.75
607.585	106.75
607.793	101.75
608.001	102.75
608.21	83.75
608.418	91.75
608.626	83.75
608.834	91.75
609.043	93.75
609.251	92.75
609.459	97.75
609.667	90.75
609.875	93.75
610.083	106.75
610.291	93.75
610.499	114.75
610.707	101.75
610.916	92.75
611.124	95.75
611.332	88.75
611.54	97.75
611.748	94.75
611.955	102.75
612.163	106.75
612.371	118.75
612.579	95.75
612.787	92.75
612.995	97.75
613.203	108.75
613.411	93.75
613.618	97.75
613.826	98.75
614.034	84.75
614.242	102.75
614.449	100.75
614.657	114.75
614.865	94.75
615.072	100.75
615.28	101.75
615.488	111.75
615.695	105.75
615.903	104.75
616.111	125.75
616.318	133.75
616.526	121.75
616.733	109.75
616.941	115.75
617.148	125.75
617.356	123.75
617.563	121.75
617.771	105.75
617.978	118.75
618.185	113.75
618.393	124.75
618.6	94.75
618.807	117.75
619.015	109.75
619.222	101.75
619.429	104.75
619.637	118.75
619.844	125.75
620.051	108.75
620.258	114.75
620.466	126.75
620.673	118.75
620.88	108.75
621.087	113.75
621.294	121.75
621.501	112.75
621.708	110.75
621.915	112.75
622.122	108.75
622.329	102.75
622.536	109.75
622.743	95.75
622.95	102.75
623.157	116.75
623.364	93.75
623.571	93.75
623.778	102.75
623.985	106.75
624.192	100.75
624.399	104.75
624.606	109.75
624.812	100.75
625.019	108.75
625.226	108.75
625.433	103.75
625.639	101.75
625.846	106.75
626.053	98.75
626.259	94.75
626.466	106.75
626.673	94.75
626.879	99.75
627.086	97.75
627.293	109.75
627.499	96.75
627.706	101.75
627.912	107.75
628.119	84.75
628.325	100.75
628.532	91.75
628.738	107.75
628.945	93.75
629.151	87.75
629.357	88.75
629.564	79.75
629.77	78.75
629.976	94.75
630.183	72.75
630.389	86.75
630.595	108.75
630.802	87.75
631.008	97.75
631.214	75.75
631.42	88.75
631.627	105.75
631.833	88.75
632.039	100.75
632.245	99.75
632.451	89.75
632.657	96.75
632.863	84.75
633.069	92.75
633.275	85.75
633.481	89.75
633.688	75.75
633.893	84.75
634.099	97.75
634.305	83.75
634.511	92.75
634.717	90.75
634.923	82.75
635.129	89.75
635.335	75.75
635.541	90.75
635.747	93.75
635.952	81.75
636.158	86.75
636.364	89.75
636.57	78.75
636.775	83.75
636.981	82.75
637.187	86.75
637.392	89.75
637.598	87.75
637.804	96.75
638.009	78.75
638.215	88.75
638.421	78.75
638.626	76.75
638.832	90.75
639.037	95.75
639.243	88.75
639.448	77.75
639.654	83.75
639.859	74.75
640.065	95.75
640.27	95.75
640.475	94.75
640.681	81.75
640.886	89.75
641.091	94.75
641.297	118.75
641.502	85.75
641.707	91.75
641.913	85.75
642.118	87.75
642.323	81.75
642.528	90.75
642.733	91.75
642.939	88.75
643.144	84.75
643.349	83.75
643.554	90.75
643.759	88.75
643.964	94.75
644.169	86.75
644.374	91.75
644.579	92.75
644.784	98.75
644.989	90.75
645.194	98.75
645.399	82.75
645.604	73.75
645.809	90.75
646.014	85.75
646.219	89.75
646.423	94.75
646.628	76.75
646.833	94.75
647.038	77.75
647.243	76.75
647.447	76.75
647.652	83.75
647.857	93.75
648.062	90.75
648.266	94.75
648.471	83.75
648.676	78.75
648.88	89.75
649.085	81.75
649.289	75.75
649.494	79.75
649.698	74.75
649.903	94.75
650.107	89.75
650.312	91.75
650.516	93.75
650.721	85.75
650.925	94.75
651.13	93.75
651.334	83.75
651.539	86.75
651.743	87.75
651.947	82.75
652.152	93.75
652.356	77.75
652.56	85.75
652.764	87.75
652.969	82.75
653.173	80.75
653.377	78.75
653.581	82.75
653.785	91.75
653.99	97.75
654.194	98.75
654.398	88.75
654.602	89.75
654.806	77.75
655.01	86.75
655.214	82.75
655.418	82.75
655.622	71.75
655.826	72.75
656.03	84.75
656.234	76.75
656.438	84.75
656.642	89.75
656.846	82.75
657.049	84.75
657.253	88.75
657.457	87.75
657.661	84.75
657.865	92.75
658.068	86.75
658.272	73.75
658.476	108.75
658.68	84.75
658.883	88.75
659.087	75.75
659.291	93.75
659.494	104.75
659.698	76.75
659.901	88.75
660.105	83.75
660.309	82.75
660.512	83.75
660.716	87.75
660.919	77.75
661.123	84.75
661.326	77.75
661.53	83.75
661.733	91.75
661.936	87.75
662.14	87.75
662.343	73.75
662.546	82.75
662.75	86.75
662.953	83.75
663.156	82.75
663.36	97.75
663.563	86.75
663.766	72.75
663.969	80.75
664.173	85.75
664.376	80.75
664.579	69.75
664.782	88.75
664.985	82.75
665.188	76.75
665.391	84.75
665.594	93.75
665.797	82.75
666	77.75
666.203	84.75
666.406	82.75
666.609	80.75
666.812	91.75
667.015	85.75
667.218	95.75
667.421	91.75
667.624	93.75
667.827	87.75
668.03	86.75
668.232	82.75
668.435	76.75
668.638	75.75
668.841	84.75
669.043	76.75
669.246	76.75
669.449	85.75
669.651	85.75
669.854	69.75
670.057	81.75
670.259	84.75
670.462	82.75
670.665	80.75
670.867	94.75
671.07	92.75
671.272	99.75
671.475	92.75
671.677	85.75
671.88	73.75
672.082	80.75
672.284	85.75
672.487	80.75
672.689	86.75
672.892	82.75
