Data from Soil_50_1_HRD10591_00003.txt Node
Date: Thu Feb 19 11:30:19 EST 2026
User: Yrep
Spectrometer: HR+D1059
Trigger mode: 1
Integration Time (sec): 1.000000E-1
Scans to average: 1
Electric dark correction enabled: true
Nonlinearity correction enabled: false
Boxcar width: 0
XAxis mode: Wavelengths
Number of Pixels in Spectrum: 2048
>>>>>Begin Spectral Data<<<<<
223.165	-20.94
223.4	-20.94
223.635	-20.94
223.869	-16.94
224.104	-13.94
224.338	-15.94
224.573	-7.94
224.808	-10.94
225.042	-12.94
225.277	-14.94
225.511	2.06
225.746	1.06
225.98	-5.94
226.215	12.06
226.449	27.06
226.683	24.06
226.918	31.06
227.152	23.06
227.387	41.06
227.621	23.06
227.856	34.06
228.09	49.06
228.324	37.06
228.559	64.06
228.793	67.06
229.027	70.06
229.262	57.06
229.496	58.06
229.73	69.06
229.964	62.06
230.199	73.06
230.433	70.06
230.667	63.06
230.901	80.06
231.136	88.06
231.37	74.06
231.604	69.06
231.838	90.06
232.072	76.06
232.306	76.06
232.541	65.06
232.775	76.06
233.009	68.06
233.243	78.06
233.477	77.06
233.711	80.06
233.945	72.06
234.179	71.06
234.413	76.06
234.647	72.06
234.881	64.06
235.115	74.06
235.349	73.06
235.583	82.06
235.817	85.06
236.051	83.06
236.285	70.06
236.519	73.06
236.753	75.06
236.987	82.06
237.221	61.06
237.455	69.06
237.689	69.06
237.922	75.06
238.156	79.06
238.39	75.06
238.624	73.06
238.858	68.06
239.091	77.06
239.325	81.06
239.559	78.06
239.793	73.06
240.027	90.06
240.26	84.06
240.494	78.06
240.728	68.06
240.961	54.06
241.195	70.06
241.429	87.06
241.662	69.06
241.896	61.06
242.13	71.06
242.363	84.06
242.597	69.06
242.83	69.06
243.064	70.06
243.298	77.06
243.531	88.06
243.765	74.06
243.998	75.06
244.232	72.06
244.465	73.06
244.699	76.06
244.932	66.06
245.166	64.06
245.399	65.06
245.633	76.06
245.866	68.06
246.099	78.06
246.333	73.06
246.566	81.06
246.8	80.06
247.033	75.06
247.266	73.06
247.5	71.06
247.733	71.06
247.966	88.06
248.2	82.06
248.433	78.06
248.666	79.06
248.899	83.06
249.133	99.06
249.366	77.06
249.599	85.06
249.832	72.06
250.066	77.06
250.299	68.06
250.532	74.06
250.765	81.06
250.998	69.06
251.231	67.06
251.465	88.06
251.698	78.06
251.931	63.06
252.164	63.06
252.397	75.06
252.63	71.06
252.863	71.06
253.096	72.06
253.329	75.06
253.562	78.06
253.795	74.06
254.028	82.06
254.261	74.06
254.494	67.06
254.727	70.06
254.96	77.06
255.193	74.06
255.426	69.06
255.659	80.06
255.892	81.06
256.124	73.06
256.357	101.06
256.59	80.06
256.823	67.06
257.056	72.06
257.289	69.06
257.521	97.06
257.754	77.06
257.987	82.06
258.22	82.06
258.452	82.06
258.685	71.06
258.918	74.06
259.151	82.06
259.383	70.06
259.616	80.06
259.849	73.06
260.081	76.06
260.314	75.06
260.547	68.06
260.779	84.06
261.012	70.06
261.244	75.06
261.477	89.06
261.71	67.06
261.942	73.06
262.175	73.06
262.407	82.06
262.64	64.06
262.872	79.06
263.105	76.06
263.337	79.06
263.57	75.06
263.802	73.06
264.035	63.06
264.267	69.06
264.499	75.06
264.732	73.06
264.964	76.06
265.197	72.06
265.429	78.06
265.661	81.06
265.894	89.06
266.126	80.06
266.358	80.06
266.591	76.06
266.823	85.06
267.055	104.06
267.287	85.06
267.52	73.06
267.752	93.06
267.984	82.06
268.216	80.06
268.448	83.06
268.681	78.06
268.913	78.06
269.145	73.06
269.377	88.06
269.609	85.06
269.841	84.06
270.073	84.06
270.306	73.06
270.538	79.06
270.77	74.06
271.002	96.06
271.234	77.06
271.466	79.06
271.698	71.06
271.93	87.06
272.162	72.06
272.394	80.06
272.626	79.06
272.858	81.06
273.09	96.06
273.322	90.06
273.553	84.06
273.785	72.06
274.017	90.06
274.249	79.06
274.481	78.06
274.713	92.06
274.945	81.06
275.176	74.06
275.408	70.06
275.64	77.06
275.872	79.06
276.104	80.06
276.335	84.06
276.567	90.06
276.799	72.06
277.031	87.06
277.262	79.06
277.494	83.06
277.726	73.06
277.957	69.06
278.189	85.06
278.421	94.06
278.652	76.06
278.884	80.06
279.115	87.06
279.347	79.06
279.579	82.06
279.81	90.06
280.042	81.06
280.273	66.06
280.505	76.06
280.736	76.06
280.968	77.06
281.199	78.06
281.431	73.06
281.662	96.06
281.894	84.06
282.125	76.06
282.356	64.06
282.588	90.06
282.819	82.06
283.051	65.06
283.282	89.06
283.513	71.06
283.745	72.06
283.976	75.06
284.207	81.06
284.439	77.06
284.67	100.06
284.901	74.06
285.132	80.06
285.364	85.06
285.595	91.06
285.826	75.06
286.057	80.06
286.288	70.06
286.52	68.06
286.751	85.06
286.982	61.06
287.213	93.06
287.444	72.06
287.675	82.06
287.906	78.06
288.138	82.06
288.369	69.06
288.6	76.06
288.831	69.06
289.062	87.06
289.293	72.06
289.524	72.06
289.755	84.06
289.986	83.06
290.217	95.06
290.448	78.06
290.679	86.06
290.91	80.06
291.141	71.06
291.371	85.06
291.602	80.06
291.833	91.06
292.064	85.06
292.295	78.06
292.526	90.06
292.757	91.06
292.987	78.06
293.218	86.06
293.449	80.06
293.68	78.06
293.91	81.06
294.141	74.06
294.372	87.06
294.603	74.06
294.833	74.06
295.064	81.06
295.295	83.06
295.525	83.06
295.756	62.06
295.987	91.06
296.217	82.06
296.448	83.06
296.679	94.06
296.909	82.06
297.14	75.06
297.37	83.06
297.601	80.06
297.831	82.06
298.062	77.06
298.292	85.06
298.523	87.06
298.753	83.06
298.984	77.06
299.214	80.06
299.445	82.06
299.675	85.06
299.905	88.06
300.136	86.06
300.366	83.06
300.597	79.06
300.827	80.06
301.057	92.06
301.288	82.06
301.518	81.06
301.748	80.06
301.979	101.06
302.209	100.06
302.439	74.06
302.669	93.06
302.9	80.06
303.13	68.06
303.36	81.06
303.59	87.06
303.82	87.06
304.051	83.06
304.281	78.06
304.511	90.06
304.741	70.06
304.971	82.06
305.201	81.06
305.431	84.06
305.661	86.06
305.891	101.06
306.121	75.06
306.352	90.06
306.582	78.06
306.812	68.06
307.042	88.06
307.272	79.06
307.502	86.06
307.731	82.06
307.961	78.06
308.191	97.06
308.421	80.06
308.651	74.06
308.881	83.06
309.111	94.06
309.341	98.06
309.571	80.06
309.8	87.06
310.03	86.06
310.26	73.06
310.49	91.06
310.72	94.06
310.949	79.06
311.179	85.06
311.409	78.06
311.639	85.06
311.868	73.06
312.098	78.06
312.328	83.06
312.557	88.06
312.787	87.06
313.017	104.06
313.246	89.06
313.476	80.06
313.706	67.06
313.935	88.06
314.165	68.06
314.394	81.06
314.624	82.06
314.853	80.06
315.083	71.06
315.312	71.06
315.542	79.06
315.771	96.06
316.001	91.06
316.23	81.06
316.46	80.06
316.689	91.06
316.919	77.06
317.148	99.06
317.377	94.06
317.607	67.06
317.836	97.06
318.065	89.06
318.295	92.06
318.524	72.06
318.753	82.06
318.983	80.06
319.212	103.06
319.441	84.06
319.67	84.06
319.9	88.06
320.129	83.06
320.358	88.06
320.587	90.06
320.816	68.06
321.046	83.06
321.275	82.06
321.504	74.06
321.733	76.06
321.962	88.06
322.191	83.06
322.42	88.06
322.649	93.06
322.878	92.06
323.108	83.06
323.337	94.06
323.566	72.06
323.795	82.06
324.024	87.06
324.253	79.06
324.482	85.06
324.71	77.06
324.939	94.06
325.168	78.06
325.397	76.06
325.626	95.06
325.855	87.06
326.084	94.06
326.313	74.06
326.542	63.06
326.77	84.06
326.999	86.06
327.228	78.06
327.457	80.06
327.686	82.06
327.914	88.06
328.143	91.06
328.372	82.06
328.6	84.06
328.829	76.06
329.058	71.06
329.287	76.06
329.515	69.06
329.744	85.06
329.972	109.06
330.201	101.06
330.43	87.06
330.658	78.06
330.887	83.06
331.115	77.06
331.344	70.06
331.572	92.06
331.801	80.06
332.03	90.06
332.258	101.06
332.486	80.06
332.715	84.06
332.943	81.06
333.172	82.06
333.4	75.06
333.629	74.06
333.857	88.06
334.085	87.06
334.314	78.06
334.542	91.06
334.771	82.06
334.999	68.06
335.227	72.06
335.455	75.06
335.684	86.06
335.912	74.06
336.14	82.06
336.369	78.06
336.597	90.06
336.825	88.06
337.053	77.06
337.281	81.06
337.51	83.06
337.738	81.06
337.966	76.06
338.194	76.06
338.422	80.06
338.65	76.06
338.878	86.06
339.106	81.06
339.334	84.06
339.562	84.06
339.79	89.06
340.018	80.06
340.246	97.06
340.474	83.06
340.702	78.06
340.93	87.06
341.158	76.06
341.386	80.06
341.614	77.06
341.842	80.06
342.07	69.06
342.298	83.06
342.526	70.06
342.754	81.06
342.981	98.06
343.209	83.06
343.437	95.06
343.665	100.06
343.893	70.06
344.12	78.06
344.348	82.06
344.576	81.06
344.804	94.06
345.031	80.06
345.259	73.06
345.487	89.06
345.714	90.06
345.942	108.06
346.17	70.06
346.397	80.06
346.625	80.06
346.853	93.06
347.08	95.06
347.308	85.06
347.535	94.06
347.763	73.06
347.99	76.06
348.218	87.06
348.445	78.06
348.673	97.06
348.9	80.06
349.128	69.06
349.355	74.06
349.583	87.06
349.81	77.06
350.037	74.06
350.265	77.06
350.492	78.06
350.72	86.06
350.947	86.06
351.174	76.06
351.402	70.06
351.629	89.06
351.856	83.06
352.083	94.06
352.311	80.06
352.538	72.06
352.765	81.06
352.992	77.06
353.22	81.06
353.447	90.06
353.674	91.06
353.901	72.06
354.128	96.06
354.355	77.06
354.583	68.06
354.81	76.06
355.037	85.06
355.264	102.06
355.491	72.06
355.718	88.06
355.945	84.06
356.172	62.06
356.399	84.06
356.626	86.06
356.853	90.06
357.08	80.06
357.307	90.06
357.534	64.06
357.761	81.06
357.988	78.06
358.215	92.06
358.441	77.06
358.668	77.06
358.895	83.06
359.122	78.06
359.349	85.06
359.576	84.06
359.802	76.06
360.029	71.06
360.256	79.06
360.483	84.06
360.709	79.06
360.936	84.06
361.163	95.06
361.39	84.06
361.616	86.06
361.843	66.06
362.07	86.06
362.296	86.06
362.523	83.06
362.749	87.06
362.976	87.06
363.203	97.06
363.429	76.06
363.656	84.06
363.882	77.06
364.109	87.06
364.335	82.06
364.562	84.06
364.788	88.06
365.015	80.06
365.241	68.06
365.468	77.06
365.694	90.06
365.92	102.06
366.147	88.06
366.373	100.06
366.599	84.06
366.826	90.06
367.052	79.06
367.278	76.06
367.505	73.06
367.731	74.06
367.957	92.06
368.184	70.06
368.41	90.06
368.636	87.06
368.862	62.06
369.089	73.06
369.315	74.06
369.541	68.06
369.767	86.06
369.993	82.06
370.219	86.06
370.445	79.06
370.672	91.06
370.898	91.06
371.124	87.06
371.35	78.06
371.576	86.06
371.802	72.06
372.028	81.06
372.254	85.06
372.48	96.06
372.706	88.06
372.932	78.06
373.158	86.06
373.384	82.06
373.61	99.06
373.835	92.06
374.061	85.06
374.287	81.06
374.513	79.06
374.739	82.06
374.965	90.06
375.191	95.06
375.416	80.06
375.642	79.06
375.868	100.06
376.094	85.06
376.319	80.06
376.545	79.06
376.771	82.06
376.997	91.06
377.222	86.06
377.448	68.06
377.674	71.06
377.899	81.06
378.125	86.06
378.35	90.06
378.576	84.06
378.802	84.06
379.027	96.06
379.253	88.06
379.478	87.06
379.704	89.06
379.929	85.06
380.155	95.06
380.38	103.06
380.606	87.06
380.831	72.06
381.057	100.06
381.282	67.06
381.507	85.06
381.733	92.06
381.958	84.06
382.184	88.06
382.409	88.06
382.634	93.06
382.86	85.06
383.085	107.06
383.31	99.06
383.535	99.06
383.761	100.06
383.986	108.06
384.211	80.06
384.436	88.06
384.662	86.06
384.887	79.06
385.112	88.06
385.337	79.06
385.562	87.06
385.787	89.06
386.013	85.06
386.238	72.06
386.463	86.06
386.688	110.06
386.913	87.06
387.138	94.06
387.363	91.06
387.588	86.06
387.813	82.06
388.038	84.06
388.263	99.06
388.488	90.06
388.713	76.06
388.938	89.06
389.163	80.06
389.387	81.06
389.612	74.06
389.837	87.06
390.062	80.06
390.287	80.06
390.512	89.06
390.736	81.06
390.961	89.06
391.186	72.06
391.411	88.06
391.636	81.06
391.86	81.06
392.085	80.06
392.31	79.06
392.534	76.06
392.759	94.06
392.984	128.06
393.208	156.06
393.433	203.06
393.658	150.06
393.882	106.06
394.107	89.06
394.331	103.06
394.556	90.06
394.78	76.06
395.005	78.06
395.229	90.06
395.454	89.06
395.678	86.06
395.903	85.06
396.127	98.06
396.352	88.06
396.576	120.06
396.801	146.06
397.025	144.06
397.249	92.06
397.474	80.06
397.698	99.06
397.922	84.06
398.147	76.06
398.371	88.06
398.595	82.06
398.82	77.06
399.044	70.06
399.268	89.06
399.492	85.06
399.717	90.06
399.941	83.06
400.165	82.06
400.389	73.06
400.613	99.06
400.837	82.06
401.062	97.06
401.286	77.06
401.51	74.06
401.734	83.06
401.958	83.06
402.182	75.06
402.406	76.06
402.63	84.06
402.854	67.06
403.078	84.06
403.302	78.06
403.526	81.06
403.75	82.06
403.974	66.06
404.198	70.06
404.422	81.06
404.645	90.06
404.869	89.06
405.093	91.06
405.317	80.06
405.541	93.06
405.765	77.06
405.988	91.06
406.212	80.06
406.436	77.06
406.66	92.06
406.883	76.06
407.107	76.06
407.331	90.06
407.555	89.06
407.778	79.06
408.002	96.06
408.226	91.06
408.449	80.06
408.673	74.06
408.896	79.06
409.12	83.06
409.344	69.06
409.567	87.06
409.791	92.06
410.014	77.06
410.238	91.06
410.461	87.06
410.685	84.06
410.908	83.06
411.132	72.06
411.355	73.06
411.578	78.06
411.802	87.06
412.025	78.06
412.249	78.06
412.472	83.06
412.695	73.06
412.919	86.06
413.142	72.06
413.365	72.06
413.589	74.06
413.812	89.06
414.035	94.06
414.258	91.06
414.482	87.06
414.705	71.06
414.928	81.06
415.151	77.06
415.374	84.06
415.597	76.06
415.821	79.06
416.044	80.06
416.267	94.06
416.49	84.06
416.713	72.06
416.936	71.06
417.159	79.06
417.382	77.06
417.605	70.06
417.828	80.06
418.051	74.06
418.274	83.06
418.497	81.06
418.72	91.06
418.943	89.06
419.166	76.06
419.389	82.06
419.611	82.06
419.834	87.06
420.057	86.06
420.28	74.06
420.503	82.06
420.726	83.06
420.948	85.06
421.171	83.06
421.394	89.06
421.617	81.06
421.839	75.06
422.062	96.06
422.285	83.06
422.507	126.06
422.73	184.06
422.953	157.06
423.175	98.06
423.398	93.06
423.621	79.06
423.843	83.06
424.066	83.06
424.288	84.06
424.511	77.06
424.733	87.06
424.956	81.06
425.178	88.06
425.401	86.06
425.623	76.06
425.846	77.06
426.068	81.06
426.291	88.06
426.513	79.06
426.735	89.06
426.958	80.06
427.18	80.06
427.402	84.06
427.625	78.06
427.847	75.06
428.069	84.06
428.292	93.06
428.514	100.06
428.736	89.06
428.958	114.06
429.181	91.06
429.403	86.06
429.625	85.06
429.847	94.06
430.069	106.06
430.292	105.06
430.514	109.06
430.736	85.06
430.958	94.06
431.18	84.06
431.402	82.06
431.624	81.06
431.846	87.06
432.068	87.06
432.29	86.06
432.512	78.06
432.734	87.06
432.956	82.06
433.178	97.06
433.4	85.06
433.622	84.06
433.844	65.06
434.066	87.06
434.287	79.06
434.509	88.06
434.731	85.06
434.953	76.06
435.175	66.06
435.397	78.06
435.618	96.06
435.84	86.06
436.062	82.06
436.284	81.06
436.505	87.06
436.727	89.06
436.949	80.06
437.17	90.06
437.392	79.06
437.614	82.06
437.835	89.06
438.057	82.06
438.278	74.06
438.5	81.06
438.721	76.06
438.943	85.06
439.165	81.06
439.386	74.06
439.608	78.06
439.829	85.06
440.05	81.06
440.272	72.06
440.493	71.06
440.715	73.06
440.936	71.06
441.158	89.06
441.379	80.06
441.6	87.06
441.822	73.06
442.043	73.06
442.264	84.06
442.486	81.06
442.707	105.06
442.928	91.06
443.149	77.06
443.371	104.06
443.592	146.06
443.813	115.06
444.034	74.06
444.255	76.06
444.476	67.06
444.698	70.06
444.919	89.06
445.14	180.06
445.361	138.06
445.582	165.06
445.803	137.06
446.024	97.06
446.245	79.06
446.466	71.06
446.687	68.06
446.908	78.06
447.129	77.06
447.35	85.06
447.571	93.06
447.792	80.06
448.013	89.06
448.234	89.06
448.455	81.06
448.675	88.06
448.896	72.06
449.117	76.06
449.338	92.06
449.559	85.06
449.779	88.06
450	97.06
450.221	80.06
450.442	88.06
450.662	99.06
450.883	83.06
451.104	85.06
451.324	103.06
451.545	91.06
451.766	80.06
451.986	70.06
452.207	83.06
452.428	79.06
452.648	95.06
452.869	85.06
453.089	84.06
453.31	64.06
453.53	79.06
453.751	80.06
453.971	77.06
454.192	66.06
454.412	82.06
454.633	84.06
454.853	74.06
455.073	79.06
455.294	62.06
455.514	78.06
455.734	84.06
455.955	88.06
456.175	84.06
456.395	97.06
456.616	69.06
456.836	80.06
457.056	88.06
457.276	85.06
457.497	75.06
457.717	79.06
457.937	97.06
458.157	78.06
458.377	76.06
458.598	77.06
458.818	87.06
459.038	81.06
459.258	83.06
459.478	85.06
459.698	99.06
459.918	82.06
460.138	75.06
460.358	81.06
460.578	87.06
460.798	103.06
461.018	94.06
461.238	81.06
461.458	76.06
461.678	72.06
461.898	83.06
462.118	81.06
462.338	79.06
462.558	84.06
462.777	71.06
462.997	69.06
463.217	84.06
463.437	84.06
463.657	90.06
463.876	89.06
464.096	75.06
464.316	72.06
464.536	79.06
464.755	72.06
464.975	80.06
465.195	93.06
465.414	73.06
465.634	75.06
465.854	76.06
466.073	83.06
466.293	75.06
466.512	78.06
466.732	85.06
466.951	96.06
467.171	91.06
467.391	79.06
467.61	95.06
467.829	85.06
468.049	82.06
468.268	85.06
468.488	92.06
468.707	76.06
468.927	82.06
469.146	77.06
469.365	74.06
469.585	80.06
469.804	83.06
470.023	76.06
470.243	80.06
470.462	81.06
470.681	60.06
470.901	71.06
471.12	79.06
471.339	72.06
471.558	74.06
471.777	86.06
471.997	79.06
472.216	88.06
472.435	90.06
472.654	82.06
472.873	79.06
473.092	78.06
473.311	77.06
473.53	81.06
473.749	95.06
473.968	89.06
474.187	88.06
474.406	73.06
474.625	77.06
474.844	93.06
475.063	75.06
475.282	97.06
475.501	94.06
475.72	94.06
475.939	80.06
476.158	81.06
476.377	68.06
476.596	76.06
476.814	90.06
477.033	77.06
477.252	80.06
477.471	84.06
477.69	102.06
477.908	76.06
478.127	80.06
478.346	73.06
478.564	81.06
478.783	74.06
479.002	76.06
479.22	77.06
479.439	77.06
479.658	84.06
479.876	78.06
480.095	84.06
480.313	80.06
480.532	88.06
480.751	88.06
480.969	81.06
481.188	90.06
481.406	78.06
481.624	88.06
481.843	81.06
482.061	81.06
482.28	70.06
482.498	74.06
482.717	94.06
482.935	78.06
483.153	98.06
483.372	107.06
483.59	76.06
483.808	78.06
484.027	77.06
484.245	83.06
484.463	83.06
484.681	69.06
484.9	91.06
485.118	78.06
485.336	78.06
485.554	77.06
485.772	91.06
485.99	88.06
486.209	78.06
486.427	87.06
486.645	94.06
486.863	82.06
487.081	81.06
487.299	86.06
487.517	101.06
487.735	89.06
487.953	105.06
488.171	87.06
488.389	80.06
488.607	80.06
488.825	73.06
489.043	92.06
489.261	77.06
489.479	88.06
489.696	88.06
489.914	87.06
490.132	93.06
490.35	89.06
490.568	91.06
490.786	80.06
491.003	100.06
491.221	72.06
491.439	84.06
491.657	81.06
491.874	89.06
492.092	86.06
492.31	69.06
492.527	69.06
492.745	84.06
492.963	82.06
493.18	85.06
493.398	101.06
493.615	77.06
493.833	68.06
494.05	86.06
494.268	82.06
494.485	90.06
494.703	87.06
494.92	89.06
495.138	73.06
495.355	76.06
495.573	87.06
495.79	83.06
496.008	85.06
496.225	82.06
496.442	75.06
496.66	84.06
496.877	87.06
497.094	82.06
497.312	78.06
497.529	89.06
497.746	80.06
497.963	76.06
498.181	81.06
498.398	83.06
498.615	96.06
498.832	82.06
499.049	88.06
499.267	88.06
499.484	84.06
499.701	88.06
499.918	85.06
500.135	91.06
500.352	71.06
500.569	77.06
500.786	84.06
501.003	80.06
501.22	73.06
501.437	78.06
501.654	82.06
501.871	85.06
502.088	75.06
502.305	81.06
502.522	90.06
502.739	76.06
502.956	76.06
503.172	82.06
503.389	77.06
503.606	66.06
503.823	81.06
504.04	86.06
504.256	86.06
504.473	90.06
504.69	81.06
504.907	83.06
505.123	96.06
505.34	85.06
505.557	96.06
505.773	84.06
505.99	85.06
506.207	80.06
506.423	87.06
506.64	97.06
506.856	83.06
507.073	81.06
507.289	89.06
507.506	77.06
507.722	86.06
507.939	77.06
508.155	85.06
508.372	88.06
508.588	90.06
508.805	88.06
509.021	74.06
509.238	78.06
509.454	77.06
509.67	86.06
509.887	81.06
510.103	72.06
510.319	89.06
510.536	89.06
510.752	80.06
510.968	70.06
511.184	89.06
511.401	85.06
511.617	67.06
511.833	78.06
512.049	93.06
512.265	82.06
512.481	70.06
512.698	92.06
512.914	83.06
513.13	78.06
513.346	76.06
513.562	79.06
513.778	92.06
513.994	82.06
514.21	80.06
514.426	70.06
514.642	98.06
514.858	85.06
515.074	76.06
515.29	99.06
515.506	76.06
515.721	94.06
515.937	97.06
516.153	78.06
516.369	81.06
516.585	81.06
516.801	85.06
517.016	99.06
517.232	97.06
517.448	115.06
517.664	97.06
517.879	78.06
518.095	88.06
518.311	88.06
518.527	117.06
518.742	103.06
518.958	105.06
519.173	100.06
519.389	91.06
519.605	79.06
519.82	96.06
520.036	74.06
520.251	86.06
520.467	88.06
520.682	94.06
520.898	92.06
521.113	73.06
521.329	68.06
521.544	89.06
521.76	77.06
521.975	88.06
522.19	86.06
522.406	93.06
522.621	78.06
522.836	72.06
523.052	83.06
523.267	73.06
523.482	79.06
523.698	76.06
523.913	88.06
524.128	85.06
524.343	92.06
524.559	89.06
524.774	82.06
524.989	90.06
525.204	85.06
525.419	81.06
525.634	87.06
525.849	92.06
526.064	98.06
526.28	121.06
526.495	137.06
526.71	133.06
526.925	127.06
527.14	119.06
527.355	121.06
527.57	79.06
527.785	79.06
527.999	82.06
528.214	78.06
528.429	76.06
528.644	88.06
528.859	81.06
529.074	92.06
529.289	85.06
529.503	81.06
529.718	73.06
529.933	87.06
530.148	81.06
530.363	90.06
530.577	77.06
530.792	86.06
531.007	80.06
531.221	83.06
531.436	80.06
531.651	91.06
531.865	90.06
532.08	84.06
532.295	87.06
532.509	86.06
532.724	89.06
532.938	83.06
533.153	86.06
533.367	78.06
533.582	84.06
533.796	86.06
534.011	81.06
534.225	87.06
534.44	91.06
534.654	91.06
534.868	73.06
535.083	107.06
535.297	92.06
535.511	73.06
535.726	92.06
535.94	89.06
536.154	81.06
536.369	90.06
536.583	83.06
536.797	72.06
537.011	78.06
537.225	85.06
537.44	86.06
537.654	86.06
537.868	86.06
538.082	85.06
538.296	89.06
538.51	80.06
538.724	95.06
538.938	77.06
539.153	91.06
539.367	94.06
539.581	84.06
539.795	90.06
540.009	94.06
540.222	96.06
540.436	94.06
540.65	96.06
540.864	96.06
541.078	76.06
541.292	76.06
541.506	86.06
541.72	87.06
541.934	81.06
542.147	76.06
542.361	88.06
542.575	85.06
542.789	77.06
543.002	85.06
543.216	86.06
543.43	86.06
543.644	89.06
543.857	73.06
544.071	98.06
544.285	90.06
544.498	92.06
544.712	89.06
544.925	92.06
545.139	93.06
545.352	87.06
545.566	94.06
545.779	94.06
545.993	76.06
546.206	86.06
546.42	78.06
546.633	86.06
546.847	98.06
547.06	97.06
547.274	86.06
547.487	96.06
547.7	116.06
547.914	111.06
548.127	93.06
548.34	99.06
548.554	102.06
548.767	101.06
548.98	96.06
549.193	103.06
549.407	109.06
549.62	93.06
549.833	102.06
550.046	118.06
550.259	106.06
550.473	113.06
550.686	117.06
550.899	124.06
551.112	116.06
551.325	124.06
551.538	131.06
551.751	114.06
551.964	129.06
552.177	113.06
552.39	121.06
552.603	126.06
552.816	129.06
553.029	120.06
553.242	138.06
553.455	135.06
553.667	127.06
553.88	160.06
554.093	137.06
554.306	138.06
554.519	143.06
554.732	135.06
554.944	136.06
555.157	128.06
555.37	116.06
555.583	130.06
555.795	119.06
556.008	118.06
556.221	108.06
556.433	101.06
556.646	94.06
556.859	117.06
557.071	108.06
557.284	109.06
557.496	101.06
557.709	91.06
557.921	103.06
558.134	113.06
558.346	127.06
558.559	109.06
558.771	107.06
558.984	164.06
559.196	156.06
559.409	116.06
559.621	158.06
559.833	101.06
560.046	121.06
560.258	121.06
560.47	114.06
560.683	95.06
560.895	90.06
561.107	85.06
561.32	107.06
561.532	91.06
561.744	88.06
561.956	95.06
562.168	91.06
562.381	94.06
562.593	91.06
562.805	103.06
563.017	91.06
563.229	91.06
563.441	91.06
563.653	72.06
563.865	71.06
564.077	90.06
564.289	87.06
564.501	88.06
564.713	86.06
564.925	75.06
565.137	76.06
565.349	94.06
565.561	90.06
565.773	82.06
565.985	77.06
566.197	74.06
566.408	89.06
566.62	90.06
566.832	85.06
567.044	95.06
567.255	94.06
567.467	77.06
567.679	79.06
567.891	101.06
568.102	94.06
568.314	108.06
568.526	115.06
568.737	102.06
568.949	110.06
569.161	130.06
569.372	98.06
569.584	89.06
569.795	84.06
570.007	100.06
570.218	83.06
570.43	85.06
570.641	89.06
570.853	100.06
571.064	87.06
571.276	94.06
571.487	86.06
571.698	91.06
571.91	91.06
572.121	88.06
572.333	88.06
572.544	79.06
572.755	89.06
572.966	86.06
573.178	89.06
573.389	82.06
573.6	82.06
573.811	101.06
574.023	88.06
574.234	94.06
574.445	94.06
574.656	87.06
574.867	76.06
575.078	90.06
575.289	74.06
575.501	94.06
575.712	86.06
575.923	81.06
576.134	81.06
576.345	80.06
576.556	94.06
576.767	94.06
576.978	87.06
577.188	75.06
577.399	80.06
577.61	84.06
577.821	91.06
578.032	85.06
578.243	80.06
578.454	84.06
578.665	80.06
578.875	90.06
579.086	81.06
579.297	93.06
579.508	90.06
579.718	88.06
579.929	90.06
580.14	89.06
580.35	76.06
580.561	88.06
580.772	84.06
580.982	78.06
581.193	87.06
581.403	95.06
581.614	99.06
581.825	95.06
582.035	92.06
582.246	97.06
582.456	96.06
582.667	82.06
582.877	76.06
583.087	88.06
583.298	81.06
583.508	95.06
583.719	91.06
583.929	104.06
584.139	90.06
584.35	74.06
584.56	97.06
584.77	95.06
584.981	81.06
585.191	92.06
585.401	86.06
585.611	90.06
585.821	115.06
586.032	133.06
586.242	106.06
586.452	94.06
586.662	89.06
586.872	91.06
587.082	98.06
587.292	101.06
587.502	91.06
587.713	109.06
587.923	106.06
588.133	128.06
588.343	133.06
588.553	168.06
588.762	225.06
588.972	361.06
589.182	464.06
589.392	433.06
589.602	397.06
589.812	451.06
590.022	346.06
590.232	206.06
590.441	156.06
590.651	129.06
590.861	132.06
591.071	124.06
591.281	109.06
591.49	98.06
591.7	118.06
591.91	124.06
592.119	106.06
592.329	104.06
592.539	115.06
592.748	111.06
592.958	104.06
593.167	134.06
593.377	119.06
593.587	145.06
593.796	151.06
594.006	119.06
594.215	125.06
594.424	117.06
594.634	110.06
594.843	116.06
595.053	110.06
595.262	116.06
595.472	107.06
595.681	109.06
595.89	94.06
596.1	90.06
596.309	100.06
596.518	94.06
596.727	104.06
596.937	111.06
597.146	106.06
597.355	108.06
597.564	89.06
597.774	90.06
597.983	86.06
598.192	109.06
598.401	96.06
598.61	98.06
598.819	116.06
599.028	104.06
599.237	106.06
599.446	105.06
599.655	90.06
599.864	108.06
600.073	102.06
600.282	104.06
600.491	111.06
600.7	116.06
600.909	111.06
601.118	104.06
601.327	89.06
601.536	93.06
601.745	99.06
601.953	96.06
602.162	88.06
602.371	94.06
602.58	97.06
602.789	111.06
602.997	116.06
603.206	109.06
603.415	110.06
603.623	110.06
603.832	108.06
604.041	104.06
604.249	108.06
604.458	126.06
604.666	104.06
604.875	108.06
605.084	117.06
605.292	121.06
605.501	117.06
605.709	127.06
605.918	100.06
606.126	117.06
606.334	119.06
606.543	122.06
606.751	121.06
606.96	124.06
607.168	112.06
607.376	109.06
607.585	114.06
607.793	114.06
608.001	110.06
608.21	108.06
608.418	109.06
608.626	115.06
608.834	108.06
609.043	120.06
609.251	119.06
609.459	108.06
609.667	106.06
609.875	104.06
610.083	97.06
610.291	112.06
610.499	137.06
610.707	108.06
610.916	100.06
611.124	119.06
611.332	118.06
611.54	104.06
611.748	116.06
611.955	136.06
612.163	130.06
612.371	152.06
612.579	148.06
612.787	129.06
612.995	133.06
613.203	134.06
613.411	132.06
613.618	119.06
613.826	113.06
614.034	118.06
614.242	124.06
614.449	118.06
614.657	142.06
614.865	131.06
615.072	122.06
615.28	136.06
615.488	118.06
615.695	128.06
615.903	143.06
616.111	146.06
616.318	177.06
616.526	201.06
616.733	172.06
616.941	160.06
617.148	170.06
617.356	159.06
617.563	162.06
617.771	177.06
617.978	170.06
618.185	170.06
618.393	172.06
618.6	155.06
618.807	149.06
619.015	160.06
619.222	147.06
619.429	145.06
619.637	154.06
619.844	142.06
620.051	144.06
620.258	149.06
620.466	150.06
620.673	136.06
620.88	167.06
621.087	162.06
621.294	138.06
621.501	131.06
621.708	127.06
621.915	127.06
622.122	133.06
622.329	121.06
622.536	133.06
622.743	119.06
622.95	112.06
623.157	125.06
623.364	132.06
623.571	117.06
623.778	120.06
623.985	120.06
624.192	115.06
624.399	112.06
624.606	122.06
624.812	114.06
625.019	113.06
625.226	118.06
625.433	113.06
625.639	100.06
625.846	112.06
626.053	115.06
626.259	124.06
626.466	102.06
626.673	109.06
626.879	112.06
627.086	103.06
627.293	104.06
627.499	103.06
627.706	105.06
627.912	105.06
628.119	88.06
628.325	108.06
628.532	101.06
628.738	92.06
628.945	82.06
629.151	86.06
629.357	93.06
629.564	87.06
629.77	88.06
629.976	95.06
630.183	90.06
630.389	100.06
630.595	88.06
630.802	88.06
631.008	94.06
631.214	94.06
631.42	93.06
631.627	86.06
631.833	98.06
632.039	81.06
632.245	100.06
632.451	98.06
632.657	81.06
632.863	84.06
633.069	80.06
633.275	84.06
633.481	91.06
633.688	92.06
633.893	80.06
634.099	66.06
634.305	100.06
634.511	90.06
634.717	92.06
634.923	86.06
635.129	89.06
635.335	93.06
635.541	85.06
635.747	85.06
635.952	91.06
636.158	98.06
636.364	80.06
636.57	106.06
636.775	82.06
636.981	95.06
637.187	96.06
637.392	101.06
637.598	95.06
637.804	83.06
638.009	98.06
638.215	91.06
638.421	76.06
638.626	72.06
638.832	85.06
639.037	74.06
639.243	97.06
639.448	80.06
639.654	70.06
639.859	79.06
640.065	88.06
640.27	73.06
640.475	83.06
640.681	90.06
640.886	81.06
641.091	96.06
641.297	95.06
641.502	82.06
641.707	94.06
641.913	96.06
642.118	81.06
642.323	82.06
642.528	85.06
642.733	101.06
642.939	93.06
643.144	95.06
643.349	73.06
643.554	91.06
643.759	93.06
643.964	101.06
644.169	119.06
644.374	82.06
644.579	82.06
644.784	98.06
644.989	95.06
645.194	99.06
645.399	87.06
645.604	99.06
645.809	96.06
646.014	91.06
646.219	86.06
646.423	111.06
646.628	93.06
646.833	100.06
647.038	94.06
647.243	85.06
647.447	98.06
647.652	90.06
647.857	80.06
648.062	84.06
648.266	82.06
648.471	74.06
648.676	88.06
648.88	86.06
649.085	84.06
649.289	87.06
649.494	91.06
649.698	100.06
649.903	103.06
650.107	76.06
650.312	76.06
650.516	77.06
650.721	74.06
650.925	63.06
651.13	85.06
651.334	88.06
651.539	71.06
651.743	75.06
651.947	70.06
652.152	78.06
652.356	77.06
652.56	100.06
652.764	96.06
652.969	67.06
653.173	76.06
653.377	82.06
653.581	77.06
653.785	84.06
653.99	82.06
654.194	77.06
654.398	92.06
654.602	94.06
654.806	84.06
655.01	73.06
655.214	75.06
655.418	79.06
655.622	77.06
655.826	73.06
656.03	83.06
656.234	88.06
656.438	79.06
656.642	70.06
656.846	79.06
657.049	68.06
657.253	84.06
657.457	86.06
657.661	83.06
657.865	80.06
658.068	87.06
658.272	82.06
658.476	86.06
658.68	84.06
658.883	85.06
659.087	94.06
659.291	82.06
659.494	82.06
659.698	71.06
659.901	78.06
660.105	84.06
660.309	76.06
660.512	84.06
660.716	86.06
660.919	84.06
661.123	85.06
661.326	75.06
661.53	76.06
661.733	89.06
661.936	87.06
662.14	80.06
662.343	76.06
662.546	82.06
662.75	73.06
662.953	71.06
663.156	87.06
663.36	76.06
663.563	86.06
663.766	98.06
663.969	77.06
664.173	90.06
664.376	79.06
664.579	92.06
664.782	76.06
664.985	86.06
665.188	69.06
665.391	82.06
665.594	76.06
665.797	78.06
666	76.06
666.203	78.06
666.406	85.06
666.609	71.06
666.812	87.06
667.015	83.06
667.218	78.06
667.421	78.06
667.624	78.06
667.827	81.06
668.03	85.06
668.232	82.06
668.435	82.06
668.638	85.06
668.841	82.06
669.043	62.06
669.246	76.06
669.449	94.06
669.651	68.06
669.854	82.06
670.057	78.06
670.259	76.06
670.462	76.06
670.665	74.06
670.867	77.06
671.07	71.06
671.272	89.06
671.475	86.06
671.677	77.06
671.88	85.06
672.082	78.06
672.284	81.06
672.487	87.06
672.689	72.06
672.892	82.06
