Data from Soil_50_1_HRD10591_00010.txt Node
Date: Thu Feb 19 11:30:22 EST 2026
User: Yrep
Spectrometer: HR+D1059
Trigger mode: 1
Integration Time (sec): 1.000000E-1
Scans to average: 1
Electric dark correction enabled: true
Nonlinearity correction enabled: false
Boxcar width: 0
XAxis mode: Wavelengths
Number of Pixels in Spectrum: 2048
>>>>>Begin Spectral Data<<<<<
223.165	-2.56
223.4	-2.56
223.635	-2.56
223.869	-29.56
224.104	-25.56
224.338	-22.56
224.573	-13.56
224.808	-2.56
225.042	-17.56
225.277	-4.56
225.511	-15.56
225.746	-5.56
225.98	15.44
226.215	21.44
226.449	15.44
226.683	20.44
226.918	32.44
227.152	34.44
227.387	30.44
227.621	17.44
227.856	46.44
228.09	48.44
228.324	45.44
228.559	50.44
228.793	38.44
229.027	59.44
229.262	61.44
229.496	71.44
229.73	70.44
229.964	84.44
230.199	65.44
230.433	92.44
230.667	89.44
230.901	81.44
231.136	87.44
231.37	70.44
231.604	69.44
231.838	77.44
232.072	73.44
232.306	75.44
232.541	80.44
232.775	73.44
233.009	80.44
233.243	85.44
233.477	84.44
233.711	78.44
233.945	76.44
234.179	73.44
234.413	69.44
234.647	71.44
234.881	76.44
235.115	83.44
235.349	82.44
235.583	74.44
235.817	89.44
236.051	80.44
236.285	71.44
236.519	81.44
236.753	80.44
236.987	88.44
237.221	74.44
237.455	66.44
237.689	72.44
237.922	73.44
238.156	70.44
238.39	74.44
238.624	79.44
238.858	76.44
239.091	72.44
239.325	84.44
239.559	74.44
239.793	81.44
240.027	76.44
240.26	77.44
240.494	72.44
240.728	87.44
240.961	76.44
241.195	75.44
241.429	65.44
241.662	70.44
241.896	77.44
242.13	76.44
242.363	82.44
242.597	86.44
242.83	66.44
243.064	68.44
243.298	83.44
243.531	71.44
243.765	85.44
243.998	76.44
244.232	73.44
244.465	64.44
244.699	77.44
244.932	81.44
245.166	86.44
245.399	83.44
245.633	73.44
245.866	73.44
246.099	52.44
246.333	72.44
246.566	70.44
246.8	58.44
247.033	70.44
247.266	73.44
247.5	75.44
247.733	81.44
247.966	73.44
248.2	82.44
248.433	80.44
248.666	82.44
248.899	78.44
249.133	73.44
249.366	74.44
249.599	69.44
249.832	74.44
250.066	66.44
250.299	92.44
250.532	85.44
250.765	76.44
250.998	92.44
251.231	79.44
251.465	51.44
251.698	62.44
251.931	60.44
252.164	81.44
252.397	78.44
252.63	76.44
252.863	79.44
253.096	65.44
253.329	78.44
253.562	77.44
253.795	75.44
254.028	82.44
254.261	85.44
254.494	74.44
254.727	88.44
254.96	68.44
255.193	75.44
255.426	72.44
255.659	78.44
255.892	66.44
256.124	79.44
256.357	78.44
256.59	72.44
256.823	74.44
257.056	92.44
257.289	96.44
257.521	78.44
257.754	86.44
257.987	76.44
258.22	63.44
258.452	84.44
258.685	68.44
258.918	80.44
259.151	77.44
259.383	83.44
259.616	65.44
259.849	102.44
260.081	93.44
260.314	81.44
260.547	80.44
260.779	68.44
261.012	79.44
261.244	83.44
261.477	82.44
261.71	75.44
261.942	62.44
262.175	92.44
262.407	81.44
262.64	86.44
262.872	84.44
263.105	81.44
263.337	91.44
263.57	76.44
263.802	71.44
264.035	92.44
264.267	73.44
264.499	82.44
264.732	90.44
264.964	83.44
265.197	80.44
265.429	77.44
265.661	77.44
265.894	74.44
266.126	84.44
266.358	77.44
266.591	83.44
266.823	72.44
267.055	75.44
267.287	91.44
267.52	92.44
267.752	86.44
267.984	94.44
268.216	76.44
268.448	90.44
268.681	83.44
268.913	89.44
269.145	93.44
269.377	87.44
269.609	80.44
269.841	73.44
270.073	83.44
270.306	88.44
270.538	88.44
270.77	72.44
271.002	79.44
271.234	74.44
271.466	84.44
271.698	80.44
271.93	82.44
272.162	86.44
272.394	84.44
272.626	80.44
272.858	90.44
273.09	73.44
273.322	81.44
273.553	70.44
273.785	92.44
274.017	76.44
274.249	78.44
274.481	72.44
274.713	80.44
274.945	71.44
275.176	91.44
275.408	78.44
275.64	81.44
275.872	84.44
276.104	87.44
276.335	68.44
276.567	79.44
276.799	80.44
277.031	73.44
277.262	80.44
277.494	78.44
277.726	98.44
277.957	74.44
278.189	88.44
278.421	77.44
278.652	87.44
278.884	69.44
279.115	90.44
279.347	90.44
279.579	86.44
279.81	79.44
280.042	63.44
280.273	85.44
280.505	92.44
280.736	71.44
280.968	78.44
281.199	84.44
281.431	89.44
281.662	76.44
281.894	72.44
282.125	78.44
282.356	76.44
282.588	82.44
282.819	75.44
283.051	83.44
283.282	81.44
283.513	72.44
283.745	91.44
283.976	88.44
284.207	81.44
284.439	82.44
284.67	89.44
284.901	76.44
285.132	79.44
285.364	73.44
285.595	84.44
285.826	76.44
286.057	85.44
286.288	73.44
286.52	83.44
286.751	85.44
286.982	90.44
287.213	73.44
287.444	85.44
287.675	86.44
287.906	95.44
288.138	84.44
288.369	76.44
288.6	92.44
288.831	71.44
289.062	86.44
289.293	87.44
289.524	76.44
289.755	88.44
289.986	87.44
290.217	97.44
290.448	85.44
290.679	94.44
290.91	79.44
291.141	85.44
291.371	81.44
291.602	82.44
291.833	86.44
292.064	73.44
292.295	77.44
292.526	94.44
292.757	90.44
292.987	83.44
293.218	87.44
293.449	90.44
293.68	84.44
293.91	84.44
294.141	87.44
294.372	89.44
294.603	99.44
294.833	72.44
295.064	83.44
295.295	83.44
295.525	78.44
295.756	76.44
295.987	83.44
296.217	75.44
296.448	69.44
296.679	67.44
296.909	80.44
297.14	82.44
297.37	83.44
297.601	84.44
297.831	89.44
298.062	83.44
298.292	72.44
298.523	83.44
298.753	91.44
298.984	72.44
299.214	82.44
299.445	76.44
299.675	73.44
299.905	85.44
300.136	79.44
300.366	85.44
300.597	86.44
300.827	85.44
301.057	79.44
301.288	85.44
301.518	89.44
301.748	88.44
301.979	103.44
302.209	92.44
302.439	85.44
302.669	73.44
302.9	85.44
303.13	77.44
303.36	79.44
303.59	80.44
303.82	88.44
304.051	86.44
304.281	83.44
304.511	83.44
304.741	77.44
304.971	78.44
305.201	75.44
305.431	79.44
305.661	92.44
305.891	73.44
306.121	79.44
306.352	82.44
306.582	75.44
306.812	84.44
307.042	88.44
307.272	91.44
307.502	78.44
307.731	83.44
307.961	81.44
308.191	89.44
308.421	79.44
308.651	88.44
308.881	88.44
309.111	83.44
309.341	91.44
309.571	84.44
309.8	94.44
310.03	84.44
310.26	84.44
310.49	76.44
310.72	84.44
310.949	90.44
311.179	80.44
311.409	72.44
311.639	77.44
311.868	97.44
312.098	81.44
312.328	89.44
312.557	81.44
312.787	83.44
313.017	77.44
313.246	80.44
313.476	95.44
313.706	91.44
313.935	83.44
314.165	86.44
314.394	80.44
314.624	88.44
314.853	80.44
315.083	86.44
315.312	94.44
315.542	78.44
315.771	82.44
316.001	70.44
316.23	85.44
316.46	86.44
316.689	87.44
316.919	87.44
317.148	85.44
317.377	86.44
317.607	81.44
317.836	89.44
318.065	71.44
318.295	91.44
318.524	75.44
318.753	102.44
318.983	80.44
319.212	89.44
319.441	81.44
319.67	72.44
319.9	89.44
320.129	93.44
320.358	76.44
320.587	84.44
320.816	95.44
321.046	78.44
321.275	94.44
321.504	76.44
321.733	74.44
321.962	75.44
322.191	82.44
322.42	85.44
322.649	91.44
322.878	83.44
323.108	84.44
323.337	76.44
323.566	84.44
323.795	74.44
324.024	78.44
324.253	90.44
324.482	72.44
324.71	82.44
324.939	88.44
325.168	88.44
325.397	85.44
325.626	75.44
325.855	85.44
326.084	86.44
326.313	93.44
326.542	96.44
326.77	86.44
326.999	73.44
327.228	83.44
327.457	86.44
327.686	84.44
327.914	81.44
328.143	84.44
328.372	74.44
328.6	74.44
328.829	89.44
329.058	77.44
329.287	74.44
329.515	73.44
329.744	84.44
329.972	77.44
330.201	94.44
330.43	90.44
330.658	64.44
330.887	73.44
331.115	79.44
331.344	67.44
331.572	78.44
331.801	81.44
332.03	74.44
332.258	91.44
332.486	81.44
332.715	81.44
332.943	89.44
333.172	84.44
333.4	85.44
333.629	86.44
333.857	94.44
334.085	78.44
334.314	71.44
334.542	80.44
334.771	72.44
334.999	80.44
335.227	81.44
335.455	87.44
335.684	92.44
335.912	72.44
336.14	85.44
336.369	84.44
336.597	84.44
336.825	99.44
337.053	90.44
337.281	70.44
337.51	76.44
337.738	81.44
337.966	85.44
338.194	85.44
338.422	87.44
338.65	78.44
338.878	81.44
339.106	74.44
339.334	77.44
339.562	81.44
339.79	65.44
340.018	79.44
340.246	92.44
340.474	74.44
340.702	74.44
340.93	72.44
341.158	81.44
341.386	74.44
341.614	89.44
341.842	85.44
342.07	85.44
342.298	80.44
342.526	88.44
342.754	76.44
342.981	89.44
343.209	69.44
343.437	93.44
343.665	80.44
343.893	93.44
344.12	88.44
344.348	88.44
344.576	77.44
344.804	88.44
345.031	81.44
345.259	82.44
345.487	77.44
345.714	80.44
345.942	86.44
346.17	100.44
346.397	89.44
346.625	86.44
346.853	72.44
347.08	74.44
347.308	78.44
347.535	78.44
347.763	84.44
347.99	74.44
348.218	80.44
348.445	79.44
348.673	76.44
348.9	70.44
349.128	94.44
349.355	82.44
349.583	77.44
349.81	64.44
350.037	82.44
350.265	94.44
350.492	99.44
350.72	73.44
350.947	83.44
351.174	84.44
351.402	86.44
351.629	84.44
351.856	86.44
352.083	77.44
352.311	65.44
352.538	76.44
352.765	86.44
352.992	97.44
353.22	82.44
353.447	73.44
353.674	80.44
353.901	96.44
354.128	94.44
354.355	82.44
354.583	82.44
354.81	85.44
355.037	80.44
355.264	81.44
355.491	100.44
355.718	75.44
355.945	83.44
356.172	86.44
356.399	80.44
356.626	80.44
356.853	96.44
357.08	88.44
357.307	81.44
357.534	74.44
357.761	79.44
357.988	83.44
358.215	86.44
358.441	91.44
358.668	86.44
358.895	72.44
359.122	81.44
359.349	80.44
359.576	85.44
359.802	76.44
360.029	81.44
360.256	89.44
360.483	73.44
360.709	73.44
360.936	89.44
361.163	89.44
361.39	91.44
361.616	84.44
361.843	76.44
362.07	76.44
362.296	79.44
362.523	95.44
362.749	84.44
362.976	83.44
363.203	87.44
363.429	87.44
363.656	86.44
363.882	79.44
364.109	72.44
364.335	82.44
364.562	94.44
364.788	74.44
365.015	78.44
365.241	76.44
365.468	83.44
365.694	68.44
365.92	78.44
366.147	74.44
366.373	73.44
366.599	60.44
366.826	76.44
367.052	85.44
367.278	87.44
367.505	83.44
367.731	87.44
367.957	89.44
368.184	75.44
368.41	83.44
368.636	74.44
368.862	87.44
369.089	76.44
369.315	95.44
369.541	86.44
369.767	86.44
369.993	84.44
370.219	77.44
370.445	80.44
370.672	74.44
370.898	69.44
371.124	78.44
371.35	77.44
371.576	90.44
371.802	81.44
372.028	76.44
372.254	77.44
372.48	79.44
372.706	72.44
372.932	70.44
373.158	81.44
373.384	78.44
373.61	81.44
373.835	82.44
374.061	87.44
374.287	83.44
374.513	79.44
374.739	84.44
374.965	86.44
375.191	94.44
375.416	80.44
375.642	86.44
375.868	83.44
376.094	93.44
376.319	79.44
376.545	82.44
376.771	71.44
376.997	73.44
377.222	65.44
377.448	88.44
377.674	80.44
377.899	84.44
378.125	82.44
378.35	88.44
378.576	82.44
378.802	66.44
379.027	69.44
379.253	74.44
379.478	84.44
379.704	81.44
379.929	78.44
380.155	55.44
380.38	84.44
380.606	79.44
380.831	79.44
381.057	82.44
381.282	88.44
381.507	79.44
381.733	91.44
381.958	77.44
382.184	76.44
382.409	79.44
382.634	80.44
382.86	94.44
383.085	80.44
383.31	89.44
383.535	81.44
383.761	83.44
383.986	84.44
384.211	74.44
384.436	81.44
384.662	75.44
384.887	79.44
385.112	78.44
385.337	77.44
385.562	74.44
385.787	80.44
386.013	89.44
386.238	71.44
386.463	86.44
386.688	84.44
386.913	89.44
387.138	92.44
387.363	83.44
387.588	86.44
387.813	74.44
388.038	88.44
388.263	79.44
388.488	70.44
388.713	70.44
388.938	86.44
389.163	84.44
389.387	68.44
389.612	68.44
389.837	79.44
390.062	76.44
390.287	96.44
390.512	77.44
390.736	76.44
390.961	76.44
391.186	81.44
391.411	91.44
391.636	89.44
391.86	84.44
392.085	90.44
392.31	84.44
392.534	70.44
392.759	81.44
392.984	96.44
393.208	102.44
393.433	120.44
393.658	94.44
393.882	86.44
394.107	74.44
394.331	68.44
394.556	77.44
394.78	67.44
395.005	77.44
395.229	92.44
395.454	80.44
395.678	71.44
395.903	75.44
396.127	88.44
396.352	88.44
396.576	89.44
396.801	100.44
397.025	120.44
397.249	96.44
397.474	84.44
397.698	84.44
397.922	76.44
398.147	91.44
398.371	82.44
398.595	63.44
398.82	66.44
399.044	72.44
399.268	86.44
399.492	88.44
399.717	86.44
399.941	80.44
400.165	66.44
400.389	72.44
400.613	72.44
400.837	83.44
401.062	81.44
401.286	86.44
401.51	75.44
401.734	65.44
401.958	79.44
402.182	72.44
402.406	93.44
402.63	80.44
402.854	89.44
403.078	71.44
403.302	74.44
403.526	74.44
403.75	84.44
403.974	76.44
404.198	82.44
404.422	72.44
404.645	75.44
404.869	70.44
405.093	74.44
405.317	71.44
405.541	85.44
405.765	76.44
405.988	85.44
406.212	92.44
406.436	80.44
406.66	73.44
406.883	75.44
407.107	70.44
407.331	80.44
407.555	68.44
407.778	90.44
408.002	85.44
408.226	90.44
408.449	72.44
408.673	71.44
408.896	83.44
409.12	87.44
409.344	74.44
409.567	84.44
409.791	80.44
410.014	77.44
410.238	79.44
410.461	89.44
410.685	79.44
410.908	79.44
411.132	86.44
411.355	70.44
411.578	79.44
411.802	76.44
412.025	68.44
412.249	83.44
412.472	72.44
412.695	66.44
412.919	70.44
413.142	77.44
413.365	84.44
413.589	79.44
413.812	74.44
414.035	85.44
414.258	87.44
414.482	77.44
414.705	85.44
414.928	80.44
415.151	83.44
415.374	76.44
415.597	84.44
415.821	68.44
416.044	71.44
416.267	82.44
416.49	78.44
416.713	74.44
416.936	70.44
417.159	65.44
417.382	69.44
417.605	85.44
417.828	80.44
418.051	87.44
418.274	80.44
418.497	76.44
418.72	77.44
418.943	76.44
419.166	67.44
419.389	84.44
419.611	96.44
419.834	92.44
420.057	81.44
420.28	85.44
420.503	83.44
420.726	77.44
420.948	76.44
421.171	77.44
421.394	91.44
421.617	90.44
421.839	86.44
422.062	105.44
422.285	83.44
422.507	86.44
422.73	120.44
422.953	106.44
423.175	80.44
423.398	63.44
423.621	80.44
423.843	89.44
424.066	82.44
424.288	91.44
424.511	85.44
424.733	74.44
424.956	76.44
425.178	79.44
425.401	72.44
425.623	79.44
425.846	73.44
426.068	77.44
426.291	80.44
426.513	74.44
426.735	85.44
426.958	73.44
427.18	71.44
427.402	83.44
427.625	68.44
427.847	88.44
428.069	79.44
428.292	82.44
428.514	86.44
428.736	69.44
428.958	78.44
429.181	87.44
429.403	78.44
429.625	84.44
429.847	93.44
430.069	99.44
430.292	91.44
430.514	100.44
430.736	89.44
430.958	79.44
431.18	72.44
431.402	71.44
431.624	85.44
431.846	71.44
432.068	94.44
432.29	86.44
432.512	68.44
432.734	80.44
432.956	63.44
433.178	81.44
433.4	81.44
433.622	88.44
433.844	79.44
434.066	49.44
434.287	93.44
434.509	73.44
434.731	90.44
434.953	73.44
435.175	83.44
435.397	76.44
435.618	84.44
435.84	77.44
436.062	78.44
436.284	73.44
436.505	90.44
436.727	71.44
436.949	85.44
437.17	90.44
437.392	72.44
437.614	87.44
437.835	66.44
438.057	72.44
438.278	72.44
438.5	80.44
438.721	74.44
438.943	74.44
439.165	76.44
439.386	74.44
439.608	84.44
439.829	78.44
440.05	69.44
440.272	88.44
440.493	84.44
440.715	76.44
440.936	84.44
441.158	79.44
441.379	81.44
441.6	79.44
441.822	86.44
442.043	84.44
442.264	83.44
442.486	98.44
442.707	94.44
442.928	78.44
443.149	80.44
443.371	94.44
443.592	97.44
443.813	86.44
444.034	83.44
444.255	87.44
444.476	82.44
444.698	80.44
444.919	71.44
445.14	153.44
445.361	121.44
445.582	104.44
445.803	94.44
446.024	64.44
446.245	84.44
446.466	80.44
446.687	89.44
446.908	72.44
447.129	78.44
447.35	76.44
447.571	89.44
447.792	78.44
448.013	86.44
448.234	86.44
448.455	66.44
448.675	90.44
448.896	70.44
449.117	77.44
449.338	69.44
449.559	84.44
449.779	66.44
450	79.44
450.221	81.44
450.442	80.44
450.662	85.44
450.883	88.44
451.104	76.44
451.324	91.44
451.545	80.44
451.766	77.44
451.986	71.44
452.207	77.44
452.428	84.44
452.648	77.44
452.869	74.44
453.089	77.44
453.31	86.44
453.53	75.44
453.751	74.44
453.971	77.44
454.192	79.44
454.412	74.44
454.633	81.44
454.853	71.44
455.073	77.44
455.294	70.44
455.514	90.44
455.734	70.44
455.955	85.44
456.175	79.44
456.395	71.44
456.616	90.44
456.836	87.44
457.056	75.44
457.276	73.44
457.497	76.44
457.717	87.44
457.937	84.44
458.157	80.44
458.377	84.44
458.598	74.44
458.818	60.44
459.038	72.44
459.258	89.44
459.478	78.44
459.698	76.44
459.918	85.44
460.138	90.44
460.358	77.44
460.578	90.44
460.798	96.44
461.018	88.44
461.238	87.44
461.458	72.44
461.678	84.44
461.898	83.44
462.118	81.44
462.338	74.44
462.558	76.44
462.777	76.44
462.997	80.44
463.217	67.44
463.437	78.44
463.657	75.44
463.876	68.44
464.096	72.44
464.316	73.44
464.536	79.44
464.755	88.44
464.975	74.44
465.195	79.44
465.414	68.44
465.634	74.44
465.854	73.44
466.073	81.44
466.293	75.44
466.512	77.44
466.732	85.44
466.951	84.44
467.171	83.44
467.391	68.44
467.61	70.44
467.829	78.44
468.049	77.44
468.268	74.44
468.488	63.44
468.707	91.44
468.927	83.44
469.146	72.44
469.365	78.44
469.585	66.44
469.804	94.44
470.023	76.44
470.243	86.44
470.462	88.44
470.681	82.44
470.901	54.44
471.12	76.44
471.339	80.44
471.558	81.44
471.777	81.44
471.997	75.44
472.216	75.44
472.435	81.44
472.654	83.44
472.873	78.44
473.092	82.44
473.311	76.44
473.53	79.44
473.749	75.44
473.968	91.44
474.187	79.44
474.406	71.44
474.625	79.44
474.844	89.44
475.063	82.44
475.282	83.44
475.501	80.44
475.72	80.44
475.939	61.44
476.158	78.44
476.377	78.44
476.596	74.44
476.814	88.44
477.033	81.44
477.252	75.44
477.471	71.44
477.69	86.44
477.908	90.44
478.127	85.44
478.346	73.44
478.564	76.44
478.783	76.44
479.002	72.44
479.22	78.44
479.439	79.44
479.658	81.44
479.876	87.44
480.095	76.44
480.313	80.44
480.532	86.44
480.751	89.44
480.969	78.44
481.188	72.44
481.406	83.44
481.624	81.44
481.843	88.44
482.061	79.44
482.28	76.44
482.498	90.44
482.717	73.44
482.935	77.44
483.153	82.44
483.372	68.44
483.59	89.44
483.808	78.44
484.027	79.44
484.245	69.44
484.463	79.44
484.681	94.44
484.9	82.44
485.118	96.44
485.336	81.44
485.554	76.44
485.772	79.44
485.99	82.44
486.209	62.44
486.427	86.44
486.645	64.44
486.863	78.44
487.081	84.44
487.299	89.44
487.517	90.44
487.735	73.44
487.953	74.44
488.171	86.44
488.389	80.44
488.607	76.44
488.825	86.44
489.043	89.44
489.261	88.44
489.479	76.44
489.696	89.44
489.914	80.44
490.132	78.44
490.35	83.44
490.568	77.44
490.786	84.44
491.003	90.44
491.221	90.44
491.439	81.44
491.657	81.44
491.874	90.44
492.092	85.44
492.31	88.44
492.527	74.44
492.745	75.44
492.963	90.44
493.18	78.44
493.398	75.44
493.615	82.44
493.833	86.44
494.05	72.44
494.268	91.44
494.485	78.44
494.703	77.44
494.92	75.44
495.138	80.44
495.355	78.44
495.573	81.44
495.79	84.44
496.008	87.44
496.225	80.44
496.442	71.44
496.66	87.44
496.877	83.44
497.094	77.44
497.312	82.44
497.529	90.44
497.746	84.44
497.963	92.44
498.181	88.44
498.398	75.44
498.615	80.44
498.832	76.44
499.049	69.44
499.267	83.44
499.484	81.44
499.701	90.44
499.918	72.44
500.135	82.44
500.352	91.44
500.569	86.44
500.786	90.44
501.003	86.44
501.22	81.44
501.437	87.44
501.654	89.44
501.871	71.44
502.088	96.44
502.305	70.44
502.522	75.44
502.739	86.44
502.956	81.44
503.172	84.44
503.389	91.44
503.606	84.44
503.823	86.44
504.04	80.44
504.256	75.44
504.473	76.44
504.69	77.44
504.907	78.44
505.123	82.44
505.34	82.44
505.557	77.44
505.773	78.44
505.99	79.44
506.207	79.44
506.423	90.44
506.64	74.44
506.856	78.44
507.073	81.44
507.289	83.44
507.506	79.44
507.722	94.44
507.939	82.44
508.155	80.44
508.372	76.44
508.588	91.44
508.805	91.44
509.021	83.44
509.238	88.44
509.454	81.44
509.67	77.44
509.887	77.44
510.103	89.44
510.319	75.44
510.536	77.44
510.752	96.44
510.968	90.44
511.184	87.44
511.401	94.44
511.617	78.44
511.833	87.44
512.049	94.44
512.265	76.44
512.481	75.44
512.698	71.44
512.914	82.44
513.13	82.44
513.346	78.44
513.562	82.44
513.778	90.44
513.994	90.44
514.21	81.44
514.426	76.44
514.642	85.44
514.858	86.44
515.074	76.44
515.29	82.44
515.506	85.44
515.721	70.44
515.937	86.44
516.153	68.44
516.369	80.44
516.585	93.44
516.801	85.44
517.016	97.44
517.232	95.44
517.448	88.44
517.664	96.44
517.879	91.44
518.095	81.44
518.311	81.44
518.527	97.44
518.742	84.44
518.958	89.44
519.173	90.44
519.389	85.44
519.605	85.44
519.82	87.44
520.036	80.44
520.251	72.44
520.467	86.44
520.682	82.44
520.898	92.44
521.113	81.44
521.329	99.44
521.544	77.44
521.76	86.44
521.975	85.44
522.19	76.44
522.406	76.44
522.621	77.44
522.836	60.44
523.052	86.44
523.267	77.44
523.482	86.44
523.698	78.44
523.913	78.44
524.128	69.44
524.343	80.44
524.559	75.44
524.774	96.44
524.989	96.44
525.204	79.44
525.419	71.44
525.634	78.44
525.849	87.44
526.064	95.44
526.28	106.44
526.495	87.44
526.71	104.44
526.925	97.44
527.14	87.44
527.355	98.44
527.57	76.44
527.785	77.44
527.999	83.44
528.214	88.44
528.429	76.44
528.644	76.44
528.859	84.44
529.074	85.44
529.289	71.44
529.503	80.44
529.718	82.44
529.933	94.44
530.148	82.44
530.363	84.44
530.577	80.44
530.792	94.44
531.007	80.44
531.221	96.44
531.436	85.44
531.651	96.44
531.865	88.44
532.08	78.44
532.295	77.44
532.509	83.44
532.724	83.44
532.938	86.44
533.153	78.44
533.367	73.44
533.582	94.44
533.796	93.44
534.011	77.44
534.225	86.44
534.44	85.44
534.654	96.44
534.868	98.44
535.083	98.44
535.297	81.44
535.511	77.44
535.726	78.44
535.94	85.44
536.154	74.44
536.369	85.44
536.583	83.44
536.797	80.44
537.011	76.44
537.225	74.44
537.44	79.44
537.654	101.44
537.868	87.44
538.082	90.44
538.296	84.44
538.51	84.44
538.724	75.44
538.938	85.44
539.153	85.44
539.367	76.44
539.581	89.44
539.795	72.44
540.009	96.44
540.222	82.44
540.436	91.44
540.65	89.44
540.864	80.44
541.078	85.44
541.292	85.44
541.506	80.44
541.72	88.44
541.934	81.44
542.147	86.44
542.361	68.44
542.575	90.44
542.789	81.44
543.002	84.44
543.216	96.44
543.43	89.44
543.644	84.44
543.857	82.44
544.071	81.44
544.285	101.44
544.498	98.44
544.712	92.44
544.925	87.44
545.139	74.44
545.352	80.44
545.566	92.44
545.779	85.44
545.993	89.44
546.206	76.44
546.42	88.44
546.633	84.44
546.847	100.44
547.06	88.44
547.274	82.44
547.487	90.44
547.7	91.44
547.914	90.44
548.127	88.44
548.34	100.44
548.554	92.44
548.767	77.44
548.98	95.44
549.193	92.44
549.407	100.44
549.62	113.44
549.833	84.44
550.046	96.44
550.259	96.44
550.473	99.44
550.686	100.44
550.899	108.44
551.112	106.44
551.325	116.44
551.538	117.44
551.751	117.44
551.964	110.44
552.177	109.44
552.39	100.44
552.603	105.44
552.816	106.44
553.029	116.44
553.242	97.44
553.455	104.44
553.667	116.44
553.88	121.44
554.093	113.44
554.306	119.44
554.519	113.44
554.732	109.44
554.944	120.44
555.157	99.44
555.37	101.44
555.583	104.44
555.795	108.44
556.008	94.44
556.221	88.44
556.433	104.44
556.646	87.44
556.859	92.44
557.071	101.44
557.284	91.44
557.496	91.44
557.709	104.44
557.921	105.44
558.134	85.44
558.346	98.44
558.559	99.44
558.771	100.44
558.984	114.44
559.196	117.44
559.409	94.44
559.621	105.44
559.833	98.44
560.046	91.44
560.258	96.44
560.47	97.44
560.683	82.44
560.895	102.44
561.107	86.44
561.32	84.44
561.532	66.44
561.744	88.44
561.956	99.44
562.168	82.44
562.381	92.44
562.593	87.44
562.805	88.44
563.017	88.44
563.229	90.44
563.441	93.44
563.653	91.44
563.865	91.44
564.077	95.44
564.289	88.44
564.501	72.44
564.713	71.44
564.925	70.44
565.137	83.44
565.349	94.44
565.561	89.44
565.773	83.44
565.985	83.44
566.197	73.44
566.408	90.44
566.62	84.44
566.832	84.44
567.044	85.44
567.255	94.44
567.467	96.44
567.679	89.44
567.891	64.44
568.102	86.44
568.314	96.44
568.526	85.44
568.737	89.44
568.949	104.44
569.161	91.44
569.372	96.44
569.584	90.44
569.795	83.44
570.007	94.44
570.218	85.44
570.43	96.44
570.641	81.44
570.853	83.44
571.064	91.44
571.276	88.44
571.487	81.44
571.698	84.44
571.91	83.44
572.121	101.44
572.333	84.44
572.544	82.44
572.755	69.44
572.966	67.44
573.178	85.44
573.389	96.44
573.6	87.44
573.811	80.44
574.023	77.44
574.234	83.44
574.445	98.44
574.656	88.44
574.867	89.44
575.078	91.44
575.289	98.44
575.501	80.44
575.712	94.44
575.923	84.44
576.134	76.44
576.345	73.44
576.556	87.44
576.767	93.44
576.978	76.44
577.188	94.44
577.399	97.44
577.61	87.44
577.821	98.44
578.032	82.44
578.243	88.44
578.454	82.44
578.665	85.44
578.875	70.44
579.086	78.44
579.297	78.44
579.508	89.44
579.718	98.44
579.929	84.44
580.14	64.44
580.35	80.44
580.561	89.44
580.772	83.44
580.982	85.44
581.193	95.44
581.403	84.44
581.614	74.44
581.825	81.44
582.035	81.44
582.246	90.44
582.456	98.44
582.667	87.44
582.877	87.44
583.087	99.44
583.298	85.44
583.508	91.44
583.719	84.44
583.929	97.44
584.139	74.44
584.35	102.44
584.56	100.44
584.77	90.44
584.981	88.44
585.191	83.44
585.401	76.44
585.611	90.44
585.821	96.44
586.032	104.44
586.242	91.44
586.452	85.44
586.662	89.44
586.872	91.44
587.082	77.44
587.292	90.44
587.502	93.44
587.713	99.44
587.923	96.44
588.133	105.44
588.343	101.44
588.553	127.44
588.762	160.44
588.972	245.44
589.182	348.44
589.392	292.44
589.602	269.44
589.812	313.44
590.022	225.44
590.232	128.44
590.441	113.44
590.651	106.44
590.861	98.44
591.071	103.44
591.281	95.44
591.49	94.44
591.7	91.44
591.91	98.44
592.119	99.44
592.329	90.44
592.539	91.44
592.748	100.44
592.958	103.44
593.167	105.44
593.377	111.44
593.587	94.44
593.796	94.44
594.006	98.44
594.215	82.44
594.424	105.44
594.634	92.44
594.843	89.44
595.053	86.44
595.262	80.44
595.472	84.44
595.681	104.44
595.89	106.44
596.1	88.44
596.309	100.44
596.518	91.44
596.727	91.44
596.937	105.44
597.146	96.44
597.355	93.44
597.564	98.44
597.774	86.44
597.983	114.44
598.192	97.44
598.401	102.44
598.61	89.44
598.819	85.44
599.028	85.44
599.237	76.44
599.446	102.44
599.655	96.44
599.864	87.44
600.073	100.44
600.282	98.44
600.491	100.44
600.7	93.44
600.909	84.44
601.118	80.44
601.327	95.44
601.536	98.44
601.745	96.44
601.953	101.44
602.162	112.44
602.371	108.44
602.58	92.44
602.789	99.44
602.997	109.44
603.206	103.44
603.415	86.44
603.623	98.44
603.832	94.44
604.041	88.44
604.249	101.44
604.458	93.44
604.666	90.44
604.875	111.44
605.084	110.44
605.292	92.44
605.501	87.44
605.709	102.44
605.918	97.44
606.126	100.44
606.334	103.44
606.543	93.44
606.751	106.44
606.96	106.44
607.168	100.44
607.376	98.44
607.585	97.44
607.793	95.44
608.001	103.44
608.21	95.44
608.418	104.44
608.626	100.44
608.834	99.44
609.043	96.44
609.251	87.44
609.459	104.44
609.667	96.44
609.875	100.44
610.083	100.44
610.291	102.44
610.499	104.44
610.707	105.44
610.916	113.44
611.124	104.44
611.332	106.44
611.54	91.44
611.748	105.44
611.955	105.44
612.163	113.44
612.371	114.44
612.579	116.44
612.787	115.44
612.995	104.44
613.203	109.44
613.411	120.44
613.618	96.44
613.826	90.44
614.034	111.44
614.242	92.44
614.449	113.44
614.657	120.44
614.865	112.44
615.072	96.44
615.28	104.44
615.488	99.44
615.695	113.44
615.903	105.44
616.111	114.44
616.318	143.44
616.526	139.44
616.733	112.44
616.941	113.44
617.148	116.44
617.356	101.44
617.563	121.44
617.771	110.44
617.978	120.44
618.185	128.44
618.393	114.44
618.6	126.44
618.807	116.44
619.015	130.44
619.222	106.44
619.429	116.44
619.637	119.44
619.844	116.44
620.051	109.44
620.258	101.44
620.466	118.44
620.673	108.44
620.88	119.44
621.087	117.44
621.294	124.44
621.501	106.44
621.708	101.44
621.915	86.44
622.122	109.44
622.329	95.44
622.536	99.44
622.743	127.44
622.95	105.44
623.157	98.44
623.364	118.44
623.571	93.44
623.778	100.44
623.985	107.44
624.192	85.44
624.399	97.44
624.606	99.44
624.812	100.44
625.019	114.44
625.226	112.44
625.433	113.44
625.639	111.44
625.846	99.44
626.053	89.44
626.259	79.44
626.466	97.44
626.673	82.44
626.879	86.44
627.086	78.44
627.293	95.44
627.499	98.44
627.706	85.44
627.912	93.44
628.119	100.44
628.325	80.44
628.532	98.44
628.738	93.44
628.945	91.44
629.151	89.44
629.357	91.44
629.564	110.44
629.77	87.44
629.976	90.44
630.183	81.44
630.389	84.44
630.595	100.44
630.802	78.44
631.008	87.44
631.214	80.44
631.42	81.44
631.627	86.44
631.833	90.44
632.039	78.44
632.245	77.44
632.451	84.44
632.657	84.44
632.863	74.44
633.069	82.44
633.275	85.44
633.481	98.44
633.688	71.44
633.893	96.44
634.099	77.44
634.305	88.44
634.511	80.44
634.717	82.44
634.923	88.44
635.129	88.44
635.335	89.44
635.541	87.44
635.747	89.44
635.952	85.44
636.158	76.44
636.364	74.44
636.57	82.44
636.775	80.44
636.981	95.44
637.187	77.44
637.392	82.44
637.598	79.44
637.804	85.44
638.009	98.44
638.215	91.44
638.421	73.44
638.626	83.44
638.832	77.44
639.037	81.44
639.243	63.44
639.448	98.44
639.654	84.44
639.859	80.44
640.065	86.44
640.27	92.44
640.475	90.44
640.681	88.44
640.886	111.44
641.091	88.44
641.297	82.44
641.502	83.44
641.707	95.44
641.913	86.44
642.118	86.44
642.323	80.44
642.528	78.44
642.733	83.44
642.939	93.44
643.144	88.44
643.349	94.44
643.554	102.44
643.759	85.44
643.964	88.44
644.169	106.44
644.374	76.44
644.579	88.44
644.784	101.44
644.989	79.44
645.194	77.44
645.399	85.44
645.604	82.44
645.809	81.44
646.014	70.44
646.219	77.44
646.423	87.44
646.628	88.44
646.833	90.44
647.038	86.44
647.243	76.44
647.447	85.44
647.652	86.44
647.857	92.44
648.062	83.44
648.266	74.44
648.471	87.44
648.676	76.44
648.88	81.44
649.085	69.44
649.289	71.44
649.494	80.44
649.698	78.44
649.903	82.44
650.107	90.44
650.312	89.44
650.516	76.44
650.721	72.44
650.925	79.44
651.13	74.44
651.334	86.44
651.539	77.44
651.743	76.44
651.947	85.44
652.152	87.44
652.356	81.44
652.56	91.44
652.764	80.44
652.969	78.44
653.173	78.44
653.377	75.44
653.581	84.44
653.785	80.44
653.99	84.44
654.194	85.44
654.398	72.44
654.602	75.44
654.806	72.44
655.01	85.44
655.214	88.44
655.418	85.44
655.622	79.44
655.826	84.44
656.03	74.44
656.234	76.44
656.438	74.44
656.642	67.44
656.846	78.44
657.049	90.44
657.253	72.44
657.457	86.44
657.661	69.44
657.865	90.44
658.068	81.44
658.272	72.44
658.476	85.44
658.68	87.44
658.883	92.44
659.087	74.44
659.291	66.44
659.494	73.44
659.698	80.44
659.901	80.44
660.105	72.44
660.309	80.44
660.512	76.44
660.716	86.44
660.919	65.44
661.123	89.44
661.326	85.44
661.53	66.44
661.733	79.44
661.936	77.44
662.14	83.44
662.343	73.44
662.546	75.44
662.75	77.44
662.953	74.44
663.156	85.44
663.36	71.44
663.563	79.44
663.766	73.44
663.969	74.44
664.173	79.44
664.376	79.44
664.579	77.44
664.782	88.44
664.985	76.44
665.188	86.44
665.391	77.44
665.594	90.44
665.797	86.44
666	84.44
666.203	66.44
666.406	84.44
666.609	88.44
666.812	83.44
667.015	86.44
667.218	73.44
667.421	86.44
667.624	86.44
667.827	83.44
668.03	88.44
668.232	80.44
668.435	79.44
668.638	76.44
668.841	74.44
669.043	77.44
669.246	85.44
669.449	71.44
669.651	82.44
669.854	87.44
670.057	69.44
670.259	81.44
670.462	78.44
670.665	82.44
670.867	90.44
671.07	69.44
671.272	87.44
671.475	80.44
671.677	94.44
671.88	74.44
672.082	76.44
672.284	80.44
672.487	83.44
672.689	76.44
672.892	84.44
