Data from Soil_50_1_HRD10591_00002.txt Node
Date: Thu Feb 19 11:30:19 EST 2026
User: Yrep
Spectrometer: HR+D1059
Trigger mode: 1
Integration Time (sec): 1.000000E-1
Scans to average: 1
Electric dark correction enabled: true
Nonlinearity correction enabled: false
Boxcar width: 0
XAxis mode: Wavelengths
Number of Pixels in Spectrum: 2048
>>>>>Begin Spectral Data<<<<<
223.165	-18.38
223.4	-18.38
223.635	-18.38
223.869	-11.38
224.104	-29.38
224.338	-11.38
224.573	-16.38
224.808	-0.38
225.042	0.62
225.277	-7.38
225.511	-10.38
225.746	-0.38
225.98	3.62
226.215	13.62
226.449	15.62
226.683	3.62
226.918	28.62
227.152	39.62
227.387	37.62
227.621	33.62
227.856	46.62
228.09	52.62
228.324	43.62
228.559	57.62
228.793	53.62
229.027	64.62
229.262	71.62
229.496	65.62
229.73	68.62
229.964	75.62
230.199	68.62
230.433	79.62
230.667	63.62
230.901	81.62
231.136	67.62
231.37	80.62
231.604	73.62
231.838	89.62
232.072	74.62
232.306	89.62
232.541	84.62
232.775	72.62
233.009	78.62
233.243	72.62
233.477	84.62
233.711	89.62
233.945	87.62
234.179	90.62
234.413	96.62
234.647	89.62
234.881	69.62
235.115	71.62
235.349	69.62
235.583	75.62
235.817	80.62
236.051	74.62
236.285	88.62
236.519	79.62
236.753	71.62
236.987	70.62
237.221	77.62
237.455	68.62
237.689	73.62
237.922	76.62
238.156	81.62
238.39	83.62
238.624	79.62
238.858	79.62
239.091	81.62
239.325	84.62
239.559	88.62
239.793	76.62
240.027	83.62
240.26	79.62
240.494	78.62
240.728	79.62
240.961	72.62
241.195	75.62
241.429	76.62
241.662	77.62
241.896	76.62
242.13	66.62
242.363	92.62
242.597	84.62
242.83	88.62
243.064	71.62
243.298	83.62
243.531	68.62
243.765	81.62
243.998	72.62
244.232	76.62
244.465	76.62
244.699	72.62
244.932	81.62
245.166	75.62
245.399	79.62
245.633	85.62
245.866	65.62
246.099	79.62
246.333	74.62
246.566	73.62
246.8	87.62
247.033	77.62
247.266	83.62
247.5	85.62
247.733	101.62
247.966	88.62
248.2	84.62
248.433	78.62
248.666	77.62
248.899	85.62
249.133	84.62
249.366	91.62
249.599	79.62
249.832	87.62
250.066	78.62
250.299	81.62
250.532	82.62
250.765	90.62
250.998	84.62
251.231	76.62
251.465	77.62
251.698	83.62
251.931	78.62
252.164	72.62
252.397	91.62
252.63	79.62
252.863	76.62
253.096	89.62
253.329	73.62
253.562	72.62
253.795	84.62
254.028	75.62
254.261	78.62
254.494	73.62
254.727	69.62
254.96	84.62
255.193	87.62
255.426	85.62
255.659	76.62
255.892	71.62
256.124	79.62
256.357	78.62
256.59	90.62
256.823	78.62
257.056	80.62
257.289	79.62
257.521	84.62
257.754	84.62
257.987	89.62
258.22	81.62
258.452	88.62
258.685	85.62
258.918	81.62
259.151	79.62
259.383	99.62
259.616	85.62
259.849	97.62
260.081	76.62
260.314	85.62
260.547	86.62
260.779	90.62
261.012	83.62
261.244	88.62
261.477	79.62
261.71	77.62
261.942	87.62
262.175	91.62
262.407	71.62
262.64	81.62
262.872	77.62
263.105	82.62
263.337	86.62
263.57	81.62
263.802	77.62
264.035	88.62
264.267	73.62
264.499	74.62
264.732	85.62
264.964	63.62
265.197	70.62
265.429	71.62
265.661	84.62
265.894	84.62
266.126	92.62
266.358	78.62
266.591	84.62
266.823	96.62
267.055	71.62
267.287	88.62
267.52	94.62
267.752	97.62
267.984	83.62
268.216	83.62
268.448	92.62
268.681	77.62
268.913	81.62
269.145	81.62
269.377	80.62
269.609	89.62
269.841	76.62
270.073	80.62
270.306	89.62
270.538	72.62
270.77	70.62
271.002	82.62
271.234	81.62
271.466	76.62
271.698	89.62
271.93	81.62
272.162	98.62
272.394	90.62
272.626	88.62
272.858	74.62
273.09	72.62
273.322	84.62
273.553	93.62
273.785	84.62
274.017	87.62
274.249	79.62
274.481	77.62
274.713	75.62
274.945	88.62
275.176	86.62
275.408	75.62
275.64	75.62
275.872	84.62
276.104	69.62
276.335	71.62
276.567	102.62
276.799	86.62
277.031	82.62
277.262	94.62
277.494	98.62
277.726	91.62
277.957	77.62
278.189	83.62
278.421	83.62
278.652	82.62
278.884	96.62
279.115	77.62
279.347	91.62
279.579	99.62
279.81	81.62
280.042	101.62
280.273	93.62
280.505	87.62
280.736	83.62
280.968	84.62
281.199	74.62
281.431	88.62
281.662	89.62
281.894	78.62
282.125	83.62
282.356	80.62
282.588	91.62
282.819	87.62
283.051	83.62
283.282	91.62
283.513	91.62
283.745	93.62
283.976	93.62
284.207	77.62
284.439	92.62
284.67	79.62
284.901	92.62
285.132	80.62
285.364	87.62
285.595	79.62
285.826	84.62
286.057	75.62
286.288	76.62
286.52	92.62
286.751	81.62
286.982	87.62
287.213	69.62
287.444	79.62
287.675	90.62
287.906	90.62
288.138	91.62
288.369	81.62
288.6	83.62
288.831	75.62
289.062	85.62
289.293	81.62
289.524	83.62
289.755	87.62
289.986	68.62
290.217	81.62
290.448	85.62
290.679	91.62
290.91	90.62
291.141	69.62
291.371	76.62
291.602	92.62
291.833	78.62
292.064	85.62
292.295	100.62
292.526	81.62
292.757	90.62
292.987	81.62
293.218	71.62
293.449	87.62
293.68	92.62
293.91	77.62
294.141	102.62
294.372	92.62
294.603	73.62
294.833	90.62
295.064	90.62
295.295	72.62
295.525	97.62
295.756	86.62
295.987	79.62
296.217	89.62
296.448	75.62
296.679	72.62
296.909	83.62
297.14	89.62
297.37	96.62
297.601	93.62
297.831	93.62
298.062	95.62
298.292	81.62
298.523	88.62
298.753	82.62
298.984	81.62
299.214	79.62
299.445	83.62
299.675	91.62
299.905	94.62
300.136	89.62
300.366	107.62
300.597	94.62
300.827	82.62
301.057	88.62
301.288	74.62
301.518	85.62
301.748	95.62
301.979	111.62
302.209	87.62
302.439	85.62
302.669	87.62
302.9	73.62
303.13	80.62
303.36	77.62
303.59	85.62
303.82	91.62
304.051	84.62
304.281	79.62
304.511	92.62
304.741	94.62
304.971	81.62
305.201	87.62
305.431	97.62
305.661	89.62
305.891	87.62
306.121	92.62
306.352	81.62
306.582	82.62
306.812	78.62
307.042	82.62
307.272	74.62
307.502	83.62
307.731	93.62
307.961	89.62
308.191	86.62
308.421	91.62
308.651	86.62
308.881	84.62
309.111	105.62
309.341	94.62
309.571	100.62
309.8	83.62
310.03	87.62
310.26	89.62
310.49	79.62
310.72	83.62
310.949	74.62
311.179	79.62
311.409	99.62
311.639	90.62
311.868	84.62
312.098	86.62
312.328	96.62
312.557	97.62
312.787	77.62
313.017	82.62
313.246	86.62
313.476	97.62
313.706	79.62
313.935	97.62
314.165	91.62
314.394	76.62
314.624	87.62
314.853	86.62
315.083	92.62
315.312	90.62
315.542	94.62
315.771	79.62
316.001	73.62
316.23	80.62
316.46	86.62
316.689	103.62
316.919	81.62
317.148	84.62
317.377	91.62
317.607	95.62
317.836	79.62
318.065	98.62
318.295	97.62
318.524	93.62
318.753	84.62
318.983	86.62
319.212	81.62
319.441	69.62
319.67	93.62
319.9	89.62
320.129	93.62
320.358	88.62
320.587	100.62
320.816	82.62
321.046	76.62
321.275	87.62
321.504	67.62
321.733	84.62
321.962	90.62
322.191	85.62
322.42	77.62
322.649	89.62
322.878	87.62
323.108	71.62
323.337	89.62
323.566	75.62
323.795	89.62
324.024	95.62
324.253	79.62
324.482	83.62
324.71	79.62
324.939	91.62
325.168	82.62
325.397	78.62
325.626	83.62
325.855	86.62
326.084	95.62
326.313	79.62
326.542	84.62
326.77	89.62
326.999	92.62
327.228	99.62
327.457	83.62
327.686	84.62
327.914	73.62
328.143	75.62
328.372	80.62
328.6	74.62
328.829	102.62
329.058	89.62
329.287	89.62
329.515	85.62
329.744	88.62
329.972	97.62
330.201	96.62
330.43	78.62
330.658	86.62
330.887	79.62
331.115	99.62
331.344	81.62
331.572	77.62
331.801	67.62
332.03	91.62
332.258	86.62
332.486	76.62
332.715	85.62
332.943	89.62
333.172	99.62
333.4	97.62
333.629	90.62
333.857	90.62
334.085	95.62
334.314	83.62
334.542	79.62
334.771	79.62
334.999	91.62
335.227	99.62
335.455	85.62
335.684	93.62
335.912	87.62
336.14	86.62
336.369	88.62
336.597	82.62
336.825	75.62
337.053	82.62
337.281	85.62
337.51	75.62
337.738	74.62
337.966	89.62
338.194	83.62
338.422	87.62
338.65	84.62
338.878	83.62
339.106	86.62
339.334	82.62
339.562	79.62
339.79	93.62
340.018	82.62
340.246	89.62
340.474	88.62
340.702	84.62
340.93	88.62
341.158	94.62
341.386	94.62
341.614	81.62
341.842	79.62
342.07	82.62
342.298	82.62
342.526	77.62
342.754	93.62
342.981	88.62
343.209	83.62
343.437	98.62
343.665	80.62
343.893	85.62
344.12	86.62
344.348	91.62
344.576	97.62
344.804	76.62
345.031	77.62
345.259	80.62
345.487	91.62
345.714	90.62
345.942	80.62
346.17	105.62
346.397	80.62
346.625	93.62
346.853	87.62
347.08	75.62
347.308	71.62
347.535	90.62
347.763	72.62
347.99	92.62
348.218	93.62
348.445	85.62
348.673	79.62
348.9	84.62
349.128	89.62
349.355	94.62
349.583	77.62
349.81	93.62
350.037	85.62
350.265	92.62
350.492	87.62
350.72	86.62
350.947	73.62
351.174	92.62
351.402	92.62
351.629	88.62
351.856	96.62
352.083	93.62
352.311	95.62
352.538	80.62
352.765	97.62
352.992	97.62
353.22	102.62
353.447	70.62
353.674	90.62
353.901	83.62
354.128	92.62
354.355	85.62
354.583	93.62
354.81	84.62
355.037	81.62
355.264	76.62
355.491	84.62
355.718	72.62
355.945	79.62
356.172	82.62
356.399	83.62
356.626	101.62
356.853	84.62
357.08	78.62
357.307	81.62
357.534	74.62
357.761	105.62
357.988	79.62
358.215	108.62
358.441	91.62
358.668	97.62
358.895	93.62
359.122	86.62
359.349	84.62
359.576	85.62
359.802	93.62
360.029	91.62
360.256	83.62
360.483	89.62
360.709	100.62
360.936	94.62
361.163	97.62
361.39	84.62
361.616	75.62
361.843	79.62
362.07	81.62
362.296	80.62
362.523	85.62
362.749	94.62
362.976	100.62
363.203	89.62
363.429	89.62
363.656	83.62
363.882	76.62
364.109	91.62
364.335	102.62
364.562	103.62
364.788	89.62
365.015	81.62
365.241	97.62
365.468	82.62
365.694	82.62
365.92	73.62
366.147	105.62
366.373	80.62
366.599	89.62
366.826	96.62
367.052	85.62
367.278	86.62
367.505	82.62
367.731	74.62
367.957	94.62
368.184	88.62
368.41	83.62
368.636	97.62
368.862	85.62
369.089	77.62
369.315	78.62
369.541	85.62
369.767	88.62
369.993	81.62
370.219	97.62
370.445	80.62
370.672	89.62
370.898	83.62
371.124	92.62
371.35	91.62
371.576	83.62
371.802	80.62
372.028	71.62
372.254	77.62
372.48	83.62
372.706	96.62
372.932	92.62
373.158	89.62
373.384	93.62
373.61	101.62
373.835	85.62
374.061	93.62
374.287	85.62
374.513	80.62
374.739	93.62
374.965	84.62
375.191	99.62
375.416	85.62
375.642	82.62
375.868	83.62
376.094	82.62
376.319	75.62
376.545	79.62
376.771	96.62
376.997	79.62
377.222	76.62
377.448	97.62
377.674	91.62
377.899	85.62
378.125	71.62
378.35	82.62
378.576	92.62
378.802	88.62
379.027	92.62
379.253	83.62
379.478	95.62
379.704	82.62
379.929	88.62
380.155	81.62
380.38	77.62
380.606	90.62
380.831	85.62
381.057	104.62
381.282	83.62
381.507	97.62
381.733	95.62
381.958	82.62
382.184	81.62
382.409	80.62
382.634	89.62
382.86	100.62
383.085	115.62
383.31	100.62
383.535	122.62
383.761	123.62
383.986	118.62
384.211	82.62
384.436	93.62
384.662	88.62
384.887	78.62
385.112	81.62
385.337	80.62
385.562	84.62
385.787	97.62
386.013	91.62
386.238	83.62
386.463	83.62
386.688	92.62
386.913	92.62
387.138	91.62
387.363	91.62
387.588	84.62
387.813	91.62
388.038	81.62
388.263	83.62
388.488	91.62
388.713	82.62
388.938	87.62
389.163	91.62
389.387	84.62
389.612	83.62
389.837	88.62
390.062	77.62
390.287	91.62
390.512	79.62
390.736	85.62
390.961	90.62
391.186	79.62
391.411	92.62
391.636	97.62
391.86	92.62
392.085	67.62
392.31	81.62
392.534	92.62
392.759	96.62
392.984	102.62
393.208	136.62
393.433	159.62
393.658	154.62
393.882	107.62
394.107	107.62
394.331	102.62
394.556	99.62
394.78	79.62
395.005	94.62
395.229	78.62
395.454	83.62
395.678	98.62
395.903	92.62
396.127	103.62
396.352	99.62
396.576	115.62
396.801	143.62
397.025	149.62
397.249	90.62
397.474	102.62
397.698	94.62
397.922	80.62
398.147	85.62
398.371	75.62
398.595	86.62
398.82	83.62
399.044	92.62
399.268	94.62
399.492	77.62
399.717	80.62
399.941	76.62
400.165	81.62
400.389	89.62
400.613	79.62
400.837	90.62
401.062	90.62
401.286	74.62
401.51	85.62
401.734	87.62
401.958	81.62
402.182	85.62
402.406	72.62
402.63	78.62
402.854	88.62
403.078	99.62
403.302	79.62
403.526	80.62
403.75	94.62
403.974	84.62
404.198	81.62
404.422	103.62
404.645	106.62
404.869	78.62
405.093	75.62
405.317	73.62
405.541	79.62
405.765	80.62
405.988	89.62
406.212	91.62
406.436	87.62
406.66	76.62
406.883	79.62
407.107	92.62
407.331	89.62
407.555	84.62
407.778	79.62
408.002	97.62
408.226	98.62
408.449	99.62
408.673	83.62
408.896	99.62
409.12	98.62
409.344	92.62
409.567	92.62
409.791	100.62
410.014	82.62
410.238	86.62
410.461	85.62
410.685	76.62
410.908	92.62
411.132	77.62
411.355	82.62
411.578	96.62
411.802	81.62
412.025	88.62
412.249	87.62
412.472	98.62
412.695	89.62
412.919	79.62
413.142	86.62
413.365	80.62
413.589	69.62
413.812	80.62
414.035	83.62
414.258	77.62
414.482	75.62
414.705	84.62
414.928	95.62
415.151	79.62
415.374	71.62
415.597	75.62
415.821	80.62
416.044	72.62
416.267	85.62
416.49	79.62
416.713	84.62
416.936	93.62
417.159	79.62
417.382	87.62
417.605	81.62
417.828	80.62
418.051	97.62
418.274	75.62
418.497	75.62
418.72	76.62
418.943	87.62
419.166	80.62
419.389	97.62
419.611	91.62
419.834	69.62
420.057	72.62
420.28	73.62
420.503	86.62
420.726	84.62
420.948	77.62
421.171	70.62
421.394	91.62
421.617	88.62
421.839	98.62
422.062	103.62
422.285	101.62
422.507	137.62
422.73	187.62
422.953	155.62
423.175	123.62
423.398	91.62
423.621	80.62
423.843	77.62
424.066	80.62
424.288	89.62
424.511	86.62
424.733	84.62
424.956	79.62
425.178	85.62
425.401	81.62
425.623	87.62
425.846	90.62
426.068	85.62
426.291	68.62
426.513	84.62
426.735	89.62
426.958	96.62
427.18	77.62
427.402	78.62
427.625	83.62
427.847	80.62
428.069	78.62
428.292	92.62
428.514	111.62
428.736	95.62
428.958	89.62
429.181	87.62
429.403	76.62
429.625	93.62
429.847	93.62
430.069	113.62
430.292	111.62
430.514	107.62
430.736	107.62
430.958	99.62
431.18	80.62
431.402	78.62
431.624	78.62
431.846	93.62
432.068	92.62
432.29	93.62
432.512	88.62
432.734	85.62
432.956	85.62
433.178	84.62
433.4	84.62
433.622	71.62
433.844	83.62
434.066	88.62
434.287	83.62
434.509	88.62
434.731	77.62
434.953	69.62
435.175	75.62
435.397	76.62
435.618	76.62
435.84	78.62
436.062	89.62
436.284	79.62
436.505	80.62
436.727	76.62
436.949	81.62
437.17	81.62
437.392	93.62
437.614	79.62
437.835	85.62
438.057	87.62
438.278	83.62
438.5	85.62
438.721	77.62
438.943	82.62
439.165	92.62
439.386	76.62
439.608	89.62
439.829	83.62
440.05	99.62
440.272	81.62
440.493	95.62
440.715	80.62
440.936	89.62
441.158	109.62
441.379	83.62
441.6	85.62
441.822	88.62
442.043	95.62
442.264	101.62
442.486	108.62
442.707	115.62
442.928	74.62
443.149	93.62
443.371	108.62
443.592	141.62
443.813	128.62
444.034	97.62
444.255	87.62
444.476	83.62
444.698	95.62
444.919	83.62
445.14	184.62
445.361	135.62
445.582	145.62
445.803	124.62
446.024	91.62
446.245	72.62
446.466	89.62
446.687	99.62
446.908	85.62
447.129	91.62
447.35	83.62
447.571	90.62
447.792	82.62
448.013	84.62
448.234	87.62
448.455	81.62
448.675	83.62
448.896	81.62
449.117	73.62
449.338	85.62
449.559	86.62
449.779	78.62
450	80.62
450.221	84.62
450.442	79.62
450.662	83.62
450.883	81.62
451.104	74.62
451.324	87.62
451.545	84.62
451.766	90.62
451.986	84.62
452.207	91.62
452.428	83.62
452.648	94.62
452.869	84.62
453.089	84.62
453.31	78.62
453.53	96.62
453.751	96.62
453.971	88.62
454.192	64.62
454.412	87.62
454.633	90.62
454.853	86.62
455.073	81.62
455.294	88.62
455.514	89.62
455.734	82.62
455.955	87.62
456.175	83.62
456.395	68.62
456.616	79.62
456.836	91.62
457.056	82.62
457.276	92.62
457.497	92.62
457.717	81.62
457.937	94.62
458.157	84.62
458.377	100.62
458.598	101.62
458.818	90.62
459.038	83.62
459.258	79.62
459.478	74.62
459.698	82.62
459.918	83.62
460.138	89.62
460.358	82.62
460.578	80.62
460.798	99.62
461.018	91.62
461.238	83.62
461.458	100.62
461.678	79.62
461.898	87.62
462.118	84.62
462.338	78.62
462.558	77.62
462.777	79.62
462.997	63.62
463.217	80.62
463.437	74.62
463.657	76.62
463.876	87.62
464.096	76.62
464.316	78.62
464.536	87.62
464.755	84.62
464.975	98.62
465.195	101.62
465.414	84.62
465.634	82.62
465.854	95.62
466.073	75.62
466.293	90.62
466.512	91.62
466.732	85.62
466.951	91.62
467.171	83.62
467.391	82.62
467.61	81.62
467.829	84.62
468.049	84.62
468.268	97.62
468.488	91.62
468.707	74.62
468.927	84.62
469.146	89.62
469.365	84.62
469.585	95.62
469.804	89.62
470.023	84.62
470.243	73.62
470.462	71.62
470.681	83.62
470.901	80.62
471.12	93.62
471.339	67.62
471.558	82.62
471.777	72.62
471.997	83.62
472.216	85.62
472.435	90.62
472.654	82.62
472.873	77.62
473.092	84.62
473.311	90.62
473.53	79.62
473.749	95.62
473.968	84.62
474.187	72.62
474.406	92.62
474.625	92.62
474.844	99.62
475.063	89.62
475.282	98.62
475.501	80.62
475.72	80.62
475.939	91.62
476.158	91.62
476.377	94.62
476.596	84.62
476.814	69.62
477.033	96.62
477.252	98.62
477.471	79.62
477.69	98.62
477.908	81.62
478.127	96.62
478.346	83.62
478.564	83.62
478.783	80.62
479.002	75.62
479.22	81.62
479.439	76.62
479.658	70.62
479.876	80.62
480.095	94.62
480.313	83.62
480.532	79.62
480.751	90.62
480.969	65.62
481.188	79.62
481.406	90.62
481.624	101.62
481.843	89.62
482.061	91.62
482.28	76.62
482.498	91.62
482.717	86.62
482.935	86.62
483.153	97.62
483.372	97.62
483.59	76.62
483.808	93.62
484.027	81.62
484.245	99.62
484.463	79.62
484.681	92.62
484.9	70.62
485.118	93.62
485.336	82.62
485.554	92.62
485.772	89.62
485.99	75.62
486.209	76.62
486.427	83.62
486.645	87.62
486.863	90.62
487.081	99.62
487.299	77.62
487.517	82.62
487.735	104.62
487.953	101.62
488.171	108.62
488.389	91.62
488.607	76.62
488.825	99.62
489.043	89.62
489.261	100.62
489.479	89.62
489.696	97.62
489.914	81.62
490.132	84.62
490.35	95.62
490.568	81.62
490.786	98.62
491.003	81.62
491.221	91.62
491.439	94.62
491.657	83.62
491.874	83.62
492.092	82.62
492.31	88.62
492.527	88.62
492.745	77.62
492.963	94.62
493.18	71.62
493.398	86.62
493.615	77.62
493.833	107.62
494.05	88.62
494.268	80.62
494.485	91.62
494.703	93.62
494.92	84.62
495.138	105.62
495.355	83.62
495.573	83.62
495.79	79.62
496.008	99.62
496.225	95.62
496.442	91.62
496.66	90.62
496.877	97.62
497.094	85.62
497.312	89.62
497.529	98.62
497.746	95.62
497.963	89.62
498.181	85.62
498.398	79.62
498.615	83.62
498.832	88.62
499.049	91.62
499.267	81.62
499.484	100.62
499.701	88.62
499.918	95.62
500.135	75.62
500.352	88.62
500.569	84.62
500.786	80.62
501.003	81.62
501.22	73.62
501.437	95.62
501.654	76.62
501.871	76.62
502.088	84.62
502.305	87.62
502.522	74.62
502.739	109.62
502.956	97.62
503.172	89.62
503.389	92.62
503.606	81.62
503.823	96.62
504.04	97.62
504.256	112.62
504.473	99.62
504.69	97.62
504.907	87.62
505.123	86.62
505.34	84.62
505.557	82.62
505.773	101.62
505.99	87.62
506.207	95.62
506.423	79.62
506.64	93.62
506.856	101.62
507.073	75.62
507.289	83.62
507.506	94.62
507.722	73.62
507.939	79.62
508.155	82.62
508.372	78.62
508.588	92.62
508.805	87.62
509.021	85.62
509.238	77.62
509.454	97.62
509.67	86.62
509.887	77.62
510.103	81.62
510.319	91.62
510.536	83.62
510.752	83.62
510.968	92.62
511.184	72.62
511.401	83.62
511.617	79.62
511.833	89.62
512.049	103.62
512.265	85.62
512.481	93.62
512.698	97.62
512.914	79.62
513.13	88.62
513.346	84.62
513.562	84.62
513.778	97.62
513.994	72.62
514.21	81.62
514.426	94.62
514.642	83.62
514.858	92.62
515.074	102.62
515.29	92.62
515.506	91.62
515.721	76.62
515.937	83.62
516.153	100.62
516.369	97.62
516.585	90.62
516.801	95.62
517.016	103.62
517.232	101.62
517.448	145.62
517.664	101.62
517.879	85.62
518.095	103.62
518.311	99.62
518.527	143.62
518.742	113.62
518.958	101.62
519.173	113.62
519.389	98.62
519.605	81.62
519.82	84.62
520.036	90.62
520.251	83.62
520.467	100.62
520.682	86.62
520.898	77.62
521.113	85.62
521.329	87.62
521.544	79.62
521.76	92.62
521.975	80.62
522.19	84.62
522.406	94.62
522.621	83.62
522.836	88.62
523.052	79.62
523.267	90.62
523.482	85.62
523.698	103.62
523.913	81.62
524.128	78.62
524.343	102.62
524.559	87.62
524.774	96.62
524.989	93.62
525.204	102.62
525.419	75.62
525.634	89.62
525.849	95.62
526.064	97.62
526.28	132.62
526.495	145.62
526.71	147.62
526.925	139.62
527.14	153.62
527.355	135.62
527.57	101.62
527.785	87.62
527.999	89.62
528.214	99.62
528.429	83.62
528.644	82.62
528.859	84.62
529.074	92.62
529.289	98.62
529.503	104.62
529.718	88.62
529.933	77.62
530.148	85.62
530.363	94.62
530.577	81.62
530.792	87.62
531.007	86.62
531.221	104.62
531.436	91.62
531.651	84.62
531.865	82.62
532.08	93.62
532.295	83.62
532.509	101.62
532.724	87.62
532.938	77.62
533.153	113.62
533.367	91.62
533.582	84.62
533.796	85.62
534.011	89.62
534.225	91.62
534.44	102.62
534.654	109.62
534.868	91.62
535.083	104.62
535.297	108.62
535.511	91.62
535.726	89.62
535.94	105.62
536.154	102.62
536.369	79.62
536.583	87.62
536.797	77.62
537.011	106.62
537.225	94.62
537.44	99.62
537.654	85.62
537.868	75.62
538.082	89.62
538.296	103.62
538.51	99.62
538.724	91.62
538.938	101.62
539.153	93.62
539.367	88.62
539.581	75.62
539.795	87.62
540.009	76.62
540.222	98.62
540.436	110.62
540.65	83.62
540.864	91.62
541.078	96.62
541.292	105.62
541.506	86.62
541.72	99.62
541.934	91.62
542.147	81.62
542.361	96.62
542.575	91.62
542.789	101.62
543.002	96.62
543.216	104.62
543.43	91.62
543.644	83.62
543.857	94.62
544.071	88.62
544.285	93.62
544.498	97.62
544.712	85.62
544.925	87.62
545.139	94.62
545.352	83.62
545.566	86.62
545.779	89.62
545.993	96.62
546.206	93.62
546.42	95.62
546.633	99.62
546.847	107.62
547.06	93.62
547.274	87.62
547.487	107.62
547.7	103.62
547.914	108.62
548.127	108.62
548.34	114.62
548.554	116.62
548.767	110.62
548.98	114.62
549.193	109.62
549.407	99.62
549.62	123.62
549.833	118.62
550.046	115.62
550.259	108.62
550.473	129.62
550.686	132.62
550.899	125.62
551.112	147.62
551.325	140.62
551.538	162.62
551.751	143.62
551.964	149.62
552.177	152.62
552.39	150.62
552.603	158.62
552.816	151.62
553.029	147.62
553.242	130.62
553.455	145.62
553.667	150.62
553.88	159.62
554.093	151.62
554.306	172.62
554.519	148.62
554.732	167.62
554.944	150.62
555.157	162.62
555.37	160.62
555.583	151.62
555.795	148.62
556.008	144.62
556.221	140.62
556.433	130.62
556.646	139.62
556.859	127.62
557.071	119.62
557.284	119.62
557.496	119.62
557.709	124.62
557.921	106.62
558.134	115.62
558.346	127.62
558.559	120.62
558.771	108.62
558.984	163.62
559.196	180.62
559.409	136.62
559.621	157.62
559.833	131.62
560.046	140.62
560.258	149.62
560.47	127.62
560.683	100.62
560.895	112.62
561.107	108.62
561.32	103.62
561.532	87.62
561.744	102.62
561.956	89.62
562.168	95.62
562.381	91.62
562.593	89.62
562.805	101.62
563.017	112.62
563.229	93.62
563.441	87.62
563.653	83.62
563.865	94.62
564.077	82.62
564.289	103.62
564.501	103.62
564.713	119.62
564.925	93.62
565.137	86.62
565.349	89.62
565.561	98.62
565.773	87.62
565.985	97.62
566.197	98.62
566.408	89.62
566.62	97.62
566.832	92.62
567.044	97.62
567.255	92.62
567.467	100.62
567.679	91.62
567.891	92.62
568.102	93.62
568.314	99.62
568.526	122.62
568.737	118.62
568.949	121.62
569.161	136.62
569.372	107.62
569.584	99.62
569.795	107.62
570.007	99.62
570.218	109.62
570.43	102.62
570.641	96.62
570.853	94.62
571.064	83.62
571.276	77.62
571.487	94.62
571.698	101.62
571.91	90.62
572.121	102.62
572.333	103.62
572.544	102.62
572.755	88.62
572.966	92.62
573.178	98.62
573.389	101.62
573.6	93.62
573.811	102.62
574.023	95.62
574.234	81.62
574.445	99.62
574.656	103.62
574.867	90.62
575.078	91.62
575.289	88.62
575.501	93.62
575.712	94.62
575.923	93.62
576.134	92.62
576.345	93.62
576.556	92.62
576.767	94.62
576.978	99.62
577.188	101.62
577.399	91.62
577.61	97.62
577.821	107.62
578.032	106.62
578.243	79.62
578.454	92.62
578.665	79.62
578.875	89.62
579.086	100.62
579.297	89.62
579.508	93.62
579.718	106.62
579.929	95.62
580.14	95.62
580.35	93.62
580.561	101.62
580.772	91.62
580.982	90.62
581.193	109.62
581.403	98.62
581.614	102.62
581.825	98.62
582.035	105.62
582.246	104.62
582.456	87.62
582.667	102.62
582.877	92.62
583.087	90.62
583.298	108.62
583.508	101.62
583.719	81.62
583.929	103.62
584.139	119.62
584.35	90.62
584.56	109.62
584.77	92.62
584.981	93.62
585.191	105.62
585.401	101.62
585.611	112.62
585.821	123.62
586.032	131.62
586.242	110.62
586.452	114.62
586.662	104.62
586.872	103.62
587.082	109.62
587.292	110.62
587.502	102.62
587.713	124.62
587.923	134.62
588.133	139.62
588.343	150.62
588.553	167.62
588.762	260.62
588.972	417.62
589.182	500.62
589.392	482.62
589.602	450.62
589.812	442.62
590.022	393.62
590.232	250.62
590.441	174.62
590.651	155.62
590.861	119.62
591.071	127.62
591.281	129.62
591.49	131.62
591.7	115.62
591.91	139.62
592.119	139.62
592.329	117.62
592.539	130.62
592.748	142.62
592.958	133.62
593.167	132.62
593.377	136.62
593.587	143.62
593.796	153.62
594.006	152.62
594.215	144.62
594.424	135.62
594.634	120.62
594.843	129.62
595.053	111.62
595.262	120.62
595.472	122.62
595.681	123.62
595.89	120.62
596.1	117.62
596.309	115.62
596.518	125.62
596.727	123.62
596.937	122.62
597.146	132.62
597.355	119.62
597.564	103.62
597.774	114.62
597.983	114.62
598.192	113.62
598.401	111.62
598.61	112.62
598.819	134.62
599.028	108.62
599.237	110.62
599.446	104.62
599.655	122.62
599.864	119.62
600.073	129.62
600.282	123.62
600.491	109.62
600.7	113.62
600.909	122.62
601.118	105.62
601.327	119.62
601.536	98.62
601.745	91.62
601.953	106.62
602.162	123.62
602.371	101.62
602.58	111.62
602.789	106.62
602.997	113.62
603.206	127.62
603.415	120.62
603.623	103.62
603.832	121.62
604.041	119.62
604.249	122.62
604.458	125.62
604.666	128.62
604.875	114.62
605.084	143.62
605.292	144.62
605.501	136.62
605.709	131.62
605.918	119.62
606.126	138.62
606.334	136.62
606.543	125.62
606.751	150.62
606.96	141.62
607.168	138.62
607.376	125.62
607.585	134.62
607.793	135.62
608.001	124.62
608.21	118.62
608.418	136.62
608.626	136.62
608.834	136.62
609.043	148.62
609.251	135.62
609.459	133.62
609.667	118.62
609.875	125.62
610.083	135.62
610.291	142.62
610.499	165.62
610.707	137.62
610.916	116.62
611.124	117.62
611.332	131.62
611.54	114.62
611.748	120.62
611.955	131.62
612.163	137.62
612.371	189.62
612.579	162.62
612.787	151.62
612.995	143.62
613.203	136.62
613.411	150.62
613.618	134.62
613.826	151.62
614.034	125.62
614.242	137.62
614.449	143.62
614.657	154.62
614.865	138.62
615.072	147.62
615.28	149.62
615.488	152.62
615.695	164.62
615.903	156.62
616.111	160.62
616.318	225.62
616.526	244.62
616.733	188.62
616.941	195.62
617.148	199.62
617.356	209.62
617.563	185.62
617.771	195.62
617.978	210.62
618.185	200.62
618.393	192.62
618.6	177.62
618.807	177.62
619.015	173.62
619.222	192.62
619.429	185.62
619.637	162.62
619.844	177.62
620.051	168.62
620.258	175.62
620.466	187.62
620.673	182.62
620.88	172.62
621.087	186.62
621.294	165.62
621.501	144.62
621.708	156.62
621.915	136.62
622.122	154.62
622.329	134.62
622.536	144.62
622.743	158.62
622.95	140.62
623.157	124.62
623.364	132.62
623.571	145.62
623.778	137.62
623.985	130.62
624.192	136.62
624.399	137.62
624.606	148.62
624.812	143.62
625.019	138.62
625.226	136.62
625.433	148.62
625.639	126.62
625.846	125.62
626.053	136.62
626.259	122.62
626.466	124.62
626.673	122.62
626.879	117.62
627.086	134.62
627.293	131.62
627.499	109.62
627.706	110.62
627.912	111.62
628.119	114.62
628.325	116.62
628.532	98.62
628.738	104.62
628.945	113.62
629.151	101.62
629.357	111.62
629.564	97.62
629.77	90.62
629.976	101.62
630.183	99.62
630.389	96.62
630.595	95.62
630.802	91.62
631.008	99.62
631.214	94.62
631.42	88.62
631.627	104.62
631.833	113.62
632.039	85.62
632.245	93.62
632.451	104.62
632.657	101.62
632.863	94.62
633.069	97.62
633.275	99.62
633.481	85.62
633.688	91.62
633.893	94.62
634.099	99.62
634.305	94.62
634.511	104.62
634.717	101.62
634.923	93.62
635.129	90.62
635.335	97.62
635.541	107.62
635.747	97.62
635.952	86.62
636.158	107.62
636.364	96.62
636.57	83.62
636.775	103.62
636.981	99.62
637.187	97.62
637.392	91.62
637.598	98.62
637.804	96.62
638.009	89.62
638.215	85.62
638.421	90.62
638.626	95.62
638.832	99.62
639.037	87.62
639.243	87.62
639.448	93.62
639.654	88.62
639.859	97.62
640.065	102.62
640.27	96.62
640.475	93.62
640.681	63.62
640.886	92.62
641.091	92.62
641.297	90.62
641.502	88.62
641.707	90.62
641.913	92.62
642.118	96.62
642.323	95.62
642.528	101.62
642.733	90.62
642.939	88.62
643.144	84.62
643.349	88.62
643.554	91.62
643.759	86.62
643.964	104.62
644.169	105.62
644.374	84.62
644.579	101.62
644.784	99.62
644.989	93.62
645.194	104.62
645.399	95.62
645.604	97.62
645.809	94.62
646.014	101.62
646.219	104.62
646.423	106.62
646.628	89.62
646.833	91.62
647.038	86.62
647.243	97.62
647.447	95.62
647.652	78.62
647.857	84.62
648.062	97.62
648.266	92.62
648.471	79.62
648.676	86.62
648.88	83.62
649.085	86.62
649.289	104.62
649.494	101.62
649.698	109.62
649.903	86.62
650.107	91.62
650.312	77.62
650.516	85.62
650.721	91.62
650.925	87.62
651.13	87.62
651.334	89.62
651.539	70.62
651.743	74.62
651.947	84.62
652.152	86.62
652.356	77.62
652.56	71.62
652.764	87.62
652.969	85.62
653.173	80.62
653.377	89.62
653.581	87.62
653.785	96.62
653.99	81.62
654.194	81.62
654.398	82.62
654.602	88.62
654.806	78.62
655.01	92.62
655.214	100.62
655.418	83.62
655.622	97.62
655.826	79.62
656.03	91.62
656.234	87.62
656.438	80.62
656.642	76.62
656.846	79.62
657.049	79.62
657.253	65.62
657.457	90.62
657.661	79.62
657.865	90.62
658.068	97.62
658.272	81.62
658.476	68.62
658.68	72.62
658.883	84.62
659.087	92.62
659.291	82.62
659.494	79.62
659.698	88.62
659.901	77.62
660.105	78.62
660.309	83.62
660.512	90.62
660.716	73.62
660.919	84.62
661.123	81.62
661.326	90.62
661.53	80.62
661.733	91.62
661.936	72.62
662.14	81.62
662.343	89.62
662.546	73.62
662.75	76.62
662.953	77.62
663.156	86.62
663.36	84.62
663.563	86.62
663.766	77.62
663.969	82.62
664.173	89.62
664.376	83.62
664.579	89.62
664.782	87.62
664.985	75.62
665.188	84.62
665.391	87.62
665.594	86.62
665.797	77.62
666	75.62
666.203	85.62
666.406	92.62
666.609	84.62
666.812	82.62
667.015	85.62
667.218	86.62
667.421	91.62
667.624	91.62
667.827	83.62
668.03	75.62
668.232	74.62
668.435	83.62
668.638	87.62
668.841	72.62
669.043	76.62
669.246	95.62
669.449	92.62
669.651	75.62
669.854	74.62
670.057	74.62
670.259	81.62
670.462	79.62
670.665	88.62
670.867	78.62
671.07	74.62
671.272	83.62
671.475	87.62
671.677	82.62
671.88	87.62
672.082	74.62
672.284	91.62
672.487	96.62
672.689	87.62
672.892	67.62
