Data from Circ_1995_H10_HRD10591_00095.txt Node
Date: Wed Jan 03 11:37:05 EST 2024
User: Yrep
Spectrometer: HR+D1059
Trigger mode: 1
Integration Time (sec): 1.000000E-1
Scans to average: 1
Electric dark correction enabled: true
Nonlinearity correction enabled: false
Boxcar width: 0
XAxis mode: Wavelengths
Number of Pixels in Spectrum: 2048
>>>>>Begin Spectral Data<<<<<
223.165	-17.81
223.4	-17.81
223.635	-17.81
223.869	-32.81
224.104	-13.81
224.338	-11.81
224.573	-17.81
224.808	-13.81
225.042	-11.81
225.277	-11.81
225.511	15.19
225.746	2.19
225.98	-6.81
226.215	25.19
226.449	20.19
226.683	24.19
226.918	25.19
227.152	26.19
227.387	30.19
227.621	36.19
227.856	49.19
228.09	56.19
228.324	53.19
228.559	49.19
228.793	74.19
229.027	69.19
229.262	58.19
229.496	86.19
229.73	109.19
229.964	96.19
230.199	98.19
230.433	82.19
230.667	72.19
230.901	69.19
231.136	88.19
231.37	67.19
231.604	93.19
231.838	76.19
232.072	72.19
232.306	85.19
232.541	89.19
232.775	75.19
233.009	78.19
233.243	84.19
233.477	69.19
233.711	88.19
233.945	76.19
234.179	85.19
234.413	76.19
234.647	89.19
234.881	83.19
235.115	90.19
235.349	76.19
235.583	78.19
235.817	76.19
236.051	80.19
236.285	74.19
236.519	84.19
236.753	94.19
236.987	93.19
237.221	86.19
237.455	109.19
237.689	82.19
237.922	78.19
238.156	90.19
238.39	82.19
238.624	79.19
238.858	89.19
239.091	90.19
239.325	96.19
239.559	95.19
239.793	91.19
240.027	113.19
240.26	94.19
240.494	77.19
240.728	81.19
240.961	88.19
241.195	86.19
241.429	69.19
241.662	68.19
241.896	74.19
242.13	83.19
242.363	88.19
242.597	90.19
242.83	82.19
243.064	93.19
243.298	65.19
243.531	74.19
243.765	84.19
243.998	80.19
244.232	95.19
244.465	100.19
244.699	87.19
244.932	81.19
245.166	101.19
245.399	76.19
245.633	82.19
245.866	86.19
246.099	80.19
246.333	74.19
246.566	74.19
246.8	86.19
247.033	83.19
247.266	68.19
247.5	89.19
247.733	67.19
247.966	76.19
248.2	82.19
248.433	74.19
248.666	93.19
248.899	99.19
249.133	97.19
249.366	115.19
249.599	123.19
249.832	82.19
250.066	93.19
250.299	88.19
250.532	89.19
250.765	70.19
250.998	107.19
251.231	90.19
251.465	82.19
251.698	96.19
251.931	94.19
252.164	92.19
252.397	76.19
252.63	83.19
252.863	96.19
253.096	86.19
253.329	89.19
253.562	92.19
253.795	81.19
254.028	84.19
254.261	91.19
254.494	91.19
254.727	105.19
254.96	85.19
255.193	79.19
255.426	82.19
255.659	84.19
255.892	109.19
256.124	108.19
256.357	90.19
256.59	77.19
256.823	105.19
257.056	88.19
257.289	105.19
257.521	100.19
257.754	87.19
257.987	93.19
258.22	95.19
258.452	112.19
258.685	114.19
258.918	86.19
259.151	84.19
259.383	94.19
259.616	92.19
259.849	100.19
260.081	101.19
260.314	90.19
260.547	84.19
260.779	108.19
261.012	116.19
261.244	138.19
261.477	120.19
261.71	111.19
261.942	168.19
262.175	183.19
262.407	112.19
262.64	80.19
262.872	87.19
263.105	98.19
263.337	85.19
263.57	93.19
263.802	87.19
264.035	94.19
264.267	76.19
264.499	98.19
264.732	82.19
264.964	87.19
265.197	107.19
265.429	83.19
265.661	89.19
265.894	85.19
266.126	84.19
266.358	83.19
266.591	85.19
266.823	90.19
267.055	79.19
267.287	80.19
267.52	85.19
267.752	83.19
267.984	93.19
268.216	89.19
268.448	90.19
268.681	99.19
268.913	94.19
269.145	96.19
269.377	74.19
269.609	86.19
269.841	85.19
270.073	72.19
270.306	77.19
270.538	93.19
270.77	90.19
271.002	91.19
271.234	88.19
271.466	96.19
271.698	107.19
271.93	92.19
272.162	87.19
272.394	95.19
272.626	84.19
272.858	81.19
273.09	84.19
273.322	81.19
273.553	89.19
273.785	94.19
274.017	86.19
274.249	94.19
274.481	86.19
274.713	99.19
274.945	109.19
275.176	113.19
275.408	102.19
275.64	129.19
275.872	158.19
276.104	123.19
276.335	115.19
276.567	153.19
276.799	202.19
277.031	238.19
277.262	308.19
277.494	225.19
277.726	128.19
277.957	111.19
278.189	91.19
278.421	101.19
278.652	106.19
278.884	101.19
279.115	90.19
279.347	112.19
279.579	122.19
279.81	186.19
280.042	329.19
280.273	426.19
280.505	291.19
280.736	130.19
280.968	97.19
281.199	103.19
281.431	84.19
281.662	89.19
281.894	95.19
282.125	120.19
282.356	154.19
282.588	206.19
282.819	152.19
283.051	99.19
283.282	98.19
283.513	107.19
283.745	94.19
283.976	100.19
284.207	91.19
284.439	78.19
284.67	89.19
284.901	90.19
285.132	87.19
285.364	101.19
285.595	89.19
285.826	89.19
286.057	93.19
286.288	98.19
286.52	88.19
286.751	86.19
286.982	80.19
287.213	93.19
287.444	97.19
287.675	91.19
287.906	97.19
288.138	109.19
288.369	105.19
288.6	97.19
288.831	96.19
289.062	106.19
289.293	84.19
289.524	84.19
289.755	94.19
289.986	95.19
290.217	94.19
290.448	92.19
290.679	97.19
290.91	100.19
291.141	87.19
291.371	98.19
291.602	90.19
291.833	94.19
292.064	96.19
292.295	95.19
292.526	102.19
292.757	98.19
292.987	95.19
293.218	108.19
293.449	87.19
293.68	89.19
293.91	98.19
294.141	88.19
294.372	89.19
294.603	90.19
294.833	83.19
295.064	82.19
295.295	79.19
295.525	95.19
295.756	109.19
295.987	163.19
296.217	198.19
296.448	172.19
296.679	110.19
296.909	91.19
297.14	102.19
297.37	106.19
297.601	85.19
297.831	98.19
298.062	113.19
298.292	114.19
298.523	78.19
298.753	92.19
298.984	110.19
299.214	91.19
299.445	103.19
299.675	118.19
299.905	101.19
300.136	107.19
300.366	97.19
300.597	104.19
300.827	111.19
301.057	134.19
301.288	136.19
301.518	113.19
301.748	111.19
301.979	126.19
302.209	107.19
302.439	103.19
302.669	106.19
302.9	99.19
303.13	120.19
303.36	144.19
303.59	182.19
303.82	192.19
304.051	124.19
304.281	92.19
304.511	89.19
304.741	87.19
304.971	90.19
305.201	108.19
305.431	97.19
305.661	103.19
305.891	103.19
306.121	114.19
306.352	114.19
306.582	136.19
306.812	119.19
307.042	157.19
307.272	221.19
307.502	267.19
307.731	214.19
307.961	172.19
308.191	115.19
308.421	105.19
308.651	104.19
308.881	112.19
309.111	101.19
309.341	104.19
309.571	98.19
309.8	111.19
310.03	136.19
310.26	128.19
310.49	102.19
310.72	125.19
310.949	134.19
311.179	123.19
311.409	123.19
311.639	106.19
311.868	121.19
312.098	110.19
312.328	116.19
312.557	138.19
312.787	160.19
313.017	144.19
313.246	90.19
313.476	94.19
313.706	107.19
313.935	108.19
314.165	120.19
314.394	122.19
314.624	116.19
314.853	112.19
315.083	124.19
315.312	94.19
315.542	106.19
315.771	94.19
316.001	110.19
316.23	105.19
316.46	101.19
316.689	101.19
316.919	103.19
317.148	102.19
317.377	110.19
317.607	106.19
317.836	106.19
318.065	94.19
318.295	116.19
318.524	100.19
318.753	99.19
318.983	96.19
319.212	134.19
319.441	130.19
319.67	128.19
319.9	116.19
320.129	91.19
320.358	86.19
320.587	107.19
320.816	114.19
321.046	134.19
321.275	111.19
321.504	110.19
321.733	113.19
321.962	121.19
322.191	125.19
322.42	141.19
322.649	146.19
322.878	138.19
323.108	160.19
323.337	173.19
323.566	185.19
323.795	215.19
324.024	289.19
324.253	568.19
324.482	1278.19
324.71	2571.19
324.939	3434.19
325.168	1263.19
325.397	382.19
325.626	221.19
325.855	163.19
326.084	167.19
326.313	173.19
326.542	198.19
326.77	301.19
326.999	635.19
327.228	1273.19
327.457	2388.19
327.686	1972.19
327.914	777.19
328.143	876.19
328.372	1220.19
328.6	613.19
328.829	286.19
329.058	266.19
329.287	270.19
329.515	234.19
329.744	391.19
329.972	820.19
330.201	1753.19
330.43	2671.19
330.658	1109.19
330.887	450.19
331.115	275.19
331.344	154.19
331.572	145.19
331.801	162.19
332.03	158.19
332.258	139.19
332.486	130.19
332.715	116.19
332.943	135.19
333.172	148.19
333.4	162.19
333.629	210.19
333.857	342.19
334.085	693.19
334.314	1559.19
334.542	3183.19
334.771	2978.19
334.999	712.19
335.227	264.19
335.455	161.19
335.684	144.19
335.912	129.19
336.14	104.19
336.369	107.19
336.597	122.19
336.825	122.19
337.053	119.19
337.281	102.19
337.51	91.19
337.738	94.19
337.966	110.19
338.194	124.19
338.422	90.19
338.65	106.19
338.878	104.19
339.106	107.19
339.334	94.19
339.562	101.19
339.79	95.19
340.018	99.19
340.246	107.19
340.474	109.19
340.702	109.19
340.93	90.19
341.158	100.19
341.386	115.19
341.614	121.19
341.842	102.19
342.07	100.19
342.298	94.19
342.526	105.19
342.754	91.19
342.981	96.19
343.209	106.19
343.437	112.19
343.665	92.19
343.893	93.19
344.12	97.19
344.348	107.19
344.576	93.19
344.804	95.19
345.031	125.19
345.259	129.19
345.487	112.19
345.714	117.19
345.942	107.19
346.17	101.19
346.397	91.19
346.625	97.19
346.853	108.19
347.08	96.19
347.308	109.19
347.535	118.19
347.763	122.19
347.99	107.19
348.218	114.19
348.445	140.19
348.673	108.19
348.9	105.19
349.128	115.19
349.355	103.19
349.583	101.19
349.81	108.19
350.037	113.19
350.265	88.19
350.492	94.19
350.72	102.19
350.947	112.19
351.174	127.19
351.402	137.19
351.629	128.19
351.856	113.19
352.083	125.19
352.311	122.19
352.538	154.19
352.765	127.19
352.992	145.19
353.22	132.19
353.447	125.19
353.674	128.19
353.901	119.19
354.128	92.19
354.355	97.19
354.583	104.19
354.81	96.19
355.037	96.19
355.264	94.19
355.491	99.19
355.718	89.19
355.945	91.19
356.172	99.19
356.399	113.19
356.626	89.19
356.853	93.19
357.08	88.19
357.307	88.19
357.534	86.19
357.761	105.19
357.988	105.19
358.215	90.19
358.441	92.19
358.668	91.19
358.895	88.19
359.122	89.19
359.349	100.19
359.576	102.19
359.802	143.19
360.029	187.19
360.256	171.19
360.483	129.19
360.709	107.19
360.936	104.19
361.163	114.19
361.39	124.19
361.616	120.19
361.843	98.19
362.07	110.19
362.296	115.19
362.523	100.19
362.749	103.19
362.976	110.19
363.203	101.19
363.429	100.19
363.656	100.19
363.882	102.19
364.109	100.19
364.335	102.19
364.562	90.19
364.788	109.19
365.015	101.19
365.241	109.19
365.468	130.19
365.694	138.19
365.92	113.19
366.147	110.19
366.373	108.19
366.599	89.19
366.826	110.19
367.052	109.19
367.278	108.19
367.505	102.19
367.731	104.19
367.957	120.19
368.184	111.19
368.41	122.19
368.636	146.19
368.862	159.19
369.089	149.19
369.315	123.19
369.541	98.19
369.767	96.19
369.993	109.19
370.219	103.19
370.445	94.19
370.672	96.19
370.898	107.19
371.124	92.19
371.35	100.19
371.576	89.19
371.802	84.19
372.028	84.19
372.254	92.19
372.48	86.19
372.706	91.19
372.932	95.19
373.158	90.19
373.384	85.19
373.61	98.19
373.835	93.19
374.061	98.19
374.287	101.19
374.513	96.19
374.739	89.19
374.965	96.19
375.191	97.19
375.416	99.19
375.642	99.19
375.868	109.19
376.094	92.19
376.319	79.19
376.545	81.19
376.771	90.19
376.997	94.19
377.222	93.19
377.448	110.19
377.674	95.19
377.899	85.19
378.125	89.19
378.35	104.19
378.576	96.19
378.802	85.19
379.027	96.19
379.253	91.19
379.478	92.19
379.704	87.19
379.929	89.19
380.155	84.19
380.38	110.19
380.606	100.19
380.831	103.19
381.057	86.19
381.282	104.19
381.507	102.19
381.733	109.19
381.958	97.19
382.184	123.19
382.409	108.19
382.634	129.19
382.86	112.19
383.085	107.19
383.31	106.19
383.535	101.19
383.761	112.19
383.986	115.19
384.211	100.19
384.436	100.19
384.662	104.19
384.887	104.19
385.112	105.19
385.337	108.19
385.562	95.19
385.787	101.19
386.013	103.19
386.238	120.19
386.463	105.19
386.688	126.19
386.913	106.19
387.138	85.19
387.363	96.19
387.588	101.19
387.813	106.19
388.038	109.19
388.263	125.19
388.488	115.19
388.713	98.19
388.938	87.19
389.163	98.19
389.387	107.19
389.612	96.19
389.837	102.19
390.062	98.19
390.287	99.19
390.512	92.19
390.736	104.19
390.961	101.19
391.186	100.19
391.411	100.19
391.636	88.19
391.86	97.19
392.085	87.19
392.31	98.19
392.534	109.19
392.759	94.19
392.984	92.19
393.208	101.19
393.433	86.19
393.658	84.19
393.882	89.19
394.107	83.19
394.331	91.19
394.556	78.19
394.78	90.19
395.005	95.19
395.229	101.19
395.454	73.19
395.678	81.19
395.903	93.19
396.127	97.19
396.352	85.19
396.576	95.19
396.801	101.19
397.025	89.19
397.249	93.19
397.474	105.19
397.698	78.19
397.922	97.19
398.147	97.19
398.371	81.19
398.595	95.19
398.82	76.19
399.044	93.19
399.268	94.19
399.492	86.19
399.717	80.19
399.941	95.19
400.165	95.19
400.389	99.19
400.613	89.19
400.837	104.19
401.062	99.19
401.286	100.19
401.51	112.19
401.734	108.19
401.958	133.19
402.182	180.19
402.406	272.19
402.63	200.19
402.854	131.19
403.078	109.19
403.302	96.19
403.526	99.19
403.75	93.19
403.974	91.19
404.198	99.19
404.422	94.19
404.645	106.19
404.869	113.19
405.093	133.19
405.317	179.19
405.541	187.19
405.765	140.19
405.988	168.19
406.212	293.19
406.436	432.19
406.66	289.19
406.883	148.19
407.107	120.19
407.331	112.19
407.555	117.19
407.778	119.19
408.002	108.19
408.226	91.19
408.449	104.19
408.673	100.19
408.896	106.19
409.12	101.19
409.344	95.19
409.567	98.19
409.791	104.19
410.014	92.19
410.238	93.19
410.461	96.19
410.685	106.19
410.908	116.19
411.132	113.19
411.355	106.19
411.578	110.19
411.802	90.19
412.025	101.19
412.249	117.19
412.472	140.19
412.695	152.19
412.919	127.19
413.142	105.19
413.365	93.19
413.589	101.19
413.812	105.19
414.035	100.19
414.258	108.19
414.482	99.19
414.705	98.19
414.928	109.19
415.151	100.19
415.374	106.19
415.597	87.19
415.821	103.19
416.044	101.19
416.267	94.19
416.49	82.19
416.713	105.19
416.936	97.19
417.159	104.19
417.382	111.19
417.605	129.19
417.828	134.19
418.051	111.19
418.274	97.19
418.497	104.19
418.72	81.19
418.943	98.19
419.166	97.19
419.389	95.19
419.611	105.19
419.834	107.19
420.057	101.19
420.28	109.19
420.503	101.19
420.726	96.19
420.948	113.19
421.171	112.19
421.394	112.19
421.617	91.19
421.839	85.19
422.062	100.19
422.285	93.19
422.507	112.19
422.73	106.19
422.953	114.19
423.175	110.19
423.398	95.19
423.621	96.19
423.843	91.19
424.066	97.19
424.288	91.19
424.511	112.19
424.733	119.19
424.956	128.19
425.178	105.19
425.401	118.19
425.623	115.19
425.846	102.19
426.068	115.19
426.291	110.19
426.513	107.19
426.735	98.19
426.958	116.19
427.18	125.19
427.402	218.19
427.625	332.19
427.847	311.19
428.069	272.19
428.292	156.19
428.514	108.19
428.736	119.19
428.958	106.19
429.181	116.19
429.403	117.19
429.625	102.19
429.847	105.19
430.069	127.19
430.292	121.19
430.514	94.19
430.736	84.19
430.958	100.19
431.18	89.19
431.402	104.19
431.624	91.19
431.846	82.19
432.068	101.19
432.29	89.19
432.512	90.19
432.734	85.19
432.956	93.19
433.178	115.19
433.4	113.19
433.622	100.19
433.844	86.19
434.066	93.19
434.287	102.19
434.509	106.19
434.731	100.19
434.953	88.19
435.175	105.19
435.397	96.19
435.618	100.19
435.84	106.19
436.062	151.19
436.284	139.19
436.505	127.19
436.727	117.19
436.949	101.19
437.17	97.19
437.392	97.19
437.614	110.19
437.835	150.19
438.057	178.19
438.278	160.19
438.5	121.19
438.721	170.19
438.943	131.19
439.165	98.19
439.386	98.19
439.608	110.19
439.829	118.19
440.05	172.19
440.272	205.19
440.493	133.19
440.715	96.19
440.936	105.19
441.158	105.19
441.379	110.19
441.6	106.19
441.822	123.19
442.043	114.19
442.264	132.19
442.486	138.19
442.707	112.19
442.928	139.19
443.149	234.19
443.371	212.19
443.592	160.19
443.813	147.19
444.034	126.19
444.255	103.19
444.476	99.19
444.698	93.19
444.919	109.19
445.14	140.19
445.361	149.19
445.582	160.19
445.803	221.19
446.024	193.19
446.245	182.19
446.466	142.19
446.687	106.19
446.908	98.19
447.129	113.19
447.35	91.19
447.571	100.19
447.792	114.19
448.013	115.19
448.234	134.19
448.455	132.19
448.675	151.19
448.896	158.19
449.117	125.19
449.338	131.19
449.559	161.19
449.779	154.19
450	113.19
450.221	106.19
450.442	106.19
450.662	126.19
450.883	168.19
451.104	176.19
451.324	121.19
451.545	110.19
451.766	95.19
451.986	89.19
452.207	103.19
452.428	104.19
452.648	120.19
452.869	160.19
453.089	170.19
453.31	191.19
453.53	121.19
453.751	97.19
453.971	135.19
454.192	177.19
454.412	117.19
454.633	101.19
454.853	103.19
455.073	106.19
455.294	106.19
455.514	123.19
455.734	99.19
455.955	98.19
456.175	91.19
456.395	99.19
456.616	84.19
456.836	101.19
457.056	97.19
457.276	85.19
457.497	90.19
457.717	95.19
457.937	110.19
458.157	90.19
458.377	105.19
458.598	145.19
458.818	299.19
459.038	329.19
459.258	200.19
459.478	103.19
459.698	104.19
459.918	89.19
460.138	80.19
460.358	76.19
460.578	113.19
460.798	101.19
461.018	94.19
461.238	89.19
461.458	97.19
461.678	83.19
461.898	98.19
462.118	102.19
462.338	84.19
462.558	89.19
462.777	108.19
462.997	105.19
463.217	144.19
463.437	120.19
463.657	117.19
463.876	104.19
464.096	99.19
464.316	136.19
464.536	109.19
464.755	104.19
464.975	156.19
465.195	332.19
465.414	347.19
465.634	125.19
465.854	106.19
466.073	97.19
466.293	96.19
466.512	98.19
466.732	95.19
466.951	107.19
467.171	106.19
467.391	134.19
467.61	196.19
467.829	323.19
468.049	991.19
468.268	1638.19
468.488	366.19
468.707	141.19
468.927	113.19
469.146	115.19
469.365	84.19
469.585	107.19
469.804	113.19
470.023	126.19
470.243	117.19
470.462	142.19
470.681	166.19
470.901	126.19
471.12	116.19
471.339	125.19
471.558	149.19
471.777	208.19
471.997	478.19
472.216	1950.19
472.435	4637.19
472.654	1019.19
472.873	237.19
473.092	127.19
473.311	130.19
473.53	107.19
473.749	105.19
473.968	107.19
474.187	143.19
474.406	130.19
474.625	107.19
474.844	93.19
475.063	100.19
475.282	108.19
475.501	87.19
475.72	105.19
475.939	102.19
476.158	88.19
476.377	112.19
476.596	92.19
476.814	108.19
477.033	126.19
477.252	97.19
477.471	109.19
477.69	91.19
477.908	95.19
478.127	102.19
478.346	99.19
478.564	112.19
478.783	125.19
479.002	121.19
479.22	130.19
479.439	153.19
479.658	159.19
479.876	160.19
480.095	163.19
480.313	185.19
480.532	222.19
480.751	424.19
480.969	1660.19
481.188	7650.19
481.406	4376.19
481.624	569.19
481.843	178.19
482.061	144.19
482.28	114.19
482.498	106.19
482.717	120.19
482.935	98.19
483.153	103.19
483.372	92.19
483.59	91.19
483.808	98.19
484.027	125.19
484.245	104.19
484.463	109.19
484.681	107.19
484.9	112.19
485.118	96.19
485.336	101.19
485.554	103.19
485.772	109.19
485.99	108.19
486.209	112.19
486.427	116.19
486.645	134.19
486.863	150.19
487.081	113.19
487.299	103.19
487.517	108.19
487.735	110.19
487.953	120.19
488.171	103.19
488.389	102.19
488.607	127.19
488.825	112.19
489.043	92.19
489.261	107.19
489.479	107.19
489.696	109.19
489.914	94.19
490.132	89.19
490.35	90.19
490.568	93.19
490.786	78.19
491.003	86.19
491.221	107.19
491.439	90.19
491.657	103.19
491.874	119.19
492.092	97.19
492.31	108.19
492.527	110.19
492.745	93.19
492.963	103.19
493.18	96.19
493.398	100.19
493.615	109.19
493.833	100.19
494.05	98.19
494.268	93.19
494.485	106.19
494.703	91.19
494.92	100.19
495.138	98.19
495.355	102.19
495.573	86.19
495.79	96.19
496.008	96.19
496.225	95.19
496.442	91.19
496.66	80.19
496.877	94.19
497.094	94.19
497.312	86.19
497.529	96.19
497.746	84.19
497.963	89.19
498.181	99.19
498.398	99.19
498.615	125.19
498.832	136.19
499.049	98.19
499.267	93.19
499.484	94.19
499.701	97.19
499.918	98.19
500.135	89.19
500.352	92.19
500.569	104.19
500.786	113.19
501.003	99.19
501.22	98.19
501.437	93.19
501.654	107.19
501.871	161.19
502.088	112.19
502.305	102.19
502.522	106.19
502.739	98.19
502.956	106.19
503.172	120.19
503.389	132.19
503.606	138.19
503.823	121.19
504.04	107.19
504.256	97.19
504.473	92.19
504.69	100.19
504.907	79.19
505.123	90.19
505.34	106.19
505.557	97.19
505.773	111.19
505.99	85.19
506.207	98.19
506.423	97.19
506.64	99.19
506.856	102.19
507.073	90.19
507.289	117.19
507.506	120.19
507.722	160.19
507.939	162.19
508.155	117.19
508.372	104.19
508.588	106.19
508.805	106.19
509.021	99.19
509.238	108.19
509.454	108.19
509.67	128.19
509.887	112.19
510.103	143.19
510.319	278.19
510.536	1202.19
510.752	4356.19
510.968	1132.19
511.184	218.19
511.401	162.19
511.617	137.19
511.833	118.19
512.049	112.19
512.265	101.19
512.481	103.19
512.698	98.19
512.914	107.19
513.13	104.19
513.346	102.19
513.562	125.19
513.778	122.19
513.994	119.19
514.21	146.19
514.426	176.19
514.642	237.19
514.858	203.19
515.074	317.19
515.29	1075.19
515.506	3980.19
515.721	1367.19
515.937	303.19
516.153	167.19
516.369	116.19
516.585	122.19
516.801	124.19
517.016	123.19
517.232	102.19
517.448	101.19
517.664	113.19
517.879	105.19
518.095	117.19
518.311	132.19
518.527	128.19
518.742	105.19
518.958	98.19
519.173	97.19
519.389	124.19
519.605	101.19
519.82	115.19
520.036	124.19
520.251	201.19
520.467	172.19
520.682	146.19
520.898	148.19
521.113	180.19
521.329	236.19
521.544	416.19
521.76	1383.19
521.975	6728.19
522.19	3866.19
522.406	731.19
522.621	220.19
522.836	151.19
523.052	115.19
523.267	110.19
523.482	112.19
523.698	132.19
523.913	181.19
524.128	159.19
524.343	98.19
524.559	106.19
524.774	100.19
524.989	122.19
525.204	129.19
525.419	132.19
525.634	102.19
525.849	88.19
526.064	92.19
526.28	112.19
526.495	108.19
526.71	85.19
526.925	90.19
527.14	92.19
527.355	89.19
527.57	87.19
527.785	97.19
527.999	92.19
528.214	102.19
528.429	101.19
528.644	99.19
528.859	117.19
529.074	108.19
529.289	189.19
529.503	381.19
529.718	165.19
529.933	109.19
530.148	109.19
530.363	97.19
530.577	97.19
530.792	92.19
531.007	93.19
531.221	105.19
531.436	99.19
531.651	105.19
531.865	83.19
532.08	91.19
532.295	102.19
532.509	111.19
532.724	99.19
532.938	93.19
533.153	91.19
533.367	97.19
533.582	76.19
533.796	93.19
534.011	80.19
534.225	98.19
534.44	113.19
534.654	101.19
534.868	96.19
535.083	106.19
535.297	104.19
535.511	114.19
535.726	132.19
535.94	105.19
536.154	100.19
536.369	91.19
536.583	85.19
536.797	93.19
537.011	89.19
537.225	84.19
537.44	105.19
537.654	96.19
537.868	86.19
538.082	103.19
538.296	81.19
538.51	80.19
538.724	87.19
538.938	95.19
539.153	110.19
539.367	160.19
539.581	109.19
539.795	97.19
540.009	94.19
540.222	93.19
540.436	96.19
540.65	85.19
540.864	101.19
541.078	101.19
541.292	100.19
541.506	90.19
541.72	92.19
541.934	88.19
542.147	97.19
542.361	96.19
542.575	89.19
542.789	101.19
543.002	109.19
543.216	119.19
543.43	121.19
543.644	93.19
543.857	90.19
544.071	97.19
544.285	110.19
544.498	90.19
544.712	83.19
544.925	97.19
545.139	112.19
545.352	77.19
545.566	80.19
545.779	89.19
545.993	90.19
546.206	102.19
546.42	96.19
546.633	85.19
546.847	82.19
547.06	85.19
547.274	114.19
547.487	93.19
547.7	98.19
547.914	88.19
548.127	94.19
548.34	104.19
548.554	105.19
548.767	98.19
548.98	94.19
549.193	95.19
549.407	92.19
549.62	97.19
549.833	88.19
550.046	97.19
550.259	91.19
550.473	89.19
550.686	92.19
550.899	98.19
551.112	115.19
551.325	92.19
551.538	113.19
551.751	97.19
551.964	108.19
552.177	92.19
552.39	81.19
552.603	88.19
552.816	89.19
553.029	93.19
553.242	102.19
553.455	123.19
553.667	121.19
553.88	138.19
554.093	120.19
554.306	131.19
554.519	169.19
554.732	111.19
554.944	99.19
555.157	98.19
555.37	96.19
555.583	94.19
555.795	94.19
556.008	84.19
556.221	90.19
556.433	86.19
556.646	94.19
556.859	93.19
557.071	102.19
557.284	99.19
557.496	89.19
557.709	116.19
557.921	101.19
558.134	97.19
558.346	82.19
558.559	96.19
558.771	80.19
558.984	81.19
559.196	86.19
559.409	80.19
559.621	88.19
559.833	100.19
560.046	97.19
560.258	137.19
560.47	180.19
560.683	134.19
560.895	97.19
561.107	93.19
561.32	101.19
561.532	80.19
561.744	81.19
561.956	97.19
562.168	100.19
562.381	97.19
562.593	92.19
562.805	94.19
563.017	85.19
563.229	103.19
563.441	84.19
563.653	96.19
563.865	81.19
564.077	88.19
564.289	93.19
564.501	83.19
564.713	90.19
564.925	99.19
565.137	133.19
565.349	105.19
565.561	82.19
565.773	89.19
565.985	102.19
566.197	93.19
566.408	95.19
566.62	83.19
566.832	76.19
567.044	84.19
567.255	83.19
567.467	85.19
567.679	87.19
567.891	89.19
568.102	80.19
568.314	92.19
568.526	94.19
568.737	120.19
568.949	84.19
569.161	85.19
569.372	90.19
569.584	97.19
569.795	101.19
570.007	138.19
570.218	396.19
570.43	195.19
570.641	106.19
570.853	92.19
571.064	85.19
571.276	85.19
571.487	98.19
571.698	98.19
571.91	99.19
572.121	84.19
572.333	79.19
572.544	80.19
572.755	97.19
572.966	80.19
573.178	78.19
573.389	97.19
573.6	94.19
573.811	85.19
574.023	95.19
574.234	91.19
574.445	89.19
574.656	93.19
574.867	90.19
575.078	89.19
575.289	88.19
575.501	90.19
575.712	102.19
575.923	94.19
576.134	98.19
576.345	86.19
576.556	89.19
576.767	103.19
576.978	97.19
577.188	90.19
577.399	107.19
577.61	101.19
577.821	112.19
578.032	148.19
578.243	401.19
578.454	1369.19
578.665	337.19
578.875	116.19
579.086	102.19
579.297	87.19
579.508	88.19
579.718	99.19
579.929	97.19
580.14	96.19
580.35	99.19
580.561	100.19
580.772	93.19
580.982	81.19
581.193	88.19
581.403	92.19
581.614	95.19
581.825	86.19
582.035	93.19
582.246	78.19
582.456	77.19
582.667	83.19
582.877	82.19
583.087	81.19
583.298	84.19
583.508	90.19
583.719	94.19
583.929	88.19
584.139	91.19
584.35	81.19
584.56	95.19
584.77	99.19
584.981	91.19
585.191	108.19
585.401	99.19
585.611	97.19
585.821	103.19
586.032	90.19
586.242	96.19
586.452	106.19
586.662	79.19
586.872	83.19
587.082	93.19
587.292	79.19
587.502	97.19
587.713	80.19
587.923	84.19
588.133	100.19
588.343	89.19
588.553	86.19
588.762	93.19
588.972	89.19
589.182	135.19
589.392	107.19
589.602	111.19
589.812	117.19
590.022	94.19
590.232	80.19
590.441	90.19
590.651	95.19
590.861	78.19
591.071	85.19
591.281	85.19
591.49	83.19
591.7	94.19
591.91	82.19
592.119	93.19
592.329	88.19
592.539	92.19
592.748	102.19
592.958	83.19
593.167	92.19
593.377	93.19
593.587	83.19
593.796	88.19
594.006	88.19
594.215	91.19
594.424	98.19
594.634	85.19
594.843	87.19
595.053	90.19
595.262	82.19
595.472	101.19
595.681	96.19
595.89	96.19
596.1	94.19
596.309	94.19
596.518	78.19
596.727	90.19
596.937	97.19
597.146	97.19
597.355	90.19
597.564	83.19
597.774	80.19
597.983	89.19
598.192	96.19
598.401	74.19
598.61	93.19
598.819	87.19
599.028	89.19
599.237	95.19
599.446	95.19
599.655	96.19
599.864	99.19
600.073	89.19
600.282	78.19
600.491	92.19
600.7	86.19
600.909	87.19
601.118	98.19
601.327	107.19
601.536	79.19
601.745	85.19
601.953	96.19
602.162	101.19
602.371	92.19
602.58	89.19
602.789	100.19
602.997	89.19
603.206	91.19
603.415	92.19
603.623	91.19
603.832	94.19
604.041	88.19
604.249	85.19
604.458	84.19
604.666	86.19
604.875	99.19
605.084	80.19
605.292	82.19
605.501	88.19
605.709	94.19
605.918	91.19
606.126	95.19
606.334	99.19
606.543	106.19
606.751	96.19
606.96	74.19
607.168	79.19
607.376	90.19
607.585	112.19
607.793	92.19
608.001	91.19
608.21	88.19
608.418	90.19
608.626	86.19
608.834	97.19
609.043	87.19
609.251	92.19
609.459	90.19
609.667	66.19
609.875	98.19
610.083	91.19
610.291	88.19
610.499	85.19
610.707	93.19
610.916	87.19
611.124	84.19
611.332	86.19
611.54	86.19
611.748	89.19
611.955	87.19
612.163	93.19
612.371	102.19
612.579	77.19
612.787	88.19
612.995	78.19
613.203	84.19
613.411	95.19
613.618	82.19
613.826	75.19
614.034	88.19
614.242	84.19
614.449	86.19
614.657	104.19
614.865	85.19
615.072	86.19
615.28	79.19
615.488	93.19
615.695	88.19
615.903	104.19
616.111	105.19
616.318	103.19
616.526	95.19
616.733	98.19
616.941	84.19
617.148	91.19
617.356	78.19
617.563	83.19
617.771	98.19
617.978	86.19
618.185	88.19
618.393	97.19
618.6	86.19
618.807	88.19
619.015	81.19
619.222	92.19
619.429	97.19
619.637	89.19
619.844	85.19
620.051	94.19
620.258	90.19
620.466	85.19
620.673	86.19
620.88	94.19
621.087	87.19
621.294	88.19
621.501	92.19
621.708	76.19
621.915	82.19
622.122	82.19
622.329	90.19
622.536	83.19
622.743	90.19
622.95	99.19
623.157	77.19
623.364	77.19
623.571	96.19
623.778	82.19
623.985	93.19
624.192	80.19
624.399	98.19
624.606	96.19
624.812	87.19
625.019	89.19
625.226	82.19
625.433	93.19
625.639	95.19
625.846	88.19
626.053	84.19
626.259	82.19
626.466	93.19
626.673	81.19
626.879	84.19
627.086	92.19
627.293	98.19
627.499	88.19
627.706	87.19
627.912	81.19
628.119	92.19
628.325	85.19
628.532	86.19
628.738	81.19
628.945	94.19
629.151	81.19
629.357	86.19
629.564	93.19
629.77	80.19
629.976	79.19
630.183	91.19
630.389	97.19
630.595	94.19
630.802	88.19
631.008	77.19
631.214	85.19
631.42	82.19
631.627	89.19
631.833	84.19
632.039	79.19
632.245	92.19
632.451	97.19
632.657	93.19
632.863	87.19
633.069	77.19
633.275	79.19
633.481	88.19
633.688	86.19
633.893	88.19
634.099	103.19
634.305	94.19
634.511	77.19
634.717	82.19
634.923	92.19
635.129	98.19
635.335	102.19
635.541	86.19
635.747	108.19
635.952	125.19
636.158	189.19
636.364	705.19
636.57	609.19
636.775	189.19
636.981	102.19
637.187	98.19
637.392	96.19
637.598	85.19
637.804	76.19
638.009	73.19
638.215	110.19
638.421	78.19
638.626	91.19
638.832	85.19
639.037	89.19
639.243	81.19
639.448	94.19
639.654	74.19
639.859	83.19
640.065	93.19
640.27	96.19
640.475	79.19
640.681	84.19
640.886	81.19
641.091	88.19
641.297	88.19
641.502	95.19
641.707	87.19
641.913	88.19
642.118	73.19
642.323	84.19
642.528	89.19
642.733	95.19
642.939	72.19
643.144	79.19
643.349	95.19
643.554	101.19
643.759	83.19
643.964	87.19
644.169	92.19
644.374	88.19
644.579	102.19
644.784	89.19
644.989	89.19
645.194	92.19
645.399	88.19
645.604	88.19
645.809	101.19
646.014	92.19
646.219	83.19
646.423	92.19
646.628	93.19
646.833	85.19
647.038	89.19
647.243	92.19
647.447	84.19
647.652	92.19
647.857	84.19
648.062	84.19
648.266	95.19
648.471	89.19
648.676	107.19
648.88	90.19
649.085	96.19
649.289	80.19
649.494	114.19
649.698	160.19
649.903	113.19
650.107	92.19
650.312	97.19
650.516	97.19
650.721	81.19
650.925	97.19
651.13	68.19
651.334	84.19
651.539	80.19
651.743	96.19
651.947	91.19
652.152	89.19
652.356	101.19
652.56	87.19
652.764	83.19
652.969	79.19
653.173	94.19
653.377	76.19
653.581	82.19
653.785	84.19
653.99	96.19
654.194	91.19
654.398	89.19
654.602	96.19
654.806	93.19
655.01	100.19
655.214	85.19
655.418	93.19
655.622	86.19
655.826	95.19
656.03	97.19
656.234	91.19
656.438	109.19
656.642	107.19
656.846	100.19
657.049	82.19
657.253	90.19
657.457	91.19
657.661	96.19
657.865	92.19
658.068	76.19
658.272	95.19
658.476	83.19
658.68	78.19
658.883	88.19
659.087	63.19
659.291	66.19
659.494	79.19
659.698	89.19
659.901	96.19
660.105	70.19
660.309	86.19
660.512	89.19
660.716	83.19
660.919	91.19
661.123	88.19
661.326	77.19
661.53	77.19
661.733	104.19
661.936	80.19
662.14	84.19
662.343	89.19
662.546	80.19
662.75	67.19
662.953	86.19
663.156	83.19
663.36	85.19
663.563	87.19
663.766	96.19
663.969	80.19
664.173	77.19
664.376	74.19
664.579	66.19
664.782	98.19
664.985	62.19
665.188	91.19
665.391	95.19
665.594	76.19
665.797	89.19
666	83.19
666.203	79.19
666.406	78.19
666.609	91.19
666.812	88.19
667.015	84.19
667.218	92.19
667.421	94.19
667.624	85.19
667.827	74.19
668.03	80.19
668.232	78.19
668.435	80.19
668.638	86.19
668.841	97.19
669.043	84.19
669.246	92.19
669.449	90.19
669.651	87.19
669.854	69.19
670.057	84.19
670.259	83.19
670.462	82.19
670.665	85.19
670.867	79.19
671.07	77.19
671.272	72.19
671.475	85.19
671.677	81.19
671.88	91.19
672.082	94.19
672.284	83.19
672.487	82.19
672.689	92.19
672.892	77.19
