Data from Circ_1995_H10_HRD10591_00093.txt Node
Date: Wed Jan 03 11:37:05 EST 2024
User: Yrep
Spectrometer: HR+D1059
Trigger mode: 1
Integration Time (sec): 1.000000E-1
Scans to average: 1
Electric dark correction enabled: true
Nonlinearity correction enabled: false
Boxcar width: 0
XAxis mode: Wavelengths
Number of Pixels in Spectrum: 2048
>>>>>Begin Spectral Data<<<<<
223.165	-19.62
223.4	-19.62
223.635	-19.62
223.869	-26.62
224.104	-25.62
224.338	-17.62
224.573	-17.62
224.808	-4.62
225.042	-2.62
225.277	-9.62
225.511	-0.62
225.746	4.38
225.98	12.38
226.215	12.38
226.449	17.38
226.683	17.38
226.918	37.38
227.152	23.38
227.387	42.38
227.621	53.38
227.856	33.38
228.09	41.38
228.324	49.38
228.559	67.38
228.793	172.38
229.027	470.38
229.262	554.38
229.496	667.38
229.73	934.38
229.964	874.38
230.199	610.38
230.433	544.38
230.667	535.38
230.901	496.38
231.136	502.38
231.37	498.38
231.604	503.38
231.838	502.38
232.072	495.38
232.306	510.38
232.541	513.38
232.775	519.38
233.009	541.38
233.243	525.38
233.477	532.38
233.711	556.38
233.945	551.38
234.179	545.38
234.413	571.38
234.647	572.38
234.881	575.38
235.115	596.38
235.349	589.38
235.583	621.38
235.817	673.38
236.051	700.38
236.285	676.38
236.519	704.38
236.753	793.38
236.987	985.38
237.221	1535.38
237.455	1615.38
237.689	987.38
237.922	808.38
238.156	767.38
238.39	749.38
238.624	725.38
238.858	732.38
239.091	743.38
239.325	789.38
239.559	778.38
239.793	826.38
240.027	887.38
240.26	1033.38
240.494	1082.38
240.728	1039.38
240.961	973.38
241.195	914.38
241.429	896.38
241.662	882.38
241.896	897.38
242.13	889.38
242.363	897.38
242.597	955.38
242.83	968.38
243.064	975.38
243.298	987.38
243.531	976.38
243.765	986.38
243.998	1007.38
244.232	1008.38
244.465	1033.38
244.699	1068.38
244.932	1075.38
245.166	1051.38
245.399	1081.38
245.633	1089.38
245.866	1064.38
246.099	1116.38
246.333	1122.38
246.566	1124.38
246.8	1166.38
247.033	1156.38
247.266	1204.38
247.5	1293.38
247.733	1328.38
247.966	1315.38
248.2	1336.38
248.433	1372.38
248.666	1451.38
248.899	1580.38
249.133	1749.38
249.366	1760.38
249.599	1725.38
249.832	1739.38
250.066	2059.38
250.299	2908.38
250.532	3957.38
250.765	3487.38
250.998	2726.38
251.231	2305.38
251.465	1994.38
251.698	1894.38
251.931	1807.38
252.164	1750.38
252.397	1740.38
252.63	1761.38
252.863	1828.38
253.096	1953.38
253.329	1980.38
253.562	1864.38
253.795	1832.38
254.028	1857.38
254.261	1933.38
254.494	2180.38
254.727	2519.38
254.96	2648.38
255.193	2519.38
255.426	2653.38
255.659	3428.38
255.892	5377.38
256.124	7097.38
256.357	5517.38
256.59	3793.38
256.823	2976.38
257.056	2622.38
257.289	2465.38
257.521	2274.38
257.754	2159.38
257.987	2086.38
258.22	2076.38
258.452	2060.38
258.685	2001.38
258.918	1986.38
259.151	2005.38
259.383	2041.38
259.616	2041.38
259.849	2103.38
260.081	2296.38
260.314	2461.38
260.547	2327.38
260.779	2163.38
261.012	2136.38
261.244	2069.38
261.477	2024.38
261.71	2060.38
261.942	2153.38
262.175	2228.38
262.407	2098.38
262.64	1979.38
262.872	1972.38
263.105	1929.38
263.337	1951.38
263.57	1985.38
263.802	1960.38
264.035	1947.38
264.267	1968.38
264.499	1948.38
264.732	1944.38
264.964	2013.38
265.197	1986.38
265.429	2038.38
265.661	2042.38
265.894	2064.38
266.126	2065.38
266.358	2104.38
266.591	2095.38
266.823	2129.38
267.055	2152.38
267.287	2140.38
267.52	2122.38
267.752	2100.38
267.984	2129.38
268.216	2210.38
268.448	2249.38
268.681	2306.38
268.913	2442.38
269.145	2605.38
269.377	2606.38
269.609	2512.38
269.841	2468.38
270.073	2584.38
270.306	2908.38
270.538	3001.38
270.77	2790.38
271.002	2695.38
271.234	2726.38
271.466	2902.38
271.698	2987.38
271.93	2997.38
272.162	2974.38
272.394	2945.38
272.626	2783.38
272.858	2619.38
273.09	2619.38
273.322	2647.38
273.553	2604.38
273.785	2608.38
274.017	2651.38
274.249	2700.38
274.481	2686.38
274.713	2773.38
274.945	2752.38
275.176	2842.38
275.408	2904.38
275.64	2993.38
275.872	3103.38
276.104	3118.38
276.335	3094.38
276.567	3240.38
276.799	3596.38
277.031	4076.38
277.262	4453.38
277.494	4103.38
277.726	3548.38
277.957	3369.38
278.189	3249.38
278.421	3173.38
278.652	3122.38
278.884	3135.38
279.115	3115.38
279.347	3165.38
279.579	3288.38
279.81	3569.38
280.042	4032.38
280.273	4551.38
280.505	4217.38
280.736	3581.38
280.968	3371.38
281.199	3248.38
281.431	3213.38
281.662	3105.38
281.894	3109.38
282.125	3149.38
282.356	3376.38
282.588	3542.38
282.819	3313.38
283.051	3090.38
283.282	2990.38
283.513	3055.38
283.745	3042.38
283.976	3116.38
284.207	3059.38
284.439	3062.38
284.67	3064.38
284.901	3053.38
285.132	3078.38
285.364	3053.38
285.595	3032.38
285.826	3123.38
286.057	3187.38
286.288	3157.38
286.52	3138.38
286.751	3105.38
286.982	3167.38
287.213	3185.38
287.444	3224.38
287.675	3213.38
287.906	3380.38
288.138	3352.38
288.369	3297.38
288.6	3323.38
288.831	3269.38
289.062	3321.38
289.293	3264.38
289.524	3269.38
289.755	3256.38
289.986	3223.38
290.217	3224.38
290.448	3226.38
290.679	3247.38
290.91	3188.38
291.141	3161.38
291.371	3164.38
291.602	3190.38
291.833	3145.38
292.064	3146.38
292.295	3162.38
292.526	3218.38
292.757	3086.38
292.987	3099.38
293.218	3080.38
293.449	3141.38
293.68	3188.38
293.91	3186.38
294.141	3197.38
294.372	3161.38
294.603	3146.38
294.833	3161.38
295.064	3195.38
295.295	3246.38
295.525	3222.38
295.756	3323.38
295.987	3433.38
296.217	3644.38
296.448	3565.38
296.679	3323.38
296.909	3243.38
297.14	3273.38
297.37	3391.38
297.601	3364.38
297.831	3333.38
298.062	3381.38
298.292	3429.38
298.523	3456.38
298.753	3490.38
298.984	3481.38
299.214	3432.38
299.445	3434.38
299.675	3446.38
299.905	3555.38
300.136	3494.38
300.366	3493.38
300.597	3541.38
300.827	3693.38
301.057	3751.38
301.288	3821.38
301.518	3759.38
301.748	3759.38
301.979	3891.38
302.209	3896.38
302.439	3825.38
302.669	3804.38
302.9	3683.38
303.13	3682.38
303.36	3839.38
303.59	4016.38
303.82	4178.38
304.051	4000.38
304.281	3841.38
304.511	3706.38
304.741	3626.38
304.971	3713.38
305.201	3645.38
305.431	3658.38
305.661	3640.38
305.891	3664.38
306.121	3678.38
306.352	3736.38
306.582	3754.38
306.812	3769.38
307.042	3994.38
307.272	4299.38
307.502	4489.38
307.731	4302.38
307.961	3958.38
308.191	3823.38
308.421	3797.38
308.651	3752.38
308.881	3741.38
309.111	3796.38
309.341	3815.38
309.571	3944.38
309.8	4031.38
310.03	4135.38
310.26	4125.38
310.49	4052.38
310.72	4301.38
310.949	4433.38
311.179	4385.38
311.409	4142.38
311.639	4213.38
311.868	4155.38
312.098	4268.38
312.328	4249.38
312.557	4528.38
312.787	4677.38
313.017	4429.38
313.246	4242.38
313.476	4191.38
313.706	4262.38
313.935	4387.38
314.165	4500.38
314.394	4625.38
314.624	4493.38
314.853	4319.38
315.083	4273.38
315.312	4227.38
315.542	4151.38
315.771	4130.38
316.001	4121.38
316.23	4094.38
316.46	4144.38
316.689	4260.38
316.919	4303.38
317.148	4361.38
317.377	4246.38
317.607	4326.38
317.836	4268.38
318.065	4185.38
318.295	4191.38
318.524	4228.38
318.753	4221.38
318.983	4244.38
319.212	4174.38
319.441	4344.38
319.67	4299.38
319.9	4272.38
320.129	4288.38
320.358	4299.38
320.587	4350.38
320.816	4483.38
321.046	4510.38
321.275	4466.38
321.504	4499.38
321.733	4558.38
321.962	4662.38
322.191	4774.38
322.42	4925.38
322.649	5054.38
322.878	5143.38
323.108	5356.38
323.337	5692.38
323.566	6003.38
323.795	6337.38
324.024	7208.38
324.253	9644.38
324.482	14043.38
324.71	15618.38
324.939	15618.38
325.168	14944.38
325.397	8317.38
325.626	6812.38
325.855	6272.38
326.084	6207.38
326.313	6305.38
326.542	6632.38
326.77	7618.38
326.999	9768.38
327.228	13757.38
327.457	15618.38
327.686	15618.38
327.914	13473.38
328.143	13373.38
328.372	14270.38
328.6	11540.38
328.829	9229.38
329.058	9335.38
329.287	9629.38
329.515	9909.38
329.744	11788.38
329.972	14743.38
330.201	15618.38
330.43	15618.38
330.658	15584.38
330.887	11706.38
331.115	9442.38
331.344	8118.38
331.572	7676.38
331.801	7638.38
332.03	7544.38
332.258	7418.38
332.486	7388.38
332.715	7605.38
332.943	8102.38
333.172	8623.38
333.4	9426.38
333.629	10671.38
333.857	12880.38
334.085	15357.38
334.314	15618.38
334.542	15618.38
334.771	15618.38
334.999	14988.38
335.227	10875.38
335.455	9047.38
335.684	8086.38
335.912	7471.38
336.14	7121.38
336.369	6766.38
336.597	6733.38
336.825	6407.38
337.053	6180.38
337.281	6009.38
337.51	5879.38
337.738	5829.38
337.966	5720.38
338.194	5735.38
338.422	5642.38
338.65	5443.38
338.878	5380.38
339.106	5334.38
339.334	5257.38
339.562	5141.38
339.79	5120.38
340.018	5160.38
340.246	5197.38
340.474	5172.38
340.702	5045.38
340.93	4991.38
341.158	5044.38
341.386	5063.38
341.614	5056.38
341.842	4958.38
342.07	4897.38
342.298	4878.38
342.526	4835.38
342.754	4813.38
342.981	4808.38
343.209	4902.38
343.437	5097.38
343.665	5314.38
343.893	5533.38
344.12	5553.38
344.348	5309.38
344.576	5190.38
344.804	5192.38
345.031	5217.38
345.259	5113.38
345.487	5020.38
345.714	4879.38
345.942	4764.38
346.17	4746.38
346.397	4647.38
346.625	4701.38
346.853	4660.38
347.08	4657.38
347.308	4751.38
347.535	4869.38
347.763	4944.38
347.99	4845.38
348.218	4851.38
348.445	4932.38
348.673	4818.38
348.9	4670.38
349.128	4522.38
349.355	4537.38
349.583	4552.38
349.81	4505.38
350.037	4515.38
350.265	4484.38
350.492	4555.38
350.72	4520.38
350.947	4573.38
351.174	4684.38
351.402	4851.38
351.629	4718.38
351.856	4750.38
352.083	4872.38
352.311	4958.38
352.538	4906.38
352.765	4845.38
352.992	4695.38
353.22	4684.38
353.447	4574.38
353.674	4459.38
353.901	4408.38
354.128	4407.38
354.355	4352.38
354.583	4426.38
354.81	4388.38
355.037	4344.38
355.264	4310.38
355.491	4279.38
355.718	4345.38
355.945	4329.38
356.172	4300.38
356.399	4325.38
356.626	4295.38
356.853	4363.38
357.08	4292.38
357.307	4278.38
357.534	4247.38
357.761	4316.38
357.988	4303.38
358.215	4261.38
358.441	4357.38
358.668	4441.38
358.895	4462.38
359.122	4416.38
359.349	4542.38
359.576	4733.38
359.802	5116.38
360.029	5447.38
360.256	5320.38
360.483	5017.38
360.709	4709.38
360.936	4623.38
361.163	4661.38
361.39	4758.38
361.616	4705.38
361.843	4628.38
362.07	4584.38
362.296	4754.38
362.523	4648.38
362.749	4648.38
362.976	4591.38
363.203	4457.38
363.429	4453.38
363.656	4475.38
363.882	4530.38
364.109	4428.38
364.335	4465.38
364.562	4488.38
364.788	4463.38
365.015	4506.38
365.241	4460.38
365.468	4546.38
365.694	4602.38
365.92	4555.38
366.147	4452.38
366.373	4454.38
366.599	4415.38
366.826	4374.38
367.052	4417.38
367.278	4474.38
367.505	4474.38
367.731	4512.38
367.957	4510.38
368.184	4519.38
368.41	4653.38
368.636	4689.38
368.862	4671.38
369.089	4534.38
369.315	4529.38
369.541	4478.38
369.767	4498.38
369.993	4540.38
370.219	4580.38
370.445	4503.38
370.672	4545.38
370.898	4589.38
371.124	4533.38
371.35	4632.38
371.576	4620.38
371.802	4622.38
372.028	4530.38
372.254	4555.38
372.48	4676.38
372.706	4717.38
372.932	4760.38
373.158	4718.38
373.384	4681.38
373.61	4653.38
373.835	4678.38
374.061	4662.38
374.287	4713.38
374.513	4801.38
374.739	4889.38
374.965	4996.38
375.191	5017.38
375.416	4951.38
375.642	4828.38
375.868	4761.38
376.094	4674.38
376.319	4635.38
376.545	4620.38
376.771	4632.38
376.997	4558.38
377.222	4612.38
377.448	4531.38
377.674	4526.38
377.899	4532.38
378.125	4498.38
378.35	4493.38
378.576	4510.38
378.802	4500.38
379.027	4501.38
379.253	4533.38
379.478	4498.38
379.704	4495.38
379.929	4501.38
380.155	4590.38
380.38	4563.38
380.606	4630.38
380.831	4614.38
381.057	4601.38
381.282	4606.38
381.507	4666.38
381.733	4628.38
381.958	4659.38
382.184	4756.38
382.409	4788.38
382.634	4805.38
382.86	4804.38
383.085	4896.38
383.31	4955.38
383.535	4983.38
383.761	5036.38
383.986	5081.38
384.211	5249.38
384.436	5247.38
384.662	5291.38
384.887	5409.38
385.112	5398.38
385.337	5444.38
385.562	5437.38
385.787	5439.38
386.013	5587.38
386.238	5590.38
386.463	5578.38
386.688	5502.38
386.913	5441.38
387.138	5383.38
387.363	5410.38
387.588	5359.38
387.813	5316.38
388.038	5360.38
388.263	5378.38
388.488	5400.38
388.713	5420.38
388.938	5391.38
389.163	5320.38
389.387	5412.38
389.612	5270.38
389.837	5331.38
390.062	5281.38
390.287	5293.38
390.512	5302.38
390.736	5360.38
390.961	5485.38
391.186	5474.38
391.411	5718.38
391.636	5775.38
391.86	5912.38
392.085	5977.38
392.31	5912.38
392.534	5734.38
392.759	5761.38
392.984	5597.38
393.208	5515.38
393.433	5618.38
393.658	5592.38
393.882	5523.38
394.107	5610.38
394.331	5652.38
394.556	5676.38
394.78	5695.38
395.005	5784.38
395.229	5754.38
395.454	5926.38
395.678	6091.38
395.903	6015.38
396.127	6131.38
396.352	5963.38
396.576	5820.38
396.801	5749.38
397.025	5865.38
397.249	5950.38
397.474	6092.38
397.698	6101.38
397.922	6259.38
398.147	6411.38
398.371	6471.38
398.595	6538.38
398.82	6832.38
399.044	7444.38
399.268	8113.38
399.492	9124.38
399.717	9726.38
399.941	9586.38
400.165	9067.38
400.389	8364.38
400.613	7588.38
400.837	7117.38
401.062	6910.38
401.286	6857.38
401.51	6917.38
401.734	6844.38
401.958	7001.38
402.182	7146.38
402.406	7284.38
402.63	7292.38
402.854	7313.38
403.078	7431.38
403.302	7524.38
403.526	7659.38
403.75	7827.38
403.974	7939.38
404.198	7995.38
404.422	8207.38
404.645	8351.38
404.869	8681.38
405.093	9490.38
405.317	10116.38
405.541	9978.38
405.765	8894.38
405.988	8378.38
406.212	8361.38
406.436	8462.38
406.66	8465.38
406.883	8257.38
407.107	8791.38
407.331	9387.38
407.555	9726.38
407.778	9454.38
408.002	8581.38
408.226	8316.38
408.449	8216.38
408.673	8102.38
408.896	8160.38
409.12	8374.38
409.344	7935.38
409.567	7541.38
409.791	7547.38
410.014	7387.38
410.238	7356.38
410.461	7509.38
410.685	7443.38
410.908	7550.38
411.132	7769.38
411.355	7876.38
411.578	7590.38
411.802	7504.38
412.025	7780.38
412.249	8586.38
412.472	9466.38
412.695	10095.38
412.919	9228.38
413.142	8600.38
413.365	8076.38
413.589	7655.38
413.812	7419.38
414.035	7225.38
414.258	7300.38
414.482	7149.38
414.705	7094.38
414.928	7030.38
415.151	7038.38
415.374	6935.38
415.597	6806.38
415.821	6727.38
416.044	6841.38
416.267	6874.38
416.49	6758.38
416.713	6735.38
416.936	6831.38
417.159	6900.38
417.382	7250.38
417.605	7480.38
417.828	7519.38
418.051	7309.38
418.274	7004.38
418.497	6911.38
418.72	6972.38
418.943	6946.38
419.166	7375.38
419.389	7929.38
419.611	7962.38
419.834	8128.38
420.057	8402.38
420.28	8902.38
420.503	8506.38
420.726	8199.38
420.948	8010.38
421.171	8102.38
421.394	7749.38
421.617	7190.38
421.839	7085.38
422.062	7190.38
422.285	7291.38
422.507	7904.38
422.73	8408.38
422.953	7699.38
423.175	7327.38
423.398	7377.38
423.621	7337.38
423.843	7588.38
424.066	7456.38
424.288	7398.38
424.511	7646.38
424.733	8171.38
424.956	8628.38
425.178	8114.38
425.401	8281.38
425.623	8208.38
425.846	7124.38
426.068	7032.38
426.291	6950.38
426.513	6896.38
426.735	7112.38
426.958	7625.38
427.18	8534.38
427.402	10084.38
427.625	10913.38
427.847	10487.38
428.069	10118.38
428.292	8386.38
428.514	7088.38
428.736	6691.38
428.958	6662.38
429.181	6335.38
429.403	6248.38
429.625	6491.38
429.847	6812.38
430.069	7348.38
430.292	6734.38
430.514	6206.38
430.736	6132.38
430.958	6107.38
431.18	6009.38
431.402	5956.38
431.624	5942.38
431.846	5991.38
432.068	5974.38
432.29	6173.38
432.512	6119.38
432.734	6129.38
432.956	6012.38
433.178	6188.38
433.4	6231.38
433.622	6032.38
433.844	6059.38
434.066	6043.38
434.287	6195.38
434.509	6333.38
434.731	6539.38
434.953	6712.38
435.175	6812.38
435.397	6940.38
435.618	6825.38
435.84	7290.38
436.062	8305.38
436.284	8216.38
436.505	6836.38
436.727	6528.38
436.949	6250.38
437.17	6085.38
437.392	6001.38
437.614	6308.38
437.835	6725.38
438.057	7946.38
438.278	8543.38
438.5	8372.38
438.721	9344.38
438.943	7932.38
439.165	6642.38
439.386	6564.38
439.608	6577.38
439.829	6810.38
440.05	7321.38
440.272	7896.38
440.493	6871.38
440.715	6474.38
440.936	6345.38
441.158	6420.38
441.379	6542.38
441.6	6883.38
441.822	7116.38
442.043	7626.38
442.264	8498.38
442.486	8165.38
442.707	7073.38
442.928	7064.38
443.149	7429.38
443.371	7616.38
443.592	8070.38
443.813	9240.38
444.034	9045.38
444.255	7702.38
444.476	7500.38
444.698	7680.38
444.919	7769.38
445.14	7575.38
445.361	7649.38
445.582	7989.38
445.803	8978.38
446.024	9673.38
446.245	9099.38
446.466	7984.38
446.687	6755.38
446.908	6374.38
447.129	6060.38
447.35	5934.38
447.571	5868.38
447.792	5800.38
448.013	5990.38
448.234	6146.38
448.455	6935.38
448.675	8251.38
448.896	8704.38
449.117	7085.38
449.338	7436.38
449.559	8914.38
449.779	9004.38
450	6724.38
450.221	6055.38
450.442	5830.38
450.662	5753.38
450.883	6073.38
451.104	6264.38
451.324	5862.38
451.545	5686.38
451.766	5484.38
451.986	5371.38
452.207	5371.38
452.428	5330.38
452.648	5436.38
452.869	5506.38
453.089	5502.38
453.31	5662.38
453.53	5405.38
453.751	5302.38
453.971	5493.38
454.192	5716.38
454.412	5444.38
454.633	5225.38
454.853	5159.38
455.073	5246.38
455.294	5734.38
455.514	6333.38
455.734	5737.38
455.955	5087.38
456.175	4982.38
456.395	5008.38
456.616	5005.38
456.836	4992.38
457.056	5016.38
457.276	4936.38
457.497	5057.38
457.717	5117.38
457.937	5159.38
458.157	5221.38
458.377	5424.38
458.598	5947.38
458.818	6868.38
459.038	7786.38
459.258	7279.38
459.478	6379.38
459.698	6205.38
459.918	6131.38
460.138	6411.38
460.358	6566.38
460.578	6578.38
460.798	6728.38
461.018	6716.38
461.238	6534.38
461.458	6556.38
461.678	6534.38
461.898	6641.38
462.118	6648.38
462.338	6972.38
462.558	7161.38
462.777	7441.38
462.997	7864.38
463.217	8439.38
463.437	8233.38
463.657	7705.38
463.876	7483.38
464.096	7585.38
464.316	7529.38
464.536	7593.38
464.755	7415.38
464.975	7315.38
465.195	8104.38
465.414	8303.38
465.634	6932.38
465.854	6540.38
466.073	6201.38
466.293	6024.38
466.512	5781.38
466.732	5636.38
466.951	5759.38
467.171	5810.38
467.391	5956.38
467.61	6306.38
467.829	6974.38
468.049	9583.38
468.268	12278.38
468.488	8464.38
468.707	6809.38
468.927	6325.38
469.146	6072.38
469.365	6032.38
469.585	6021.38
469.804	6168.38
470.023	6282.38
470.243	6221.38
470.462	6305.38
470.681	6522.38
470.901	6380.38
471.12	6288.38
471.339	6346.38
471.558	6547.38
471.777	6905.38
471.997	8194.38
472.216	13690.38
472.435	15618.38
472.654	14988.38
472.873	9916.38
473.092	8235.38
473.311	7497.38
473.53	7039.38
473.749	6861.38
473.968	7259.38
474.187	8201.38
474.406	7434.38
474.625	6442.38
474.844	6084.38
475.063	5964.38
475.282	5945.38
475.501	6007.38
475.72	6004.38
475.939	5932.38
476.158	6057.38
476.377	5946.38
476.596	5981.38
476.814	6203.38
477.033	6236.38
477.252	6230.38
477.471	6425.38
477.69	6416.38
477.908	6552.38
478.127	6667.38
478.346	6680.38
478.564	6920.38
478.783	7049.38
479.002	7226.38
479.22	7270.38
479.439	7521.38
479.658	7762.38
479.876	7889.38
480.095	8300.38
480.313	8998.38
480.532	9340.38
480.751	10700.38
480.969	14894.38
481.188	15618.38
481.406	15618.38
481.624	15618.38
481.843	12726.38
482.061	10849.38
482.28	9798.38
482.498	9042.38
482.717	8565.38
482.935	8134.38
483.153	7846.38
483.372	7709.38
483.59	7512.38
483.808	7523.38
484.027	7407.38
484.245	7332.38
484.463	7386.38
484.681	7360.38
484.9	7423.38
485.118	7397.38
485.336	7368.38
485.554	7431.38
485.772	7402.38
485.99	7416.38
486.209	7511.38
486.427	7434.38
486.645	7689.38
486.863	7862.38
487.081	7705.38
487.299	7580.38
487.517	7524.38
487.735	7563.38
487.953	7538.38
488.171	7549.38
488.389	7673.38
488.607	7621.38
488.825	7679.38
489.043	7774.38
489.261	7943.38
489.479	7977.38
489.696	8201.38
489.914	8257.38
490.132	8507.38
490.35	8576.38
490.568	8927.38
490.786	9249.38
491.003	9631.38
491.221	10433.38
491.439	11054.38
491.657	11048.38
491.874	11158.38
492.092	11257.38
492.31	11493.38
492.527	12087.38
492.745	12596.38
492.963	12287.38
493.18	11922.38
493.398	11510.38
493.615	11346.38
493.833	11005.38
494.05	10696.38
494.268	10390.38
494.485	10227.38
494.703	9982.38
494.92	9915.38
495.138	9705.38
495.355	9694.38
495.573	9413.38
495.79	9418.38
496.008	9297.38
496.225	9230.38
496.442	9180.38
496.66	9182.38
496.877	9005.38
497.094	9034.38
497.312	9238.38
497.529	9348.38
497.746	9434.38
497.963	9627.38
498.181	10094.38
498.398	10166.38
498.615	10537.38
498.832	11069.38
499.049	11514.38
499.267	11949.38
499.484	12609.38
499.701	13241.38
499.918	13901.38
500.135	14644.38
500.352	15213.38
500.569	15618.38
500.786	15618.38
501.003	15116.38
501.22	14445.38
501.437	13804.38
501.654	13027.38
501.871	12441.38
502.088	11610.38
502.305	11063.38
502.522	10419.38
502.739	10111.38
502.956	9584.38
503.172	9317.38
503.389	9023.38
503.606	9000.38
503.823	8865.38
504.04	8698.38
504.256	8681.38
504.473	8884.38
504.69	8827.38
504.907	8564.38
505.123	8347.38
505.34	8070.38
505.557	7860.38
505.773	7786.38
505.99	7669.38
506.207	7569.38
506.423	7535.38
506.64	7280.38
506.856	7300.38
507.073	7215.38
507.289	7233.38
507.506	7200.38
507.722	7371.38
507.939	7423.38
508.155	7004.38
508.372	6886.38
508.588	6854.38
508.805	6846.38
509.021	6872.38
509.238	7097.38
509.454	7129.38
509.67	6858.38
509.887	6750.38
510.103	6808.38
510.319	6942.38
510.536	8683.38
510.752	13620.38
510.968	8841.38
511.184	6980.38
511.401	7184.38
511.617	7728.38
511.833	9100.38
512.049	9008.38
512.265	8060.38
512.481	7520.38
512.698	7116.38
512.914	6945.38
513.13	6826.38
513.346	6691.38
513.562	6701.38
513.778	6781.38
513.994	6812.38
514.21	6992.38
514.426	7194.38
514.642	7688.38
514.858	7836.38
515.074	8510.38
515.29	10687.38
515.506	14295.38
515.721	10235.38
515.937	7944.38
516.153	7534.38
516.369	7330.38
516.585	7358.38
516.801	7434.38
517.016	7514.38
517.232	7759.38
517.448	7957.38
517.664	8062.38
517.879	8056.38
518.095	7946.38
518.311	7948.38
518.527	7636.38
518.742	7464.38
518.958	7142.38
519.173	6969.38
519.389	6918.38
519.605	6784.38
519.82	6806.38
520.036	6937.38
520.251	7226.38
520.467	7249.38
520.682	7148.38
520.898	7189.38
521.113	7388.38
521.329	7976.38
521.544	9132.38
521.76	12299.38
521.975	15618.38
522.19	14885.38
522.406	8554.38
522.621	7028.38
522.836	6464.38
523.052	6219.38
523.267	5997.38
523.482	5926.38
523.698	5847.38
523.913	5870.38
524.128	5828.38
524.343	5672.38
524.559	5609.38
524.774	5448.38
524.989	5414.38
525.204	5632.38
525.419	5488.38
525.634	5367.38
525.849	5271.38
526.064	5311.38
526.28	5354.38
526.495	5227.38
526.71	5220.38
526.925	5153.38
527.14	5180.38
527.355	5166.38
527.57	5151.38
527.785	5158.38
527.999	5189.38
528.214	5088.38
528.429	5217.38
528.644	5210.38
528.859	5177.38
529.074	5262.38
529.289	5609.38
529.503	6680.38
529.718	5974.38
529.933	5459.38
530.148	5292.38
530.363	5198.38
530.577	5126.38
530.792	5139.38
531.007	5075.38
531.221	5166.38
531.436	5066.38
531.651	5055.38
531.865	5164.38
532.08	5090.38
532.295	5049.38
532.509	5003.38
532.724	4949.38
532.938	5007.38
533.153	5035.38
533.367	4994.38
533.582	4988.38
533.796	4965.38
534.011	4954.38
534.225	4924.38
534.44	4917.38
534.654	4856.38
534.868	4842.38
535.083	4897.38
535.297	4902.38
535.511	4902.38
535.726	5052.38
535.94	5030.38
536.154	4849.38
536.369	4817.38
536.583	4721.38
536.797	4693.38
537.011	4701.38
537.225	4723.38
537.44	4705.38
537.654	4652.38
537.868	4653.38
538.082	4695.38
538.296	4652.38
538.51	4701.38
538.724	4651.38
538.938	4504.38
539.153	4593.38
539.367	4770.38
539.581	4721.38
539.795	4614.38
540.009	4630.38
540.222	4555.38
540.436	4569.38
540.65	4616.38
540.864	4648.38
541.078	4673.38
541.292	4529.38
541.506	4515.38
541.72	4468.38
541.934	4381.38
542.147	4409.38
542.361	4393.38
542.575	4353.38
542.789	4413.38
543.002	4501.38
543.216	4417.38
543.43	4653.38
543.644	4502.38
543.857	4442.38
544.071	4487.38
544.285	4460.38
544.498	4393.38
544.712	4438.38
544.925	4462.38
545.139	4497.38
545.352	4425.38
545.566	4474.38
545.779	4430.38
545.993	4438.38
546.206	4431.38
546.42	4443.38
546.633	4392.38
546.847	4466.38
547.06	4401.38
547.274	4348.38
547.487	4392.38
547.7	4372.38
547.914	4409.38
548.127	4432.38
548.34	4452.38
548.554	4359.38
548.767	4461.38
548.98	4450.38
549.193	4446.38
549.407	4533.38
549.62	4514.38
549.833	4567.38
550.046	4500.38
550.259	4389.38
550.473	4347.38
550.686	4326.38
550.899	4352.38
551.112	4304.38
551.325	4315.38
551.538	4413.38
551.751	4411.38
551.964	4328.38
552.177	4436.38
552.39	4480.38
552.603	4528.38
552.816	4579.38
553.029	4690.38
553.242	4794.38
553.455	4838.38
553.667	4888.38
553.88	4948.38
554.093	4861.38
554.306	4728.38
554.519	4670.38
554.732	4476.38
554.944	4412.38
555.157	4254.38
555.37	4194.38
555.583	4165.38
555.795	4169.38
556.008	4098.38
556.221	3997.38
556.433	4002.38
556.646	3886.38
556.859	3868.38
557.071	3865.38
557.284	3792.38
557.496	3727.38
557.709	3716.38
557.921	3634.38
558.134	3668.38
558.346	3636.38
558.559	3642.38
558.771	3632.38
558.984	3622.38
559.196	3585.38
559.409	3630.38
559.621	3665.38
559.833	3662.38
560.046	3618.38
560.258	3750.38
560.47	3807.38
560.683	3700.38
560.895	3688.38
561.107	3575.38
561.32	3592.38
561.532	3519.38
561.744	3592.38
561.956	3547.38
562.168	3526.38
562.381	3620.38
562.593	3550.38
562.805	3617.38
563.017	3601.38
563.229	3589.38
563.441	3621.38
563.653	3585.38
563.865	3586.38
564.077	3687.38
564.289	3624.38
564.501	3689.38
564.713	3806.38
564.925	3890.38
565.137	4045.38
565.349	4023.38
565.561	4111.38
565.773	4202.38
565.985	4430.38
566.197	4625.38
566.408	4904.38
566.62	5185.38
566.832	5414.38
567.044	5471.38
567.255	5487.38
567.467	5681.38
567.679	5980.38
567.891	6289.38
568.102	6245.38
568.314	5789.38
568.526	5356.38
568.737	4992.38
568.949	4590.38
569.161	4350.38
569.372	4140.38
569.584	3933.38
569.795	3823.38
570.007	3750.38
570.218	4073.38
570.43	3747.38
570.641	3562.38
570.853	3529.38
571.064	3509.38
571.276	3569.38
571.487	3366.38
571.698	3329.38
571.91	3154.38
572.121	3166.38
572.333	3146.38
572.544	3029.38
572.755	3018.38
572.966	2994.38
573.178	2957.38
573.389	2915.38
573.6	2914.38
573.811	2884.38
574.023	2826.38
574.234	2840.38
574.445	2833.38
574.656	2818.38
574.867	2836.38
575.078	2862.38
575.289	2774.38
575.501	2770.38
575.712	2690.38
575.923	2738.38
576.134	2687.38
576.345	2710.38
576.556	2630.38
576.767	2633.38
576.978	2634.38
577.188	2653.38
577.399	2588.38
577.61	2581.38
577.821	2629.38
578.032	2623.38
578.243	3076.38
578.454	4638.38
578.665	2987.38
578.875	2532.38
579.086	2511.38
579.297	2501.38
579.508	2447.38
579.718	2408.38
579.929	2447.38
580.14	2416.38
580.35	2367.38
580.561	2401.38
580.772	2387.38
580.982	2349.38
581.193	2326.38
581.403	2317.38
581.614	2324.38
581.825	2338.38
582.035	2304.38
582.246	2330.38
582.456	2327.38
582.667	2310.38
582.877	2323.38
583.087	2307.38
583.298	2285.38
583.508	2278.38
583.719	2289.38
583.929	2234.38
584.139	2309.38
584.35	2262.38
584.56	2255.38
584.77	2270.38
584.981	2246.38
585.191	2266.38
585.401	2235.38
585.611	2194.38
585.821	2241.38
586.032	2213.38
586.242	2242.38
586.452	2260.38
586.662	2172.38
586.872	2231.38
587.082	2197.38
587.292	2165.38
587.502	2172.38
587.713	2131.38
587.923	2169.38
588.133	2208.38
588.343	2160.38
588.553	2119.38
588.762	2170.38
588.972	2198.38
589.182	2294.38
589.392	2305.38
589.602	2611.38
589.812	2505.38
590.022	2265.38
590.232	2215.38
590.441	2238.38
590.651	2222.38
590.861	2198.38
591.071	2253.38
591.281	2255.38
591.49	2305.38
591.7	2320.38
591.91	2324.38
592.119	2383.38
592.329	2409.38
592.539	2527.38
592.748	2542.38
592.958	2594.38
593.167	2618.38
593.377	2746.38
593.587	2662.38
593.796	2685.38
594.006	2730.38
594.215	2727.38
594.424	2679.38
594.634	2585.38
594.843	2555.38
595.053	2464.38
595.262	2412.38
595.472	2326.38
595.681	2278.38
595.89	2204.38
596.1	2196.38
596.309	2132.38
596.518	2110.38
596.727	2095.38
596.937	2050.38
597.146	2035.38
597.355	1940.38
597.564	1932.38
597.774	1938.38
597.983	1913.38
598.192	1913.38
598.401	1897.38
598.61	1890.38
598.819	1866.38
599.028	1864.38
599.237	1846.38
599.446	1864.38
599.655	1882.38
599.864	1851.38
600.073	1867.38
600.282	1863.38
600.491	1848.38
600.7	1866.38
600.909	1820.38
601.118	1865.38
601.327	1819.38
601.536	1804.38
601.745	1832.38
601.953	1854.38
602.162	1845.38
602.371	1811.38
602.58	1856.38
602.789	1811.38
602.997	1802.38
603.206	1813.38
603.415	1772.38
603.623	1751.38
603.832	1775.38
604.041	1758.38
604.249	1702.38
604.458	1721.38
604.666	1727.38
604.875	1681.38
605.084	1699.38
605.292	1696.38
605.501	1711.38
605.709	1736.38
605.918	1686.38
606.126	1633.38
606.334	1666.38
606.543	1683.38
606.751	1659.38
606.96	1660.38
607.168	1663.38
607.376	1669.38
607.585	1704.38
607.793	1674.38
608.001	1653.38
608.21	1647.38
608.418	1651.38
608.626	1648.38
608.834	1670.38
609.043	1664.38
609.251	1620.38
609.459	1663.38
609.667	1690.38
609.875	1638.38
610.083	1721.38
610.291	1726.38
610.499	1728.38
610.707	1736.38
610.916	1696.38
611.124	1680.38
611.332	1702.38
611.54	1652.38
611.748	1658.38
611.955	1614.38
612.163	1590.38
612.371	1585.38
612.579	1616.38
612.787	1569.38
612.995	1546.38
613.203	1576.38
613.411	1540.38
613.618	1544.38
613.826	1573.38
614.034	1566.38
614.242	1524.38
614.449	1506.38
614.657	1543.38
614.865	1548.38
615.072	1535.38
615.28	1558.38
615.488	1523.38
615.695	1527.38
615.903	1535.38
616.111	1557.38
616.318	1554.38
616.526	1561.38
616.733	1548.38
616.941	1501.38
617.148	1517.38
617.356	1496.38
617.563	1452.38
617.771	1505.38
617.978	1464.38
618.185	1462.38
618.393	1415.38
618.6	1477.38
618.807	1496.38
619.015	1479.38
619.222	1451.38
619.429	1452.38
619.637	1437.38
619.844	1406.38
620.051	1330.38
620.258	1384.38
620.466	1359.38
620.673	1305.38
620.88	1295.38
621.087	1311.38
621.294	1342.38
621.501	1360.38
621.708	1406.38
621.915	1361.38
622.122	1344.38
622.329	1312.38
622.536	1299.38
622.743	1303.38
622.95	1311.38
623.157	1295.38
623.364	1242.38
623.571	1274.38
623.778	1275.38
623.985	1266.38
624.192	1285.38
624.399	1252.38
624.606	1250.38
624.812	1241.38
625.019	1232.38
625.226	1223.38
625.433	1222.38
625.639	1214.38
625.846	1190.38
626.053	1208.38
626.259	1198.38
626.466	1194.38
626.673	1161.38
626.879	1173.38
627.086	1185.38
627.293	1137.38
627.499	1156.38
627.706	1180.38
627.912	1150.38
628.119	1148.38
628.325	1135.38
628.532	1103.38
628.738	1161.38
628.945	1128.38
629.151	1126.38
629.357	1131.38
629.564	1106.38
629.77	1075.38
629.976	1100.38
630.183	1118.38
630.389	1095.38
630.595	1088.38
630.802	1073.38
631.008	1067.38
631.214	1066.38
631.42	1074.38
631.627	1079.38
631.833	1052.38
632.039	1050.38
632.245	1018.38
632.451	1033.38
632.657	1012.38
632.863	1012.38
633.069	1042.38
633.275	1039.38
633.481	1015.38
633.688	1024.38
633.893	1058.38
634.099	1050.38
634.305	1036.38
634.511	1033.38
634.717	1032.38
634.923	1085.38
635.129	1081.38
635.335	1113.38
635.541	1128.38
635.747	1177.38
635.952	1268.38
636.158	1593.38
636.364	2652.38
636.57	2830.38
636.775	2032.38
636.981	1609.38
637.187	1438.38
637.392	1330.38
637.598	1276.38
637.804	1229.38
638.009	1157.38
638.215	1112.38
638.421	1053.38
638.626	1075.38
638.832	1026.38
639.037	1029.38
639.243	974.38
639.448	959.38
639.654	968.38
639.859	926.38
640.065	935.38
640.27	918.38
640.475	951.38
640.681	914.38
640.886	918.38
641.091	921.38
641.297	889.38
641.502	888.38
641.707	899.38
641.913	877.38
642.118	848.38
642.323	840.38
642.528	829.38
642.733	836.38
642.939	839.38
643.144	816.38
643.349	807.38
643.554	819.38
643.759	800.38
643.964	778.38
644.169	801.38
644.374	799.38
644.579	815.38
644.784	819.38
644.989	786.38
645.194	788.38
645.399	806.38
645.604	796.38
645.809	799.38
646.014	830.38
646.219	788.38
646.423	795.38
646.628	793.38
646.833	800.38
647.038	804.38
647.243	813.38
647.447	842.38
647.652	842.38
647.857	820.38
648.062	856.38
648.266	872.38
648.471	869.38
648.676	889.38
648.88	884.38
649.085	847.38
649.289	857.38
649.494	906.38
649.698	1143.38
649.903	936.38
650.107	828.38
650.312	741.38
650.516	741.38
650.721	710.38
650.925	678.38
651.13	679.38
651.334	698.38
651.539	668.38
651.743	641.38
651.947	621.38
652.152	605.38
652.356	592.38
652.56	586.38
652.764	585.38
652.969	580.38
653.173	558.38
653.377	520.38
653.581	536.38
653.785	562.38
653.99	538.38
654.194	525.38
654.398	511.38
654.602	505.38
654.806	540.38
655.01	616.38
655.214	558.38
655.418	511.38
655.622	496.38
655.826	494.38
656.03	511.38
656.234	522.38
656.438	528.38
656.642	545.38
656.846	510.38
657.049	454.38
657.253	402.38
657.457	396.38
657.661	330.38
657.865	325.38
658.068	337.38
658.272	298.38
658.476	300.38
658.68	265.38
658.883	257.38
659.087	244.38
659.291	232.38
659.494	207.38
659.698	196.38
659.901	230.38
660.105	205.38
660.309	198.38
660.512	199.38
660.716	193.38
660.919	190.38
661.123	161.38
661.326	161.38
661.53	144.38
661.733	127.38
661.936	124.38
662.14	126.38
662.343	140.38
662.546	117.38
662.75	102.38
662.953	107.38
663.156	97.38
663.36	95.38
663.563	94.38
663.766	104.38
663.969	95.38
664.173	98.38
664.376	87.38
664.579	76.38
664.782	86.38
664.985	89.38
665.188	75.38
665.391	93.38
665.594	88.38
665.797	72.38
666	92.38
666.203	96.38
666.406	79.38
666.609	95.38
666.812	94.38
667.015	68.38
667.218	74.38
667.421	85.38
667.624	76.38
667.827	80.38
668.03	81.38
668.232	89.38
668.435	77.38
668.638	66.38
668.841	68.38
669.043	76.38
669.246	90.38
669.449	78.38
669.651	69.38
669.854	93.38
670.057	76.38
670.259	82.38
670.462	81.38
670.665	84.38
670.867	78.38
671.07	78.38
671.272	77.38
671.475	85.38
671.677	84.38
671.88	88.38
672.082	72.38
672.284	69.38
672.487	90.38
672.689	75.38
672.892	86.38
