Data from Circ_1995_H10_HRD10591_00034.txt Node
Date: Wed Jan 03 11:36:53 EST 2024
User: Yrep
Spectrometer: HR+D1059
Trigger mode: 1
Integration Time (sec): 1.000000E-1
Scans to average: 1
Electric dark correction enabled: true
Nonlinearity correction enabled: false
Boxcar width: 0
XAxis mode: Wavelengths
Number of Pixels in Spectrum: 2048
>>>>>Begin Spectral Data<<<<<
223.165	-20.94
223.4	-20.94
223.635	-20.94
223.869	-17.94
224.104	-13.94
224.338	-1.94
224.573	-13.94
224.808	-1.94
225.042	-13.94
225.277	-7.94
225.511	2.06
225.746	-4.94
225.98	15.06
226.215	7.06
226.449	15.06
226.683	19.06
226.918	10.06
227.152	29.06
227.387	35.06
227.621	27.06
227.856	51.06
228.09	58.06
228.324	53.06
228.559	70.06
228.793	66.06
229.027	82.06
229.262	82.06
229.496	88.06
229.73	93.06
229.964	84.06
230.199	80.06
230.433	92.06
230.667	84.06
230.901	90.06
231.136	85.06
231.37	74.06
231.604	67.06
231.838	69.06
232.072	79.06
232.306	86.06
232.541	75.06
232.775	79.06
233.009	84.06
233.243	84.06
233.477	75.06
233.711	75.06
233.945	85.06
234.179	77.06
234.413	82.06
234.647	86.06
234.881	89.06
235.115	77.06
235.349	83.06
235.583	88.06
235.817	68.06
236.051	70.06
236.285	73.06
236.519	85.06
236.753	86.06
236.987	89.06
237.221	89.06
237.455	101.06
237.689	81.06
237.922	76.06
238.156	71.06
238.39	88.06
238.624	74.06
238.858	78.06
239.091	72.06
239.325	77.06
239.559	66.06
239.793	91.06
240.027	82.06
240.26	99.06
240.494	89.06
240.728	76.06
240.961	81.06
241.195	90.06
241.429	88.06
241.662	80.06
241.896	64.06
242.13	82.06
242.363	79.06
242.597	76.06
242.83	87.06
243.064	64.06
243.298	68.06
243.531	66.06
243.765	92.06
243.998	88.06
244.232	78.06
244.465	102.06
244.699	71.06
244.932	80.06
245.166	60.06
245.399	75.06
245.633	78.06
245.866	83.06
246.099	75.06
246.333	88.06
246.566	71.06
246.8	81.06
247.033	74.06
247.266	81.06
247.5	85.06
247.733	82.06
247.966	81.06
248.2	89.06
248.433	78.06
248.666	91.06
248.899	83.06
249.133	101.06
249.366	101.06
249.599	107.06
249.832	85.06
250.066	91.06
250.299	73.06
250.532	78.06
250.765	89.06
250.998	69.06
251.231	61.06
251.465	61.06
251.698	85.06
251.931	93.06
252.164	96.06
252.397	78.06
252.63	96.06
252.863	75.06
253.096	82.06
253.329	94.06
253.562	78.06
253.795	58.06
254.028	74.06
254.261	73.06
254.494	83.06
254.727	90.06
254.96	89.06
255.193	76.06
255.426	85.06
255.659	84.06
255.892	95.06
256.124	95.06
256.357	81.06
256.59	82.06
256.823	93.06
257.056	95.06
257.289	95.06
257.521	83.06
257.754	69.06
257.987	76.06
258.22	99.06
258.452	89.06
258.685	98.06
258.918	95.06
259.151	92.06
259.383	67.06
259.616	80.06
259.849	73.06
260.081	84.06
260.314	78.06
260.547	88.06
260.779	101.06
261.012	123.06
261.244	119.06
261.477	117.06
261.71	99.06
261.942	137.06
262.175	138.06
262.407	106.06
262.64	89.06
262.872	89.06
263.105	82.06
263.337	95.06
263.57	75.06
263.802	78.06
264.035	82.06
264.267	81.06
264.499	104.06
264.732	87.06
264.964	89.06
265.197	99.06
265.429	93.06
265.661	83.06
265.894	81.06
266.126	79.06
266.358	88.06
266.591	67.06
266.823	93.06
267.055	84.06
267.287	87.06
267.52	86.06
267.752	87.06
267.984	77.06
268.216	75.06
268.448	82.06
268.681	96.06
268.913	87.06
269.145	106.06
269.377	78.06
269.609	90.06
269.841	89.06
270.073	91.06
270.306	106.06
270.538	83.06
270.77	99.06
271.002	91.06
271.234	99.06
271.466	112.06
271.698	85.06
271.93	84.06
272.162	88.06
272.394	88.06
272.626	86.06
272.858	88.06
273.09	87.06
273.322	92.06
273.553	84.06
273.785	90.06
274.017	88.06
274.249	103.06
274.481	83.06
274.713	84.06
274.945	113.06
275.176	114.06
275.408	92.06
275.64	119.06
275.872	119.06
276.104	114.06
276.335	103.06
276.567	128.06
276.799	161.06
277.031	210.06
277.262	244.06
277.494	162.06
277.726	102.06
277.957	97.06
278.189	105.06
278.421	100.06
278.652	87.06
278.884	91.06
279.115	104.06
279.347	86.06
279.579	102.06
279.81	127.06
280.042	228.06
280.273	303.06
280.505	192.06
280.736	119.06
280.968	103.06
281.199	83.06
281.431	97.06
281.662	90.06
281.894	98.06
282.125	90.06
282.356	146.06
282.588	183.06
282.819	128.06
283.051	94.06
283.282	108.06
283.513	90.06
283.745	97.06
283.976	103.06
284.207	102.06
284.439	91.06
284.67	90.06
284.901	87.06
285.132	85.06
285.364	105.06
285.595	101.06
285.826	85.06
286.057	96.06
286.288	81.06
286.52	88.06
286.751	107.06
286.982	101.06
287.213	80.06
287.444	98.06
287.675	90.06
287.906	99.06
288.138	97.06
288.369	99.06
288.6	110.06
288.831	94.06
289.062	82.06
289.293	87.06
289.524	90.06
289.755	95.06
289.986	84.06
290.217	90.06
290.448	81.06
290.679	97.06
290.91	91.06
291.141	78.06
291.371	86.06
291.602	111.06
291.833	91.06
292.064	88.06
292.295	94.06
292.526	91.06
292.757	89.06
292.987	90.06
293.218	100.06
293.449	97.06
293.68	107.06
293.91	96.06
294.141	90.06
294.372	92.06
294.603	100.06
294.833	104.06
295.064	86.06
295.295	96.06
295.525	85.06
295.756	107.06
295.987	120.06
296.217	173.06
296.448	147.06
296.679	94.06
296.909	99.06
297.14	94.06
297.37	106.06
297.601	90.06
297.831	87.06
298.062	101.06
298.292	100.06
298.523	98.06
298.753	87.06
298.984	99.06
299.214	97.06
299.445	100.06
299.675	97.06
299.905	116.06
300.136	88.06
300.366	97.06
300.597	107.06
300.827	126.06
301.057	96.06
301.288	122.06
301.518	99.06
301.748	96.06
301.979	119.06
302.209	107.06
302.439	90.06
302.669	92.06
302.9	91.06
303.13	106.06
303.36	119.06
303.59	149.06
303.82	137.06
304.051	115.06
304.281	84.06
304.511	83.06
304.741	86.06
304.971	91.06
305.201	88.06
305.431	90.06
305.661	91.06
305.891	85.06
306.121	97.06
306.352	116.06
306.582	132.06
306.812	126.06
307.042	136.06
307.272	168.06
307.502	189.06
307.731	181.06
307.961	135.06
308.191	103.06
308.421	98.06
308.651	95.06
308.881	100.06
309.111	103.06
309.341	83.06
309.571	112.06
309.8	119.06
310.03	116.06
310.26	102.06
310.49	114.06
310.72	109.06
310.949	135.06
311.179	117.06
311.409	103.06
311.639	103.06
311.868	119.06
312.098	101.06
312.328	100.06
312.557	116.06
312.787	135.06
313.017	127.06
313.246	107.06
313.476	98.06
313.706	96.06
313.935	101.06
314.165	119.06
314.394	128.06
314.624	96.06
314.853	101.06
315.083	103.06
315.312	95.06
315.542	85.06
315.771	100.06
316.001	95.06
316.23	98.06
316.46	82.06
316.689	102.06
316.919	108.06
317.148	99.06
317.377	98.06
317.607	93.06
317.836	105.06
318.065	99.06
318.295	100.06
318.524	81.06
318.753	92.06
318.983	105.06
319.212	124.06
319.441	126.06
319.67	114.06
319.9	96.06
320.129	91.06
320.358	97.06
320.587	99.06
320.816	108.06
321.046	105.06
321.275	107.06
321.504	99.06
321.733	101.06
321.962	100.06
322.191	102.06
322.42	121.06
322.649	127.06
322.878	116.06
323.108	148.06
323.337	161.06
323.566	163.06
323.795	192.06
324.024	273.06
324.253	570.06
324.482	1249.06
324.71	2657.06
324.939	3625.06
325.168	1277.06
325.397	353.06
325.626	172.06
325.855	171.06
326.084	164.06
326.313	159.06
326.542	203.06
326.77	314.06
326.999	655.06
327.228	1337.06
327.457	2583.06
327.686	2060.06
327.914	678.06
328.143	616.06
328.372	842.06
328.6	451.06
328.829	215.06
329.058	198.06
329.287	218.06
329.515	225.06
329.744	290.06
329.972	585.06
330.201	1187.06
330.43	1841.06
330.658	769.06
330.887	351.06
331.115	212.06
331.344	141.06
331.572	137.06
331.801	128.06
332.03	131.06
332.258	112.06
332.486	108.06
332.715	123.06
332.943	112.06
333.172	115.06
333.4	143.06
333.629	175.06
333.857	272.06
334.085	514.06
334.314	1081.06
334.542	2292.06
334.771	2117.06
334.999	555.06
335.227	218.06
335.455	136.06
335.684	129.06
335.912	118.06
336.14	109.06
336.369	124.06
336.597	126.06
336.825	118.06
337.053	111.06
337.281	84.06
337.51	87.06
337.738	114.06
337.966	97.06
338.194	99.06
338.422	114.06
338.65	105.06
338.878	109.06
339.106	91.06
339.334	99.06
339.562	99.06
339.79	95.06
340.018	104.06
340.246	96.06
340.474	112.06
340.702	118.06
340.93	82.06
341.158	98.06
341.386	111.06
341.614	122.06
341.842	104.06
342.07	95.06
342.298	106.06
342.526	90.06
342.754	105.06
342.981	88.06
343.209	98.06
343.437	92.06
343.665	99.06
343.893	98.06
344.12	91.06
344.348	96.06
344.576	111.06
344.804	103.06
345.031	111.06
345.259	120.06
345.487	107.06
345.714	104.06
345.942	108.06
346.17	95.06
346.397	96.06
346.625	107.06
346.853	99.06
347.08	97.06
347.308	102.06
347.535	107.06
347.763	113.06
347.99	123.06
348.218	123.06
348.445	127.06
348.673	130.06
348.9	105.06
349.128	87.06
349.355	90.06
349.583	97.06
349.81	95.06
350.037	104.06
350.265	101.06
350.492	96.06
350.72	100.06
350.947	120.06
351.174	128.06
351.402	132.06
351.629	135.06
351.856	101.06
352.083	121.06
352.311	122.06
352.538	122.06
352.765	115.06
352.992	136.06
353.22	120.06
353.447	116.06
353.674	108.06
353.901	99.06
354.128	110.06
354.355	96.06
354.583	105.06
354.81	109.06
355.037	87.06
355.264	87.06
355.491	83.06
355.718	95.06
355.945	95.06
356.172	87.06
356.399	86.06
356.626	82.06
356.853	108.06
357.08	100.06
357.307	83.06
357.534	87.06
357.761	93.06
357.988	105.06
358.215	96.06
358.441	92.06
358.668	96.06
358.895	87.06
359.122	107.06
359.349	94.06
359.576	123.06
359.802	130.06
360.029	168.06
360.256	155.06
360.483	129.06
360.709	105.06
360.936	105.06
361.163	122.06
361.39	101.06
361.616	115.06
361.843	103.06
362.07	99.06
362.296	109.06
362.523	110.06
362.749	107.06
362.976	106.06
363.203	98.06
363.429	102.06
363.656	96.06
363.882	106.06
364.109	105.06
364.335	93.06
364.562	87.06
364.788	98.06
365.015	99.06
365.241	119.06
365.468	124.06
365.694	99.06
365.92	109.06
366.147	104.06
366.373	106.06
366.599	103.06
366.826	103.06
367.052	96.06
367.278	95.06
367.505	102.06
367.731	101.06
367.957	106.06
368.184	104.06
368.41	104.06
368.636	119.06
368.862	119.06
369.089	112.06
369.315	116.06
369.541	114.06
369.767	103.06
369.993	92.06
370.219	96.06
370.445	84.06
370.672	96.06
370.898	113.06
371.124	97.06
371.35	85.06
371.576	83.06
371.802	97.06
372.028	89.06
372.254	97.06
372.48	90.06
372.706	92.06
372.932	89.06
373.158	84.06
373.384	104.06
373.61	107.06
373.835	101.06
374.061	91.06
374.287	108.06
374.513	93.06
374.739	91.06
374.965	105.06
375.191	78.06
375.416	91.06
375.642	99.06
375.868	84.06
376.094	92.06
376.319	95.06
376.545	90.06
376.771	82.06
376.997	105.06
377.222	93.06
377.448	101.06
377.674	99.06
377.899	98.06
378.125	91.06
378.35	91.06
378.576	90.06
378.802	94.06
379.027	90.06
379.253	89.06
379.478	85.06
379.704	96.06
379.929	102.06
380.155	89.06
380.38	93.06
380.606	87.06
380.831	99.06
381.057	106.06
381.282	103.06
381.507	97.06
381.733	114.06
381.958	107.06
382.184	101.06
382.409	108.06
382.634	108.06
382.86	97.06
383.085	107.06
383.31	116.06
383.535	83.06
383.761	95.06
383.986	99.06
384.211	119.06
384.436	107.06
384.662	96.06
384.887	99.06
385.112	100.06
385.337	112.06
385.562	98.06
385.787	111.06
386.013	125.06
386.238	118.06
386.463	104.06
386.688	120.06
386.913	114.06
387.138	131.06
387.363	123.06
387.588	94.06
387.813	104.06
388.038	105.06
388.263	107.06
388.488	132.06
388.713	94.06
388.938	95.06
389.163	92.06
389.387	86.06
389.612	85.06
389.837	97.06
390.062	92.06
390.287	96.06
390.512	83.06
390.736	95.06
390.961	82.06
391.186	91.06
391.411	88.06
391.636	86.06
391.86	95.06
392.085	91.06
392.31	80.06
392.534	71.06
392.759	79.06
392.984	95.06
393.208	89.06
393.433	98.06
393.658	96.06
393.882	90.06
394.107	81.06
394.331	89.06
394.556	93.06
394.78	95.06
395.005	91.06
395.229	77.06
395.454	86.06
395.678	100.06
395.903	87.06
396.127	100.06
396.352	82.06
396.576	90.06
396.801	94.06
397.025	96.06
397.249	87.06
397.474	96.06
397.698	102.06
397.922	97.06
398.147	84.06
398.371	89.06
398.595	83.06
398.82	76.06
399.044	97.06
399.268	91.06
399.492	79.06
399.717	88.06
399.941	104.06
400.165	95.06
400.389	103.06
400.613	97.06
400.837	107.06
401.062	85.06
401.286	80.06
401.51	82.06
401.734	96.06
401.958	117.06
402.182	164.06
402.406	214.06
402.63	159.06
402.854	108.06
403.078	101.06
403.302	91.06
403.526	107.06
403.75	93.06
403.974	99.06
404.198	95.06
404.422	91.06
404.645	117.06
404.869	112.06
405.093	102.06
405.317	147.06
405.541	151.06
405.765	121.06
405.988	131.06
406.212	231.06
406.436	340.06
406.66	221.06
406.883	141.06
407.107	118.06
407.331	99.06
407.555	106.06
407.778	117.06
408.002	93.06
408.226	107.06
408.449	108.06
408.673	90.06
408.896	92.06
409.12	101.06
409.344	82.06
409.567	99.06
409.791	96.06
410.014	91.06
410.238	99.06
410.461	99.06
410.685	100.06
410.908	95.06
411.132	121.06
411.355	114.06
411.578	79.06
411.802	103.06
412.025	80.06
412.249	111.06
412.472	131.06
412.695	150.06
412.919	116.06
413.142	92.06
413.365	104.06
413.589	90.06
413.812	97.06
414.035	87.06
414.258	91.06
414.482	105.06
414.705	100.06
414.928	104.06
415.151	91.06
415.374	109.06
415.597	83.06
415.821	96.06
416.044	91.06
416.267	96.06
416.49	89.06
416.713	93.06
416.936	92.06
417.159	84.06
417.382	82.06
417.605	104.06
417.828	111.06
418.051	111.06
418.274	88.06
418.497	81.06
418.72	87.06
418.943	77.06
419.166	100.06
419.389	89.06
419.611	86.06
419.834	100.06
420.057	86.06
420.28	93.06
420.503	85.06
420.726	86.06
420.948	91.06
421.171	113.06
421.394	117.06
421.617	91.06
421.839	100.06
422.062	91.06
422.285	108.06
422.507	113.06
422.73	124.06
422.953	99.06
423.175	87.06
423.398	91.06
423.621	98.06
423.843	92.06
424.066	75.06
424.288	89.06
424.511	95.06
424.733	105.06
424.956	105.06
425.178	112.06
425.401	116.06
425.623	110.06
425.846	89.06
426.068	101.06
426.291	100.06
426.513	110.06
426.735	90.06
426.958	102.06
427.18	115.06
427.402	207.06
427.625	294.06
427.847	283.06
428.069	265.06
428.292	128.06
428.514	116.06
428.736	95.06
428.958	91.06
429.181	107.06
429.403	83.06
429.625	89.06
429.847	91.06
430.069	123.06
430.292	100.06
430.514	83.06
430.736	100.06
430.958	93.06
431.18	84.06
431.402	91.06
431.624	84.06
431.846	89.06
432.068	92.06
432.29	110.06
432.512	93.06
432.734	97.06
432.956	91.06
433.178	100.06
433.4	113.06
433.622	96.06
433.844	96.06
434.066	101.06
434.287	99.06
434.509	92.06
434.731	96.06
434.953	85.06
435.175	89.06
435.397	96.06
435.618	90.06
435.84	112.06
436.062	154.06
436.284	141.06
436.505	123.06
436.727	123.06
436.949	94.06
437.17	80.06
437.392	88.06
437.614	106.06
437.835	113.06
438.057	151.06
438.278	147.06
438.5	128.06
438.721	126.06
438.943	123.06
439.165	94.06
439.386	90.06
439.608	111.06
439.829	129.06
440.05	154.06
440.272	213.06
440.493	112.06
440.715	95.06
440.936	97.06
441.158	93.06
441.379	105.06
441.6	105.06
441.822	103.06
442.043	112.06
442.264	136.06
442.486	121.06
442.707	103.06
442.928	125.06
443.149	190.06
443.371	188.06
443.592	133.06
443.813	141.06
444.034	125.06
444.255	95.06
444.476	97.06
444.698	81.06
444.919	102.06
445.14	145.06
445.361	143.06
445.582	139.06
445.803	205.06
446.024	208.06
446.245	181.06
446.466	143.06
446.687	91.06
446.908	95.06
447.129	93.06
447.35	97.06
447.571	89.06
447.792	101.06
448.013	107.06
448.234	129.06
448.455	107.06
448.675	132.06
448.896	159.06
449.117	114.06
449.338	115.06
449.559	149.06
449.779	167.06
450	113.06
450.221	109.06
450.442	93.06
450.662	113.06
450.883	127.06
451.104	140.06
451.324	107.06
451.545	93.06
451.766	87.06
451.986	76.06
452.207	89.06
452.428	97.06
452.648	112.06
452.869	126.06
453.089	137.06
453.31	165.06
453.53	107.06
453.751	103.06
453.971	117.06
454.192	153.06
454.412	115.06
454.633	86.06
454.853	88.06
455.073	96.06
455.294	105.06
455.514	120.06
455.734	112.06
455.955	95.06
456.175	96.06
456.395	97.06
456.616	88.06
456.836	87.06
457.056	83.06
457.276	82.06
457.497	87.06
457.717	89.06
457.937	105.06
458.157	81.06
458.377	113.06
458.598	138.06
458.818	211.06
459.038	266.06
459.258	173.06
459.478	101.06
459.698	97.06
459.918	91.06
460.138	87.06
460.358	99.06
460.578	96.06
460.798	100.06
461.018	87.06
461.238	87.06
461.458	98.06
461.678	101.06
461.898	81.06
462.118	99.06
462.338	86.06
462.558	79.06
462.777	85.06
462.997	86.06
463.217	124.06
463.437	111.06
463.657	87.06
463.876	81.06
464.096	103.06
464.316	122.06
464.536	109.06
464.755	123.06
464.975	141.06
465.195	269.06
465.414	273.06
465.634	111.06
465.854	112.06
466.073	92.06
466.293	91.06
466.512	89.06
466.732	94.06
466.951	107.06
467.171	100.06
467.391	120.06
467.61	152.06
467.829	228.06
468.049	689.06
468.268	1079.06
468.488	269.06
468.707	123.06
468.927	107.06
469.146	88.06
469.365	100.06
469.585	113.06
469.804	120.06
470.023	123.06
470.243	103.06
470.462	130.06
470.681	157.06
470.901	116.06
471.12	105.06
471.339	115.06
471.558	124.06
471.777	161.06
471.997	345.06
472.216	1353.06
472.435	3171.06
472.654	732.06
472.873	176.06
473.092	115.06
473.311	105.06
473.53	100.06
473.749	101.06
473.968	105.06
474.187	122.06
474.406	105.06
474.625	93.06
474.844	92.06
475.063	97.06
475.282	89.06
475.501	83.06
475.72	94.06
475.939	78.06
476.158	89.06
476.377	106.06
476.596	98.06
476.814	103.06
477.033	115.06
477.252	98.06
477.471	83.06
477.69	92.06
477.908	98.06
478.127	94.06
478.346	103.06
478.564	95.06
478.783	115.06
479.002	113.06
479.22	124.06
479.439	144.06
479.658	159.06
479.876	138.06
480.095	133.06
480.313	151.06
480.532	191.06
480.751	302.06
480.969	1175.06
481.188	5353.06
481.406	3081.06
481.624	432.06
481.843	159.06
482.061	107.06
482.28	104.06
482.498	98.06
482.717	99.06
482.935	85.06
483.153	100.06
483.372	91.06
483.59	100.06
483.808	100.06
484.027	98.06
484.245	106.06
484.463	95.06
484.681	101.06
484.9	76.06
485.118	98.06
485.336	96.06
485.554	87.06
485.772	113.06
485.99	112.06
486.209	96.06
486.427	109.06
486.645	115.06
486.863	121.06
487.081	122.06
487.299	103.06
487.517	121.06
487.735	105.06
487.953	91.06
488.171	98.06
488.389	100.06
488.607	99.06
488.825	81.06
489.043	104.06
489.261	92.06
489.479	87.06
489.696	104.06
489.914	95.06
490.132	92.06
490.35	103.06
490.568	84.06
490.786	95.06
491.003	92.06
491.221	88.06
491.439	97.06
491.657	103.06
491.874	90.06
492.092	101.06
492.31	91.06
492.527	97.06
492.745	110.06
492.963	111.06
493.18	87.06
493.398	97.06
493.615	106.06
493.833	92.06
494.05	103.06
494.268	85.06
494.485	83.06
494.703	91.06
494.92	104.06
495.138	99.06
495.355	98.06
495.573	104.06
495.79	97.06
496.008	87.06
496.225	102.06
496.442	106.06
496.66	98.06
496.877	84.06
497.094	75.06
497.312	88.06
497.529	103.06
497.746	89.06
497.963	96.06
498.181	93.06
498.398	101.06
498.615	129.06
498.832	132.06
499.049	99.06
499.267	101.06
499.484	87.06
499.701	93.06
499.918	91.06
500.135	94.06
500.352	92.06
500.569	98.06
500.786	94.06
501.003	101.06
501.22	91.06
501.437	90.06
501.654	100.06
501.871	127.06
502.088	97.06
502.305	90.06
502.522	87.06
502.739	92.06
502.956	87.06
503.172	95.06
503.389	103.06
503.606	130.06
503.823	105.06
504.04	80.06
504.256	89.06
504.473	102.06
504.69	96.06
504.907	93.06
505.123	93.06
505.34	94.06
505.557	84.06
505.773	84.06
505.99	90.06
506.207	88.06
506.423	104.06
506.64	93.06
506.856	98.06
507.073	87.06
507.289	111.06
507.506	106.06
507.722	133.06
507.939	132.06
508.155	95.06
508.372	103.06
508.588	92.06
508.805	87.06
509.021	114.06
509.238	112.06
509.454	105.06
509.67	111.06
509.887	127.06
510.103	148.06
510.319	269.06
510.536	977.06
510.752	3467.06
510.968	919.06
511.184	202.06
511.401	129.06
511.617	123.06
511.833	114.06
512.049	99.06
512.265	95.06
512.481	99.06
512.698	100.06
512.914	113.06
513.13	107.06
513.346	94.06
513.562	110.06
513.778	119.06
513.994	111.06
514.21	128.06
514.426	151.06
514.642	213.06
514.858	162.06
515.074	245.06
515.29	793.06
515.506	3007.06
515.721	1069.06
515.937	250.06
516.153	157.06
516.369	97.06
516.585	93.06
516.801	122.06
517.016	104.06
517.232	100.06
517.448	103.06
517.664	103.06
517.879	105.06
518.095	110.06
518.311	113.06
518.527	120.06
518.742	90.06
518.958	87.06
519.173	82.06
519.389	90.06
519.605	104.06
519.82	98.06
520.036	121.06
520.251	174.06
520.467	152.06
520.682	120.06
520.898	145.06
521.113	151.06
521.329	197.06
521.544	324.06
521.76	1064.06
521.975	4976.06
522.19	2921.06
522.406	585.06
522.621	187.06
522.836	131.06
523.052	100.06
523.267	105.06
523.482	97.06
523.698	124.06
523.913	153.06
524.128	134.06
524.343	103.06
524.559	97.06
524.774	88.06
524.989	98.06
525.204	133.06
525.419	114.06
525.634	92.06
525.849	79.06
526.064	91.06
526.28	92.06
526.495	73.06
526.71	91.06
526.925	101.06
527.14	89.06
527.355	82.06
527.57	96.06
527.785	91.06
527.999	100.06
528.214	99.06
528.429	99.06
528.644	116.06
528.859	101.06
529.074	97.06
529.289	160.06
529.503	321.06
529.718	126.06
529.933	99.06
530.148	88.06
530.363	78.06
530.577	92.06
530.792	99.06
531.007	79.06
531.221	105.06
531.436	91.06
531.651	92.06
531.865	98.06
532.08	85.06
532.295	77.06
532.509	89.06
532.724	99.06
532.938	96.06
533.153	92.06
533.367	94.06
533.582	95.06
533.796	73.06
534.011	99.06
534.225	92.06
534.44	91.06
534.654	87.06
534.868	87.06
535.083	102.06
535.297	93.06
535.511	127.06
535.726	103.06
535.94	99.06
536.154	93.06
536.369	92.06
536.583	103.06
536.797	99.06
537.011	93.06
537.225	93.06
537.44	88.06
537.654	81.06
537.868	97.06
538.082	99.06
538.296	114.06
538.51	91.06
538.724	87.06
538.938	96.06
539.153	109.06
539.367	131.06
539.581	109.06
539.795	93.06
540.009	82.06
540.222	83.06
540.436	91.06
540.65	95.06
540.864	106.06
541.078	109.06
541.292	92.06
541.506	89.06
541.72	93.06
541.934	93.06
542.147	93.06
542.361	74.06
542.575	87.06
542.789	87.06
543.002	102.06
543.216	106.06
543.43	112.06
543.644	89.06
543.857	89.06
544.071	92.06
544.285	105.06
544.498	91.06
544.712	98.06
544.925	105.06
545.139	85.06
545.352	77.06
545.566	85.06
545.779	84.06
545.993	110.06
546.206	90.06
546.42	70.06
546.633	73.06
546.847	82.06
547.06	88.06
547.274	92.06
547.487	81.06
547.7	77.06
547.914	79.06
548.127	94.06
548.34	85.06
548.554	82.06
548.767	77.06
548.98	88.06
549.193	77.06
549.407	86.06
549.62	90.06
549.833	100.06
550.046	86.06
550.259	87.06
550.473	92.06
550.686	105.06
550.899	102.06
551.112	89.06
551.325	93.06
551.538	107.06
551.751	100.06
551.964	87.06
552.177	98.06
552.39	96.06
552.603	93.06
552.816	87.06
553.029	90.06
553.242	97.06
553.455	104.06
553.667	123.06
553.88	128.06
554.093	117.06
554.306	117.06
554.519	119.06
554.732	90.06
554.944	88.06
555.157	108.06
555.37	87.06
555.583	97.06
555.795	103.06
556.008	98.06
556.221	87.06
556.433	87.06
556.646	84.06
556.859	90.06
557.071	95.06
557.284	87.06
557.496	89.06
557.709	93.06
557.921	89.06
558.134	102.06
558.346	86.06
558.559	103.06
558.771	98.06
558.984	94.06
559.196	83.06
559.409	78.06
559.621	88.06
559.833	102.06
560.046	94.06
560.258	109.06
560.47	146.06
560.683	95.06
560.895	105.06
561.107	104.06
561.32	86.06
561.532	87.06
561.744	99.06
561.956	92.06
562.168	95.06
562.381	110.06
562.593	95.06
562.805	101.06
563.017	88.06
563.229	80.06
563.441	91.06
563.653	91.06
563.865	97.06
564.077	91.06
564.289	93.06
564.501	99.06
564.713	92.06
564.925	94.06
565.137	124.06
565.349	103.06
565.561	91.06
565.773	87.06
565.985	92.06
566.197	91.06
566.408	83.06
566.62	92.06
566.832	93.06
567.044	91.06
567.255	73.06
567.467	103.06
567.679	88.06
567.891	93.06
568.102	88.06
568.314	88.06
568.526	76.06
568.737	80.06
568.949	88.06
569.161	97.06
569.372	83.06
569.584	88.06
569.795	85.06
570.007	117.06
570.218	306.06
570.43	170.06
570.641	98.06
570.853	83.06
571.064	92.06
571.276	81.06
571.487	75.06
571.698	84.06
571.91	98.06
572.121	91.06
572.333	83.06
572.544	91.06
572.755	92.06
572.966	84.06
573.178	90.06
573.389	93.06
573.6	90.06
573.811	87.06
574.023	79.06
574.234	82.06
574.445	84.06
574.656	96.06
574.867	92.06
575.078	89.06
575.289	80.06
575.501	88.06
575.712	82.06
575.923	103.06
576.134	81.06
576.345	90.06
576.556	79.06
576.767	94.06
576.978	97.06
577.188	98.06
577.399	87.06
577.61	103.06
577.821	111.06
578.032	145.06
578.243	337.06
578.454	1049.06
578.665	283.06
578.875	98.06
579.086	95.06
579.297	90.06
579.508	89.06
579.718	91.06
579.929	88.06
580.14	91.06
580.35	84.06
580.561	76.06
580.772	95.06
580.982	86.06
581.193	92.06
581.403	85.06
581.614	92.06
581.825	82.06
582.035	84.06
582.246	75.06
582.456	88.06
582.667	85.06
582.877	87.06
583.087	96.06
583.298	98.06
583.508	89.06
583.719	79.06
583.929	88.06
584.139	94.06
584.35	87.06
584.56	81.06
584.77	95.06
584.981	94.06
585.191	90.06
585.401	86.06
585.611	89.06
585.821	81.06
586.032	94.06
586.242	79.06
586.452	88.06
586.662	77.06
586.872	98.06
587.082	85.06
587.292	92.06
587.502	88.06
587.713	89.06
587.923	87.06
588.133	87.06
588.343	104.06
588.553	94.06
588.762	101.06
588.972	96.06
589.182	194.06
589.392	132.06
589.602	116.06
589.812	148.06
590.022	114.06
590.232	100.06
590.441	89.06
590.651	89.06
590.861	106.06
591.071	99.06
591.281	93.06
591.49	97.06
591.7	82.06
591.91	80.06
592.119	84.06
592.329	93.06
592.539	90.06
592.748	85.06
592.958	85.06
593.167	93.06
593.377	82.06
593.587	93.06
593.796	84.06
594.006	74.06
594.215	93.06
594.424	72.06
594.634	75.06
594.843	99.06
595.053	83.06
595.262	81.06
595.472	73.06
595.681	97.06
595.89	90.06
596.1	105.06
596.309	86.06
596.518	95.06
596.727	97.06
596.937	98.06
597.146	89.06
597.355	94.06
597.564	93.06
597.774	101.06
597.983	82.06
598.192	91.06
598.401	84.06
598.61	80.06
598.819	80.06
599.028	79.06
599.237	80.06
599.446	74.06
599.655	86.06
599.864	98.06
600.073	105.06
600.282	97.06
600.491	80.06
600.7	99.06
600.909	87.06
601.118	85.06
601.327	96.06
601.536	93.06
601.745	96.06
601.953	89.06
602.162	96.06
602.371	86.06
602.58	85.06
602.789	90.06
602.997	92.06
603.206	80.06
603.415	103.06
603.623	81.06
603.832	97.06
604.041	96.06
604.249	79.06
604.458	92.06
604.666	88.06
604.875	94.06
605.084	94.06
605.292	82.06
605.501	88.06
605.709	79.06
605.918	78.06
606.126	87.06
606.334	88.06
606.543	95.06
606.751	84.06
606.96	89.06
607.168	91.06
607.376	89.06
607.585	85.06
607.793	90.06
608.001	79.06
608.21	64.06
608.418	86.06
608.626	68.06
608.834	103.06
609.043	96.06
609.251	71.06
609.459	88.06
609.667	77.06
609.875	93.06
610.083	85.06
610.291	94.06
610.499	89.06
610.707	81.06
610.916	88.06
611.124	88.06
611.332	83.06
611.54	77.06
611.748	82.06
611.955	83.06
612.163	92.06
612.371	88.06
612.579	85.06
612.787	105.06
612.995	98.06
613.203	101.06
613.411	84.06
613.618	90.06
613.826	92.06
614.034	80.06
614.242	100.06
614.449	84.06
614.657	96.06
614.865	102.06
615.072	82.06
615.28	92.06
615.488	86.06
615.695	100.06
615.903	77.06
616.111	94.06
616.318	101.06
616.526	87.06
616.733	99.06
616.941	91.06
617.148	92.06
617.356	78.06
617.563	80.06
617.771	92.06
617.978	83.06
618.185	96.06
618.393	91.06
618.6	95.06
618.807	92.06
619.015	87.06
619.222	85.06
619.429	98.06
619.637	97.06
619.844	93.06
620.051	90.06
620.258	90.06
620.466	73.06
620.673	80.06
620.88	83.06
621.087	82.06
621.294	87.06
621.501	83.06
621.708	83.06
621.915	99.06
622.122	85.06
622.329	89.06
622.536	87.06
622.743	73.06
622.95	98.06
623.157	83.06
623.364	80.06
623.571	96.06
623.778	77.06
623.985	98.06
624.192	89.06
624.399	84.06
624.606	84.06
624.812	95.06
625.019	82.06
625.226	92.06
625.433	88.06
625.639	87.06
625.846	83.06
626.053	76.06
626.259	84.06
626.466	89.06
626.673	94.06
626.879	85.06
627.086	79.06
627.293	81.06
627.499	79.06
627.706	87.06
627.912	89.06
628.119	83.06
628.325	91.06
628.532	81.06
628.738	80.06
628.945	69.06
629.151	92.06
629.357	91.06
629.564	104.06
629.77	84.06
629.976	99.06
630.183	81.06
630.389	61.06
630.595	87.06
630.802	84.06
631.008	81.06
631.214	84.06
631.42	78.06
631.627	88.06
631.833	84.06
632.039	77.06
632.245	84.06
632.451	90.06
632.657	92.06
632.863	91.06
633.069	81.06
633.275	78.06
633.481	89.06
633.688	86.06
633.893	87.06
634.099	92.06
634.305	109.06
634.511	104.06
634.717	90.06
634.923	87.06
635.129	94.06
635.335	95.06
635.541	92.06
635.747	100.06
635.952	96.06
636.158	161.06
636.364	476.06
636.57	409.06
636.775	155.06
636.981	97.06
637.187	91.06
637.392	86.06
637.598	76.06
637.804	87.06
638.009	80.06
638.215	91.06
638.421	81.06
638.626	89.06
638.832	91.06
639.037	84.06
639.243	72.06
639.448	95.06
639.654	78.06
639.859	79.06
640.065	83.06
640.27	93.06
640.475	92.06
640.681	87.06
640.886	92.06
641.091	91.06
641.297	77.06
641.502	90.06
641.707	87.06
641.913	100.06
642.118	98.06
642.323	102.06
642.528	95.06
642.733	87.06
642.939	76.06
643.144	104.06
643.349	74.06
643.554	92.06
643.759	96.06
643.964	87.06
644.169	88.06
644.374	81.06
644.579	63.06
644.784	99.06
644.989	104.06
645.194	84.06
645.399	92.06
645.604	95.06
645.809	83.06
646.014	77.06
646.219	72.06
646.423	84.06
646.628	84.06
646.833	81.06
647.038	77.06
647.243	90.06
647.447	83.06
647.652	82.06
647.857	89.06
648.062	79.06
648.266	90.06
648.471	93.06
648.676	107.06
648.88	105.06
649.085	81.06
649.289	84.06
649.494	112.06
649.698	169.06
649.903	100.06
650.107	89.06
650.312	93.06
650.516	90.06
650.721	92.06
650.925	66.06
651.13	84.06
651.334	79.06
651.539	79.06
651.743	82.06
651.947	86.06
652.152	86.06
652.356	97.06
652.56	91.06
652.764	91.06
652.969	83.06
653.173	66.06
653.377	77.06
653.581	83.06
653.785	74.06
653.99	99.06
654.194	84.06
654.398	98.06
654.602	88.06
654.806	91.06
655.01	116.06
655.214	95.06
655.418	95.06
655.622	95.06
655.826	102.06
656.03	68.06
656.234	90.06
656.438	92.06
656.642	102.06
656.846	89.06
657.049	80.06
657.253	87.06
657.457	76.06
657.661	63.06
657.865	82.06
658.068	77.06
658.272	88.06
658.476	76.06
658.68	79.06
658.883	94.06
659.087	66.06
659.291	90.06
659.494	81.06
659.698	71.06
659.901	80.06
660.105	73.06
660.309	79.06
660.512	85.06
660.716	88.06
660.919	79.06
661.123	85.06
661.326	88.06
661.53	91.06
661.733	105.06
661.936	91.06
662.14	75.06
662.343	74.06
662.546	88.06
662.75	82.06
662.953	65.06
663.156	89.06
663.36	75.06
663.563	82.06
663.766	64.06
663.969	79.06
664.173	84.06
664.376	90.06
664.579	95.06
664.782	87.06
664.985	71.06
665.188	90.06
665.391	89.06
665.594	91.06
665.797	57.06
666	80.06
666.203	89.06
666.406	81.06
666.609	87.06
666.812	80.06
667.015	95.06
667.218	72.06
667.421	81.06
667.624	90.06
667.827	92.06
668.03	76.06
668.232	68.06
668.435	78.06
668.638	94.06
668.841	91.06
669.043	81.06
669.246	94.06
669.449	80.06
669.651	88.06
669.854	68.06
670.057	83.06
670.259	75.06
670.462	79.06
670.665	83.06
670.867	83.06
671.07	83.06
671.272	84.06
671.475	80.06
671.677	81.06
671.88	69.06
672.082	84.06
672.284	75.06
672.487	78.06
672.689	83.06
672.892	78.06
