Data from Circ_1995_H10_HRD10591_00067.txt Node
Date: Wed Jan 03 11:37:00 EST 2024
User: Yrep
Spectrometer: HR+D1059
Trigger mode: 1
Integration Time (sec): 1.000000E-1
Scans to average: 1
Electric dark correction enabled: true
Nonlinearity correction enabled: false
Boxcar width: 0
XAxis mode: Wavelengths
Number of Pixels in Spectrum: 2048
>>>>>Begin Spectral Data<<<<<
223.165	-3.62
223.4	-3.62
223.635	-3.62
223.869	-31.62
224.104	-17.62
224.338	-25.62
224.573	-27.62
224.808	-17.62
225.042	-13.62
225.277	-7.62
225.511	10.38
225.746	7.38
225.98	3.38
226.215	16.38
226.449	17.38
226.683	26.38
226.918	28.38
227.152	35.38
227.387	46.38
227.621	43.38
227.856	61.38
228.09	50.38
228.324	52.38
228.559	56.38
228.793	31.38
229.027	65.38
229.262	59.38
229.496	71.38
229.73	107.38
229.964	100.38
230.199	64.38
230.433	80.38
230.667	83.38
230.901	74.38
231.136	75.38
231.37	64.38
231.604	79.38
231.838	90.38
232.072	85.38
232.306	89.38
232.541	83.38
232.775	97.38
233.009	85.38
233.243	79.38
233.477	92.38
233.711	75.38
233.945	87.38
234.179	83.38
234.413	80.38
234.647	83.38
234.881	101.38
235.115	65.38
235.349	77.38
235.583	82.38
235.817	85.38
236.051	77.38
236.285	91.38
236.519	74.38
236.753	74.38
236.987	93.38
237.221	87.38
237.455	91.38
237.689	84.38
237.922	79.38
238.156	80.38
238.39	96.38
238.624	73.38
238.858	63.38
239.091	87.38
239.325	98.38
239.559	96.38
239.793	78.38
240.027	88.38
240.26	81.38
240.494	82.38
240.728	83.38
240.961	79.38
241.195	66.38
241.429	77.38
241.662	78.38
241.896	69.38
242.13	81.38
242.363	78.38
242.597	76.38
242.83	89.38
243.064	92.38
243.298	81.38
243.531	75.38
243.765	83.38
243.998	89.38
244.232	79.38
244.465	88.38
244.699	89.38
244.932	85.38
245.166	87.38
245.399	85.38
245.633	82.38
245.866	68.38
246.099	75.38
246.333	96.38
246.566	87.38
246.8	81.38
247.033	94.38
247.266	70.38
247.5	79.38
247.733	83.38
247.966	77.38
248.2	89.38
248.433	95.38
248.666	80.38
248.899	85.38
249.133	86.38
249.366	101.38
249.599	105.38
249.832	83.38
250.066	77.38
250.299	97.38
250.532	95.38
250.765	93.38
250.998	78.38
251.231	75.38
251.465	97.38
251.698	89.38
251.931	98.38
252.164	87.38
252.397	78.38
252.63	94.38
252.863	80.38
253.096	73.38
253.329	78.38
253.562	78.38
253.795	85.38
254.028	93.38
254.261	89.38
254.494	77.38
254.727	91.38
254.96	103.38
255.193	90.38
255.426	81.38
255.659	102.38
255.892	97.38
256.124	112.38
256.357	96.38
256.59	87.38
256.823	97.38
257.056	87.38
257.289	78.38
257.521	98.38
257.754	82.38
257.987	102.38
258.22	104.38
258.452	105.38
258.685	108.38
258.918	74.38
259.151	95.38
259.383	84.38
259.616	80.38
259.849	102.38
260.081	87.38
260.314	95.38
260.547	92.38
260.779	89.38
261.012	114.38
261.244	127.38
261.477	105.38
261.71	103.38
261.942	132.38
262.175	160.38
262.407	104.38
262.64	102.38
262.872	89.38
263.105	100.38
263.337	88.38
263.57	105.38
263.802	87.38
264.035	88.38
264.267	95.38
264.499	90.38
264.732	89.38
264.964	78.38
265.197	91.38
265.429	94.38
265.661	93.38
265.894	76.38
266.126	103.38
266.358	89.38
266.591	100.38
266.823	93.38
267.055	88.38
267.287	81.38
267.52	80.38
267.752	90.38
267.984	95.38
268.216	94.38
268.448	99.38
268.681	97.38
268.913	86.38
269.145	88.38
269.377	81.38
269.609	83.38
269.841	89.38
270.073	71.38
270.306	76.38
270.538	90.38
270.77	96.38
271.002	96.38
271.234	94.38
271.466	105.38
271.698	105.38
271.93	86.38
272.162	83.38
272.394	101.38
272.626	108.38
272.858	84.38
273.09	106.38
273.322	87.38
273.553	73.38
273.785	75.38
274.017	96.38
274.249	92.38
274.481	95.38
274.713	77.38
274.945	91.38
275.176	88.38
275.408	107.38
275.64	123.38
275.872	146.38
276.104	112.38
276.335	106.38
276.567	125.38
276.799	162.38
277.031	219.38
277.262	262.38
277.494	185.38
277.726	107.38
277.957	103.38
278.189	94.38
278.421	97.38
278.652	78.38
278.884	89.38
279.115	96.38
279.347	94.38
279.579	111.38
279.81	162.38
280.042	253.38
280.273	370.38
280.505	248.38
280.736	129.38
280.968	96.38
281.199	82.38
281.431	95.38
281.662	85.38
281.894	99.38
282.125	91.38
282.356	137.38
282.588	184.38
282.819	145.38
283.051	87.38
283.282	83.38
283.513	98.38
283.745	101.38
283.976	95.38
284.207	85.38
284.439	81.38
284.67	85.38
284.901	90.38
285.132	92.38
285.364	95.38
285.595	90.38
285.826	91.38
286.057	78.38
286.288	72.38
286.52	89.38
286.751	78.38
286.982	90.38
287.213	100.38
287.444	83.38
287.675	89.38
287.906	100.38
288.138	86.38
288.369	81.38
288.6	103.38
288.831	80.38
289.062	97.38
289.293	85.38
289.524	91.38
289.755	93.38
289.986	80.38
290.217	87.38
290.448	85.38
290.679	90.38
290.91	99.38
291.141	101.38
291.371	79.38
291.602	90.38
291.833	92.38
292.064	76.38
292.295	87.38
292.526	86.38
292.757	96.38
292.987	100.38
293.218	96.38
293.449	79.38
293.68	85.38
293.91	76.38
294.141	77.38
294.372	104.38
294.603	106.38
294.833	84.38
295.064	95.38
295.295	80.38
295.525	101.38
295.756	112.38
295.987	147.38
296.217	181.38
296.448	156.38
296.679	105.38
296.909	104.38
297.14	104.38
297.37	97.38
297.601	88.38
297.831	90.38
298.062	98.38
298.292	101.38
298.523	84.38
298.753	99.38
298.984	95.38
299.214	90.38
299.445	90.38
299.675	108.38
299.905	105.38
300.136	98.38
300.366	94.38
300.597	79.38
300.827	104.38
301.057	99.38
301.288	128.38
301.518	115.38
301.748	104.38
301.979	127.38
302.209	112.38
302.439	97.38
302.669	86.38
302.9	94.38
303.13	101.38
303.36	121.38
303.59	155.38
303.82	175.38
304.051	109.38
304.281	94.38
304.511	99.38
304.741	87.38
304.971	102.38
305.201	103.38
305.431	89.38
305.661	91.38
305.891	80.38
306.121	106.38
306.352	121.38
306.582	139.38
306.812	137.38
307.042	159.38
307.272	191.38
307.502	211.38
307.731	210.38
307.961	139.38
308.191	114.38
308.421	101.38
308.651	83.38
308.881	105.38
309.111	121.38
309.341	93.38
309.571	104.38
309.8	116.38
310.03	99.38
310.26	115.38
310.49	109.38
310.72	117.38
310.949	126.38
311.179	121.38
311.409	111.38
311.639	117.38
311.868	105.38
312.098	100.38
312.328	108.38
312.557	143.38
312.787	147.38
313.017	137.38
313.246	106.38
313.476	107.38
313.706	91.38
313.935	104.38
314.165	121.38
314.394	119.38
314.624	124.38
314.853	115.38
315.083	102.38
315.312	96.38
315.542	106.38
315.771	101.38
316.001	87.38
316.23	102.38
316.46	100.38
316.689	93.38
316.919	96.38
317.148	100.38
317.377	100.38
317.607	110.38
317.836	113.38
318.065	99.38
318.295	104.38
318.524	94.38
318.753	99.38
318.983	98.38
319.212	95.38
319.441	133.38
319.67	123.38
319.9	109.38
320.129	107.38
320.358	89.38
320.587	105.38
320.816	107.38
321.046	121.38
321.275	113.38
321.504	112.38
321.733	118.38
321.962	95.38
322.191	107.38
322.42	121.38
322.649	120.38
322.878	130.38
323.108	139.38
323.337	147.38
323.566	156.38
323.795	207.38
324.024	271.38
324.253	544.38
324.482	1200.38
324.71	2414.38
324.939	3326.38
325.168	1187.38
325.397	339.38
325.626	195.38
325.855	160.38
326.084	135.38
326.313	155.38
326.542	200.38
326.77	307.38
326.999	585.38
327.228	1252.38
327.457	2351.38
327.686	1895.38
327.914	679.38
328.143	708.38
328.372	943.38
328.6	516.38
328.829	211.38
329.058	235.38
329.287	242.38
329.515	190.38
329.744	306.38
329.972	641.38
330.201	1423.38
330.43	2168.38
330.658	911.38
330.887	377.38
331.115	234.38
331.344	135.38
331.572	119.38
331.801	136.38
332.03	135.38
332.258	141.38
332.486	115.38
332.715	135.38
332.943	132.38
333.172	124.38
333.4	144.38
333.629	203.38
333.857	287.38
334.085	583.38
334.314	1275.38
334.542	2560.38
334.771	2479.38
334.999	603.38
335.227	233.38
335.455	155.38
335.684	120.38
335.912	110.38
336.14	118.38
336.369	118.38
336.597	118.38
336.825	108.38
337.053	95.38
337.281	97.38
337.51	112.38
337.738	101.38
337.966	106.38
338.194	113.38
338.422	101.38
338.65	96.38
338.878	95.38
339.106	98.38
339.334	99.38
339.562	83.38
339.79	107.38
340.018	92.38
340.246	108.38
340.474	121.38
340.702	96.38
340.93	88.38
341.158	108.38
341.386	108.38
341.614	112.38
341.842	97.38
342.07	89.38
342.298	95.38
342.526	99.38
342.754	93.38
342.981	104.38
343.209	82.38
343.437	104.38
343.665	93.38
343.893	77.38
344.12	95.38
344.348	105.38
344.576	97.38
344.804	101.38
345.031	112.38
345.259	128.38
345.487	98.38
345.714	107.38
345.942	110.38
346.17	107.38
346.397	88.38
346.625	98.38
346.853	98.38
347.08	90.38
347.308	104.38
347.535	109.38
347.763	121.38
347.99	111.38
348.218	119.38
348.445	122.38
348.673	120.38
348.9	108.38
349.128	103.38
349.355	112.38
349.583	94.38
349.81	91.38
350.037	97.38
350.265	103.38
350.492	101.38
350.72	105.38
350.947	113.38
351.174	131.38
351.402	129.38
351.629	125.38
351.856	118.38
352.083	125.38
352.311	112.38
352.538	124.38
352.765	144.38
352.992	130.38
353.22	133.38
353.447	115.38
353.674	102.38
353.901	93.38
354.128	91.38
354.355	91.38
354.583	101.38
354.81	102.38
355.037	93.38
355.264	88.38
355.491	94.38
355.718	88.38
355.945	87.38
356.172	95.38
356.399	81.38
356.626	92.38
356.853	100.38
357.08	85.38
357.307	96.38
357.534	83.38
357.761	99.38
357.988	85.38
358.215	85.38
358.441	82.38
358.668	89.38
358.895	107.38
359.122	82.38
359.349	107.38
359.576	106.38
359.802	125.38
360.029	152.38
360.256	156.38
360.483	121.38
360.709	85.38
360.936	115.38
361.163	102.38
361.39	107.38
361.616	97.38
361.843	98.38
362.07	112.38
362.296	111.38
362.523	112.38
362.749	110.38
362.976	101.38
363.203	110.38
363.429	108.38
363.656	83.38
363.882	90.38
364.109	88.38
364.335	104.38
364.562	110.38
364.788	109.38
365.015	89.38
365.241	119.38
365.468	133.38
365.694	132.38
365.92	116.38
366.147	94.38
366.373	106.38
366.599	87.38
366.826	97.38
367.052	98.38
367.278	97.38
367.505	99.38
367.731	80.38
367.957	101.38
368.184	101.38
368.41	103.38
368.636	126.38
368.862	133.38
369.089	121.38
369.315	112.38
369.541	100.38
369.767	87.38
369.993	93.38
370.219	107.38
370.445	96.38
370.672	96.38
370.898	84.38
371.124	97.38
371.35	92.38
371.576	97.38
371.802	79.38
372.028	89.38
372.254	96.38
372.48	87.38
372.706	95.38
372.932	101.38
373.158	101.38
373.384	81.38
373.61	77.38
373.835	88.38
374.061	99.38
374.287	76.38
374.513	92.38
374.739	94.38
374.965	97.38
375.191	86.38
375.416	93.38
375.642	98.38
375.868	91.38
376.094	87.38
376.319	90.38
376.545	97.38
376.771	99.38
376.997	98.38
377.222	88.38
377.448	92.38
377.674	91.38
377.899	93.38
378.125	96.38
378.35	96.38
378.576	92.38
378.802	98.38
379.027	102.38
379.253	96.38
379.478	87.38
379.704	95.38
379.929	91.38
380.155	92.38
380.38	100.38
380.606	94.38
380.831	92.38
381.057	97.38
381.282	97.38
381.507	90.38
381.733	97.38
381.958	77.38
382.184	109.38
382.409	97.38
382.634	117.38
382.86	93.38
383.085	107.38
383.31	100.38
383.535	96.38
383.761	112.38
383.986	108.38
384.211	108.38
384.436	96.38
384.662	104.38
384.887	118.38
385.112	107.38
385.337	108.38
385.562	99.38
385.787	115.38
386.013	123.38
386.238	127.38
386.463	106.38
386.688	104.38
386.913	103.38
387.138	103.38
387.363	104.38
387.588	107.38
387.813	87.38
388.038	102.38
388.263	98.38
388.488	101.38
388.713	98.38
388.938	100.38
389.163	92.38
389.387	82.38
389.612	80.38
389.837	84.38
390.062	94.38
390.287	102.38
390.512	87.38
390.736	109.38
390.961	97.38
391.186	103.38
391.411	98.38
391.636	78.38
391.86	75.38
392.085	88.38
392.31	88.38
392.534	85.38
392.759	95.38
392.984	80.38
393.208	101.38
393.433	87.38
393.658	92.38
393.882	80.38
394.107	87.38
394.331	97.38
394.556	87.38
394.78	84.38
395.005	81.38
395.229	94.38
395.454	93.38
395.678	99.38
395.903	93.38
396.127	103.38
396.352	92.38
396.576	85.38
396.801	91.38
397.025	102.38
397.249	88.38
397.474	90.38
397.698	99.38
397.922	100.38
398.147	83.38
398.371	96.38
398.595	97.38
398.82	91.38
399.044	78.38
399.268	75.38
399.492	89.38
399.717	89.38
399.941	88.38
400.165	97.38
400.389	95.38
400.613	108.38
400.837	101.38
401.062	92.38
401.286	95.38
401.51	83.38
401.734	92.38
401.958	127.38
402.182	155.38
402.406	237.38
402.63	159.38
402.854	115.38
403.078	93.38
403.302	88.38
403.526	105.38
403.75	87.38
403.974	90.38
404.198	91.38
404.422	98.38
404.645	100.38
404.869	114.38
405.093	119.38
405.317	155.38
405.541	144.38
405.765	130.38
405.988	153.38
406.212	239.38
406.436	355.38
406.66	262.38
406.883	132.38
407.107	106.38
407.331	99.38
407.555	111.38
407.778	113.38
408.002	89.38
408.226	99.38
408.449	115.38
408.673	109.38
408.896	98.38
409.12	112.38
409.344	81.38
409.567	87.38
409.791	96.38
410.014	103.38
410.238	89.38
410.461	86.38
410.685	92.38
410.908	97.38
411.132	132.38
411.355	107.38
411.578	103.38
411.802	96.38
412.025	94.38
412.249	102.38
412.472	125.38
412.695	161.38
412.919	128.38
413.142	98.38
413.365	92.38
413.589	92.38
413.812	98.38
414.035	107.38
414.258	100.38
414.482	107.38
414.705	87.38
414.928	95.38
415.151	87.38
415.374	96.38
415.597	82.38
415.821	90.38
416.044	96.38
416.267	101.38
416.49	96.38
416.713	79.38
416.936	76.38
417.159	98.38
417.382	106.38
417.605	113.38
417.828	110.38
418.051	101.38
418.274	92.38
418.497	94.38
418.72	107.38
418.943	78.38
419.166	75.38
419.389	90.38
419.611	88.38
419.834	96.38
420.057	102.38
420.28	100.38
420.503	100.38
420.726	89.38
420.948	100.38
421.171	120.38
421.394	103.38
421.617	95.38
421.839	97.38
422.062	96.38
422.285	105.38
422.507	109.38
422.73	98.38
422.953	84.38
423.175	100.38
423.398	87.38
423.621	89.38
423.843	97.38
424.066	88.38
424.288	80.38
424.511	103.38
424.733	122.38
424.956	113.38
425.178	116.38
425.401	115.38
425.623	111.38
425.846	108.38
426.068	108.38
426.291	95.38
426.513	92.38
426.735	100.38
426.958	98.38
427.18	118.38
427.402	183.38
427.625	321.38
427.847	280.38
428.069	268.38
428.292	139.38
428.514	118.38
428.736	107.38
428.958	85.38
429.181	87.38
429.403	99.38
429.625	95.38
429.847	98.38
430.069	100.38
430.292	103.38
430.514	99.38
430.736	87.38
430.958	77.38
431.18	79.38
431.402	89.38
431.624	92.38
431.846	79.38
432.068	91.38
432.29	83.38
432.512	85.38
432.734	96.38
432.956	94.38
433.178	89.38
433.4	95.38
433.622	93.38
433.844	103.38
434.066	89.38
434.287	104.38
434.509	77.38
434.731	101.38
434.953	97.38
435.175	99.38
435.397	97.38
435.618	115.38
435.84	133.38
436.062	146.38
436.284	144.38
436.505	98.38
436.727	106.38
436.949	116.38
437.17	86.38
437.392	97.38
437.614	104.38
437.835	122.38
438.057	169.38
438.278	131.38
438.5	123.38
438.721	148.38
438.943	119.38
439.165	98.38
439.386	104.38
439.608	88.38
439.829	122.38
440.05	164.38
440.272	193.38
440.493	117.38
440.715	103.38
440.936	101.38
441.158	91.38
441.379	91.38
441.6	109.38
441.822	117.38
442.043	99.38
442.264	120.38
442.486	118.38
442.707	104.38
442.928	136.38
443.149	192.38
443.371	194.38
443.592	159.38
443.813	138.38
444.034	123.38
444.255	100.38
444.476	95.38
444.698	94.38
444.919	100.38
445.14	144.38
445.361	129.38
445.582	144.38
445.803	213.38
446.024	186.38
446.245	179.38
446.466	141.38
446.687	108.38
446.908	105.38
447.129	113.38
447.35	96.38
447.571	81.38
447.792	107.38
448.013	107.38
448.234	133.38
448.455	107.38
448.675	137.38
448.896	153.38
449.117	115.38
449.338	122.38
449.559	184.38
449.779	172.38
450	103.38
450.221	96.38
450.442	91.38
450.662	112.38
450.883	136.38
451.104	169.38
451.324	117.38
451.545	101.38
451.766	91.38
451.986	89.38
452.207	94.38
452.428	99.38
452.648	119.38
452.869	137.38
453.089	138.38
453.31	154.38
453.53	101.38
453.751	101.38
453.971	133.38
454.192	169.38
454.412	117.38
454.633	83.38
454.853	96.38
455.073	97.38
455.294	102.38
455.514	114.38
455.734	104.38
455.955	90.38
456.175	81.38
456.395	102.38
456.616	103.38
456.836	90.38
457.056	92.38
457.276	88.38
457.497	78.38
457.717	80.38
457.937	96.38
458.157	107.38
458.377	113.38
458.598	151.38
458.818	240.38
459.038	287.38
459.258	167.38
459.478	104.38
459.698	92.38
459.918	93.38
460.138	89.38
460.358	90.38
460.578	98.38
460.798	107.38
461.018	94.38
461.238	73.38
461.458	95.38
461.678	85.38
461.898	80.38
462.118	85.38
462.338	82.38
462.558	83.38
462.777	95.38
462.997	99.38
463.217	125.38
463.437	114.38
463.657	98.38
463.876	101.38
464.096	101.38
464.316	107.38
464.536	107.38
464.755	107.38
464.975	144.38
465.195	273.38
465.414	272.38
465.634	127.38
465.854	82.38
466.073	92.38
466.293	99.38
466.512	105.38
466.732	92.38
466.951	81.38
467.171	107.38
467.391	106.38
467.61	163.38
467.829	299.38
468.049	810.38
468.268	1290.38
468.488	301.38
468.707	126.38
468.927	117.38
469.146	95.38
469.365	81.38
469.585	97.38
469.804	104.38
470.023	114.38
470.243	116.38
470.462	121.38
470.681	151.38
470.901	117.38
471.12	120.38
471.339	110.38
471.558	137.38
471.777	176.38
471.997	384.38
472.216	1523.38
472.435	3731.38
472.654	836.38
472.873	209.38
473.092	133.38
473.311	115.38
473.53	92.38
473.749	100.38
473.968	108.38
474.187	133.38
474.406	120.38
474.625	101.38
474.844	99.38
475.063	95.38
475.282	95.38
475.501	81.38
475.72	112.38
475.939	92.38
476.158	85.38
476.377	106.38
476.596	94.38
476.814	101.38
477.033	116.38
477.252	102.38
477.471	101.38
477.69	107.38
477.908	96.38
478.127	98.38
478.346	105.38
478.564	90.38
478.783	106.38
479.002	115.38
479.22	106.38
479.439	141.38
479.658	164.38
479.876	155.38
480.095	135.38
480.313	166.38
480.532	191.38
480.751	353.38
480.969	1359.38
481.188	6075.38
481.406	3571.38
481.624	486.38
481.843	162.38
482.061	116.38
482.28	130.38
482.498	92.38
482.717	97.38
482.935	97.38
483.153	85.38
483.372	92.38
483.59	103.38
483.808	101.38
484.027	104.38
484.245	106.38
484.463	92.38
484.681	93.38
484.9	104.38
485.118	99.38
485.336	101.38
485.554	115.38
485.772	111.38
485.99	107.38
486.209	98.38
486.427	113.38
486.645	141.38
486.863	135.38
487.081	99.38
487.299	97.38
487.517	115.38
487.735	101.38
487.953	84.38
488.171	90.38
488.389	89.38
488.607	107.38
488.825	95.38
489.043	99.38
489.261	91.38
489.479	83.38
489.696	89.38
489.914	93.38
490.132	96.38
490.35	90.38
490.568	91.38
490.786	94.38
491.003	92.38
491.221	90.38
491.439	107.38
491.657	92.38
491.874	99.38
492.092	87.38
492.31	95.38
492.527	102.38
492.745	105.38
492.963	104.38
493.18	94.38
493.398	91.38
493.615	106.38
493.833	97.38
494.05	84.38
494.268	88.38
494.485	89.38
494.703	91.38
494.92	88.38
495.138	80.38
495.355	79.38
495.573	89.38
495.79	90.38
496.008	104.38
496.225	87.38
496.442	92.38
496.66	93.38
496.877	91.38
497.094	101.38
497.312	87.38
497.529	78.38
497.746	90.38
497.963	96.38
498.181	107.38
498.398	106.38
498.615	123.38
498.832	117.38
499.049	92.38
499.267	90.38
499.484	86.38
499.701	95.38
499.918	93.38
500.135	101.38
500.352	98.38
500.569	107.38
500.786	105.38
501.003	98.38
501.22	83.38
501.437	91.38
501.654	116.38
501.871	128.38
502.088	102.38
502.305	91.38
502.522	101.38
502.739	93.38
502.956	99.38
503.172	101.38
503.389	116.38
503.606	137.38
503.823	109.38
504.04	108.38
504.256	101.38
504.473	106.38
504.69	103.38
504.907	81.38
505.123	96.38
505.34	84.38
505.557	92.38
505.773	88.38
505.99	97.38
506.207	97.38
506.423	93.38
506.64	100.38
506.856	106.38
507.073	120.38
507.289	91.38
507.506	98.38
507.722	155.38
507.939	146.38
508.155	114.38
508.372	91.38
508.588	95.38
508.805	86.38
509.021	111.38
509.238	104.38
509.454	100.38
509.67	98.38
509.887	101.38
510.103	158.38
510.319	266.38
510.536	975.38
510.752	3527.38
510.968	965.38
511.184	191.38
511.401	147.38
511.617	125.38
511.833	131.38
512.049	112.38
512.265	87.38
512.481	109.38
512.698	112.38
512.914	98.38
513.13	95.38
513.346	101.38
513.562	105.38
513.778	114.38
513.994	106.38
514.21	123.38
514.426	158.38
514.642	197.38
514.858	178.38
515.074	257.38
515.29	846.38
515.506	3210.38
515.721	1108.38
515.937	248.38
516.153	154.38
516.369	115.38
516.585	126.38
516.801	111.38
517.016	116.38
517.232	100.38
517.448	111.38
517.664	100.38
517.879	108.38
518.095	88.38
518.311	113.38
518.527	126.38
518.742	88.38
518.958	95.38
519.173	104.38
519.389	106.38
519.605	113.38
519.82	108.38
520.036	117.38
520.251	161.38
520.467	156.38
520.682	131.38
520.898	131.38
521.113	159.38
521.329	218.38
521.544	342.38
521.76	1145.38
521.975	5329.38
522.19	3131.38
522.406	578.38
522.621	216.38
522.836	135.38
523.052	127.38
523.267	105.38
523.482	94.38
523.698	116.38
523.913	143.38
524.128	137.38
524.343	101.38
524.559	95.38
524.774	88.38
524.989	101.38
525.204	127.38
525.419	122.38
525.634	96.38
525.849	100.38
526.064	107.38
526.28	81.38
526.495	89.38
526.71	83.38
526.925	96.38
527.14	91.38
527.355	98.38
527.57	88.38
527.785	115.38
527.999	91.38
528.214	97.38
528.429	93.38
528.644	113.38
528.859	104.38
529.074	111.38
529.289	173.38
529.503	328.38
529.718	130.38
529.933	91.38
530.148	84.38
530.363	94.38
530.577	85.38
530.792	82.38
531.007	109.38
531.221	92.38
531.436	91.38
531.651	97.38
531.865	108.38
532.08	89.38
532.295	94.38
532.509	90.38
532.724	102.38
532.938	98.38
533.153	109.38
533.367	97.38
533.582	87.38
533.796	112.38
534.011	84.38
534.225	105.38
534.44	97.38
534.654	100.38
534.868	112.38
535.083	91.38
535.297	93.38
535.511	107.38
535.726	117.38
535.94	117.38
536.154	112.38
536.369	107.38
536.583	93.38
536.797	100.38
537.011	104.38
537.225	99.38
537.44	99.38
537.654	98.38
537.868	101.38
538.082	106.38
538.296	91.38
538.51	96.38
538.724	85.38
538.938	87.38
539.153	115.38
539.367	122.38
539.581	114.38
539.795	84.38
540.009	92.38
540.222	96.38
540.436	96.38
540.65	99.38
540.864	96.38
541.078	127.38
541.292	106.38
541.506	94.38
541.72	98.38
541.934	89.38
542.147	95.38
542.361	83.38
542.575	89.38
542.789	100.38
543.002	91.38
543.216	104.38
543.43	101.38
543.644	79.38
543.857	92.38
544.071	95.38
544.285	96.38
544.498	97.38
544.712	83.38
544.925	100.38
545.139	82.38
545.352	97.38
545.566	103.38
545.779	99.38
545.993	99.38
546.206	90.38
546.42	98.38
546.633	100.38
546.847	98.38
547.06	87.38
547.274	73.38
547.487	91.38
547.7	85.38
547.914	93.38
548.127	94.38
548.34	90.38
548.554	101.38
548.767	78.38
548.98	93.38
549.193	89.38
549.407	92.38
549.62	100.38
549.833	93.38
550.046	79.38
550.259	81.38
550.473	99.38
550.686	103.38
550.899	79.38
551.112	107.38
551.325	93.38
551.538	93.38
551.751	106.38
551.964	86.38
552.177	96.38
552.39	90.38
552.603	85.38
552.816	95.38
553.029	96.38
553.242	98.38
553.455	116.38
553.667	125.38
553.88	116.38
554.093	111.38
554.306	125.38
554.519	132.38
554.732	105.38
554.944	94.38
555.157	106.38
555.37	85.38
555.583	93.38
555.795	110.38
556.008	93.38
556.221	84.38
556.433	91.38
556.646	102.38
556.859	100.38
557.071	91.38
557.284	91.38
557.496	94.38
557.709	81.38
557.921	101.38
558.134	88.38
558.346	100.38
558.559	99.38
558.771	95.38
558.984	102.38
559.196	93.38
559.409	96.38
559.621	91.38
559.833	84.38
560.046	99.38
560.258	116.38
560.47	161.38
560.683	104.38
560.895	89.38
561.107	101.38
561.32	98.38
561.532	81.38
561.744	112.38
561.956	90.38
562.168	100.38
562.381	83.38
562.593	91.38
562.805	97.38
563.017	94.38
563.229	85.38
563.441	85.38
563.653	99.38
563.865	79.38
564.077	85.38
564.289	87.38
564.501	98.38
564.713	95.38
564.925	96.38
565.137	108.38
565.349	103.38
565.561	98.38
565.773	91.38
565.985	90.38
566.197	92.38
566.408	79.38
566.62	73.38
566.832	92.38
567.044	91.38
567.255	75.38
567.467	89.38
567.679	93.38
567.891	90.38
568.102	88.38
568.314	82.38
568.526	103.38
568.737	93.38
568.949	81.38
569.161	80.38
569.372	91.38
569.584	82.38
569.795	103.38
570.007	139.38
570.218	316.38
570.43	155.38
570.641	85.38
570.853	85.38
571.064	99.38
571.276	88.38
571.487	96.38
571.698	98.38
571.91	88.38
572.121	90.38
572.333	102.38
572.544	85.38
572.755	91.38
572.966	92.38
573.178	84.38
573.389	96.38
573.6	94.38
573.811	76.38
574.023	83.38
574.234	88.38
574.445	89.38
574.656	95.38
574.867	82.38
575.078	74.38
575.289	87.38
575.501	92.38
575.712	87.38
575.923	74.38
576.134	95.38
576.345	80.38
576.556	85.38
576.767	89.38
576.978	92.38
577.188	106.38
577.399	95.38
577.61	91.38
577.821	95.38
578.032	132.38
578.243	327.38
578.454	1097.38
578.665	273.38
578.875	106.38
579.086	103.38
579.297	93.38
579.508	77.38
579.718	91.38
579.929	103.38
580.14	87.38
580.35	89.38
580.561	90.38
580.772	96.38
580.982	86.38
581.193	90.38
581.403	79.38
581.614	87.38
581.825	85.38
582.035	76.38
582.246	111.38
582.456	93.38
582.667	77.38
582.877	104.38
583.087	91.38
583.298	88.38
583.508	90.38
583.719	87.38
583.929	83.38
584.139	76.38
584.35	93.38
584.56	100.38
584.77	87.38
584.981	84.38
585.191	88.38
585.401	93.38
585.611	94.38
585.821	88.38
586.032	87.38
586.242	99.38
586.452	88.38
586.662	83.38
586.872	92.38
587.082	89.38
587.292	99.38
587.502	92.38
587.713	92.38
587.923	89.38
588.133	98.38
588.343	96.38
588.553	80.38
588.762	93.38
588.972	109.38
589.182	161.38
589.392	110.38
589.602	93.38
589.812	129.38
590.022	91.38
590.232	108.38
590.441	82.38
590.651	82.38
590.861	100.38
591.071	83.38
591.281	81.38
591.49	95.38
591.7	97.38
591.91	99.38
592.119	97.38
592.329	94.38
592.539	99.38
592.748	95.38
592.958	96.38
593.167	92.38
593.377	96.38
593.587	93.38
593.796	93.38
594.006	104.38
594.215	90.38
594.424	94.38
594.634	91.38
594.843	65.38
595.053	95.38
595.262	91.38
595.472	85.38
595.681	102.38
595.89	91.38
596.1	80.38
596.309	97.38
596.518	87.38
596.727	92.38
596.937	84.38
597.146	84.38
597.355	81.38
597.564	75.38
597.774	84.38
597.983	89.38
598.192	81.38
598.401	80.38
598.61	82.38
598.819	90.38
599.028	81.38
599.237	93.38
599.446	86.38
599.655	79.38
599.864	93.38
600.073	76.38
600.282	94.38
600.491	83.38
600.7	98.38
600.909	93.38
601.118	97.38
601.327	87.38
601.536	97.38
601.745	95.38
601.953	95.38
602.162	89.38
602.371	87.38
602.58	96.38
602.789	83.38
602.997	95.38
603.206	80.38
603.415	87.38
603.623	85.38
603.832	89.38
604.041	83.38
604.249	82.38
604.458	76.38
604.666	79.38
604.875	90.38
605.084	77.38
605.292	91.38
605.501	84.38
605.709	83.38
605.918	92.38
606.126	95.38
606.334	84.38
606.543	87.38
606.751	80.38
606.96	84.38
607.168	105.38
607.376	104.38
607.585	77.38
607.793	78.38
608.001	81.38
608.21	75.38
608.418	91.38
608.626	83.38
608.834	85.38
609.043	87.38
609.251	86.38
609.459	70.38
609.667	99.38
609.875	83.38
610.083	77.38
610.291	92.38
610.499	93.38
610.707	73.38
610.916	71.38
611.124	82.38
611.332	81.38
611.54	89.38
611.748	84.38
611.955	89.38
612.163	102.38
612.371	79.38
612.579	100.38
612.787	105.38
612.995	92.38
613.203	89.38
613.411	82.38
613.618	87.38
613.826	89.38
614.034	92.38
614.242	84.38
614.449	98.38
614.657	84.38
614.865	90.38
615.072	80.38
615.28	83.38
615.488	73.38
615.695	93.38
615.903	99.38
616.111	89.38
616.318	107.38
616.526	96.38
616.733	87.38
616.941	83.38
617.148	79.38
617.356	97.38
617.563	100.38
617.771	83.38
617.978	75.38
618.185	78.38
618.393	105.38
618.6	92.38
618.807	91.38
619.015	94.38
619.222	82.38
619.429	90.38
619.637	85.38
619.844	99.38
620.051	85.38
620.258	84.38
620.466	83.38
620.673	79.38
620.88	92.38
621.087	90.38
621.294	88.38
621.501	88.38
621.708	87.38
621.915	88.38
622.122	79.38
622.329	98.38
622.536	89.38
622.743	80.38
622.95	87.38
623.157	100.38
623.364	99.38
623.571	100.38
623.778	77.38
623.985	73.38
624.192	101.38
624.399	87.38
624.606	91.38
624.812	79.38
625.019	96.38
625.226	81.38
625.433	84.38
625.639	90.38
625.846	85.38
626.053	79.38
626.259	92.38
626.466	95.38
626.673	87.38
626.879	83.38
627.086	88.38
627.293	83.38
627.499	81.38
627.706	80.38
627.912	86.38
628.119	88.38
628.325	102.38
628.532	102.38
628.738	91.38
628.945	85.38
629.151	87.38
629.357	82.38
629.564	97.38
629.77	89.38
629.976	98.38
630.183	83.38
630.389	76.38
630.595	80.38
630.802	84.38
631.008	68.38
631.214	86.38
631.42	81.38
631.627	92.38
631.833	79.38
632.039	100.38
632.245	88.38
632.451	82.38
632.657	87.38
632.863	87.38
633.069	67.38
633.275	90.38
633.481	79.38
633.688	93.38
633.893	89.38
634.099	84.38
634.305	82.38
634.511	86.38
634.717	71.38
634.923	91.38
635.129	98.38
635.335	86.38
635.541	98.38
635.747	107.38
635.952	114.38
636.158	183.38
636.364	539.38
636.57	475.38
636.775	171.38
636.981	85.38
637.187	111.38
637.392	87.38
637.598	80.38
637.804	82.38
638.009	90.38
638.215	85.38
638.421	81.38
638.626	83.38
638.832	88.38
639.037	85.38
639.243	65.38
639.448	90.38
639.654	93.38
639.859	81.38
640.065	95.38
640.27	91.38
640.475	88.38
640.681	74.38
640.886	89.38
641.091	85.38
641.297	89.38
641.502	99.38
641.707	93.38
641.913	95.38
642.118	91.38
642.323	91.38
642.528	82.38
642.733	82.38
642.939	82.38
643.144	90.38
643.349	89.38
643.554	84.38
643.759	92.38
643.964	73.38
644.169	69.38
644.374	78.38
644.579	79.38
644.784	83.38
644.989	87.38
645.194	89.38
645.399	99.38
645.604	83.38
645.809	82.38
646.014	86.38
646.219	86.38
646.423	77.38
646.628	81.38
646.833	92.38
647.038	82.38
647.243	95.38
647.447	88.38
647.652	92.38
647.857	84.38
648.062	83.38
648.266	89.38
648.471	101.38
648.676	100.38
648.88	96.38
649.085	101.38
649.289	81.38
649.494	115.38
649.698	162.38
649.903	100.38
650.107	103.38
650.312	90.38
650.516	79.38
650.721	93.38
650.925	79.38
651.13	93.38
651.334	81.38
651.539	77.38
651.743	79.38
651.947	76.38
652.152	93.38
652.356	92.38
652.56	96.38
652.764	74.38
652.969	72.38
653.173	86.38
653.377	93.38
653.581	82.38
653.785	106.38
653.99	85.38
654.194	83.38
654.398	79.38
654.602	82.38
654.806	90.38
655.01	115.38
655.214	91.38
655.418	98.38
655.622	80.38
655.826	80.38
656.03	81.38
656.234	81.38
656.438	96.38
656.642	93.38
656.846	101.38
657.049	80.38
657.253	81.38
657.457	88.38
657.661	84.38
657.865	93.38
658.068	81.38
658.272	89.38
658.476	89.38
658.68	78.38
658.883	77.38
659.087	87.38
659.291	74.38
659.494	85.38
659.698	83.38
659.901	91.38
660.105	82.38
660.309	68.38
660.512	67.38
660.716	84.38
660.919	95.38
661.123	96.38
661.326	69.38
661.53	92.38
661.733	87.38
661.936	85.38
662.14	82.38
662.343	76.38
662.546	82.38
662.75	84.38
662.953	85.38
663.156	76.38
663.36	69.38
663.563	91.38
663.766	93.38
663.969	84.38
664.173	93.38
664.376	69.38
664.579	78.38
664.782	97.38
664.985	85.38
665.188	84.38
665.391	75.38
665.594	72.38
665.797	78.38
666	78.38
666.203	80.38
666.406	89.38
666.609	83.38
666.812	77.38
667.015	92.38
667.218	73.38
667.421	83.38
667.624	79.38
667.827	84.38
668.03	93.38
668.232	82.38
668.435	87.38
668.638	77.38
668.841	80.38
669.043	68.38
669.246	81.38
669.449	85.38
669.651	78.38
669.854	82.38
670.057	98.38
670.259	83.38
670.462	92.38
670.665	85.38
670.867	99.38
671.07	85.38
671.272	76.38
671.475	81.38
671.677	88.38
671.88	58.38
672.082	80.38
672.284	78.38
672.487	85.38
672.689	72.38
672.892	88.38
