Data from BGNA1_HRD10591_00002.txt Node
Date: Fri Dec 27 14:32:19 EST 2024
User: Yrep
Spectrometer: HR+D1059
Trigger mode: 1
Integration Time (sec): 1.000000E-1
Scans to average: 1
Electric dark correction enabled: true
Nonlinearity correction enabled: false
Boxcar width: 0
XAxis mode: Wavelengths
Number of Pixels in Spectrum: 2048
>>>>>Begin Spectral Data<<<<<
223.165	-18.56
223.4	-18.56
223.635	-18.56
223.869	-23.56
224.104	-16.56
224.338	-19.56
224.573	-2.56
224.808	-0.56
225.042	-11.56
225.277	-2.56
225.511	-12.56
225.746	4.44
225.98	-0.56
226.215	12.44
226.449	10.44
226.683	21.44
226.918	15.44
227.152	44.44
227.387	34.44
227.621	31.44
227.856	52.44
228.09	49.44
228.324	62.44
228.559	60.44
228.793	60.44
229.027	56.44
229.262	56.44
229.496	54.44
229.73	79.44
229.964	80.44
230.199	71.44
230.433	61.44
230.667	81.44
230.901	83.44
231.136	80.44
231.37	71.44
231.604	75.44
231.838	77.44
232.072	77.44
232.306	89.44
232.541	71.44
232.775	82.44
233.009	77.44
233.243	74.44
233.477	61.44
233.711	93.44
233.945	79.44
234.179	89.44
234.413	79.44
234.647	80.44
234.881	62.44
235.115	77.44
235.349	80.44
235.583	68.44
235.817	57.44
236.051	77.44
236.285	62.44
236.519	71.44
236.753	67.44
236.987	71.44
237.221	71.44
237.455	78.44
237.689	81.44
237.922	76.44
238.156	75.44
238.39	70.44
238.624	79.44
238.858	66.44
239.091	69.44
239.325	58.44
239.559	71.44
239.793	72.44
240.027	97.44
240.26	90.44
240.494	85.44
240.728	70.44
240.961	59.44
241.195	62.44
241.429	69.44
241.662	64.44
241.896	70.44
242.13	82.44
242.363	83.44
242.597	71.44
242.83	74.44
243.064	67.44
243.298	78.44
243.531	80.44
243.765	60.44
243.998	89.44
244.232	80.44
244.465	76.44
244.699	76.44
244.932	65.44
245.166	70.44
245.399	69.44
245.633	84.44
245.866	81.44
246.099	79.44
246.333	93.44
246.566	85.44
246.8	80.44
247.033	76.44
247.266	74.44
247.5	72.44
247.733	84.44
247.966	84.44
248.2	74.44
248.433	81.44
248.666	82.44
248.899	75.44
249.133	78.44
249.366	75.44
249.599	61.44
249.832	70.44
250.066	70.44
250.299	71.44
250.532	81.44
250.765	93.44
250.998	81.44
251.231	63.44
251.465	66.44
251.698	71.44
251.931	81.44
252.164	71.44
252.397	86.44
252.63	72.44
252.863	60.44
253.096	70.44
253.329	75.44
253.562	65.44
253.795	84.44
254.028	67.44
254.261	60.44
254.494	87.44
254.727	83.44
254.96	73.44
255.193	84.44
255.426	65.44
255.659	71.44
255.892	91.44
256.124	73.44
256.357	79.44
256.59	66.44
256.823	91.44
257.056	81.44
257.289	66.44
257.521	80.44
257.754	69.44
257.987	79.44
258.22	89.44
258.452	74.44
258.685	76.44
258.918	82.44
259.151	78.44
259.383	70.44
259.616	76.44
259.849	73.44
260.081	82.44
260.314	77.44
260.547	73.44
260.779	78.44
261.012	70.44
261.244	82.44
261.477	77.44
261.71	72.44
261.942	59.44
262.175	85.44
262.407	89.44
262.64	75.44
262.872	75.44
263.105	87.44
263.337	89.44
263.57	81.44
263.802	81.44
264.035	89.44
264.267	86.44
264.499	74.44
264.732	76.44
264.964	66.44
265.197	85.44
265.429	85.44
265.661	85.44
265.894	74.44
266.126	86.44
266.358	74.44
266.591	95.44
266.823	77.44
267.055	67.44
267.287	73.44
267.52	64.44
267.752	85.44
267.984	72.44
268.216	65.44
268.448	87.44
268.681	92.44
268.913	79.44
269.145	82.44
269.377	73.44
269.609	78.44
269.841	73.44
270.073	77.44
270.306	81.44
270.538	86.44
270.77	81.44
271.002	89.44
271.234	81.44
271.466	86.44
271.698	72.44
271.93	67.44
272.162	68.44
272.394	67.44
272.626	71.44
272.858	75.44
273.09	73.44
273.322	70.44
273.553	64.44
273.785	81.44
274.017	77.44
274.249	84.44
274.481	73.44
274.713	81.44
274.945	90.44
275.176	75.44
275.408	80.44
275.64	90.44
275.872	73.44
276.104	89.44
276.335	80.44
276.567	85.44
276.799	74.44
277.031	95.44
277.262	78.44
277.494	92.44
277.726	88.44
277.957	80.44
278.189	75.44
278.421	79.44
278.652	76.44
278.884	84.44
279.115	87.44
279.347	77.44
279.579	71.44
279.81	86.44
280.042	75.44
280.273	70.44
280.505	68.44
280.736	75.44
280.968	91.44
281.199	75.44
281.431	72.44
281.662	84.44
281.894	89.44
282.125	70.44
282.356	75.44
282.588	67.44
282.819	69.44
283.051	66.44
283.282	64.44
283.513	83.44
283.745	88.44
283.976	91.44
284.207	84.44
284.439	74.44
284.67	76.44
284.901	78.44
285.132	80.44
285.364	87.44
285.595	71.44
285.826	85.44
286.057	78.44
286.288	75.44
286.52	72.44
286.751	82.44
286.982	80.44
287.213	88.44
287.444	82.44
287.675	84.44
287.906	87.44
288.138	67.44
288.369	73.44
288.6	77.44
288.831	103.44
289.062	91.44
289.293	69.44
289.524	76.44
289.755	84.44
289.986	75.44
290.217	68.44
290.448	76.44
290.679	94.44
290.91	84.44
291.141	83.44
291.371	62.44
291.602	84.44
291.833	87.44
292.064	85.44
292.295	85.44
292.526	81.44
292.757	78.44
292.987	86.44
293.218	77.44
293.449	91.44
293.68	75.44
293.91	82.44
294.141	84.44
294.372	86.44
294.603	81.44
294.833	75.44
295.064	86.44
295.295	79.44
295.525	69.44
295.756	74.44
295.987	71.44
296.217	80.44
296.448	75.44
296.679	90.44
296.909	77.44
297.14	67.44
297.37	81.44
297.601	76.44
297.831	84.44
298.062	81.44
298.292	79.44
298.523	76.44
298.753	90.44
298.984	83.44
299.214	83.44
299.445	81.44
299.675	92.44
299.905	65.44
300.136	65.44
300.366	82.44
300.597	79.44
300.827	74.44
301.057	88.44
301.288	78.44
301.518	80.44
301.748	80.44
301.979	90.44
302.209	94.44
302.439	79.44
302.669	87.44
302.9	70.44
303.13	73.44
303.36	86.44
303.59	95.44
303.82	79.44
304.051	91.44
304.281	89.44
304.511	94.44
304.741	89.44
304.971	97.44
305.201	86.44
305.431	72.44
305.661	92.44
305.891	77.44
306.121	73.44
306.352	78.44
306.582	82.44
306.812	85.44
307.042	70.44
307.272	74.44
307.502	74.44
307.731	87.44
307.961	94.44
308.191	90.44
308.421	77.44
308.651	89.44
308.881	73.44
309.111	79.44
309.341	81.44
309.571	83.44
309.8	82.44
310.03	78.44
310.26	85.44
310.49	63.44
310.72	86.44
310.949	82.44
311.179	81.44
311.409	76.44
311.639	82.44
311.868	84.44
312.098	90.44
312.328	85.44
312.557	78.44
312.787	91.44
313.017	86.44
313.246	89.44
313.476	78.44
313.706	90.44
313.935	69.44
314.165	86.44
314.394	84.44
314.624	87.44
314.853	95.44
315.083	85.44
315.312	91.44
315.542	82.44
315.771	66.44
316.001	79.44
316.23	89.44
316.46	67.44
316.689	70.44
316.919	75.44
317.148	77.44
317.377	79.44
317.607	92.44
317.836	89.44
318.065	77.44
318.295	83.44
318.524	79.44
318.753	85.44
318.983	86.44
319.212	77.44
319.441	79.44
319.67	73.44
319.9	78.44
320.129	81.44
320.358	71.44
320.587	78.44
320.816	82.44
321.046	73.44
321.275	84.44
321.504	87.44
321.733	76.44
321.962	81.44
322.191	85.44
322.42	86.44
322.649	81.44
322.878	86.44
323.108	69.44
323.337	81.44
323.566	82.44
323.795	92.44
324.024	67.44
324.253	84.44
324.482	79.44
324.71	84.44
324.939	84.44
325.168	74.44
325.397	77.44
325.626	92.44
325.855	80.44
326.084	86.44
326.313	77.44
326.542	77.44
326.77	76.44
326.999	83.44
327.228	90.44
327.457	78.44
327.686	84.44
327.914	83.44
328.143	79.44
328.372	81.44
328.6	74.44
328.829	72.44
329.058	88.44
329.287	69.44
329.515	77.44
329.744	91.44
329.972	84.44
330.201	86.44
330.43	81.44
330.658	78.44
330.887	76.44
331.115	79.44
331.344	93.44
331.572	81.44
331.801	81.44
332.03	77.44
332.258	96.44
332.486	83.44
332.715	69.44
332.943	77.44
333.172	76.44
333.4	82.44
333.629	90.44
333.857	89.44
334.085	74.44
334.314	83.44
334.542	74.44
334.771	84.44
334.999	86.44
335.227	72.44
335.455	84.44
335.684	96.44
335.912	93.44
336.14	89.44
336.369	96.44
336.597	81.44
336.825	84.44
337.053	73.44
337.281	77.44
337.51	86.44
337.738	86.44
337.966	76.44
338.194	68.44
338.422	91.44
338.65	91.44
338.878	80.44
339.106	73.44
339.334	74.44
339.562	81.44
339.79	82.44
340.018	75.44
340.246	83.44
340.474	91.44
340.702	74.44
340.93	73.44
341.158	84.44
341.386	89.44
341.614	77.44
341.842	81.44
342.07	84.44
342.298	95.44
342.526	84.44
342.754	79.44
342.981	75.44
343.209	77.44
343.437	99.44
343.665	73.44
343.893	96.44
344.12	72.44
344.348	92.44
344.576	95.44
344.804	76.44
345.031	65.44
345.259	84.44
345.487	82.44
345.714	85.44
345.942	80.44
346.17	64.44
346.397	74.44
346.625	75.44
346.853	77.44
347.08	78.44
347.308	92.44
347.535	68.44
347.763	71.44
347.99	81.44
348.218	91.44
348.445	84.44
348.673	73.44
348.9	87.44
349.128	96.44
349.355	86.44
349.583	78.44
349.81	61.44
350.037	86.44
350.265	80.44
350.492	73.44
350.72	84.44
350.947	76.44
351.174	72.44
351.402	84.44
351.629	95.44
351.856	93.44
352.083	87.44
352.311	88.44
352.538	77.44
352.765	74.44
352.992	95.44
353.22	71.44
353.447	73.44
353.674	90.44
353.901	82.44
354.128	77.44
354.355	83.44
354.583	70.44
354.81	92.44
355.037	90.44
355.264	79.44
355.491	83.44
355.718	72.44
355.945	90.44
356.172	69.44
356.399	68.44
356.626	61.44
356.853	82.44
357.08	73.44
357.307	101.44
357.534	97.44
357.761	80.44
357.988	77.44
358.215	86.44
358.441	94.44
358.668	90.44
358.895	84.44
359.122	78.44
359.349	89.44
359.576	68.44
359.802	71.44
360.029	80.44
360.256	91.44
360.483	80.44
360.709	88.44
360.936	87.44
361.163	85.44
361.39	78.44
361.616	81.44
361.843	81.44
362.07	89.44
362.296	84.44
362.523	69.44
362.749	84.44
362.976	85.44
363.203	88.44
363.429	87.44
363.656	81.44
363.882	68.44
364.109	78.44
364.335	86.44
364.562	70.44
364.788	91.44
365.015	84.44
365.241	76.44
365.468	102.44
365.694	70.44
365.92	75.44
366.147	73.44
366.373	85.44
366.599	73.44
366.826	80.44
367.052	91.44
367.278	71.44
367.505	80.44
367.731	78.44
367.957	74.44
368.184	68.44
368.41	69.44
368.636	72.44
368.862	81.44
369.089	83.44
369.315	79.44
369.541	86.44
369.767	82.44
369.993	75.44
370.219	80.44
370.445	69.44
370.672	86.44
370.898	90.44
371.124	76.44
371.35	77.44
371.576	67.44
371.802	80.44
372.028	91.44
372.254	77.44
372.48	75.44
372.706	72.44
372.932	83.44
373.158	98.44
373.384	92.44
373.61	90.44
373.835	74.44
374.061	81.44
374.287	95.44
374.513	77.44
374.739	85.44
374.965	89.44
375.191	95.44
375.416	86.44
375.642	68.44
375.868	91.44
376.094	86.44
376.319	90.44
376.545	81.44
376.771	77.44
376.997	77.44
377.222	91.44
377.448	83.44
377.674	69.44
377.899	69.44
378.125	81.44
378.35	89.44
378.576	71.44
378.802	85.44
379.027	76.44
379.253	79.44
379.478	69.44
379.704	81.44
379.929	92.44
380.155	69.44
380.38	77.44
380.606	71.44
380.831	77.44
381.057	96.44
381.282	95.44
381.507	82.44
381.733	91.44
381.958	71.44
382.184	98.44
382.409	79.44
382.634	84.44
382.86	94.44
383.085	92.44
383.31	85.44
383.535	81.44
383.761	82.44
383.986	86.44
384.211	82.44
384.436	62.44
384.662	83.44
384.887	84.44
385.112	81.44
385.337	73.44
385.562	84.44
385.787	82.44
386.013	77.44
386.238	91.44
386.463	87.44
386.688	76.44
386.913	73.44
387.138	78.44
387.363	78.44
387.588	77.44
387.813	85.44
388.038	86.44
388.263	74.44
388.488	68.44
388.713	90.44
388.938	75.44
389.163	91.44
389.387	78.44
389.612	93.44
389.837	81.44
390.062	83.44
390.287	82.44
390.512	64.44
390.736	88.44
390.961	83.44
391.186	93.44
391.411	87.44
391.636	82.44
391.86	72.44
392.085	78.44
392.31	71.44
392.534	83.44
392.759	82.44
392.984	89.44
393.208	89.44
393.433	71.44
393.658	71.44
393.882	76.44
394.107	65.44
394.331	76.44
394.556	79.44
394.78	68.44
395.005	80.44
395.229	86.44
395.454	79.44
395.678	76.44
395.903	93.44
396.127	83.44
396.352	88.44
396.576	95.44
396.801	93.44
397.025	71.44
397.249	84.44
397.474	77.44
397.698	89.44
397.922	79.44
398.147	89.44
398.371	65.44
398.595	93.44
398.82	85.44
399.044	79.44
399.268	77.44
399.492	81.44
399.717	92.44
399.941	79.44
400.165	70.44
400.389	73.44
400.613	79.44
400.837	86.44
401.062	76.44
401.286	76.44
401.51	75.44
401.734	75.44
401.958	65.44
402.182	82.44
402.406	80.44
402.63	94.44
402.854	77.44
403.078	90.44
403.302	76.44
403.526	80.44
403.75	92.44
403.974	92.44
404.198	80.44
404.422	83.44
404.645	71.44
404.869	86.44
405.093	79.44
405.317	75.44
405.541	90.44
405.765	82.44
405.988	80.44
406.212	90.44
406.436	78.44
406.66	76.44
406.883	86.44
407.107	79.44
407.331	73.44
407.555	87.44
407.778	87.44
408.002	68.44
408.226	73.44
408.449	83.44
408.673	79.44
408.896	84.44
409.12	80.44
409.344	77.44
409.567	78.44
409.791	89.44
410.014	83.44
410.238	76.44
410.461	85.44
410.685	74.44
410.908	74.44
411.132	76.44
411.355	98.44
411.578	85.44
411.802	81.44
412.025	72.44
412.249	79.44
412.472	90.44
412.695	80.44
412.919	73.44
413.142	86.44
413.365	91.44
413.589	87.44
413.812	99.44
414.035	90.44
414.258	77.44
414.482	83.44
414.705	73.44
414.928	85.44
415.151	74.44
415.374	81.44
415.597	82.44
415.821	86.44
416.044	67.44
416.267	78.44
416.49	74.44
416.713	74.44
416.936	76.44
417.159	71.44
417.382	74.44
417.605	69.44
417.828	88.44
418.051	77.44
418.274	78.44
418.497	83.44
418.72	76.44
418.943	94.44
419.166	66.44
419.389	91.44
419.611	77.44
419.834	76.44
420.057	79.44
420.28	86.44
420.503	69.44
420.726	74.44
420.948	71.44
421.171	77.44
421.394	64.44
421.617	73.44
421.839	89.44
422.062	66.44
422.285	89.44
422.507	69.44
422.73	73.44
422.953	87.44
423.175	72.44
423.398	86.44
423.621	73.44
423.843	65.44
424.066	69.44
424.288	76.44
424.511	74.44
424.733	85.44
424.956	82.44
425.178	92.44
425.401	89.44
425.623	79.44
425.846	83.44
426.068	75.44
426.291	71.44
426.513	79.44
426.735	68.44
426.958	81.44
427.18	62.44
427.402	89.44
427.625	88.44
427.847	78.44
428.069	95.44
428.292	81.44
428.514	84.44
428.736	72.44
428.958	77.44
429.181	80.44
429.403	76.44
429.625	72.44
429.847	83.44
430.069	83.44
430.292	86.44
430.514	87.44
430.736	73.44
430.958	54.44
431.18	77.44
431.402	77.44
431.624	80.44
431.846	91.44
432.068	92.44
432.29	82.44
432.512	101.44
432.734	85.44
432.956	75.44
433.178	76.44
433.4	75.44
433.622	71.44
433.844	81.44
434.066	89.44
434.287	81.44
434.509	71.44
434.731	73.44
434.953	71.44
435.175	84.44
435.397	73.44
435.618	63.44
435.84	79.44
436.062	75.44
436.284	82.44
436.505	83.44
436.727	66.44
436.949	92.44
437.17	83.44
437.392	75.44
437.614	93.44
437.835	85.44
438.057	80.44
438.278	82.44
438.5	93.44
438.721	75.44
438.943	67.44
439.165	75.44
439.386	60.44
439.608	78.44
439.829	75.44
440.05	82.44
440.272	86.44
440.493	95.44
440.715	73.44
440.936	82.44
441.158	101.44
441.379	89.44
441.6	75.44
441.822	75.44
442.043	74.44
442.264	89.44
442.486	79.44
442.707	81.44
442.928	93.44
443.149	76.44
443.371	61.44
443.592	79.44
443.813	69.44
444.034	84.44
444.255	80.44
444.476	73.44
444.698	81.44
444.919	76.44
445.14	147.44
445.361	105.44
445.582	84.44
445.803	79.44
446.024	78.44
446.245	86.44
446.466	77.44
446.687	69.44
446.908	80.44
447.129	75.44
447.35	80.44
447.571	78.44
447.792	76.44
448.013	74.44
448.234	68.44
448.455	63.44
448.675	72.44
448.896	86.44
449.117	73.44
449.338	74.44
449.559	79.44
449.779	53.44
450	79.44
450.221	85.44
450.442	76.44
450.662	74.44
450.883	78.44
451.104	81.44
451.324	89.44
451.545	63.44
451.766	78.44
451.986	85.44
452.207	79.44
452.428	62.44
452.648	90.44
452.869	95.44
453.089	70.44
453.31	91.44
453.53	65.44
453.751	66.44
453.971	71.44
454.192	78.44
454.412	83.44
454.633	86.44
454.853	96.44
455.073	81.44
455.294	76.44
455.514	84.44
455.734	73.44
455.955	77.44
456.175	70.44
456.395	81.44
456.616	77.44
456.836	81.44
457.056	83.44
457.276	85.44
457.497	69.44
457.717	76.44
457.937	91.44
458.157	75.44
458.377	69.44
458.598	77.44
458.818	88.44
459.038	99.44
459.258	86.44
459.478	77.44
459.698	83.44
459.918	77.44
460.138	74.44
460.358	79.44
460.578	90.44
460.798	77.44
461.018	77.44
461.238	72.44
461.458	64.44
461.678	76.44
461.898	86.44
462.118	73.44
462.338	95.44
462.558	85.44
462.777	86.44
462.997	82.44
463.217	80.44
463.437	71.44
463.657	84.44
463.876	85.44
464.096	86.44
464.316	70.44
464.536	83.44
464.755	92.44
464.975	89.44
465.195	68.44
465.414	81.44
465.634	84.44
465.854	74.44
466.073	73.44
466.293	81.44
466.512	71.44
466.732	68.44
466.951	83.44
467.171	83.44
467.391	80.44
467.61	78.44
467.829	64.44
468.049	100.44
468.268	74.44
468.488	75.44
468.707	86.44
468.927	77.44
469.146	74.44
469.365	79.44
469.585	77.44
469.804	89.44
470.023	82.44
470.243	83.44
470.462	100.44
470.681	77.44
470.901	65.44
471.12	87.44
471.339	84.44
471.558	82.44
471.777	80.44
471.997	82.44
472.216	80.44
472.435	71.44
472.654	68.44
472.873	66.44
473.092	76.44
473.311	81.44
473.53	80.44
473.749	80.44
473.968	95.44
474.187	80.44
474.406	67.44
474.625	93.44
474.844	97.44
475.063	82.44
475.282	84.44
475.501	94.44
475.72	85.44
475.939	77.44
476.158	81.44
476.377	81.44
476.596	80.44
476.814	76.44
477.033	80.44
477.252	71.44
477.471	78.44
477.69	76.44
477.908	86.44
478.127	74.44
478.346	91.44
478.564	67.44
478.783	75.44
479.002	73.44
479.22	80.44
479.439	82.44
479.658	76.44
479.876	91.44
480.095	75.44
480.313	82.44
480.532	75.44
480.751	77.44
480.969	84.44
481.188	76.44
481.406	82.44
481.624	79.44
481.843	79.44
482.061	73.44
482.28	84.44
482.498	73.44
482.717	81.44
482.935	80.44
483.153	85.44
483.372	82.44
483.59	90.44
483.808	76.44
484.027	71.44
484.245	85.44
484.463	85.44
484.681	97.44
484.9	79.44
485.118	84.44
485.336	80.44
485.554	88.44
485.772	71.44
485.99	80.44
486.209	78.44
486.427	83.44
486.645	93.44
486.863	87.44
487.081	73.44
487.299	95.44
487.517	83.44
487.735	68.44
487.953	77.44
488.171	81.44
488.389	71.44
488.607	79.44
488.825	85.44
489.043	79.44
489.261	75.44
489.479	79.44
489.696	84.44
489.914	67.44
490.132	78.44
490.35	76.44
490.568	87.44
490.786	70.44
491.003	76.44
491.221	84.44
491.439	86.44
491.657	86.44
491.874	74.44
492.092	79.44
492.31	69.44
492.527	86.44
492.745	84.44
492.963	82.44
493.18	78.44
493.398	76.44
493.615	77.44
493.833	66.44
494.05	73.44
494.268	68.44
494.485	75.44
494.703	89.44
494.92	91.44
495.138	71.44
495.355	83.44
495.573	75.44
495.79	79.44
496.008	83.44
496.225	79.44
496.442	92.44
496.66	81.44
496.877	76.44
497.094	81.44
497.312	73.44
497.529	79.44
497.746	84.44
497.963	95.44
498.181	73.44
498.398	76.44
498.615	79.44
498.832	88.44
499.049	77.44
499.267	93.44
499.484	89.44
499.701	78.44
499.918	75.44
500.135	77.44
500.352	78.44
500.569	77.44
500.786	89.44
501.003	83.44
501.22	70.44
501.437	76.44
501.654	81.44
501.871	76.44
502.088	79.44
502.305	73.44
502.522	83.44
502.739	86.44
502.956	91.44
503.172	82.44
503.389	87.44
503.606	83.44
503.823	74.44
504.04	87.44
504.256	69.44
504.473	74.44
504.69	87.44
504.907	83.44
505.123	77.44
505.34	76.44
505.557	78.44
505.773	73.44
505.99	77.44
506.207	81.44
506.423	77.44
506.64	78.44
506.856	80.44
507.073	79.44
507.289	67.44
507.506	82.44
507.722	80.44
507.939	69.44
508.155	81.44
508.372	68.44
508.588	81.44
508.805	86.44
509.021	78.44
509.238	90.44
509.454	80.44
509.67	83.44
509.887	81.44
510.103	88.44
510.319	62.44
510.536	85.44
510.752	90.44
510.968	81.44
511.184	62.44
511.401	82.44
511.617	86.44
511.833	76.44
512.049	71.44
512.265	82.44
512.481	65.44
512.698	87.44
512.914	91.44
513.13	84.44
513.346	75.44
513.562	88.44
513.778	83.44
513.994	86.44
514.21	78.44
514.426	87.44
514.642	90.44
514.858	79.44
515.074	72.44
515.29	76.44
515.506	80.44
515.721	81.44
515.937	76.44
516.153	80.44
516.369	98.44
516.585	79.44
516.801	73.44
517.016	78.44
517.232	78.44
517.448	78.44
517.664	72.44
517.879	77.44
518.095	90.44
518.311	79.44
518.527	86.44
518.742	86.44
518.958	73.44
519.173	95.44
519.389	91.44
519.605	90.44
519.82	80.44
520.036	77.44
520.251	78.44
520.467	74.44
520.682	87.44
520.898	89.44
521.113	83.44
521.329	81.44
521.544	75.44
521.76	82.44
521.975	78.44
522.19	78.44
522.406	77.44
522.621	88.44
522.836	77.44
523.052	73.44
523.267	81.44
523.482	95.44
523.698	73.44
523.913	83.44
524.128	74.44
524.343	75.44
524.559	85.44
524.774	78.44
524.989	104.44
525.204	78.44
525.419	84.44
525.634	82.44
525.849	91.44
526.064	85.44
526.28	74.44
526.495	74.44
526.71	80.44
526.925	62.44
527.14	81.44
527.355	75.44
527.57	78.44
527.785	81.44
527.999	85.44
528.214	96.44
528.429	76.44
528.644	94.44
528.859	82.44
529.074	90.44
529.289	75.44
529.503	85.44
529.718	75.44
529.933	80.44
530.148	75.44
530.363	75.44
530.577	69.44
530.792	84.44
531.007	86.44
531.221	81.44
531.436	66.44
531.651	78.44
531.865	83.44
532.08	73.44
532.295	86.44
532.509	73.44
532.724	77.44
532.938	69.44
533.153	79.44
533.367	84.44
533.582	85.44
533.796	66.44
534.011	85.44
534.225	83.44
534.44	83.44
534.654	73.44
534.868	83.44
535.083	80.44
535.297	92.44
535.511	81.44
535.726	85.44
535.94	78.44
536.154	86.44
536.369	70.44
536.583	80.44
536.797	92.44
537.011	83.44
537.225	68.44
537.44	100.44
537.654	70.44
537.868	79.44
538.082	77.44
538.296	87.44
538.51	77.44
538.724	90.44
538.938	81.44
539.153	86.44
539.367	81.44
539.581	89.44
539.795	92.44
540.009	93.44
540.222	69.44
540.436	89.44
540.65	64.44
540.864	79.44
541.078	84.44
541.292	81.44
541.506	83.44
541.72	85.44
541.934	74.44
542.147	75.44
542.361	79.44
542.575	79.44
542.789	92.44
543.002	86.44
543.216	93.44
543.43	89.44
543.644	87.44
543.857	87.44
544.071	90.44
544.285	83.44
544.498	68.44
544.712	73.44
544.925	84.44
545.139	70.44
545.352	62.44
545.566	67.44
545.779	93.44
545.993	75.44
546.206	84.44
546.42	73.44
546.633	84.44
546.847	77.44
547.06	84.44
547.274	87.44
547.487	71.44
547.7	74.44
547.914	82.44
548.127	80.44
548.34	67.44
548.554	86.44
548.767	90.44
548.98	81.44
549.193	70.44
549.407	87.44
549.62	87.44
549.833	83.44
550.046	78.44
550.259	78.44
550.473	66.44
550.686	73.44
550.899	85.44
551.112	92.44
551.325	70.44
551.538	83.44
551.751	77.44
551.964	92.44
552.177	81.44
552.39	76.44
552.603	73.44
552.816	72.44
553.029	93.44
553.242	79.44
553.455	87.44
553.667	79.44
553.88	82.44
554.093	83.44
554.306	69.44
554.519	83.44
554.732	76.44
554.944	79.44
555.157	64.44
555.37	86.44
555.583	80.44
555.795	73.44
556.008	82.44
556.221	87.44
556.433	76.44
556.646	64.44
556.859	82.44
557.071	93.44
557.284	83.44
557.496	85.44
557.709	83.44
557.921	74.44
558.134	89.44
558.346	93.44
558.559	77.44
558.771	71.44
558.984	60.44
559.196	69.44
559.409	84.44
559.621	73.44
559.833	84.44
560.046	78.44
560.258	81.44
560.47	86.44
560.683	86.44
560.895	81.44
561.107	97.44
561.32	98.44
561.532	82.44
561.744	97.44
561.956	97.44
562.168	87.44
562.381	91.44
562.593	78.44
562.805	77.44
563.017	81.44
563.229	67.44
563.441	87.44
563.653	81.44
563.865	78.44
564.077	71.44
564.289	75.44
564.501	76.44
564.713	70.44
564.925	87.44
565.137	78.44
565.349	86.44
565.561	97.44
565.773	73.44
565.985	82.44
566.197	75.44
566.408	83.44
566.62	63.44
566.832	80.44
567.044	80.44
567.255	88.44
567.467	65.44
567.679	93.44
567.891	80.44
568.102	83.44
568.314	94.44
568.526	74.44
568.737	85.44
568.949	67.44
569.161	86.44
569.372	90.44
569.584	82.44
569.795	73.44
570.007	78.44
570.218	91.44
570.43	68.44
570.641	85.44
570.853	102.44
571.064	83.44
571.276	83.44
571.487	79.44
571.698	89.44
571.91	81.44
572.121	78.44
572.333	89.44
572.544	74.44
572.755	74.44
572.966	78.44
573.178	98.44
573.389	76.44
573.6	92.44
573.811	78.44
574.023	89.44
574.234	84.44
574.445	82.44
574.656	100.44
574.867	76.44
575.078	70.44
575.289	82.44
575.501	82.44
575.712	84.44
575.923	85.44
576.134	80.44
576.345	85.44
576.556	93.44
576.767	89.44
576.978	85.44
577.188	80.44
577.399	73.44
577.61	91.44
577.821	89.44
578.032	87.44
578.243	74.44
578.454	69.44
578.665	83.44
578.875	68.44
579.086	89.44
579.297	78.44
579.508	87.44
579.718	80.44
579.929	77.44
580.14	78.44
580.35	83.44
580.561	98.44
580.772	73.44
580.982	85.44
581.193	85.44
581.403	84.44
581.614	74.44
581.825	76.44
582.035	85.44
582.246	95.44
582.456	76.44
582.667	73.44
582.877	72.44
583.087	74.44
583.298	88.44
583.508	89.44
583.719	89.44
583.929	91.44
584.139	76.44
584.35	70.44
584.56	84.44
584.77	81.44
584.981	78.44
585.191	79.44
585.401	85.44
585.611	79.44
585.821	76.44
586.032	76.44
586.242	75.44
586.452	66.44
586.662	85.44
586.872	83.44
587.082	92.44
587.292	92.44
587.502	83.44
587.713	87.44
587.923	86.44
588.133	92.44
588.343	81.44
588.553	63.44
588.762	88.44
588.972	83.44
589.182	85.44
589.392	85.44
589.602	70.44
589.812	78.44
590.022	98.44
590.232	75.44
590.441	89.44
590.651	65.44
590.861	68.44
591.071	73.44
591.281	82.44
591.49	89.44
591.7	90.44
591.91	100.44
592.119	99.44
592.329	71.44
592.539	84.44
592.748	75.44
592.958	86.44
593.167	83.44
593.377	86.44
593.587	89.44
593.796	99.44
594.006	86.44
594.215	89.44
594.424	96.44
594.634	73.44
594.843	79.44
595.053	83.44
595.262	99.44
595.472	93.44
595.681	83.44
595.89	78.44
596.1	82.44
596.309	76.44
596.518	77.44
596.727	71.44
596.937	69.44
597.146	82.44
597.355	86.44
597.564	75.44
597.774	78.44
597.983	71.44
598.192	97.44
598.401	67.44
598.61	95.44
598.819	82.44
599.028	86.44
599.237	94.44
599.446	73.44
599.655	70.44
599.864	81.44
600.073	72.44
600.282	95.44
600.491	86.44
600.7	77.44
600.909	73.44
601.118	91.44
601.327	83.44
601.536	82.44
601.745	79.44
601.953	79.44
602.162	93.44
602.371	75.44
602.58	61.44
602.789	80.44
602.997	81.44
603.206	96.44
603.415	91.44
603.623	83.44
603.832	79.44
604.041	85.44
604.249	86.44
604.458	94.44
604.666	79.44
604.875	76.44
605.084	67.44
605.292	80.44
605.501	84.44
605.709	76.44
605.918	83.44
606.126	95.44
606.334	97.44
606.543	80.44
606.751	82.44
606.96	69.44
607.168	78.44
607.376	94.44
607.585	80.44
607.793	85.44
608.001	80.44
608.21	82.44
608.418	72.44
608.626	80.44
608.834	68.44
609.043	81.44
609.251	93.44
609.459	67.44
609.667	88.44
609.875	90.44
610.083	58.44
610.291	93.44
610.499	89.44
610.707	65.44
610.916	80.44
611.124	82.44
611.332	75.44
611.54	86.44
611.748	98.44
611.955	83.44
612.163	67.44
612.371	76.44
612.579	75.44
612.787	79.44
612.995	86.44
613.203	98.44
613.411	74.44
613.618	93.44
613.826	70.44
614.034	81.44
614.242	85.44
614.449	91.44
614.657	86.44
614.865	75.44
615.072	81.44
615.28	83.44
615.488	83.44
615.695	90.44
615.903	75.44
616.111	89.44
616.318	91.44
616.526	68.44
616.733	95.44
616.941	75.44
617.148	88.44
617.356	80.44
617.563	72.44
617.771	77.44
617.978	79.44
618.185	90.44
618.393	70.44
618.6	76.44
618.807	77.44
619.015	78.44
619.222	65.44
619.429	89.44
619.637	79.44
619.844	80.44
620.051	77.44
620.258	87.44
620.466	76.44
620.673	81.44
620.88	70.44
621.087	90.44
621.294	101.44
621.501	83.44
621.708	88.44
621.915	83.44
622.122	77.44
622.329	79.44
622.536	74.44
622.743	72.44
622.95	85.44
623.157	79.44
623.364	92.44
623.571	86.44
623.778	69.44
623.985	78.44
624.192	82.44
624.399	74.44
624.606	101.44
624.812	79.44
625.019	83.44
625.226	82.44
625.433	82.44
625.639	90.44
625.846	91.44
626.053	85.44
626.259	80.44
626.466	90.44
626.673	65.44
626.879	79.44
627.086	97.44
627.293	90.44
627.499	89.44
627.706	84.44
627.912	71.44
628.119	85.44
628.325	83.44
628.532	83.44
628.738	77.44
628.945	63.44
629.151	94.44
629.357	75.44
629.564	76.44
629.77	97.44
629.976	79.44
630.183	88.44
630.389	74.44
630.595	87.44
630.802	83.44
631.008	69.44
631.214	74.44
631.42	85.44
631.627	86.44
631.833	66.44
632.039	67.44
632.245	68.44
632.451	86.44
632.657	80.44
632.863	95.44
633.069	85.44
633.275	65.44
633.481	85.44
633.688	88.44
633.893	84.44
634.099	72.44
634.305	74.44
634.511	82.44
634.717	75.44
634.923	69.44
635.129	85.44
635.335	87.44
635.541	80.44
635.747	85.44
635.952	73.44
636.158	88.44
636.364	69.44
636.57	72.44
636.775	89.44
636.981	84.44
637.187	89.44
637.392	78.44
637.598	86.44
637.804	81.44
638.009	66.44
638.215	77.44
638.421	82.44
638.626	65.44
638.832	82.44
639.037	77.44
639.243	81.44
639.448	82.44
639.654	92.44
639.859	97.44
640.065	79.44
640.27	93.44
640.475	81.44
640.681	81.44
640.886	75.44
641.091	72.44
641.297	110.44
641.502	91.44
641.707	75.44
641.913	86.44
642.118	85.44
642.323	82.44
642.528	89.44
642.733	69.44
642.939	88.44
643.144	82.44
643.349	89.44
643.554	83.44
643.759	86.44
643.964	83.44
644.169	62.44
644.374	73.44
644.579	73.44
644.784	66.44
644.989	86.44
645.194	74.44
645.399	91.44
645.604	72.44
645.809	69.44
646.014	86.44
646.219	91.44
646.423	77.44
646.628	73.44
646.833	83.44
647.038	90.44
647.243	75.44
647.447	93.44
647.652	89.44
647.857	75.44
648.062	92.44
648.266	80.44
648.471	86.44
648.676	94.44
648.88	88.44
649.085	77.44
649.289	87.44
649.494	82.44
649.698	78.44
649.903	75.44
650.107	72.44
650.312	68.44
650.516	79.44
650.721	75.44
650.925	76.44
651.13	78.44
651.334	85.44
651.539	92.44
651.743	78.44
651.947	71.44
652.152	80.44
652.356	90.44
652.56	64.44
652.764	81.44
652.969	95.44
653.173	89.44
653.377	84.44
653.581	72.44
653.785	74.44
653.99	68.44
654.194	85.44
654.398	81.44
654.602	77.44
654.806	79.44
655.01	87.44
655.214	64.44
655.418	74.44
655.622	86.44
655.826	87.44
656.03	77.44
656.234	79.44
656.438	68.44
656.642	80.44
656.846	69.44
657.049	78.44
657.253	79.44
657.457	70.44
657.661	83.44
657.865	85.44
658.068	93.44
658.272	83.44
658.476	78.44
658.68	93.44
658.883	73.44
659.087	82.44
659.291	77.44
659.494	77.44
659.698	66.44
659.901	83.44
660.105	75.44
660.309	67.44
660.512	78.44
660.716	78.44
660.919	75.44
661.123	87.44
661.326	91.44
661.53	68.44
661.733	85.44
661.936	81.44
662.14	79.44
662.343	81.44
662.546	80.44
662.75	77.44
662.953	82.44
663.156	79.44
663.36	74.44
663.563	75.44
663.766	77.44
663.969	82.44
664.173	81.44
664.376	87.44
664.579	83.44
664.782	70.44
664.985	90.44
665.188	76.44
665.391	76.44
665.594	81.44
665.797	85.44
666	82.44
666.203	71.44
666.406	76.44
666.609	71.44
666.812	84.44
667.015	87.44
667.218	76.44
667.421	90.44
667.624	74.44
667.827	96.44
668.03	83.44
668.232	85.44
668.435	70.44
668.638	66.44
668.841	78.44
669.043	67.44
669.246	73.44
669.449	62.44
669.651	67.44
669.854	66.44
670.057	78.44
670.259	85.44
670.462	91.44
670.665	72.44
670.867	84.44
671.07	71.44
671.272	90.44
671.475	72.44
671.677	67.44
671.88	65.44
672.082	70.44
672.284	75.44
672.487	82.44
672.689	69.44
672.892	62.44
