Data from Uncirc_1999_H10_HRD10591_00059.txt Node
Date: Wed Jan 03 11:22:17 EST 2024
User: Yrep
Spectrometer: HR+D1059
Trigger mode: 1
Integration Time (sec): 1.000000E-1
Scans to average: 1
Electric dark correction enabled: true
Nonlinearity correction enabled: false
Boxcar width: 0
XAxis mode: Wavelengths
Number of Pixels in Spectrum: 2048
>>>>>Begin Spectral Data<<<<<
223.165	-18.94
223.4	-18.94
223.635	-18.94
223.869	-12.94
224.104	-18.94
224.338	-16.94
224.573	-16.94
224.808	-14.94
225.042	-6.94
225.277	-5.94
225.511	3.06
225.746	-2.94
225.98	14.06
226.215	9.06
226.449	23.06
226.683	19.06
226.918	13.06
227.152	34.06
227.387	34.06
227.621	27.06
227.856	44.06
228.09	45.06
228.324	28.06
228.559	53.06
228.793	44.06
229.027	63.06
229.262	63.06
229.496	72.06
229.73	74.06
229.964	91.06
230.199	67.06
230.433	67.06
230.667	72.06
230.901	68.06
231.136	73.06
231.37	82.06
231.604	89.06
231.838	81.06
232.072	70.06
232.306	76.06
232.541	74.06
232.775	82.06
233.009	86.06
233.243	62.06
233.477	81.06
233.711	77.06
233.945	77.06
234.179	82.06
234.413	77.06
234.647	73.06
234.881	91.06
235.115	71.06
235.349	82.06
235.583	73.06
235.817	82.06
236.051	75.06
236.285	69.06
236.519	74.06
236.753	80.06
236.987	70.06
237.221	83.06
237.455	82.06
237.689	58.06
237.922	71.06
238.156	73.06
238.39	95.06
238.624	87.06
238.858	66.06
239.091	79.06
239.325	56.06
239.559	71.06
239.793	69.06
240.027	80.06
240.26	76.06
240.494	66.06
240.728	77.06
240.961	87.06
241.195	79.06
241.429	85.06
241.662	72.06
241.896	75.06
242.13	83.06
242.363	77.06
242.597	87.06
242.83	77.06
243.064	70.06
243.298	77.06
243.531	70.06
243.765	76.06
243.998	75.06
244.232	77.06
244.465	90.06
244.699	79.06
244.932	62.06
245.166	76.06
245.399	75.06
245.633	78.06
245.866	73.06
246.099	78.06
246.333	84.06
246.566	80.06
246.8	82.06
247.033	79.06
247.266	65.06
247.5	65.06
247.733	73.06
247.966	70.06
248.2	81.06
248.433	75.06
248.666	71.06
248.899	75.06
249.133	81.06
249.366	95.06
249.599	95.06
249.832	73.06
250.066	75.06
250.299	71.06
250.532	65.06
250.765	60.06
250.998	68.06
251.231	73.06
251.465	73.06
251.698	94.06
251.931	78.06
252.164	78.06
252.397	81.06
252.63	81.06
252.863	77.06
253.096	86.06
253.329	72.06
253.562	65.06
253.795	86.06
254.028	85.06
254.261	80.06
254.494	87.06
254.727	80.06
254.96	68.06
255.193	71.06
255.426	57.06
255.659	78.06
255.892	90.06
256.124	70.06
256.357	89.06
256.59	73.06
256.823	70.06
257.056	77.06
257.289	74.06
257.521	71.06
257.754	74.06
257.987	74.06
258.22	90.06
258.452	78.06
258.685	50.06
258.918	77.06
259.151	83.06
259.383	73.06
259.616	67.06
259.849	82.06
260.081	91.06
260.314	71.06
260.547	76.06
260.779	68.06
261.012	82.06
261.244	70.06
261.477	95.06
261.71	77.06
261.942	117.06
262.175	123.06
262.407	79.06
262.64	71.06
262.872	74.06
263.105	75.06
263.337	77.06
263.57	73.06
263.802	78.06
264.035	70.06
264.267	74.06
264.499	83.06
264.732	87.06
264.964	86.06
265.197	76.06
265.429	81.06
265.661	67.06
265.894	73.06
266.126	82.06
266.358	89.06
266.591	82.06
266.823	85.06
267.055	89.06
267.287	77.06
267.52	71.06
267.752	86.06
267.984	81.06
268.216	83.06
268.448	88.06
268.681	78.06
268.913	84.06
269.145	85.06
269.377	85.06
269.609	86.06
269.841	76.06
270.073	89.06
270.306	74.06
270.538	92.06
270.77	71.06
271.002	75.06
271.234	94.06
271.466	90.06
271.698	81.06
271.93	83.06
272.162	80.06
272.394	92.06
272.626	81.06
272.858	65.06
273.09	70.06
273.322	77.06
273.553	72.06
273.785	93.06
274.017	82.06
274.249	71.06
274.481	81.06
274.713	73.06
274.945	84.06
275.176	77.06
275.408	82.06
275.64	62.06
275.872	86.06
276.104	94.06
276.335	89.06
276.567	98.06
276.799	115.06
277.031	99.06
277.262	89.06
277.494	92.06
277.726	86.06
277.957	77.06
278.189	83.06
278.421	79.06
278.652	77.06
278.884	76.06
279.115	86.06
279.347	91.06
279.579	94.06
279.81	90.06
280.042	75.06
280.273	106.06
280.505	82.06
280.736	76.06
280.968	97.06
281.199	84.06
281.431	89.06
281.662	77.06
281.894	83.06
282.125	73.06
282.356	112.06
282.588	110.06
282.819	108.06
283.051	100.06
283.282	82.06
283.513	84.06
283.745	74.06
283.976	86.06
284.207	79.06
284.439	90.06
284.67	74.06
284.901	70.06
285.132	81.06
285.364	97.06
285.595	82.06
285.826	74.06
286.057	81.06
286.288	96.06
286.52	87.06
286.751	103.06
286.982	82.06
287.213	79.06
287.444	95.06
287.675	72.06
287.906	74.06
288.138	105.06
288.369	87.06
288.6	100.06
288.831	92.06
289.062	97.06
289.293	79.06
289.524	94.06
289.755	82.06
289.986	82.06
290.217	69.06
290.448	81.06
290.679	84.06
290.91	88.06
291.141	98.06
291.371	86.06
291.602	76.06
291.833	94.06
292.064	91.06
292.295	89.06
292.526	79.06
292.757	88.06
292.987	81.06
293.218	85.06
293.449	70.06
293.68	83.06
293.91	86.06
294.141	88.06
294.372	75.06
294.603	95.06
294.833	91.06
295.064	93.06
295.295	77.06
295.525	79.06
295.756	100.06
295.987	111.06
296.217	124.06
296.448	111.06
296.679	97.06
296.909	100.06
297.14	74.06
297.37	73.06
297.601	77.06
297.831	88.06
298.062	99.06
298.292	85.06
298.523	68.06
298.753	85.06
298.984	86.06
299.214	90.06
299.445	81.06
299.675	97.06
299.905	83.06
300.136	101.06
300.366	92.06
300.597	91.06
300.827	92.06
301.057	94.06
301.288	97.06
301.518	95.06
301.748	89.06
301.979	97.06
302.209	83.06
302.439	79.06
302.669	73.06
302.9	63.06
303.13	93.06
303.36	83.06
303.59	90.06
303.82	104.06
304.051	84.06
304.281	90.06
304.511	83.06
304.741	75.06
304.971	84.06
305.201	82.06
305.431	88.06
305.661	98.06
305.891	87.06
306.121	84.06
306.352	83.06
306.582	99.06
306.812	97.06
307.042	88.06
307.272	86.06
307.502	82.06
307.731	84.06
307.961	88.06
308.191	95.06
308.421	79.06
308.651	82.06
308.881	96.06
309.111	95.06
309.341	87.06
309.571	95.06
309.8	74.06
310.03	78.06
310.26	92.06
310.49	101.06
310.72	86.06
310.949	83.06
311.179	97.06
311.409	83.06
311.639	85.06
311.868	100.06
312.098	86.06
312.328	93.06
312.557	99.06
312.787	97.06
313.017	96.06
313.246	100.06
313.476	87.06
313.706	85.06
313.935	90.06
314.165	82.06
314.394	102.06
314.624	84.06
314.853	89.06
315.083	92.06
315.312	90.06
315.542	79.06
315.771	90.06
316.001	83.06
316.23	92.06
316.46	81.06
316.689	74.06
316.919	98.06
317.148	96.06
317.377	81.06
317.607	99.06
317.836	81.06
318.065	82.06
318.295	104.06
318.524	94.06
318.753	89.06
318.983	98.06
319.212	101.06
319.441	93.06
319.67	101.06
319.9	88.06
320.129	89.06
320.358	89.06
320.587	79.06
320.816	100.06
321.046	88.06
321.275	92.06
321.504	96.06
321.733	93.06
321.962	89.06
322.191	86.06
322.42	97.06
322.649	109.06
322.878	101.06
323.108	118.06
323.337	126.06
323.566	141.06
323.795	155.06
324.024	203.06
324.253	414.06
324.482	892.06
324.71	1775.06
324.939	2417.06
325.168	861.06
325.397	242.06
325.626	165.06
325.855	117.06
326.084	131.06
326.313	137.06
326.542	152.06
326.77	241.06
326.999	483.06
327.228	1019.06
327.457	1884.06
327.686	1457.06
327.914	391.06
328.143	190.06
328.372	135.06
328.6	107.06
328.829	110.06
329.058	131.06
329.287	98.06
329.515	106.06
329.744	103.06
329.972	91.06
330.201	108.06
330.43	99.06
330.658	109.06
330.887	134.06
331.115	117.06
331.344	97.06
331.572	99.06
331.801	87.06
332.03	77.06
332.258	81.06
332.486	79.06
332.715	85.06
332.943	92.06
333.172	78.06
333.4	94.06
333.629	99.06
333.857	104.06
334.085	108.06
334.314	89.06
334.542	110.06
334.771	87.06
334.999	90.06
335.227	85.06
335.455	85.06
335.684	103.06
335.912	98.06
336.14	80.06
336.369	99.06
336.597	90.06
336.825	91.06
337.053	91.06
337.281	96.06
337.51	91.06
337.738	78.06
337.966	100.06
338.194	84.06
338.422	88.06
338.65	91.06
338.878	80.06
339.106	84.06
339.334	91.06
339.562	91.06
339.79	95.06
340.018	97.06
340.246	88.06
340.474	84.06
340.702	89.06
340.93	93.06
341.158	81.06
341.386	89.06
341.614	92.06
341.842	95.06
342.07	82.06
342.298	92.06
342.526	83.06
342.754	86.06
342.981	87.06
343.209	86.06
343.437	98.06
343.665	82.06
343.893	85.06
344.12	97.06
344.348	91.06
344.576	89.06
344.804	87.06
345.031	94.06
345.259	93.06
345.487	87.06
345.714	82.06
345.942	88.06
346.17	91.06
346.397	93.06
346.625	95.06
346.853	102.06
347.08	89.06
347.308	84.06
347.535	82.06
347.763	94.06
347.99	81.06
348.218	102.06
348.445	83.06
348.673	95.06
348.9	90.06
349.128	106.06
349.355	88.06
349.583	76.06
349.81	78.06
350.037	72.06
350.265	72.06
350.492	78.06
350.72	94.06
350.947	90.06
351.174	118.06
351.402	111.06
351.629	94.06
351.856	100.06
352.083	95.06
352.311	98.06
352.538	105.06
352.765	100.06
352.992	113.06
353.22	106.06
353.447	89.06
353.674	107.06
353.901	81.06
354.128	105.06
354.355	92.06
354.583	87.06
354.81	98.06
355.037	104.06
355.264	94.06
355.491	93.06
355.718	82.06
355.945	93.06
356.172	97.06
356.399	97.06
356.626	98.06
356.853	74.06
357.08	97.06
357.307	91.06
357.534	90.06
357.761	82.06
357.988	91.06
358.215	100.06
358.441	94.06
358.668	106.06
358.895	87.06
359.122	85.06
359.349	72.06
359.576	98.06
359.802	91.06
360.029	115.06
360.256	103.06
360.483	96.06
360.709	103.06
360.936	85.06
361.163	94.06
361.39	88.06
361.616	87.06
361.843	80.06
362.07	84.06
362.296	102.06
362.523	75.06
362.749	107.06
362.976	74.06
363.203	77.06
363.429	65.06
363.656	67.06
363.882	67.06
364.109	105.06
364.335	84.06
364.562	98.06
364.788	99.06
365.015	84.06
365.241	85.06
365.468	86.06
365.694	103.06
365.92	92.06
366.147	91.06
366.373	73.06
366.599	86.06
366.826	81.06
367.052	90.06
367.278	90.06
367.505	77.06
367.731	87.06
367.957	73.06
368.184	88.06
368.41	95.06
368.636	95.06
368.862	118.06
369.089	92.06
369.315	89.06
369.541	95.06
369.767	97.06
369.993	92.06
370.219	88.06
370.445	81.06
370.672	85.06
370.898	84.06
371.124	82.06
371.35	77.06
371.576	73.06
371.802	92.06
372.028	88.06
372.254	77.06
372.48	84.06
372.706	80.06
372.932	74.06
373.158	83.06
373.384	77.06
373.61	92.06
373.835	87.06
374.061	83.06
374.287	87.06
374.513	82.06
374.739	81.06
374.965	91.06
375.191	98.06
375.416	90.06
375.642	97.06
375.868	97.06
376.094	73.06
376.319	87.06
376.545	112.06
376.771	97.06
376.997	89.06
377.222	114.06
377.448	93.06
377.674	74.06
377.899	63.06
378.125	78.06
378.35	87.06
378.576	87.06
378.802	90.06
379.027	83.06
379.253	83.06
379.478	96.06
379.704	90.06
379.929	87.06
380.155	87.06
380.38	109.06
380.606	97.06
380.831	107.06
381.057	94.06
381.282	84.06
381.507	80.06
381.733	100.06
381.958	89.06
382.184	85.06
382.409	98.06
382.634	91.06
382.86	111.06
383.085	90.06
383.31	109.06
383.535	97.06
383.761	87.06
383.986	94.06
384.211	101.06
384.436	90.06
384.662	92.06
384.887	92.06
385.112	89.06
385.337	102.06
385.562	94.06
385.787	95.06
386.013	89.06
386.238	102.06
386.463	90.06
386.688	111.06
386.913	94.06
387.138	109.06
387.363	104.06
387.588	100.06
387.813	102.06
388.038	93.06
388.263	110.06
388.488	103.06
388.713	90.06
388.938	83.06
389.163	84.06
389.387	91.06
389.612	91.06
389.837	86.06
390.062	82.06
390.287	82.06
390.512	80.06
390.736	81.06
390.961	89.06
391.186	77.06
391.411	90.06
391.636	90.06
391.86	97.06
392.085	94.06
392.31	81.06
392.534	85.06
392.759	90.06
392.984	77.06
393.208	82.06
393.433	69.06
393.658	77.06
393.882	81.06
394.107	83.06
394.331	91.06
394.556	84.06
394.78	84.06
395.005	98.06
395.229	77.06
395.454	87.06
395.678	86.06
395.903	83.06
396.127	79.06
396.352	78.06
396.576	75.06
396.801	78.06
397.025	88.06
397.249	88.06
397.474	82.06
397.698	78.06
397.922	74.06
398.147	78.06
398.371	75.06
398.595	83.06
398.82	85.06
399.044	99.06
399.268	92.06
399.492	68.06
399.717	82.06
399.941	81.06
400.165	91.06
400.389	95.06
400.613	86.06
400.837	81.06
401.062	93.06
401.286	83.06
401.51	69.06
401.734	88.06
401.958	86.06
402.182	118.06
402.406	137.06
402.63	113.06
402.854	99.06
403.078	71.06
403.302	89.06
403.526	87.06
403.75	91.06
403.974	88.06
404.198	86.06
404.422	81.06
404.645	87.06
404.869	86.06
405.093	88.06
405.317	92.06
405.541	89.06
405.765	106.06
405.988	109.06
406.212	175.06
406.436	203.06
406.66	130.06
406.883	92.06
407.107	79.06
407.331	97.06
407.555	100.06
407.778	99.06
408.002	86.06
408.226	93.06
408.449	84.06
408.673	90.06
408.896	85.06
409.12	99.06
409.344	90.06
409.567	94.06
409.791	78.06
410.014	78.06
410.238	92.06
410.461	88.06
410.685	102.06
410.908	96.06
411.132	93.06
411.355	79.06
411.578	90.06
411.802	92.06
412.025	78.06
412.249	76.06
412.472	92.06
412.695	92.06
412.919	105.06
413.142	78.06
413.365	92.06
413.589	82.06
413.812	84.06
414.035	82.06
414.258	72.06
414.482	72.06
414.705	84.06
414.928	101.06
415.151	107.06
415.374	91.06
415.597	94.06
415.821	78.06
416.044	78.06
416.267	88.06
416.49	83.06
416.713	92.06
416.936	97.06
417.159	86.06
417.382	69.06
417.605	91.06
417.828	112.06
418.051	93.06
418.274	86.06
418.497	82.06
418.72	58.06
418.943	88.06
419.166	95.06
419.389	93.06
419.611	89.06
419.834	93.06
420.057	88.06
420.28	85.06
420.503	73.06
420.726	69.06
420.948	81.06
421.171	104.06
421.394	90.06
421.617	84.06
421.839	70.06
422.062	85.06
422.285	77.06
422.507	93.06
422.73	95.06
422.953	95.06
423.175	79.06
423.398	81.06
423.621	88.06
423.843	90.06
424.066	80.06
424.288	92.06
424.511	94.06
424.733	94.06
424.956	90.06
425.178	88.06
425.401	97.06
425.623	93.06
425.846	79.06
426.068	78.06
426.291	70.06
426.513	85.06
426.735	85.06
426.958	113.06
427.18	82.06
427.402	130.06
427.625	137.06
427.847	139.06
428.069	103.06
428.292	78.06
428.514	77.06
428.736	80.06
428.958	81.06
429.181	93.06
429.403	83.06
429.625	70.06
429.847	77.06
430.069	84.06
430.292	89.06
430.514	83.06
430.736	92.06
430.958	83.06
431.18	83.06
431.402	89.06
431.624	89.06
431.846	90.06
432.068	91.06
432.29	78.06
432.512	69.06
432.734	83.06
432.956	90.06
433.178	97.06
433.4	88.06
433.622	88.06
433.844	86.06
434.066	88.06
434.287	72.06
434.509	88.06
434.731	78.06
434.953	81.06
435.175	72.06
435.397	85.06
435.618	98.06
435.84	100.06
436.062	110.06
436.284	116.06
436.505	97.06
436.727	98.06
436.949	90.06
437.17	88.06
437.392	91.06
437.614	82.06
437.835	89.06
438.057	110.06
438.278	123.06
438.5	103.06
438.721	117.06
438.943	100.06
439.165	89.06
439.386	82.06
439.608	79.06
439.829	86.06
440.05	104.06
440.272	134.06
440.493	91.06
440.715	92.06
440.936	87.06
441.158	81.06
441.379	95.06
441.6	104.06
441.822	83.06
442.043	91.06
442.264	94.06
442.486	103.06
442.707	95.06
442.928	97.06
443.149	120.06
443.371	121.06
443.592	99.06
443.813	120.06
444.034	102.06
444.255	81.06
444.476	93.06
444.698	101.06
444.919	81.06
445.14	138.06
445.361	114.06
445.582	109.06
445.803	131.06
446.024	133.06
446.245	120.06
446.466	99.06
446.687	90.06
446.908	75.06
447.129	75.06
447.35	88.06
447.571	100.06
447.792	101.06
448.013	91.06
448.234	94.06
448.455	92.06
448.675	87.06
448.896	112.06
449.117	100.06
449.338	103.06
449.559	128.06
449.779	110.06
450	81.06
450.221	77.06
450.442	85.06
450.662	95.06
450.883	106.06
451.104	96.06
451.324	103.06
451.545	91.06
451.766	88.06
451.986	87.06
452.207	81.06
452.428	91.06
452.648	89.06
452.869	85.06
453.089	98.06
453.31	101.06
453.53	87.06
453.751	83.06
453.971	92.06
454.192	92.06
454.412	78.06
454.633	92.06
454.853	82.06
455.073	73.06
455.294	85.06
455.514	85.06
455.734	83.06
455.955	68.06
456.175	85.06
456.395	77.06
456.616	71.06
456.836	85.06
457.056	85.06
457.276	94.06
457.497	78.06
457.717	85.06
457.937	86.06
458.157	74.06
458.377	83.06
458.598	103.06
458.818	120.06
459.038	141.06
459.258	103.06
459.478	82.06
459.698	73.06
459.918	81.06
460.138	85.06
460.358	90.06
460.578	78.06
460.798	90.06
461.018	71.06
461.238	86.06
461.458	76.06
461.678	90.06
461.898	84.06
462.118	84.06
462.338	77.06
462.558	79.06
462.777	84.06
462.997	86.06
463.217	62.06
463.437	74.06
463.657	87.06
463.876	90.06
464.096	79.06
464.316	82.06
464.536	86.06
464.755	88.06
464.975	109.06
465.195	140.06
465.414	151.06
465.634	81.06
465.854	71.06
466.073	71.06
466.293	82.06
466.512	83.06
466.732	76.06
466.951	70.06
467.171	75.06
467.391	75.06
467.61	88.06
467.829	97.06
468.049	90.06
468.268	99.06
468.488	99.06
468.707	82.06
468.927	92.06
469.146	74.06
469.365	92.06
469.585	83.06
469.804	85.06
470.023	93.06
470.243	78.06
470.462	102.06
470.681	86.06
470.901	83.06
471.12	71.06
471.339	74.06
471.558	93.06
471.777	86.06
471.997	90.06
472.216	94.06
472.435	81.06
472.654	72.06
472.873	94.06
473.092	77.06
473.311	85.06
473.53	87.06
473.749	73.06
473.968	107.06
474.187	96.06
474.406	90.06
474.625	77.06
474.844	83.06
475.063	91.06
475.282	84.06
475.501	81.06
475.72	86.06
475.939	81.06
476.158	74.06
476.377	89.06
476.596	89.06
476.814	93.06
477.033	76.06
477.252	88.06
477.471	85.06
477.69	98.06
477.908	86.06
478.127	92.06
478.346	89.06
478.564	67.06
478.783	87.06
479.002	94.06
479.22	79.06
479.439	79.06
479.658	93.06
479.876	88.06
480.095	88.06
480.313	89.06
480.532	82.06
480.751	75.06
480.969	88.06
481.188	94.06
481.406	108.06
481.624	86.06
481.843	82.06
482.061	86.06
482.28	84.06
482.498	91.06
482.717	79.06
482.935	78.06
483.153	97.06
483.372	86.06
483.59	71.06
483.808	89.06
484.027	83.06
484.245	77.06
484.463	87.06
484.681	93.06
484.9	90.06
485.118	86.06
485.336	97.06
485.554	99.06
485.772	100.06
485.99	95.06
486.209	96.06
486.427	88.06
486.645	111.06
486.863	116.06
487.081	99.06
487.299	86.06
487.517	86.06
487.735	91.06
487.953	95.06
488.171	83.06
488.389	99.06
488.607	77.06
488.825	106.06
489.043	90.06
489.261	77.06
489.479	99.06
489.696	96.06
489.914	89.06
490.132	78.06
490.35	82.06
490.568	92.06
490.786	77.06
491.003	94.06
491.221	98.06
491.439	87.06
491.657	98.06
491.874	107.06
492.092	86.06
492.31	89.06
492.527	79.06
492.745	86.06
492.963	75.06
493.18	90.06
493.398	97.06
493.615	93.06
493.833	76.06
494.05	86.06
494.268	88.06
494.485	78.06
494.703	94.06
494.92	86.06
495.138	88.06
495.355	108.06
495.573	88.06
495.79	82.06
496.008	78.06
496.225	80.06
496.442	102.06
496.66	85.06
496.877	94.06
497.094	89.06
497.312	79.06
497.529	101.06
497.746	87.06
497.963	87.06
498.181	85.06
498.398	80.06
498.615	103.06
498.832	97.06
499.049	85.06
499.267	81.06
499.484	89.06
499.701	81.06
499.918	87.06
500.135	97.06
500.352	70.06
500.569	90.06
500.786	99.06
501.003	80.06
501.22	78.06
501.437	88.06
501.654	78.06
501.871	85.06
502.088	97.06
502.305	90.06
502.522	85.06
502.739	99.06
502.956	87.06
503.172	71.06
503.389	83.06
503.606	101.06
503.823	90.06
504.04	100.06
504.256	79.06
504.473	71.06
504.69	83.06
504.907	98.06
505.123	86.06
505.34	84.06
505.557	83.06
505.773	77.06
505.99	85.06
506.207	89.06
506.423	83.06
506.64	82.06
506.856	77.06
507.073	76.06
507.289	91.06
507.506	97.06
507.722	110.06
507.939	108.06
508.155	84.06
508.372	77.06
508.588	79.06
508.805	71.06
509.021	93.06
509.238	85.06
509.454	92.06
509.67	105.06
509.887	99.06
510.103	135.06
510.319	219.06
510.536	741.06
510.752	2248.06
510.968	610.06
511.184	155.06
511.401	99.06
511.617	93.06
511.833	98.06
512.049	83.06
512.265	90.06
512.481	80.06
512.698	87.06
512.914	93.06
513.13	94.06
513.346	79.06
513.562	97.06
513.778	79.06
513.994	87.06
514.21	89.06
514.426	99.06
514.642	119.06
514.858	117.06
515.074	148.06
515.29	427.06
515.506	1332.06
515.721	494.06
515.937	145.06
516.153	100.06
516.369	91.06
516.585	88.06
516.801	94.06
517.016	84.06
517.232	76.06
517.448	77.06
517.664	91.06
517.879	99.06
518.095	104.06
518.311	91.06
518.527	92.06
518.742	82.06
518.958	90.06
519.173	91.06
519.389	93.06
519.605	102.06
519.82	92.06
520.036	111.06
520.251	109.06
520.467	102.06
520.682	105.06
520.898	89.06
521.113	123.06
521.329	133.06
521.544	197.06
521.76	517.06
521.975	2186.06
522.19	1325.06
522.406	279.06
522.621	110.06
522.836	95.06
523.052	86.06
523.267	93.06
523.482	98.06
523.698	100.06
523.913	113.06
524.128	100.06
524.343	96.06
524.559	82.06
524.774	93.06
524.989	90.06
525.204	98.06
525.419	84.06
525.634	89.06
525.849	89.06
526.064	99.06
526.28	84.06
526.495	90.06
526.71	84.06
526.925	90.06
527.14	85.06
527.355	86.06
527.57	85.06
527.785	79.06
527.999	85.06
528.214	75.06
528.429	104.06
528.644	74.06
528.859	86.06
529.074	98.06
529.289	111.06
529.503	164.06
529.718	97.06
529.933	88.06
530.148	86.06
530.363	85.06
530.577	83.06
530.792	82.06
531.007	90.06
531.221	88.06
531.436	87.06
531.651	98.06
531.865	89.06
532.08	85.06
532.295	96.06
532.509	77.06
532.724	84.06
532.938	85.06
533.153	99.06
533.367	86.06
533.582	81.06
533.796	87.06
534.011	89.06
534.225	97.06
534.44	103.06
534.654	79.06
534.868	88.06
535.083	87.06
535.297	90.06
535.511	89.06
535.726	93.06
535.94	92.06
536.154	89.06
536.369	93.06
536.583	87.06
536.797	70.06
537.011	85.06
537.225	90.06
537.44	85.06
537.654	78.06
537.868	87.06
538.082	92.06
538.296	86.06
538.51	83.06
538.724	89.06
538.938	79.06
539.153	89.06
539.367	98.06
539.581	98.06
539.795	103.06
540.009	86.06
540.222	84.06
540.436	90.06
540.65	87.06
540.864	95.06
541.078	87.06
541.292	94.06
541.506	97.06
541.72	86.06
541.934	90.06
542.147	91.06
542.361	91.06
542.575	77.06
542.789	92.06
543.002	94.06
543.216	108.06
543.43	89.06
543.644	103.06
543.857	85.06
544.071	77.06
544.285	87.06
544.498	80.06
544.712	90.06
544.925	85.06
545.139	90.06
545.352	73.06
545.566	91.06
545.779	91.06
545.993	85.06
546.206	84.06
546.42	86.06
546.633	91.06
546.847	83.06
547.06	78.06
547.274	91.06
547.487	101.06
547.7	81.06
547.914	85.06
548.127	90.06
548.34	88.06
548.554	91.06
548.767	100.06
548.98	87.06
549.193	86.06
549.407	79.06
549.62	101.06
549.833	77.06
550.046	87.06
550.259	90.06
550.473	81.06
550.686	84.06
550.899	75.06
551.112	101.06
551.325	102.06
551.538	98.06
551.751	84.06
551.964	85.06
552.177	91.06
552.39	85.06
552.603	68.06
552.816	81.06
553.029	88.06
553.242	97.06
553.455	83.06
553.667	95.06
553.88	90.06
554.093	102.06
554.306	80.06
554.519	85.06
554.732	86.06
554.944	100.06
555.157	93.06
555.37	99.06
555.583	91.06
555.795	99.06
556.008	85.06
556.221	86.06
556.433	99.06
556.646	79.06
556.859	96.06
557.071	90.06
557.284	85.06
557.496	77.06
557.709	82.06
557.921	85.06
558.134	90.06
558.346	86.06
558.559	90.06
558.771	95.06
558.984	87.06
559.196	74.06
559.409	87.06
559.621	90.06
559.833	88.06
560.046	89.06
560.258	94.06
560.47	72.06
560.683	99.06
560.895	74.06
561.107	87.06
561.32	77.06
561.532	81.06
561.744	91.06
561.956	84.06
562.168	96.06
562.381	88.06
562.593	90.06
562.805	92.06
563.017	93.06
563.229	99.06
563.441	94.06
563.653	81.06
563.865	84.06
564.077	81.06
564.289	87.06
564.501	91.06
564.713	92.06
564.925	83.06
565.137	81.06
565.349	83.06
565.561	78.06
565.773	85.06
565.985	79.06
566.197	84.06
566.408	82.06
566.62	82.06
566.832	72.06
567.044	77.06
567.255	74.06
567.467	80.06
567.679	100.06
567.891	77.06
568.102	74.06
568.314	87.06
568.526	81.06
568.737	84.06
568.949	79.06
569.161	79.06
569.372	71.06
569.584	65.06
569.795	73.06
570.007	107.06
570.218	233.06
570.43	121.06
570.641	100.06
570.853	94.06
571.064	103.06
571.276	91.06
571.487	91.06
571.698	87.06
571.91	75.06
572.121	84.06
572.333	93.06
572.544	87.06
572.755	84.06
572.966	86.06
573.178	71.06
573.389	90.06
573.6	74.06
573.811	92.06
574.023	76.06
574.234	92.06
574.445	77.06
574.656	72.06
574.867	83.06
575.078	87.06
575.289	81.06
575.501	91.06
575.712	81.06
575.923	66.06
576.134	92.06
576.345	95.06
576.556	92.06
576.767	93.06
576.978	77.06
577.188	93.06
577.399	73.06
577.61	81.06
577.821	92.06
578.032	108.06
578.243	269.06
578.454	766.06
578.665	196.06
578.875	91.06
579.086	108.06
579.297	83.06
579.508	77.06
579.718	93.06
579.929	95.06
580.14	88.06
580.35	86.06
580.561	88.06
580.772	72.06
580.982	92.06
581.193	78.06
581.403	75.06
581.614	68.06
581.825	74.06
582.035	77.06
582.246	104.06
582.456	80.06
582.667	85.06
582.877	92.06
583.087	87.06
583.298	79.06
583.508	92.06
583.719	81.06
583.929	86.06
584.139	81.06
584.35	82.06
584.56	92.06
584.77	81.06
584.981	94.06
585.191	81.06
585.401	98.06
585.611	87.06
585.821	89.06
586.032	83.06
586.242	91.06
586.452	93.06
586.662	88.06
586.872	95.06
587.082	81.06
587.292	73.06
587.502	86.06
587.713	90.06
587.923	75.06
588.133	82.06
588.343	92.06
588.553	92.06
588.762	81.06
588.972	72.06
589.182	87.06
589.392	89.06
589.602	84.06
589.812	79.06
590.022	87.06
590.232	87.06
590.441	77.06
590.651	78.06
590.861	73.06
591.071	81.06
591.281	77.06
591.49	88.06
591.7	86.06
591.91	90.06
592.119	89.06
592.329	87.06
592.539	91.06
592.748	92.06
592.958	79.06
593.167	90.06
593.377	87.06
593.587	79.06
593.796	87.06
594.006	78.06
594.215	94.06
594.424	93.06
594.634	86.06
594.843	81.06
595.053	70.06
595.262	88.06
595.472	80.06
595.681	86.06
595.89	91.06
596.1	93.06
596.309	81.06
596.518	85.06
596.727	84.06
596.937	93.06
597.146	83.06
597.355	94.06
597.564	91.06
597.774	90.06
597.983	88.06
598.192	91.06
598.401	78.06
598.61	78.06
598.819	90.06
599.028	81.06
599.237	79.06
599.446	86.06
599.655	89.06
599.864	86.06
600.073	83.06
600.282	92.06
600.491	70.06
600.7	92.06
600.909	96.06
601.118	97.06
601.327	81.06
601.536	100.06
601.745	93.06
601.953	83.06
602.162	78.06
602.371	90.06
602.58	94.06
602.789	94.06
602.997	88.06
603.206	85.06
603.415	90.06
603.623	84.06
603.832	81.06
604.041	77.06
604.249	77.06
604.458	91.06
604.666	92.06
604.875	79.06
605.084	89.06
605.292	86.06
605.501	87.06
605.709	74.06
605.918	71.06
606.126	79.06
606.334	101.06
606.543	71.06
606.751	88.06
606.96	85.06
607.168	79.06
607.376	93.06
607.585	89.06
607.793	78.06
608.001	75.06
608.21	90.06
608.418	99.06
608.626	87.06
608.834	80.06
609.043	83.06
609.251	82.06
609.459	85.06
609.667	89.06
609.875	90.06
610.083	87.06
610.291	102.06
610.499	85.06
610.707	97.06
610.916	70.06
611.124	77.06
611.332	79.06
611.54	101.06
611.748	81.06
611.955	77.06
612.163	83.06
612.371	91.06
612.579	93.06
612.787	82.06
612.995	86.06
613.203	84.06
613.411	85.06
613.618	87.06
613.826	88.06
614.034	75.06
614.242	89.06
614.449	71.06
614.657	78.06
614.865	92.06
615.072	85.06
615.28	92.06
615.488	91.06
615.695	88.06
615.903	80.06
616.111	86.06
616.318	94.06
616.526	90.06
616.733	85.06
616.941	98.06
617.148	89.06
617.356	78.06
617.563	83.06
617.771	96.06
617.978	82.06
618.185	99.06
618.393	90.06
618.6	92.06
618.807	74.06
619.015	82.06
619.222	78.06
619.429	86.06
619.637	98.06
619.844	81.06
620.051	86.06
620.258	85.06
620.466	75.06
620.673	80.06
620.88	79.06
621.087	84.06
621.294	89.06
621.501	74.06
621.708	90.06
621.915	92.06
622.122	66.06
622.329	97.06
622.536	84.06
622.743	85.06
622.95	79.06
623.157	87.06
623.364	70.06
623.571	83.06
623.778	81.06
623.985	85.06
624.192	74.06
624.399	79.06
624.606	82.06
624.812	89.06
625.019	87.06
625.226	83.06
625.433	87.06
625.639	90.06
625.846	77.06
626.053	82.06
626.259	88.06
626.466	78.06
626.673	81.06
626.879	82.06
627.086	66.06
627.293	79.06
627.499	94.06
627.706	83.06
627.912	79.06
628.119	92.06
628.325	86.06
628.532	72.06
628.738	87.06
628.945	86.06
629.151	82.06
629.357	79.06
629.564	103.06
629.77	99.06
629.976	83.06
630.183	83.06
630.389	60.06
630.595	72.06
630.802	76.06
631.008	82.06
631.214	84.06
631.42	89.06
631.627	101.06
631.833	87.06
632.039	78.06
632.245	79.06
632.451	78.06
632.657	78.06
632.863	78.06
633.069	84.06
633.275	72.06
633.481	74.06
633.688	81.06
633.893	87.06
634.099	81.06
634.305	93.06
634.511	79.06
634.717	84.06
634.923	74.06
635.129	82.06
635.335	81.06
635.541	87.06
635.747	95.06
635.952	72.06
636.158	92.06
636.364	83.06
636.57	79.06
636.775	92.06
636.981	73.06
637.187	81.06
637.392	81.06
637.598	77.06
637.804	92.06
638.009	73.06
638.215	81.06
638.421	94.06
638.626	85.06
638.832	81.06
639.037	79.06
639.243	74.06
639.448	86.06
639.654	76.06
639.859	76.06
640.065	72.06
640.27	75.06
640.475	86.06
640.681	78.06
640.886	75.06
641.091	81.06
641.297	86.06
641.502	72.06
641.707	80.06
641.913	69.06
642.118	75.06
642.323	88.06
642.528	92.06
642.733	72.06
642.939	82.06
643.144	87.06
643.349	85.06
643.554	92.06
643.759	94.06
643.964	82.06
644.169	85.06
644.374	77.06
644.579	76.06
644.784	81.06
644.989	76.06
645.194	76.06
645.399	79.06
645.604	73.06
645.809	82.06
646.014	72.06
646.219	78.06
646.423	69.06
646.628	81.06
646.833	88.06
647.038	82.06
647.243	82.06
647.447	89.06
647.652	96.06
647.857	94.06
648.062	90.06
648.266	94.06
648.471	80.06
648.676	93.06
648.88	78.06
649.085	79.06
649.289	96.06
649.494	105.06
649.698	131.06
649.903	97.06
650.107	93.06
650.312	80.06
650.516	76.06
650.721	78.06
650.925	75.06
651.13	91.06
651.334	88.06
651.539	73.06
651.743	78.06
651.947	73.06
652.152	77.06
652.356	64.06
652.56	80.06
652.764	53.06
652.969	85.06
653.173	82.06
653.377	80.06
653.581	72.06
653.785	84.06
653.99	86.06
654.194	86.06
654.398	72.06
654.602	88.06
654.806	71.06
655.01	85.06
655.214	76.06
655.418	83.06
655.622	77.06
655.826	83.06
656.03	78.06
656.234	73.06
656.438	95.06
656.642	102.06
656.846	101.06
657.049	59.06
657.253	98.06
657.457	77.06
657.661	77.06
657.865	89.06
658.068	72.06
658.272	76.06
658.476	71.06
658.68	79.06
658.883	87.06
659.087	77.06
659.291	82.06
659.494	97.06
659.698	77.06
659.901	75.06
660.105	78.06
660.309	72.06
660.512	70.06
660.716	80.06
660.919	70.06
661.123	61.06
661.326	85.06
661.53	97.06
661.733	80.06
661.936	89.06
662.14	65.06
662.343	77.06
662.546	77.06
662.75	80.06
662.953	82.06
663.156	69.06
663.36	79.06
663.563	82.06
663.766	69.06
663.969	82.06
664.173	72.06
664.376	69.06
664.579	65.06
664.782	76.06
664.985	72.06
665.188	72.06
665.391	75.06
665.594	72.06
665.797	78.06
666	71.06
666.203	77.06
666.406	72.06
666.609	77.06
666.812	84.06
667.015	75.06
667.218	76.06
667.421	79.06
667.624	84.06
667.827	85.06
668.03	68.06
668.232	87.06
668.435	74.06
668.638	74.06
668.841	81.06
669.043	79.06
669.246	80.06
669.449	81.06
669.651	83.06
669.854	77.06
670.057	81.06
670.259	75.06
670.462	98.06
670.665	70.06
670.867	84.06
671.07	77.06
671.272	75.06
671.475	67.06
671.677	82.06
671.88	74.06
672.082	82.06
672.284	75.06
672.487	83.06
672.689	76.06
672.892	87.06
