Data from Uncirc_1999_H10_HRD10591_00048.txt Node
Date: Wed Jan 03 11:22:14 EST 2024
User: Yrep
Spectrometer: HR+D1059
Trigger mode: 1
Integration Time (sec): 1.000000E-1
Scans to average: 1
Electric dark correction enabled: true
Nonlinearity correction enabled: false
Boxcar width: 0
XAxis mode: Wavelengths
Number of Pixels in Spectrum: 2048
>>>>>Begin Spectral Data<<<<<
223.165	-23.25
223.4	-23.25
223.635	-23.25
223.869	-21.25
224.104	-1.25
224.338	-9.25
224.573	-5.25
224.808	-20.25
225.042	-5.25
225.277	-8.25
225.511	6.75
225.746	-13.25
225.98	4.75
226.215	5.75
226.449	11.75
226.683	17.75
226.918	22.75
227.152	37.75
227.387	43.75
227.621	43.75
227.856	45.75
228.09	51.75
228.324	48.75
228.559	37.75
228.793	53.75
229.027	52.75
229.262	60.75
229.496	69.75
229.73	75.75
229.964	88.75
230.199	76.75
230.433	70.75
230.667	76.75
230.901	85.75
231.136	78.75
231.37	74.75
231.604	82.75
231.838	77.75
232.072	84.75
232.306	79.75
232.541	89.75
232.775	82.75
233.009	82.75
233.243	88.75
233.477	67.75
233.711	72.75
233.945	80.75
234.179	86.75
234.413	65.75
234.647	77.75
234.881	75.75
235.115	92.75
235.349	87.75
235.583	79.75
235.817	83.75
236.051	72.75
236.285	83.75
236.519	67.75
236.753	85.75
236.987	77.75
237.221	79.75
237.455	97.75
237.689	85.75
237.922	88.75
238.156	67.75
238.39	75.75
238.624	75.75
238.858	66.75
239.091	79.75
239.325	78.75
239.559	91.75
239.793	69.75
240.027	86.75
240.26	86.75
240.494	82.75
240.728	77.75
240.961	81.75
241.195	50.75
241.429	69.75
241.662	82.75
241.896	73.75
242.13	71.75
242.363	81.75
242.597	71.75
242.83	82.75
243.064	79.75
243.298	81.75
243.531	70.75
243.765	88.75
243.998	73.75
244.232	80.75
244.465	80.75
244.699	95.75
244.932	67.75
245.166	63.75
245.399	89.75
245.633	76.75
245.866	75.75
246.099	79.75
246.333	71.75
246.566	78.75
246.8	78.75
247.033	83.75
247.266	80.75
247.5	75.75
247.733	84.75
247.966	87.75
248.2	74.75
248.433	80.75
248.666	69.75
248.899	77.75
249.133	92.75
249.366	83.75
249.599	89.75
249.832	83.75
250.066	78.75
250.299	72.75
250.532	89.75
250.765	94.75
250.998	79.75
251.231	84.75
251.465	85.75
251.698	83.75
251.931	104.75
252.164	68.75
252.397	85.75
252.63	75.75
252.863	74.75
253.096	81.75
253.329	87.75
253.562	74.75
253.795	89.75
254.028	89.75
254.261	87.75
254.494	86.75
254.727	88.75
254.96	84.75
255.193	74.75
255.426	82.75
255.659	77.75
255.892	78.75
256.124	80.75
256.357	79.75
256.59	75.75
256.823	78.75
257.056	84.75
257.289	74.75
257.521	77.75
257.754	69.75
257.987	85.75
258.22	80.75
258.452	90.75
258.685	88.75
258.918	71.75
259.151	73.75
259.383	100.75
259.616	79.75
259.849	89.75
260.081	79.75
260.314	87.75
260.547	74.75
260.779	77.75
261.012	61.75
261.244	64.75
261.477	93.75
261.71	88.75
261.942	112.75
262.175	99.75
262.407	94.75
262.64	84.75
262.872	97.75
263.105	87.75
263.337	94.75
263.57	72.75
263.802	61.75
264.035	82.75
264.267	86.75
264.499	96.75
264.732	84.75
264.964	84.75
265.197	84.75
265.429	88.75
265.661	79.75
265.894	78.75
266.126	85.75
266.358	69.75
266.591	83.75
266.823	90.75
267.055	81.75
267.287	93.75
267.52	76.75
267.752	83.75
267.984	85.75
268.216	77.75
268.448	87.75
268.681	93.75
268.913	81.75
269.145	86.75
269.377	94.75
269.609	85.75
269.841	93.75
270.073	91.75
270.306	88.75
270.538	84.75
270.77	78.75
271.002	93.75
271.234	81.75
271.466	82.75
271.698	85.75
271.93	78.75
272.162	90.75
272.394	95.75
272.626	94.75
272.858	94.75
273.09	86.75
273.322	79.75
273.553	95.75
273.785	78.75
274.017	89.75
274.249	86.75
274.481	82.75
274.713	97.75
274.945	90.75
275.176	90.75
275.408	91.75
275.64	88.75
275.872	83.75
276.104	86.75
276.335	81.75
276.567	94.75
276.799	100.75
277.031	89.75
277.262	90.75
277.494	80.75
277.726	81.75
277.957	74.75
278.189	72.75
278.421	89.75
278.652	92.75
278.884	81.75
279.115	81.75
279.347	80.75
279.579	103.75
279.81	85.75
280.042	86.75
280.273	86.75
280.505	99.75
280.736	77.75
280.968	91.75
281.199	83.75
281.431	89.75
281.662	75.75
281.894	91.75
282.125	96.75
282.356	112.75
282.588	120.75
282.819	110.75
283.051	89.75
283.282	90.75
283.513	90.75
283.745	100.75
283.976	91.75
284.207	93.75
284.439	85.75
284.67	85.75
284.901	78.75
285.132	85.75
285.364	88.75
285.595	105.75
285.826	97.75
286.057	91.75
286.288	78.75
286.52	85.75
286.751	107.75
286.982	88.75
287.213	79.75
287.444	77.75
287.675	85.75
287.906	96.75
288.138	96.75
288.369	90.75
288.6	96.75
288.831	82.75
289.062	87.75
289.293	89.75
289.524	82.75
289.755	86.75
289.986	66.75
290.217	80.75
290.448	97.75
290.679	87.75
290.91	92.75
291.141	83.75
291.371	102.75
291.602	71.75
291.833	97.75
292.064	97.75
292.295	91.75
292.526	90.75
292.757	96.75
292.987	83.75
293.218	84.75
293.449	87.75
293.68	98.75
293.91	94.75
294.141	83.75
294.372	93.75
294.603	82.75
294.833	80.75
295.064	80.75
295.295	70.75
295.525	82.75
295.756	94.75
295.987	105.75
296.217	127.75
296.448	113.75
296.679	99.75
296.909	92.75
297.14	88.75
297.37	89.75
297.601	99.75
297.831	90.75
298.062	88.75
298.292	98.75
298.523	89.75
298.753	82.75
298.984	105.75
299.214	90.75
299.445	99.75
299.675	79.75
299.905	82.75
300.136	85.75
300.366	90.75
300.597	93.75
300.827	109.75
301.057	97.75
301.288	115.75
301.518	91.75
301.748	89.75
301.979	100.75
302.209	88.75
302.439	91.75
302.669	107.75
302.9	94.75
303.13	97.75
303.36	85.75
303.59	105.75
303.82	109.75
304.051	93.75
304.281	90.75
304.511	87.75
304.741	88.75
304.971	99.75
305.201	87.75
305.431	94.75
305.661	89.75
305.891	89.75
306.121	86.75
306.352	106.75
306.582	88.75
306.812	85.75
307.042	104.75
307.272	85.75
307.502	86.75
307.731	85.75
307.961	109.75
308.191	98.75
308.421	87.75
308.651	94.75
308.881	94.75
309.111	91.75
309.341	84.75
309.571	101.75
309.8	88.75
310.03	93.75
310.26	106.75
310.49	91.75
310.72	85.75
310.949	94.75
311.179	86.75
311.409	84.75
311.639	92.75
311.868	94.75
312.098	94.75
312.328	97.75
312.557	109.75
312.787	104.75
313.017	101.75
313.246	94.75
313.476	97.75
313.706	89.75
313.935	102.75
314.165	93.75
314.394	105.75
314.624	82.75
314.853	98.75
315.083	103.75
315.312	92.75
315.542	77.75
315.771	97.75
316.001	94.75
316.23	91.75
316.46	106.75
316.689	90.75
316.919	88.75
317.148	92.75
317.377	88.75
317.607	81.75
317.836	94.75
318.065	95.75
318.295	107.75
318.524	76.75
318.753	91.75
318.983	95.75
319.212	107.75
319.441	112.75
319.67	92.75
319.9	106.75
320.129	79.75
320.358	90.75
320.587	102.75
320.816	104.75
321.046	100.75
321.275	88.75
321.504	104.75
321.733	93.75
321.962	90.75
322.191	98.75
322.42	102.75
322.649	107.75
322.878	121.75
323.108	114.75
323.337	122.75
323.566	140.75
323.795	163.75
324.024	222.75
324.253	401.75
324.482	889.75
324.71	1846.75
324.939	2379.75
325.168	864.75
325.397	250.75
325.626	149.75
325.855	121.75
326.084	126.75
326.313	122.75
326.542	157.75
326.77	246.75
326.999	505.75
327.228	1015.75
327.457	1869.75
327.686	1451.75
327.914	411.75
328.143	190.75
328.372	132.75
328.6	115.75
328.829	118.75
329.058	112.75
329.287	110.75
329.515	105.75
329.744	103.75
329.972	91.75
330.201	108.75
330.43	114.75
330.658	127.75
330.887	125.75
331.115	112.75
331.344	90.75
331.572	95.75
331.801	98.75
332.03	106.75
332.258	97.75
332.486	99.75
332.715	104.75
332.943	98.75
333.172	87.75
333.4	105.75
333.629	103.75
333.857	108.75
334.085	104.75
334.314	91.75
334.542	92.75
334.771	110.75
334.999	100.75
335.227	95.75
335.455	97.75
335.684	77.75
335.912	93.75
336.14	103.75
336.369	99.75
336.597	94.75
336.825	95.75
337.053	91.75
337.281	95.75
337.51	80.75
337.738	114.75
337.966	100.75
338.194	106.75
338.422	80.75
338.65	85.75
338.878	94.75
339.106	84.75
339.334	76.75
339.562	95.75
339.79	94.75
340.018	103.75
340.246	98.75
340.474	77.75
340.702	82.75
340.93	93.75
341.158	104.75
341.386	103.75
341.614	99.75
341.842	94.75
342.07	98.75
342.298	88.75
342.526	95.75
342.754	83.75
342.981	95.75
343.209	93.75
343.437	98.75
343.665	97.75
343.893	102.75
344.12	86.75
344.348	91.75
344.576	107.75
344.804	96.75
345.031	87.75
345.259	96.75
345.487	85.75
345.714	95.75
345.942	101.75
346.17	92.75
346.397	81.75
346.625	92.75
346.853	90.75
347.08	97.75
347.308	102.75
347.535	95.75
347.763	94.75
347.99	84.75
348.218	108.75
348.445	101.75
348.673	102.75
348.9	85.75
349.128	98.75
349.355	102.75
349.583	101.75
349.81	93.75
350.037	96.75
350.265	96.75
350.492	86.75
350.72	90.75
350.947	106.75
351.174	97.75
351.402	107.75
351.629	106.75
351.856	105.75
352.083	113.75
352.311	112.75
352.538	106.75
352.765	111.75
352.992	113.75
353.22	117.75
353.447	99.75
353.674	114.75
353.901	103.75
354.128	103.75
354.355	105.75
354.583	106.75
354.81	99.75
355.037	90.75
355.264	103.75
355.491	81.75
355.718	91.75
355.945	82.75
356.172	97.75
356.399	97.75
356.626	95.75
356.853	97.75
357.08	113.75
357.307	76.75
357.534	90.75
357.761	101.75
357.988	83.75
358.215	101.75
358.441	78.75
358.668	81.75
358.895	91.75
359.122	95.75
359.349	82.75
359.576	95.75
359.802	99.75
360.029	103.75
360.256	88.75
360.483	103.75
360.709	92.75
360.936	105.75
361.163	94.75
361.39	99.75
361.616	82.75
361.843	83.75
362.07	93.75
362.296	98.75
362.523	86.75
362.749	98.75
362.976	97.75
363.203	81.75
363.429	77.75
363.656	104.75
363.882	91.75
364.109	90.75
364.335	97.75
364.562	106.75
364.788	82.75
365.015	95.75
365.241	107.75
365.468	93.75
365.694	92.75
365.92	91.75
366.147	98.75
366.373	95.75
366.599	91.75
366.826	78.75
367.052	77.75
367.278	91.75
367.505	97.75
367.731	99.75
367.957	104.75
368.184	96.75
368.41	95.75
368.636	120.75
368.862	115.75
369.089	106.75
369.315	93.75
369.541	85.75
369.767	97.75
369.993	91.75
370.219	92.75
370.445	99.75
370.672	101.75
370.898	90.75
371.124	85.75
371.35	96.75
371.576	85.75
371.802	84.75
372.028	89.75
372.254	90.75
372.48	98.75
372.706	95.75
372.932	99.75
373.158	96.75
373.384	102.75
373.61	102.75
373.835	102.75
374.061	88.75
374.287	93.75
374.513	106.75
374.739	87.75
374.965	106.75
375.191	86.75
375.416	91.75
375.642	87.75
375.868	85.75
376.094	93.75
376.319	94.75
376.545	96.75
376.771	81.75
376.997	88.75
377.222	90.75
377.448	98.75
377.674	101.75
377.899	90.75
378.125	91.75
378.35	91.75
378.576	104.75
378.802	89.75
379.027	86.75
379.253	100.75
379.478	103.75
379.704	103.75
379.929	91.75
380.155	93.75
380.38	93.75
380.606	70.75
380.831	79.75
381.057	99.75
381.282	92.75
381.507	93.75
381.733	104.75
381.958	91.75
382.184	101.75
382.409	107.75
382.634	114.75
382.86	98.75
383.085	110.75
383.31	93.75
383.535	119.75
383.761	110.75
383.986	104.75
384.211	104.75
384.436	97.75
384.662	109.75
384.887	102.75
385.112	105.75
385.337	125.75
385.562	104.75
385.787	106.75
386.013	111.75
386.238	111.75
386.463	122.75
386.688	115.75
386.913	110.75
387.138	99.75
387.363	114.75
387.588	105.75
387.813	101.75
388.038	100.75
388.263	102.75
388.488	116.75
388.713	95.75
388.938	105.75
389.163	110.75
389.387	99.75
389.612	85.75
389.837	93.75
390.062	91.75
390.287	98.75
390.512	94.75
390.736	88.75
390.961	100.75
391.186	107.75
391.411	94.75
391.636	96.75
391.86	82.75
392.085	74.75
392.31	80.75
392.534	78.75
392.759	85.75
392.984	104.75
393.208	74.75
393.433	86.75
393.658	80.75
393.882	88.75
394.107	95.75
394.331	79.75
394.556	97.75
394.78	104.75
395.005	95.75
395.229	89.75
395.454	95.75
395.678	94.75
395.903	83.75
396.127	97.75
396.352	73.75
396.576	87.75
396.801	85.75
397.025	74.75
397.249	92.75
397.474	89.75
397.698	104.75
397.922	91.75
398.147	110.75
398.371	85.75
398.595	95.75
398.82	86.75
399.044	89.75
399.268	95.75
399.492	71.75
399.717	84.75
399.941	88.75
400.165	83.75
400.389	100.75
400.613	91.75
400.837	77.75
401.062	102.75
401.286	93.75
401.51	99.75
401.734	107.75
401.958	96.75
402.182	118.75
402.406	149.75
402.63	101.75
402.854	97.75
403.078	87.75
403.302	79.75
403.526	97.75
403.75	79.75
403.974	83.75
404.198	103.75
404.422	88.75
404.645	94.75
404.869	103.75
405.093	98.75
405.317	95.75
405.541	85.75
405.765	105.75
405.988	106.75
406.212	171.75
406.436	191.75
406.66	126.75
406.883	97.75
407.107	79.75
407.331	104.75
407.555	97.75
407.778	99.75
408.002	94.75
408.226	87.75
408.449	96.75
408.673	83.75
408.896	93.75
409.12	101.75
409.344	91.75
409.567	85.75
409.791	95.75
410.014	81.75
410.238	82.75
410.461	90.75
410.685	105.75
410.908	103.75
411.132	110.75
411.355	99.75
411.578	97.75
411.802	97.75
412.025	101.75
412.249	96.75
412.472	93.75
412.695	101.75
412.919	86.75
413.142	95.75
413.365	93.75
413.589	81.75
413.812	95.75
414.035	93.75
414.258	99.75
414.482	85.75
414.705	92.75
414.928	109.75
415.151	98.75
415.374	81.75
415.597	88.75
415.821	87.75
416.044	82.75
416.267	83.75
416.49	96.75
416.713	96.75
416.936	84.75
417.159	89.75
417.382	74.75
417.605	91.75
417.828	95.75
418.051	91.75
418.274	86.75
418.497	73.75
418.72	82.75
418.943	89.75
419.166	85.75
419.389	87.75
419.611	100.75
419.834	87.75
420.057	91.75
420.28	100.75
420.503	81.75
420.726	79.75
420.948	101.75
421.171	104.75
421.394	90.75
421.617	92.75
421.839	90.75
422.062	100.75
422.285	91.75
422.507	97.75
422.73	88.75
422.953	96.75
423.175	85.75
423.398	82.75
423.621	89.75
423.843	85.75
424.066	108.75
424.288	87.75
424.511	88.75
424.733	104.75
424.956	95.75
425.178	104.75
425.401	98.75
425.623	96.75
425.846	94.75
426.068	93.75
426.291	97.75
426.513	99.75
426.735	93.75
426.958	93.75
427.18	96.75
427.402	136.75
427.625	153.75
427.847	117.75
428.069	97.75
428.292	83.75
428.514	95.75
428.736	90.75
428.958	84.75
429.181	99.75
429.403	81.75
429.625	98.75
429.847	81.75
430.069	92.75
430.292	80.75
430.514	76.75
430.736	93.75
430.958	94.75
431.18	88.75
431.402	90.75
431.624	78.75
431.846	87.75
432.068	92.75
432.29	105.75
432.512	75.75
432.734	79.75
432.956	102.75
433.178	99.75
433.4	94.75
433.622	94.75
433.844	98.75
434.066	95.75
434.287	97.75
434.509	90.75
434.731	98.75
434.953	101.75
435.175	99.75
435.397	89.75
435.618	105.75
435.84	93.75
436.062	118.75
436.284	108.75
436.505	102.75
436.727	93.75
436.949	101.75
437.17	98.75
437.392	90.75
437.614	87.75
437.835	107.75
438.057	114.75
438.278	110.75
438.5	102.75
438.721	123.75
438.943	95.75
439.165	85.75
439.386	92.75
439.608	87.75
439.829	91.75
440.05	114.75
440.272	127.75
440.493	87.75
440.715	90.75
440.936	85.75
441.158	90.75
441.379	96.75
441.6	82.75
441.822	97.75
442.043	91.75
442.264	103.75
442.486	95.75
442.707	93.75
442.928	97.75
443.149	117.75
443.371	112.75
443.592	93.75
443.813	98.75
444.034	108.75
444.255	101.75
444.476	87.75
444.698	87.75
444.919	86.75
445.14	122.75
445.361	118.75
445.582	102.75
445.803	139.75
446.024	127.75
446.245	131.75
446.466	110.75
446.687	85.75
446.908	87.75
447.129	95.75
447.35	90.75
447.571	93.75
447.792	89.75
448.013	106.75
448.234	103.75
448.455	96.75
448.675	114.75
448.896	128.75
449.117	76.75
449.338	109.75
449.559	128.75
449.779	138.75
450	95.75
450.221	90.75
450.442	89.75
450.662	95.75
450.883	100.75
451.104	123.75
451.324	97.75
451.545	88.75
451.766	81.75
451.986	81.75
452.207	89.75
452.428	91.75
452.648	81.75
452.869	112.75
453.089	99.75
453.31	107.75
453.53	85.75
453.751	93.75
453.971	101.75
454.192	112.75
454.412	85.75
454.633	77.75
454.853	84.75
455.073	80.75
455.294	101.75
455.514	96.75
455.734	93.75
455.955	81.75
456.175	82.75
456.395	105.75
456.616	78.75
456.836	91.75
457.056	84.75
457.276	90.75
457.497	90.75
457.717	91.75
457.937	80.75
458.157	80.75
458.377	87.75
458.598	99.75
458.818	146.75
459.038	138.75
459.258	110.75
459.478	97.75
459.698	92.75
459.918	99.75
460.138	83.75
460.358	86.75
460.578	103.75
460.798	82.75
461.018	90.75
461.238	91.75
461.458	87.75
461.678	74.75
461.898	94.75
462.118	86.75
462.338	105.75
462.558	91.75
462.777	77.75
462.997	83.75
463.217	83.75
463.437	99.75
463.657	92.75
463.876	83.75
464.096	79.75
464.316	92.75
464.536	94.75
464.755	95.75
464.975	90.75
465.195	132.75
465.414	137.75
465.634	104.75
465.854	103.75
466.073	107.75
466.293	86.75
466.512	78.75
466.732	84.75
466.951	85.75
467.171	106.75
467.391	95.75
467.61	85.75
467.829	85.75
468.049	101.75
468.268	93.75
468.488	92.75
468.707	83.75
468.927	87.75
469.146	86.75
469.365	104.75
469.585	98.75
469.804	91.75
470.023	95.75
470.243	90.75
470.462	85.75
470.681	111.75
470.901	85.75
471.12	74.75
471.339	101.75
471.558	89.75
471.777	91.75
471.997	90.75
472.216	87.75
472.435	103.75
472.654	93.75
472.873	83.75
473.092	95.75
473.311	78.75
473.53	99.75
473.749	93.75
473.968	88.75
474.187	103.75
474.406	97.75
474.625	93.75
474.844	70.75
475.063	95.75
475.282	91.75
475.501	81.75
475.72	85.75
475.939	99.75
476.158	92.75
476.377	91.75
476.596	89.75
476.814	94.75
477.033	81.75
477.252	82.75
477.471	97.75
477.69	86.75
477.908	93.75
478.127	99.75
478.346	86.75
478.564	81.75
478.783	104.75
479.002	95.75
479.22	87.75
479.439	115.75
479.658	94.75
479.876	90.75
480.095	83.75
480.313	82.75
480.532	87.75
480.751	101.75
480.969	102.75
481.188	109.75
481.406	115.75
481.624	91.75
481.843	97.75
482.061	81.75
482.28	99.75
482.498	86.75
482.717	89.75
482.935	90.75
483.153	74.75
483.372	78.75
483.59	81.75
483.808	83.75
484.027	95.75
484.245	93.75
484.463	90.75
484.681	84.75
484.9	101.75
485.118	103.75
485.336	97.75
485.554	104.75
485.772	103.75
485.99	105.75
486.209	93.75
486.427	102.75
486.645	103.75
486.863	90.75
487.081	110.75
487.299	92.75
487.517	95.75
487.735	100.75
487.953	95.75
488.171	94.75
488.389	86.75
488.607	94.75
488.825	82.75
489.043	90.75
489.261	85.75
489.479	85.75
489.696	92.75
489.914	81.75
490.132	103.75
490.35	105.75
490.568	105.75
490.786	89.75
491.003	74.75
491.221	93.75
491.439	83.75
491.657	93.75
491.874	96.75
492.092	101.75
492.31	96.75
492.527	82.75
492.745	83.75
492.963	90.75
493.18	94.75
493.398	82.75
493.615	90.75
493.833	103.75
494.05	87.75
494.268	80.75
494.485	85.75
494.703	93.75
494.92	91.75
495.138	105.75
495.355	91.75
495.573	95.75
495.79	90.75
496.008	92.75
496.225	80.75
496.442	99.75
496.66	90.75
496.877	82.75
497.094	81.75
497.312	81.75
497.529	101.75
497.746	93.75
497.963	81.75
498.181	85.75
498.398	109.75
498.615	105.75
498.832	98.75
499.049	80.75
499.267	102.75
499.484	89.75
499.701	88.75
499.918	98.75
500.135	92.75
500.352	87.75
500.569	83.75
500.786	95.75
501.003	87.75
501.22	89.75
501.437	97.75
501.654	78.75
501.871	108.75
502.088	103.75
502.305	104.75
502.522	96.75
502.739	91.75
502.956	105.75
503.172	109.75
503.389	96.75
503.606	103.75
503.823	87.75
504.04	99.75
504.256	104.75
504.473	98.75
504.69	82.75
504.907	76.75
505.123	75.75
505.34	88.75
505.557	80.75
505.773	87.75
505.99	107.75
506.207	105.75
506.423	93.75
506.64	91.75
506.856	89.75
507.073	86.75
507.289	94.75
507.506	99.75
507.722	100.75
507.939	100.75
508.155	89.75
508.372	82.75
508.588	99.75
508.805	107.75
509.021	107.75
509.238	106.75
509.454	94.75
509.67	98.75
509.887	98.75
510.103	119.75
510.319	193.75
510.536	734.75
510.752	2201.75
510.968	638.75
511.184	165.75
511.401	105.75
511.617	106.75
511.833	99.75
512.049	99.75
512.265	90.75
512.481	83.75
512.698	104.75
512.914	76.75
513.13	101.75
513.346	92.75
513.562	91.75
513.778	99.75
513.994	90.75
514.21	106.75
514.426	99.75
514.642	119.75
514.858	135.75
515.074	156.75
515.29	405.75
515.506	1305.75
515.721	469.75
515.937	153.75
516.153	109.75
516.369	98.75
516.585	84.75
516.801	92.75
517.016	85.75
517.232	84.75
517.448	93.75
517.664	79.75
517.879	84.75
518.095	86.75
518.311	99.75
518.527	104.75
518.742	89.75
518.958	91.75
519.173	103.75
519.389	85.75
519.605	89.75
519.82	113.75
520.036	107.75
520.251	130.75
520.467	109.75
520.682	108.75
520.898	122.75
521.113	105.75
521.329	142.75
521.544	181.75
521.76	503.75
521.975	2106.75
522.19	1293.75
522.406	293.75
522.621	125.75
522.836	87.75
523.052	89.75
523.267	76.75
523.482	91.75
523.698	98.75
523.913	123.75
524.128	114.75
524.343	91.75
524.559	83.75
524.774	96.75
524.989	93.75
525.204	102.75
525.419	100.75
525.634	110.75
525.849	106.75
526.064	101.75
526.28	106.75
526.495	89.75
526.71	100.75
526.925	82.75
527.14	94.75
527.355	95.75
527.57	90.75
527.785	96.75
527.999	84.75
528.214	95.75
528.429	85.75
528.644	96.75
528.859	102.75
529.074	108.75
529.289	120.75
529.503	154.75
529.718	106.75
529.933	82.75
530.148	99.75
530.363	97.75
530.577	86.75
530.792	101.75
531.007	94.75
531.221	93.75
531.436	86.75
531.651	92.75
531.865	98.75
532.08	94.75
532.295	91.75
532.509	87.75
532.724	78.75
532.938	92.75
533.153	94.75
533.367	87.75
533.582	84.75
533.796	98.75
534.011	101.75
534.225	85.75
534.44	90.75
534.654	89.75
534.868	89.75
535.083	106.75
535.297	79.75
535.511	98.75
535.726	97.75
535.94	101.75
536.154	95.75
536.369	99.75
536.583	85.75
536.797	104.75
537.011	92.75
537.225	94.75
537.44	89.75
537.654	96.75
537.868	89.75
538.082	90.75
538.296	88.75
538.51	95.75
538.724	82.75
538.938	99.75
539.153	112.75
539.367	110.75
539.581	97.75
539.795	103.75
540.009	110.75
540.222	91.75
540.436	99.75
540.65	86.75
540.864	98.75
541.078	99.75
541.292	100.75
541.506	90.75
541.72	85.75
541.934	93.75
542.147	97.75
542.361	95.75
542.575	88.75
542.789	75.75
543.002	99.75
543.216	91.75
543.43	107.75
543.644	100.75
543.857	83.75
544.071	80.75
544.285	101.75
544.498	93.75
544.712	89.75
544.925	93.75
545.139	97.75
545.352	91.75
545.566	84.75
545.779	91.75
545.993	101.75
546.206	93.75
546.42	102.75
546.633	94.75
546.847	88.75
547.06	95.75
547.274	93.75
547.487	99.75
547.7	88.75
547.914	88.75
548.127	90.75
548.34	85.75
548.554	100.75
548.767	105.75
548.98	80.75
549.193	80.75
549.407	94.75
549.62	96.75
549.833	97.75
550.046	96.75
550.259	98.75
550.473	91.75
550.686	86.75
550.899	81.75
551.112	94.75
551.325	81.75
551.538	93.75
551.751	76.75
551.964	100.75
552.177	88.75
552.39	97.75
552.603	97.75
552.816	94.75
553.029	89.75
553.242	88.75
553.455	96.75
553.667	106.75
553.88	103.75
554.093	101.75
554.306	99.75
554.519	94.75
554.732	88.75
554.944	78.75
555.157	80.75
555.37	86.75
555.583	96.75
555.795	91.75
556.008	91.75
556.221	102.75
556.433	92.75
556.646	91.75
556.859	83.75
557.071	90.75
557.284	90.75
557.496	98.75
557.709	69.75
557.921	109.75
558.134	98.75
558.346	95.75
558.559	86.75
558.771	88.75
558.984	112.75
559.196	85.75
559.409	95.75
559.621	89.75
559.833	78.75
560.046	83.75
560.258	84.75
560.47	89.75
560.683	81.75
560.895	91.75
561.107	98.75
561.32	92.75
561.532	83.75
561.744	101.75
561.956	88.75
562.168	81.75
562.381	86.75
562.593	94.75
562.805	81.75
563.017	95.75
563.229	86.75
563.441	91.75
563.653	91.75
563.865	85.75
564.077	85.75
564.289	85.75
564.501	95.75
564.713	87.75
564.925	96.75
565.137	115.75
565.349	88.75
565.561	93.75
565.773	99.75
565.985	83.75
566.197	79.75
566.408	88.75
566.62	103.75
566.832	84.75
567.044	91.75
567.255	105.75
567.467	94.75
567.679	94.75
567.891	95.75
568.102	79.75
568.314	87.75
568.526	100.75
568.737	100.75
568.949	79.75
569.161	81.75
569.372	95.75
569.584	81.75
569.795	93.75
570.007	116.75
570.218	242.75
570.43	133.75
570.641	93.75
570.853	89.75
571.064	105.75
571.276	96.75
571.487	100.75
571.698	106.75
571.91	93.75
572.121	84.75
572.333	105.75
572.544	83.75
572.755	105.75
572.966	88.75
573.178	74.75
573.389	82.75
573.6	80.75
573.811	81.75
574.023	98.75
574.234	93.75
574.445	99.75
574.656	79.75
574.867	82.75
575.078	80.75
575.289	86.75
575.501	87.75
575.712	82.75
575.923	80.75
576.134	90.75
576.345	100.75
576.556	83.75
576.767	97.75
576.978	113.75
577.188	103.75
577.399	85.75
577.61	103.75
577.821	90.75
578.032	114.75
578.243	272.75
578.454	733.75
578.665	212.75
578.875	108.75
579.086	94.75
579.297	94.75
579.508	94.75
579.718	77.75
579.929	92.75
580.14	89.75
580.35	87.75
580.561	90.75
580.772	97.75
580.982	95.75
581.193	89.75
581.403	88.75
581.614	93.75
581.825	76.75
582.035	100.75
582.246	100.75
582.456	99.75
582.667	82.75
582.877	77.75
583.087	86.75
583.298	94.75
583.508	81.75
583.719	87.75
583.929	101.75
584.139	94.75
584.35	97.75
584.56	87.75
584.77	73.75
584.981	91.75
585.191	70.75
585.401	90.75
585.611	82.75
585.821	89.75
586.032	76.75
586.242	71.75
586.452	93.75
586.662	80.75
586.872	84.75
587.082	83.75
587.292	92.75
587.502	92.75
587.713	98.75
587.923	88.75
588.133	88.75
588.343	71.75
588.553	77.75
588.762	82.75
588.972	94.75
589.182	95.75
589.392	95.75
589.602	93.75
589.812	82.75
590.022	81.75
590.232	85.75
590.441	91.75
590.651	89.75
590.861	89.75
591.071	99.75
591.281	88.75
591.49	78.75
591.7	94.75
591.91	103.75
592.119	104.75
592.329	90.75
592.539	87.75
592.748	89.75
592.958	98.75
593.167	93.75
593.377	88.75
593.587	97.75
593.796	93.75
594.006	88.75
594.215	92.75
594.424	85.75
594.634	93.75
594.843	90.75
595.053	72.75
595.262	85.75
595.472	74.75
595.681	74.75
595.89	86.75
596.1	89.75
596.309	88.75
596.518	95.75
596.727	81.75
596.937	93.75
597.146	93.75
597.355	89.75
597.564	59.75
597.774	93.75
597.983	89.75
598.192	80.75
598.401	83.75
598.61	90.75
598.819	69.75
599.028	93.75
599.237	108.75
599.446	77.75
599.655	76.75
599.864	94.75
600.073	90.75
600.282	87.75
600.491	97.75
600.7	80.75
600.909	102.75
601.118	99.75
601.327	104.75
601.536	88.75
601.745	96.75
601.953	91.75
602.162	88.75
602.371	107.75
602.58	106.75
602.789	107.75
602.997	95.75
603.206	91.75
603.415	83.75
603.623	95.75
603.832	88.75
604.041	87.75
604.249	81.75
604.458	97.75
604.666	71.75
604.875	81.75
605.084	93.75
605.292	97.75
605.501	97.75
605.709	85.75
605.918	86.75
606.126	100.75
606.334	85.75
606.543	93.75
606.751	90.75
606.96	90.75
607.168	78.75
607.376	91.75
607.585	93.75
607.793	89.75
608.001	84.75
608.21	85.75
608.418	79.75
608.626	77.75
608.834	91.75
609.043	91.75
609.251	83.75
609.459	91.75
609.667	101.75
609.875	89.75
610.083	80.75
610.291	70.75
610.499	95.75
610.707	84.75
610.916	93.75
611.124	96.75
611.332	82.75
611.54	81.75
611.748	89.75
611.955	90.75
612.163	92.75
612.371	84.75
612.579	73.75
612.787	82.75
612.995	85.75
613.203	89.75
613.411	89.75
613.618	89.75
613.826	72.75
614.034	91.75
614.242	71.75
614.449	87.75
614.657	83.75
614.865	90.75
615.072	95.75
615.28	78.75
615.488	87.75
615.695	104.75
615.903	101.75
616.111	99.75
616.318	115.75
616.526	90.75
616.733	91.75
616.941	99.75
617.148	76.75
617.356	91.75
617.563	96.75
617.771	81.75
617.978	78.75
618.185	100.75
618.393	81.75
618.6	79.75
618.807	87.75
619.015	89.75
619.222	91.75
619.429	97.75
619.637	75.75
619.844	76.75
620.051	87.75
620.258	87.75
620.466	92.75
620.673	83.75
620.88	73.75
621.087	77.75
621.294	91.75
621.501	89.75
621.708	80.75
621.915	78.75
622.122	83.75
622.329	92.75
622.536	78.75
622.743	78.75
622.95	83.75
623.157	85.75
623.364	77.75
623.571	90.75
623.778	79.75
623.985	81.75
624.192	101.75
624.399	89.75
624.606	83.75
624.812	70.75
625.019	80.75
625.226	75.75
625.433	85.75
625.639	87.75
625.846	94.75
626.053	86.75
626.259	89.75
626.466	97.75
626.673	78.75
626.879	87.75
627.086	80.75
627.293	86.75
627.499	77.75
627.706	82.75
627.912	90.75
628.119	78.75
628.325	86.75
628.532	84.75
628.738	77.75
628.945	83.75
629.151	74.75
629.357	96.75
629.564	95.75
629.77	75.75
629.976	77.75
630.183	97.75
630.389	95.75
630.595	83.75
630.802	101.75
631.008	81.75
631.214	88.75
631.42	87.75
631.627	98.75
631.833	91.75
632.039	94.75
632.245	90.75
632.451	80.75
632.657	88.75
632.863	77.75
633.069	71.75
633.275	89.75
633.481	80.75
633.688	79.75
633.893	105.75
634.099	77.75
634.305	87.75
634.511	89.75
634.717	94.75
634.923	69.75
635.129	91.75
635.335	82.75
635.541	82.75
635.747	74.75
635.952	80.75
636.158	89.75
636.364	82.75
636.57	77.75
636.775	81.75
636.981	82.75
637.187	94.75
637.392	83.75
637.598	66.75
637.804	77.75
638.009	93.75
638.215	83.75
638.421	92.75
638.626	82.75
638.832	81.75
639.037	78.75
639.243	75.75
639.448	88.75
639.654	75.75
639.859	82.75
640.065	93.75
640.27	95.75
640.475	73.75
640.681	86.75
640.886	87.75
641.091	96.75
641.297	91.75
641.502	76.75
641.707	83.75
641.913	79.75
642.118	87.75
642.323	88.75
642.528	79.75
642.733	88.75
642.939	91.75
643.144	95.75
643.349	83.75
643.554	76.75
643.759	66.75
643.964	86.75
644.169	94.75
644.374	91.75
644.579	77.75
644.784	67.75
644.989	85.75
645.194	87.75
645.399	88.75
645.604	96.75
645.809	96.75
646.014	88.75
646.219	81.75
646.423	90.75
646.628	84.75
646.833	79.75
647.038	97.75
647.243	76.75
647.447	83.75
647.652	78.75
647.857	85.75
648.062	78.75
648.266	86.75
648.471	88.75
648.676	92.75
648.88	77.75
649.085	101.75
649.289	81.75
649.494	109.75
649.698	131.75
649.903	82.75
650.107	82.75
650.312	94.75
650.516	83.75
650.721	84.75
650.925	81.75
651.13	87.75
651.334	78.75
651.539	86.75
651.743	93.75
651.947	88.75
652.152	95.75
652.356	79.75
652.56	76.75
652.764	74.75
652.969	81.75
653.173	92.75
653.377	74.75
653.581	75.75
653.785	78.75
653.99	81.75
654.194	90.75
654.398	75.75
654.602	81.75
654.806	99.75
655.01	101.75
655.214	76.75
655.418	88.75
655.622	78.75
655.826	93.75
656.03	82.75
656.234	77.75
656.438	99.75
656.642	96.75
656.846	87.75
657.049	80.75
657.253	93.75
657.457	76.75
657.661	86.75
657.865	72.75
658.068	84.75
658.272	86.75
658.476	87.75
658.68	90.75
658.883	85.75
659.087	79.75
659.291	74.75
659.494	79.75
659.698	77.75
659.901	72.75
660.105	84.75
660.309	79.75
660.512	73.75
660.716	70.75
660.919	82.75
661.123	83.75
661.326	82.75
661.53	78.75
661.733	83.75
661.936	75.75
662.14	79.75
662.343	77.75
662.546	86.75
662.75	96.75
662.953	82.75
663.156	82.75
663.36	77.75
663.563	94.75
663.766	80.75
663.969	85.75
664.173	80.75
664.376	85.75
664.579	87.75
664.782	78.75
664.985	84.75
665.188	88.75
665.391	86.75
665.594	80.75
665.797	91.75
666	84.75
666.203	66.75
666.406	83.75
666.609	79.75
666.812	81.75
667.015	84.75
667.218	83.75
667.421	82.75
667.624	81.75
667.827	101.75
668.03	95.75
668.232	82.75
668.435	73.75
668.638	73.75
668.841	85.75
669.043	86.75
669.246	74.75
669.449	81.75
669.651	74.75
669.854	87.75
670.057	90.75
670.259	73.75
670.462	86.75
670.665	81.75
670.867	82.75
671.07	89.75
671.272	87.75
671.475	77.75
671.677	90.75
671.88	89.75
672.082	91.75
672.284	90.75
672.487	83.75
672.689	71.75
672.892	88.75
