Data from Uncirc_1999_H10_HRD10591_00029.txt Node
Date: Wed Jan 03 11:22:11 EST 2024
User: Yrep
Spectrometer: HR+D1059
Trigger mode: 1
Integration Time (sec): 1.000000E-1
Scans to average: 1
Electric dark correction enabled: true
Nonlinearity correction enabled: false
Boxcar width: 0
XAxis mode: Wavelengths
Number of Pixels in Spectrum: 2048
>>>>>Begin Spectral Data<<<<<
223.165	-19.12
223.4	-19.12
223.635	-19.12
223.869	-3.12
224.104	-22.12
224.338	-9.12
224.573	-18.12
224.808	-16.12
225.042	-20.12
225.277	-7.12
225.511	-12.12
225.746	6.88
225.98	4.88
226.215	2.88
226.449	6.88
226.683	28.88
226.918	45.88
227.152	30.88
227.387	37.88
227.621	31.88
227.856	50.88
228.09	33.88
228.324	42.88
228.559	61.88
228.793	56.88
229.027	69.88
229.262	71.88
229.496	79.88
229.73	89.88
229.964	80.88
230.199	61.88
230.433	67.88
230.667	72.88
230.901	77.88
231.136	66.88
231.37	86.88
231.604	86.88
231.838	94.88
232.072	74.88
232.306	88.88
232.541	93.88
232.775	71.88
233.009	82.88
233.243	88.88
233.477	83.88
233.711	67.88
233.945	86.88
234.179	87.88
234.413	67.88
234.647	70.88
234.881	62.88
235.115	79.88
235.349	84.88
235.583	87.88
235.817	82.88
236.051	88.88
236.285	78.88
236.519	80.88
236.753	80.88
236.987	82.88
237.221	88.88
237.455	80.88
237.689	81.88
237.922	77.88
238.156	87.88
238.39	67.88
238.624	90.88
238.858	65.88
239.091	83.88
239.325	69.88
239.559	78.88
239.793	86.88
240.027	88.88
240.26	81.88
240.494	84.88
240.728	59.88
240.961	79.88
241.195	88.88
241.429	72.88
241.662	86.88
241.896	85.88
242.13	83.88
242.363	87.88
242.597	71.88
242.83	80.88
243.064	82.88
243.298	73.88
243.531	76.88
243.765	81.88
243.998	87.88
244.232	68.88
244.465	76.88
244.699	82.88
244.932	70.88
245.166	73.88
245.399	73.88
245.633	83.88
245.866	78.88
246.099	78.88
246.333	71.88
246.566	77.88
246.8	76.88
247.033	81.88
247.266	74.88
247.5	82.88
247.733	86.88
247.966	87.88
248.2	88.88
248.433	78.88
248.666	84.88
248.899	82.88
249.133	89.88
249.366	83.88
249.599	90.88
249.832	87.88
250.066	86.88
250.299	91.88
250.532	77.88
250.765	79.88
250.998	76.88
251.231	72.88
251.465	79.88
251.698	85.88
251.931	79.88
252.164	83.88
252.397	72.88
252.63	74.88
252.863	78.88
253.096	78.88
253.329	93.88
253.562	84.88
253.795	104.88
254.028	91.88
254.261	81.88
254.494	80.88
254.727	92.88
254.96	82.88
255.193	78.88
255.426	79.88
255.659	79.88
255.892	86.88
256.124	82.88
256.357	89.88
256.59	89.88
256.823	88.88
257.056	93.88
257.289	89.88
257.521	79.88
257.754	86.88
257.987	83.88
258.22	90.88
258.452	86.88
258.685	90.88
258.918	87.88
259.151	85.88
259.383	83.88
259.616	89.88
259.849	89.88
260.081	82.88
260.314	100.88
260.547	80.88
260.779	90.88
261.012	76.88
261.244	75.88
261.477	77.88
261.71	89.88
261.942	102.88
262.175	102.88
262.407	101.88
262.64	92.88
262.872	94.88
263.105	81.88
263.337	80.88
263.57	82.88
263.802	89.88
264.035	80.88
264.267	88.88
264.499	74.88
264.732	75.88
264.964	76.88
265.197	49.88
265.429	91.88
265.661	100.88
265.894	82.88
266.126	72.88
266.358	83.88
266.591	76.88
266.823	74.88
267.055	97.88
267.287	96.88
267.52	82.88
267.752	81.88
267.984	107.88
268.216	85.88
268.448	73.88
268.681	80.88
268.913	86.88
269.145	74.88
269.377	83.88
269.609	98.88
269.841	73.88
270.073	95.88
270.306	82.88
270.538	70.88
270.77	89.88
271.002	88.88
271.234	79.88
271.466	103.88
271.698	81.88
271.93	83.88
272.162	89.88
272.394	79.88
272.626	93.88
272.858	106.88
273.09	88.88
273.322	81.88
273.553	94.88
273.785	86.88
274.017	82.88
274.249	81.88
274.481	95.88
274.713	90.88
274.945	79.88
275.176	93.88
275.408	95.88
275.64	79.88
275.872	90.88
276.104	92.88
276.335	84.88
276.567	98.88
276.799	96.88
277.031	103.88
277.262	79.88
277.494	88.88
277.726	88.88
277.957	78.88
278.189	77.88
278.421	91.88
278.652	84.88
278.884	87.88
279.115	99.88
279.347	92.88
279.579	94.88
279.81	82.88
280.042	80.88
280.273	93.88
280.505	91.88
280.736	98.88
280.968	80.88
281.199	77.88
281.431	88.88
281.662	90.88
281.894	106.88
282.125	103.88
282.356	106.88
282.588	126.88
282.819	105.88
283.051	96.88
283.282	81.88
283.513	87.88
283.745	86.88
283.976	97.88
284.207	102.88
284.439	103.88
284.67	89.88
284.901	90.88
285.132	87.88
285.364	79.88
285.595	116.88
285.826	92.88
286.057	97.88
286.288	85.88
286.52	90.88
286.751	81.88
286.982	86.88
287.213	82.88
287.444	74.88
287.675	88.88
287.906	93.88
288.138	87.88
288.369	113.88
288.6	92.88
288.831	78.88
289.062	83.88
289.293	98.88
289.524	89.88
289.755	92.88
289.986	84.88
290.217	91.88
290.448	89.88
290.679	93.88
290.91	102.88
291.141	69.88
291.371	82.88
291.602	100.88
291.833	97.88
292.064	90.88
292.295	80.88
292.526	85.88
292.757	78.88
292.987	96.88
293.218	91.88
293.449	89.88
293.68	92.88
293.91	100.88
294.141	98.88
294.372	96.88
294.603	82.88
294.833	101.88
295.064	89.88
295.295	86.88
295.525	90.88
295.756	109.88
295.987	105.88
296.217	114.88
296.448	116.88
296.679	95.88
296.909	89.88
297.14	81.88
297.37	82.88
297.601	85.88
297.831	78.88
298.062	104.88
298.292	82.88
298.523	93.88
298.753	86.88
298.984	97.88
299.214	95.88
299.445	106.88
299.675	99.88
299.905	94.88
300.136	92.88
300.366	92.88
300.597	95.88
300.827	88.88
301.057	94.88
301.288	86.88
301.518	89.88
301.748	87.88
301.979	106.88
302.209	92.88
302.439	92.88
302.669	90.88
302.9	93.88
303.13	86.88
303.36	72.88
303.59	103.88
303.82	105.88
304.051	93.88
304.281	96.88
304.511	92.88
304.741	86.88
304.971	79.88
305.201	92.88
305.431	89.88
305.661	86.88
305.891	96.88
306.121	89.88
306.352	87.88
306.582	101.88
306.812	89.88
307.042	84.88
307.272	89.88
307.502	98.88
307.731	91.88
307.961	100.88
308.191	92.88
308.421	99.88
308.651	81.88
308.881	93.88
309.111	98.88
309.341	102.88
309.571	89.88
309.8	92.88
310.03	96.88
310.26	106.88
310.49	100.88
310.72	91.88
310.949	103.88
311.179	107.88
311.409	91.88
311.639	101.88
311.868	94.88
312.098	98.88
312.328	102.88
312.557	101.88
312.787	86.88
313.017	103.88
313.246	96.88
313.476	89.88
313.706	100.88
313.935	95.88
314.165	91.88
314.394	94.88
314.624	92.88
314.853	96.88
315.083	120.88
315.312	92.88
315.542	92.88
315.771	94.88
316.001	95.88
316.23	89.88
316.46	94.88
316.689	87.88
316.919	95.88
317.148	102.88
317.377	97.88
317.607	97.88
317.836	91.88
318.065	96.88
318.295	94.88
318.524	98.88
318.753	112.88
318.983	100.88
319.212	110.88
319.441	80.88
319.67	99.88
319.9	84.88
320.129	94.88
320.358	98.88
320.587	82.88
320.816	106.88
321.046	92.88
321.275	89.88
321.504	102.88
321.733	94.88
321.962	86.88
322.191	103.88
322.42	108.88
322.649	121.88
322.878	107.88
323.108	98.88
323.337	108.88
323.566	126.88
323.795	155.88
324.024	209.88
324.253	386.88
324.482	781.88
324.71	1634.88
324.939	2062.88
325.168	782.88
325.397	245.88
325.626	131.88
325.855	125.88
326.084	136.88
326.313	130.88
326.542	162.88
326.77	222.88
326.999	447.88
327.228	903.88
327.457	1621.88
327.686	1287.88
327.914	334.88
328.143	176.88
328.372	147.88
328.6	122.88
328.829	117.88
329.058	115.88
329.287	117.88
329.515	103.88
329.744	103.88
329.972	99.88
330.201	107.88
330.43	84.88
330.658	111.88
330.887	125.88
331.115	111.88
331.344	92.88
331.572	108.88
331.801	107.88
332.03	101.88
332.258	98.88
332.486	95.88
332.715	92.88
332.943	86.88
333.172	95.88
333.4	94.88
333.629	88.88
333.857	94.88
334.085	113.88
334.314	104.88
334.542	110.88
334.771	111.88
334.999	99.88
335.227	88.88
335.455	98.88
335.684	97.88
335.912	96.88
336.14	99.88
336.369	116.88
336.597	96.88
336.825	94.88
337.053	99.88
337.281	93.88
337.51	86.88
337.738	108.88
337.966	84.88
338.194	94.88
338.422	87.88
338.65	99.88
338.878	99.88
339.106	87.88
339.334	98.88
339.562	100.88
339.79	93.88
340.018	83.88
340.246	92.88
340.474	94.88
340.702	94.88
340.93	108.88
341.158	84.88
341.386	95.88
341.614	113.88
341.842	95.88
342.07	85.88
342.298	97.88
342.526	96.88
342.754	92.88
342.981	101.88
343.209	82.88
343.437	98.88
343.665	96.88
343.893	87.88
344.12	84.88
344.348	89.88
344.576	109.88
344.804	87.88
345.031	90.88
345.259	98.88
345.487	103.88
345.714	98.88
345.942	97.88
346.17	102.88
346.397	109.88
346.625	90.88
346.853	82.88
347.08	91.88
347.308	94.88
347.535	104.88
347.763	111.88
347.99	97.88
348.218	112.88
348.445	109.88
348.673	104.88
348.9	91.88
349.128	94.88
349.355	97.88
349.583	86.88
349.81	105.88
350.037	97.88
350.265	88.88
350.492	92.88
350.72	94.88
350.947	105.88
351.174	113.88
351.402	113.88
351.629	98.88
351.856	109.88
352.083	105.88
352.311	113.88
352.538	114.88
352.765	104.88
352.992	115.88
353.22	114.88
353.447	96.88
353.674	100.88
353.901	108.88
354.128	111.88
354.355	95.88
354.583	93.88
354.81	105.88
355.037	108.88
355.264	92.88
355.491	94.88
355.718	90.88
355.945	103.88
356.172	96.88
356.399	94.88
356.626	106.88
356.853	86.88
357.08	93.88
357.307	91.88
357.534	83.88
357.761	83.88
357.988	91.88
358.215	114.88
358.441	102.88
358.668	102.88
358.895	96.88
359.122	86.88
359.349	82.88
359.576	99.88
359.802	97.88
360.029	98.88
360.256	98.88
360.483	92.88
360.709	94.88
360.936	90.88
361.163	77.88
361.39	95.88
361.616	84.88
361.843	83.88
362.07	90.88
362.296	96.88
362.523	93.88
362.749	91.88
362.976	99.88
363.203	98.88
363.429	83.88
363.656	83.88
363.882	92.88
364.109	94.88
364.335	87.88
364.562	82.88
364.788	97.88
365.015	97.88
365.241	89.88
365.468	92.88
365.694	97.88
365.92	100.88
366.147	90.88
366.373	98.88
366.599	99.88
366.826	94.88
367.052	95.88
367.278	92.88
367.505	96.88
367.731	86.88
367.957	99.88
368.184	99.88
368.41	86.88
368.636	94.88
368.862	101.88
369.089	107.88
369.315	111.88
369.541	98.88
369.767	83.88
369.993	89.88
370.219	93.88
370.445	101.88
370.672	92.88
370.898	78.88
371.124	90.88
371.35	99.88
371.576	83.88
371.802	90.88
372.028	102.88
372.254	84.88
372.48	96.88
372.706	97.88
372.932	88.88
373.158	95.88
373.384	92.88
373.61	89.88
373.835	107.88
374.061	91.88
374.287	119.88
374.513	102.88
374.739	88.88
374.965	84.88
375.191	62.88
375.416	98.88
375.642	93.88
375.868	93.88
376.094	100.88
376.319	93.88
376.545	93.88
376.771	93.88
376.997	94.88
377.222	89.88
377.448	85.88
377.674	104.88
377.899	92.88
378.125	90.88
378.35	104.88
378.576	99.88
378.802	100.88
379.027	106.88
379.253	103.88
379.478	104.88
379.704	96.88
379.929	89.88
380.155	88.88
380.38	116.88
380.606	95.88
380.831	105.88
381.057	98.88
381.282	98.88
381.507	100.88
381.733	96.88
381.958	96.88
382.184	88.88
382.409	98.88
382.634	107.88
382.86	92.88
383.085	103.88
383.31	106.88
383.535	112.88
383.761	108.88
383.986	122.88
384.211	102.88
384.436	95.88
384.662	113.88
384.887	114.88
385.112	121.88
385.337	122.88
385.562	113.88
385.787	114.88
386.013	116.88
386.238	101.88
386.463	108.88
386.688	118.88
386.913	116.88
387.138	126.88
387.363	105.88
387.588	116.88
387.813	105.88
388.038	109.88
388.263	123.88
388.488	115.88
388.713	104.88
388.938	88.88
389.163	92.88
389.387	98.88
389.612	104.88
389.837	86.88
390.062	99.88
390.287	76.88
390.512	112.88
390.736	99.88
390.961	104.88
391.186	89.88
391.411	93.88
391.636	88.88
391.86	90.88
392.085	66.88
392.31	75.88
392.534	91.88
392.759	86.88
392.984	78.88
393.208	87.88
393.433	100.88
393.658	95.88
393.882	97.88
394.107	84.88
394.331	83.88
394.556	86.88
394.78	86.88
395.005	93.88
395.229	91.88
395.454	74.88
395.678	93.88
395.903	95.88
396.127	102.88
396.352	86.88
396.576	86.88
396.801	88.88
397.025	86.88
397.249	80.88
397.474	96.88
397.698	83.88
397.922	94.88
398.147	78.88
398.371	99.88
398.595	90.88
398.82	101.88
399.044	91.88
399.268	99.88
399.492	82.88
399.717	97.88
399.941	92.88
400.165	102.88
400.389	86.88
400.613	86.88
400.837	104.88
401.062	97.88
401.286	92.88
401.51	91.88
401.734	103.88
401.958	103.88
402.182	128.88
402.406	145.88
402.63	103.88
402.854	85.88
403.078	90.88
403.302	94.88
403.526	97.88
403.75	83.88
403.974	86.88
404.198	89.88
404.422	89.88
404.645	94.88
404.869	108.88
405.093	98.88
405.317	103.88
405.541	85.88
405.765	90.88
405.988	111.88
406.212	135.88
406.436	185.88
406.66	120.88
406.883	98.88
407.107	90.88
407.331	102.88
407.555	99.88
407.778	95.88
408.002	98.88
408.226	81.88
408.449	93.88
408.673	95.88
408.896	83.88
409.12	96.88
409.344	89.88
409.567	74.88
409.791	92.88
410.014	99.88
410.238	88.88
410.461	106.88
410.685	104.88
410.908	122.88
411.132	118.88
411.355	104.88
411.578	109.88
411.802	88.88
412.025	94.88
412.249	80.88
412.472	89.88
412.695	87.88
412.919	91.88
413.142	91.88
413.365	97.88
413.589	99.88
413.812	90.88
414.035	97.88
414.258	99.88
414.482	110.88
414.705	86.88
414.928	91.88
415.151	95.88
415.374	99.88
415.597	88.88
415.821	122.88
416.044	88.88
416.267	80.88
416.49	99.88
416.713	97.88
416.936	86.88
417.159	84.88
417.382	98.88
417.605	95.88
417.828	96.88
418.051	91.88
418.274	91.88
418.497	94.88
418.72	88.88
418.943	93.88
419.166	83.88
419.389	99.88
419.611	84.88
419.834	105.88
420.057	104.88
420.28	67.88
420.503	85.88
420.726	97.88
420.948	83.88
421.171	86.88
421.394	92.88
421.617	86.88
421.839	95.88
422.062	107.88
422.285	91.88
422.507	95.88
422.73	107.88
422.953	91.88
423.175	106.88
423.398	93.88
423.621	99.88
423.843	93.88
424.066	100.88
424.288	81.88
424.511	88.88
424.733	98.88
424.956	110.88
425.178	108.88
425.401	106.88
425.623	94.88
425.846	83.88
426.068	90.88
426.291	88.88
426.513	87.88
426.735	114.88
426.958	103.88
427.18	99.88
427.402	125.88
427.625	148.88
427.847	118.88
428.069	109.88
428.292	93.88
428.514	102.88
428.736	92.88
428.958	79.88
429.181	82.88
429.403	86.88
429.625	76.88
429.847	90.88
430.069	100.88
430.292	82.88
430.514	92.88
430.736	79.88
430.958	82.88
431.18	89.88
431.402	91.88
431.624	96.88
431.846	82.88
432.068	97.88
432.29	96.88
432.512	84.88
432.734	87.88
432.956	88.88
433.178	99.88
433.4	113.88
433.622	74.88
433.844	86.88
434.066	98.88
434.287	92.88
434.509	87.88
434.731	90.88
434.953	82.88
435.175	99.88
435.397	89.88
435.618	90.88
435.84	96.88
436.062	107.88
436.284	116.88
436.505	85.88
436.727	104.88
436.949	97.88
437.17	86.88
437.392	81.88
437.614	104.88
437.835	89.88
438.057	110.88
438.278	108.88
438.5	100.88
438.721	107.88
438.943	105.88
439.165	81.88
439.386	101.88
439.608	94.88
439.829	106.88
440.05	110.88
440.272	111.88
440.493	85.88
440.715	87.88
440.936	92.88
441.158	86.88
441.379	84.88
441.6	103.88
441.822	90.88
442.043	105.88
442.264	106.88
442.486	88.88
442.707	97.88
442.928	110.88
443.149	114.88
443.371	108.88
443.592	105.88
443.813	106.88
444.034	87.88
444.255	91.88
444.476	93.88
444.698	74.88
444.919	93.88
445.14	119.88
445.361	110.88
445.582	108.88
445.803	122.88
446.024	116.88
446.245	118.88
446.466	111.88
446.687	90.88
446.908	88.88
447.129	94.88
447.35	84.88
447.571	100.88
447.792	98.88
448.013	88.88
448.234	86.88
448.455	90.88
448.675	110.88
448.896	113.88
449.117	100.88
449.338	101.88
449.559	131.88
449.779	127.88
450	81.88
450.221	92.88
450.442	86.88
450.662	99.88
450.883	95.88
451.104	111.88
451.324	78.88
451.545	80.88
451.766	100.88
451.986	76.88
452.207	92.88
452.428	86.88
452.648	103.88
452.869	94.88
453.089	106.88
453.31	124.88
453.53	80.88
453.751	84.88
453.971	97.88
454.192	93.88
454.412	92.88
454.633	93.88
454.853	87.88
455.073	80.88
455.294	100.88
455.514	81.88
455.734	88.88
455.955	85.88
456.175	82.88
456.395	102.88
456.616	90.88
456.836	75.88
457.056	76.88
457.276	95.88
457.497	66.88
457.717	88.88
457.937	92.88
458.157	85.88
458.377	93.88
458.598	105.88
458.818	132.88
459.038	130.88
459.258	97.88
459.478	92.88
459.698	90.88
459.918	81.88
460.138	84.88
460.358	75.88
460.578	75.88
460.798	86.88
461.018	86.88
461.238	91.88
461.458	91.88
461.678	83.88
461.898	89.88
462.118	87.88
462.338	84.88
462.558	91.88
462.777	79.88
462.997	90.88
463.217	93.88
463.437	86.88
463.657	87.88
463.876	91.88
464.096	93.88
464.316	91.88
464.536	82.88
464.755	103.88
464.975	99.88
465.195	137.88
465.414	121.88
465.634	90.88
465.854	103.88
466.073	89.88
466.293	93.88
466.512	109.88
466.732	74.88
466.951	78.88
467.171	95.88
467.391	84.88
467.61	98.88
467.829	93.88
468.049	94.88
468.268	95.88
468.488	89.88
468.707	92.88
468.927	84.88
469.146	75.88
469.365	84.88
469.585	91.88
469.804	104.88
470.023	105.88
470.243	95.88
470.462	111.88
470.681	118.88
470.901	93.88
471.12	91.88
471.339	90.88
471.558	90.88
471.777	83.88
471.997	99.88
472.216	93.88
472.435	106.88
472.654	95.88
472.873	92.88
473.092	105.88
473.311	84.88
473.53	93.88
473.749	92.88
473.968	87.88
474.187	94.88
474.406	85.88
474.625	87.88
474.844	87.88
475.063	84.88
475.282	90.88
475.501	92.88
475.72	91.88
475.939	84.88
476.158	91.88
476.377	88.88
476.596	92.88
476.814	81.88
477.033	95.88
477.252	99.88
477.471	101.88
477.69	102.88
477.908	91.88
478.127	86.88
478.346	98.88
478.564	97.88
478.783	94.88
479.002	99.88
479.22	102.88
479.439	92.88
479.658	88.88
479.876	104.88
480.095	96.88
480.313	87.88
480.532	83.88
480.751	106.88
480.969	98.88
481.188	116.88
481.406	103.88
481.624	87.88
481.843	78.88
482.061	96.88
482.28	99.88
482.498	95.88
482.717	97.88
482.935	100.88
483.153	100.88
483.372	90.88
483.59	93.88
483.808	95.88
484.027	75.88
484.245	102.88
484.463	89.88
484.681	94.88
484.9	98.88
485.118	98.88
485.336	97.88
485.554	98.88
485.772	94.88
485.99	101.88
486.209	94.88
486.427	98.88
486.645	93.88
486.863	116.88
487.081	96.88
487.299	99.88
487.517	82.88
487.735	97.88
487.953	90.88
488.171	84.88
488.389	103.88
488.607	94.88
488.825	111.88
489.043	91.88
489.261	103.88
489.479	94.88
489.696	101.88
489.914	106.88
490.132	89.88
490.35	95.88
490.568	91.88
490.786	94.88
491.003	105.88
491.221	98.88
491.439	94.88
491.657	88.88
491.874	96.88
492.092	89.88
492.31	106.88
492.527	99.88
492.745	90.88
492.963	95.88
493.18	97.88
493.398	105.88
493.615	117.88
493.833	114.88
494.05	88.88
494.268	95.88
494.485	89.88
494.703	77.88
494.92	99.88
495.138	97.88
495.355	90.88
495.573	92.88
495.79	100.88
496.008	108.88
496.225	93.88
496.442	92.88
496.66	107.88
496.877	81.88
497.094	88.88
497.312	84.88
497.529	96.88
497.746	94.88
497.963	81.88
498.181	86.88
498.398	97.88
498.615	108.88
498.832	90.88
499.049	92.88
499.267	94.88
499.484	87.88
499.701	94.88
499.918	89.88
500.135	87.88
500.352	88.88
500.569	104.88
500.786	96.88
501.003	86.88
501.22	90.88
501.437	99.88
501.654	101.88
501.871	102.88
502.088	90.88
502.305	99.88
502.522	90.88
502.739	83.88
502.956	88.88
503.172	90.88
503.389	97.88
503.606	106.88
503.823	103.88
504.04	91.88
504.256	98.88
504.473	82.88
504.69	92.88
504.907	97.88
505.123	98.88
505.34	92.88
505.557	83.88
505.773	91.88
505.99	82.88
506.207	88.88
506.423	84.88
506.64	92.88
506.856	83.88
507.073	92.88
507.289	95.88
507.506	91.88
507.722	124.88
507.939	95.88
508.155	91.88
508.372	95.88
508.588	92.88
508.805	86.88
509.021	95.88
509.238	97.88
509.454	91.88
509.67	103.88
509.887	95.88
510.103	128.88
510.319	186.88
510.536	638.88
510.752	1932.88
510.968	558.88
511.184	138.88
511.401	105.88
511.617	93.88
511.833	89.88
512.049	89.88
512.265	97.88
512.481	79.88
512.698	117.88
512.914	103.88
513.13	86.88
513.346	102.88
513.562	95.88
513.778	90.88
513.994	90.88
514.21	95.88
514.426	110.88
514.642	128.88
514.858	114.88
515.074	148.88
515.29	349.88
515.506	1091.88
515.721	406.88
515.937	139.88
516.153	111.88
516.369	94.88
516.585	88.88
516.801	103.88
517.016	104.88
517.232	99.88
517.448	100.88
517.664	105.88
517.879	96.88
518.095	92.88
518.311	90.88
518.527	90.88
518.742	97.88
518.958	96.88
519.173	92.88
519.389	105.88
519.605	96.88
519.82	97.88
520.036	99.88
520.251	117.88
520.467	100.88
520.682	99.88
520.898	122.88
521.113	107.88
521.329	120.88
521.544	193.88
521.76	447.88
521.975	1765.88
522.19	1071.88
522.406	253.88
522.621	126.88
522.836	106.88
523.052	81.88
523.267	95.88
523.482	107.88
523.698	101.88
523.913	115.88
524.128	98.88
524.343	97.88
524.559	94.88
524.774	104.88
524.989	111.88
525.204	100.88
525.419	100.88
525.634	94.88
525.849	95.88
526.064	96.88
526.28	95.88
526.495	92.88
526.71	79.88
526.925	95.88
527.14	91.88
527.355	76.88
527.57	74.88
527.785	96.88
527.999	95.88
528.214	97.88
528.429	99.88
528.644	90.88
528.859	90.88
529.074	85.88
529.289	124.88
529.503	145.88
529.718	104.88
529.933	78.88
530.148	95.88
530.363	101.88
530.577	90.88
530.792	106.88
531.007	92.88
531.221	89.88
531.436	89.88
531.651	99.88
531.865	87.88
532.08	91.88
532.295	95.88
532.509	89.88
532.724	95.88
532.938	99.88
533.153	99.88
533.367	100.88
533.582	88.88
533.796	102.88
534.011	99.88
534.225	103.88
534.44	93.88
534.654	93.88
534.868	91.88
535.083	95.88
535.297	93.88
535.511	90.88
535.726	89.88
535.94	103.88
536.154	97.88
536.369	84.88
536.583	80.88
536.797	95.88
537.011	98.88
537.225	103.88
537.44	94.88
537.654	101.88
537.868	96.88
538.082	83.88
538.296	100.88
538.51	76.88
538.724	77.88
538.938	90.88
539.153	100.88
539.367	124.88
539.581	98.88
539.795	89.88
540.009	100.88
540.222	97.88
540.436	93.88
540.65	98.88
540.864	101.88
541.078	92.88
541.292	97.88
541.506	87.88
541.72	84.88
541.934	86.88
542.147	83.88
542.361	80.88
542.575	94.88
542.789	98.88
543.002	102.88
543.216	113.88
543.43	100.88
543.644	101.88
543.857	88.88
544.071	88.88
544.285	101.88
544.498	90.88
544.712	95.88
544.925	100.88
545.139	82.88
545.352	91.88
545.566	80.88
545.779	103.88
545.993	79.88
546.206	82.88
546.42	101.88
546.633	91.88
546.847	98.88
547.06	84.88
547.274	75.88
547.487	96.88
547.7	89.88
547.914	92.88
548.127	72.88
548.34	84.88
548.554	87.88
548.767	101.88
548.98	94.88
549.193	84.88
549.407	89.88
549.62	91.88
549.833	89.88
550.046	96.88
550.259	95.88
550.473	84.88
550.686	97.88
550.899	96.88
551.112	94.88
551.325	87.88
551.538	92.88
551.751	96.88
551.964	78.88
552.177	76.88
552.39	101.88
552.603	99.88
552.816	108.88
553.029	83.88
553.242	81.88
553.455	88.88
553.667	99.88
553.88	97.88
554.093	100.88
554.306	104.88
554.519	90.88
554.732	93.88
554.944	81.88
555.157	90.88
555.37	102.88
555.583	102.88
555.795	94.88
556.008	95.88
556.221	88.88
556.433	108.88
556.646	111.88
556.859	100.88
557.071	74.88
557.284	99.88
557.496	101.88
557.709	90.88
557.921	96.88
558.134	101.88
558.346	104.88
558.559	84.88
558.771	91.88
558.984	88.88
559.196	88.88
559.409	81.88
559.621	91.88
559.833	99.88
560.046	81.88
560.258	94.88
560.47	91.88
560.683	82.88
560.895	82.88
561.107	82.88
561.32	96.88
561.532	88.88
561.744	108.88
561.956	82.88
562.168	91.88
562.381	75.88
562.593	95.88
562.805	87.88
563.017	99.88
563.229	90.88
563.441	97.88
563.653	82.88
563.865	89.88
564.077	86.88
564.289	100.88
564.501	93.88
564.713	87.88
564.925	92.88
565.137	100.88
565.349	92.88
565.561	90.88
565.773	82.88
565.985	99.88
566.197	88.88
566.408	95.88
566.62	91.88
566.832	84.88
567.044	79.88
567.255	99.88
567.467	92.88
567.679	92.88
567.891	78.88
568.102	89.88
568.314	83.88
568.526	92.88
568.737	79.88
568.949	92.88
569.161	79.88
569.372	84.88
569.584	84.88
569.795	101.88
570.007	120.88
570.218	216.88
570.43	116.88
570.641	100.88
570.853	88.88
571.064	96.88
571.276	92.88
571.487	89.88
571.698	95.88
571.91	95.88
572.121	79.88
572.333	88.88
572.544	92.88
572.755	93.88
572.966	90.88
573.178	100.88
573.389	102.88
573.6	95.88
573.811	97.88
574.023	90.88
574.234	79.88
574.445	102.88
574.656	98.88
574.867	101.88
575.078	95.88
575.289	90.88
575.501	95.88
575.712	92.88
575.923	98.88
576.134	84.88
576.345	89.88
576.556	94.88
576.767	106.88
576.978	104.88
577.188	94.88
577.399	104.88
577.61	97.88
577.821	95.88
578.032	124.88
578.243	250.88
578.454	640.88
578.665	201.88
578.875	107.88
579.086	105.88
579.297	77.88
579.508	83.88
579.718	97.88
579.929	111.88
580.14	79.88
580.35	82.88
580.561	91.88
580.772	92.88
580.982	97.88
581.193	82.88
581.403	86.88
581.614	97.88
581.825	108.88
582.035	99.88
582.246	94.88
582.456	82.88
582.667	88.88
582.877	86.88
583.087	88.88
583.298	102.88
583.508	91.88
583.719	94.88
583.929	105.88
584.139	98.88
584.35	86.88
584.56	92.88
584.77	80.88
584.981	86.88
585.191	95.88
585.401	87.88
585.611	87.88
585.821	100.88
586.032	96.88
586.242	95.88
586.452	87.88
586.662	89.88
586.872	92.88
587.082	85.88
587.292	84.88
587.502	96.88
587.713	91.88
587.923	87.88
588.133	95.88
588.343	92.88
588.553	89.88
588.762	84.88
588.972	98.88
589.182	92.88
589.392	80.88
589.602	94.88
589.812	91.88
590.022	89.88
590.232	76.88
590.441	104.88
590.651	88.88
590.861	76.88
591.071	91.88
591.281	89.88
591.49	93.88
591.7	92.88
591.91	100.88
592.119	95.88
592.329	81.88
592.539	99.88
592.748	74.88
592.958	94.88
593.167	90.88
593.377	91.88
593.587	92.88
593.796	96.88
594.006	87.88
594.215	96.88
594.424	82.88
594.634	81.88
594.843	83.88
595.053	73.88
595.262	85.88
595.472	98.88
595.681	67.88
595.89	90.88
596.1	83.88
596.309	89.88
596.518	89.88
596.727	85.88
596.937	84.88
597.146	90.88
597.355	96.88
597.564	88.88
597.774	89.88
597.983	86.88
598.192	86.88
598.401	93.88
598.61	90.88
598.819	96.88
599.028	84.88
599.237	82.88
599.446	74.88
599.655	75.88
599.864	99.88
600.073	94.88
600.282	99.88
600.491	105.88
600.7	90.88
600.909	93.88
601.118	76.88
601.327	78.88
601.536	79.88
601.745	99.88
601.953	80.88
602.162	96.88
602.371	73.88
602.58	88.88
602.789	90.88
602.997	86.88
603.206	91.88
603.415	78.88
603.623	84.88
603.832	90.88
604.041	88.88
604.249	87.88
604.458	86.88
604.666	83.88
604.875	92.88
605.084	94.88
605.292	84.88
605.501	88.88
605.709	103.88
605.918	95.88
606.126	88.88
606.334	86.88
606.543	80.88
606.751	91.88
606.96	83.88
607.168	88.88
607.376	90.88
607.585	96.88
607.793	105.88
608.001	80.88
608.21	98.88
608.418	86.88
608.626	72.88
608.834	95.88
609.043	103.88
609.251	92.88
609.459	96.88
609.667	98.88
609.875	99.88
610.083	80.88
610.291	91.88
610.499	91.88
610.707	107.88
610.916	70.88
611.124	86.88
611.332	82.88
611.54	82.88
611.748	85.88
611.955	85.88
612.163	76.88
612.371	93.88
612.579	90.88
612.787	82.88
612.995	93.88
613.203	97.88
613.411	90.88
613.618	108.88
613.826	86.88
614.034	90.88
614.242	79.88
614.449	76.88
614.657	85.88
614.865	80.88
615.072	95.88
615.28	104.88
615.488	86.88
615.695	106.88
615.903	97.88
616.111	96.88
616.318	105.88
616.526	110.88
616.733	114.88
616.941	83.88
617.148	96.88
617.356	100.88
617.563	94.88
617.771	81.88
617.978	86.88
618.185	91.88
618.393	90.88
618.6	86.88
618.807	80.88
619.015	88.88
619.222	84.88
619.429	80.88
619.637	77.88
619.844	76.88
620.051	84.88
620.258	71.88
620.466	84.88
620.673	94.88
620.88	83.88
621.087	83.88
621.294	100.88
621.501	97.88
621.708	78.88
621.915	83.88
622.122	87.88
622.329	83.88
622.536	90.88
622.743	96.88
622.95	97.88
623.157	90.88
623.364	74.88
623.571	83.88
623.778	84.88
623.985	90.88
624.192	72.88
624.399	93.88
624.606	82.88
624.812	70.88
625.019	84.88
625.226	84.88
625.433	80.88
625.639	92.88
625.846	85.88
626.053	93.88
626.259	83.88
626.466	86.88
626.673	93.88
626.879	91.88
627.086	91.88
627.293	76.88
627.499	99.88
627.706	94.88
627.912	91.88
628.119	71.88
628.325	98.88
628.532	86.88
628.738	82.88
628.945	76.88
629.151	83.88
629.357	87.88
629.564	86.88
629.77	96.88
629.976	87.88
630.183	89.88
630.389	96.88
630.595	91.88
630.802	80.88
631.008	74.88
631.214	79.88
631.42	87.88
631.627	84.88
631.833	84.88
632.039	82.88
632.245	71.88
632.451	99.88
632.657	90.88
632.863	82.88
633.069	92.88
633.275	98.88
633.481	81.88
633.688	95.88
633.893	88.88
634.099	88.88
634.305	95.88
634.511	80.88
634.717	94.88
634.923	90.88
635.129	77.88
635.335	80.88
635.541	86.88
635.747	97.88
635.952	96.88
636.158	80.88
636.364	97.88
636.57	96.88
636.775	95.88
636.981	87.88
637.187	85.88
637.392	79.88
637.598	88.88
637.804	82.88
638.009	88.88
638.215	87.88
638.421	88.88
638.626	79.88
638.832	86.88
639.037	78.88
639.243	90.88
639.448	81.88
639.654	82.88
639.859	83.88
640.065	92.88
640.27	101.88
640.475	83.88
640.681	77.88
640.886	93.88
641.091	91.88
641.297	86.88
641.502	94.88
641.707	87.88
641.913	86.88
642.118	84.88
642.323	87.88
642.528	82.88
642.733	89.88
642.939	90.88
643.144	84.88
643.349	84.88
643.554	94.88
643.759	87.88
643.964	87.88
644.169	90.88
644.374	84.88
644.579	83.88
644.784	93.88
644.989	88.88
645.194	80.88
645.399	91.88
645.604	94.88
645.809	98.88
646.014	92.88
646.219	86.88
646.423	78.88
646.628	78.88
646.833	70.88
647.038	102.88
647.243	86.88
647.447	75.88
647.652	85.88
647.857	91.88
648.062	95.88
648.266	77.88
648.471	92.88
648.676	98.88
648.88	99.88
649.085	108.88
649.289	100.88
649.494	103.88
649.698	125.88
649.903	82.88
650.107	91.88
650.312	95.88
650.516	94.88
650.721	81.88
650.925	87.88
651.13	93.88
651.334	81.88
651.539	90.88
651.743	81.88
651.947	81.88
652.152	85.88
652.356	87.88
652.56	76.88
652.764	90.88
652.969	74.88
653.173	84.88
653.377	82.88
653.581	75.88
653.785	83.88
653.99	94.88
654.194	92.88
654.398	89.88
654.602	88.88
654.806	95.88
655.01	114.88
655.214	95.88
655.418	89.88
655.622	72.88
655.826	87.88
656.03	90.88
656.234	91.88
656.438	96.88
656.642	105.88
656.846	85.88
657.049	87.88
657.253	84.88
657.457	82.88
657.661	87.88
657.865	87.88
658.068	99.88
658.272	83.88
658.476	86.88
658.68	66.88
658.883	74.88
659.087	85.88
659.291	88.88
659.494	87.88
659.698	83.88
659.901	88.88
660.105	78.88
660.309	79.88
660.512	92.88
660.716	85.88
660.919	77.88
661.123	67.88
661.326	86.88
661.53	76.88
661.733	91.88
661.936	95.88
662.14	80.88
662.343	64.88
662.546	89.88
662.75	82.88
662.953	82.88
663.156	76.88
663.36	82.88
663.563	77.88
663.766	82.88
663.969	93.88
664.173	88.88
664.376	87.88
664.579	83.88
664.782	85.88
664.985	80.88
665.188	85.88
665.391	87.88
665.594	71.88
665.797	79.88
666	88.88
666.203	84.88
666.406	70.88
666.609	74.88
666.812	92.88
667.015	98.88
667.218	75.88
667.421	76.88
667.624	82.88
667.827	79.88
668.03	83.88
668.232	80.88
668.435	78.88
668.638	79.88
668.841	86.88
669.043	85.88
669.246	66.88
669.449	91.88
669.651	85.88
669.854	72.88
670.057	86.88
670.259	76.88
670.462	86.88
670.665	95.88
670.867	96.88
671.07	88.88
671.272	79.88
671.475	88.88
671.677	91.88
671.88	76.88
672.082	87.88
672.284	91.88
672.487	87.88
672.689	89.88
672.892	86.88
