Data from Uncirc_1999_H10_HRD10591_00089.txt Node
Date: Wed Jan 03 11:22:23 EST 2024
User: Yrep
Spectrometer: HR+D1059
Trigger mode: 1
Integration Time (sec): 1.000000E-1
Scans to average: 1
Electric dark correction enabled: true
Nonlinearity correction enabled: false
Boxcar width: 0
XAxis mode: Wavelengths
Number of Pixels in Spectrum: 2048
>>>>>Begin Spectral Data<<<<<
223.165	-19.56
223.4	-19.56
223.635	-19.56
223.869	-25.56
224.104	-18.56
224.338	-18.56
224.573	-20.56
224.808	-4.56
225.042	-4.56
225.277	-11.56
225.511	-6.56
225.746	3.44
225.98	1.44
226.215	16.44
226.449	23.44
226.683	16.44
226.918	30.44
227.152	38.44
227.387	38.44
227.621	48.44
227.856	55.44
228.09	45.44
228.324	48.44
228.559	57.44
228.793	67.44
229.027	55.44
229.262	80.44
229.496	64.44
229.73	95.44
229.964	80.44
230.199	75.44
230.433	70.44
230.667	73.44
230.901	77.44
231.136	74.44
231.37	70.44
231.604	89.44
231.838	69.44
232.072	68.44
232.306	72.44
232.541	90.44
232.775	79.44
233.009	79.44
233.243	74.44
233.477	67.44
233.711	76.44
233.945	75.44
234.179	72.44
234.413	67.44
234.647	92.44
234.881	77.44
235.115	86.44
235.349	80.44
235.583	69.44
235.817	71.44
236.051	74.44
236.285	75.44
236.519	80.44
236.753	72.44
236.987	80.44
237.221	86.44
237.455	76.44
237.689	85.44
237.922	78.44
238.156	63.44
238.39	62.44
238.624	77.44
238.858	68.44
239.091	63.44
239.325	69.44
239.559	84.44
239.793	83.44
240.027	75.44
240.26	76.44
240.494	79.44
240.728	73.44
240.961	63.44
241.195	88.44
241.429	73.44
241.662	85.44
241.896	58.44
242.13	71.44
242.363	64.44
242.597	67.44
242.83	65.44
243.064	79.44
243.298	70.44
243.531	70.44
243.765	79.44
243.998	73.44
244.232	72.44
244.465	87.44
244.699	83.44
244.932	75.44
245.166	83.44
245.399	60.44
245.633	88.44
245.866	80.44
246.099	99.44
246.333	79.44
246.566	76.44
246.8	85.44
247.033	73.44
247.266	86.44
247.5	91.44
247.733	79.44
247.966	70.44
248.2	66.44
248.433	78.44
248.666	70.44
248.899	72.44
249.133	68.44
249.366	89.44
249.599	77.44
249.832	89.44
250.066	88.44
250.299	71.44
250.532	74.44
250.765	74.44
250.998	73.44
251.231	81.44
251.465	81.44
251.698	79.44
251.931	73.44
252.164	83.44
252.397	63.44
252.63	78.44
252.863	73.44
253.096	84.44
253.329	84.44
253.562	86.44
253.795	83.44
254.028	91.44
254.261	73.44
254.494	80.44
254.727	78.44
254.96	81.44
255.193	76.44
255.426	94.44
255.659	76.44
255.892	86.44
256.124	84.44
256.357	81.44
256.59	56.44
256.823	96.44
257.056	73.44
257.289	78.44
257.521	85.44
257.754	81.44
257.987	78.44
258.22	82.44
258.452	71.44
258.685	70.44
258.918	86.44
259.151	88.44
259.383	83.44
259.616	79.44
259.849	93.44
260.081	76.44
260.314	74.44
260.547	83.44
260.779	83.44
261.012	87.44
261.244	97.44
261.477	78.44
261.71	91.44
261.942	106.44
262.175	85.44
262.407	91.44
262.64	83.44
262.872	82.44
263.105	75.44
263.337	89.44
263.57	78.44
263.802	79.44
264.035	77.44
264.267	64.44
264.499	64.44
264.732	75.44
264.964	69.44
265.197	73.44
265.429	99.44
265.661	91.44
265.894	78.44
266.126	97.44
266.358	75.44
266.591	77.44
266.823	78.44
267.055	78.44
267.287	83.44
267.52	91.44
267.752	74.44
267.984	75.44
268.216	72.44
268.448	87.44
268.681	84.44
268.913	75.44
269.145	80.44
269.377	88.44
269.609	84.44
269.841	78.44
270.073	76.44
270.306	96.44
270.538	79.44
270.77	70.44
271.002	83.44
271.234	82.44
271.466	83.44
271.698	90.44
271.93	94.44
272.162	95.44
272.394	89.44
272.626	86.44
272.858	75.44
273.09	75.44
273.322	75.44
273.553	81.44
273.785	77.44
274.017	91.44
274.249	75.44
274.481	86.44
274.713	83.44
274.945	81.44
275.176	95.44
275.408	78.44
275.64	83.44
275.872	79.44
276.104	87.44
276.335	84.44
276.567	86.44
276.799	108.44
277.031	86.44
277.262	85.44
277.494	86.44
277.726	70.44
277.957	82.44
278.189	75.44
278.421	75.44
278.652	88.44
278.884	88.44
279.115	71.44
279.347	80.44
279.579	103.44
279.81	77.44
280.042	97.44
280.273	83.44
280.505	81.44
280.736	70.44
280.968	82.44
281.199	90.44
281.431	93.44
281.662	89.44
281.894	92.44
282.125	90.44
282.356	105.44
282.588	133.44
282.819	133.44
283.051	98.44
283.282	89.44
283.513	91.44
283.745	86.44
283.976	92.44
284.207	96.44
284.439	88.44
284.67	84.44
284.901	92.44
285.132	90.44
285.364	80.44
285.595	83.44
285.826	78.44
286.057	96.44
286.288	87.44
286.52	93.44
286.751	86.44
286.982	81.44
287.213	73.44
287.444	84.44
287.675	93.44
287.906	80.44
288.138	101.44
288.369	94.44
288.6	96.44
288.831	87.44
289.062	84.44
289.293	69.44
289.524	68.44
289.755	79.44
289.986	86.44
290.217	93.44
290.448	79.44
290.679	88.44
290.91	86.44
291.141	73.44
291.371	89.44
291.602	88.44
291.833	84.44
292.064	92.44
292.295	93.44
292.526	86.44
292.757	74.44
292.987	88.44
293.218	86.44
293.449	73.44
293.68	91.44
293.91	89.44
294.141	80.44
294.372	96.44
294.603	84.44
294.833	81.44
295.064	77.44
295.295	88.44
295.525	101.44
295.756	109.44
295.987	99.44
296.217	142.44
296.448	111.44
296.679	96.44
296.909	79.44
297.14	93.44
297.37	101.44
297.601	86.44
297.831	83.44
298.062	73.44
298.292	78.44
298.523	82.44
298.753	95.44
298.984	86.44
299.214	94.44
299.445	83.44
299.675	71.44
299.905	99.44
300.136	85.44
300.366	87.44
300.597	90.44
300.827	92.44
301.057	89.44
301.288	101.44
301.518	96.44
301.748	74.44
301.979	107.44
302.209	86.44
302.439	82.44
302.669	91.44
302.9	88.44
303.13	87.44
303.36	92.44
303.59	93.44
303.82	92.44
304.051	111.44
304.281	91.44
304.511	107.44
304.741	88.44
304.971	72.44
305.201	92.44
305.431	93.44
305.661	89.44
305.891	84.44
306.121	95.44
306.352	94.44
306.582	101.44
306.812	93.44
307.042	89.44
307.272	84.44
307.502	84.44
307.731	97.44
307.961	84.44
308.191	81.44
308.421	108.44
308.651	107.44
308.881	97.44
309.111	94.44
309.341	85.44
309.571	97.44
309.8	98.44
310.03	85.44
310.26	86.44
310.49	108.44
310.72	91.44
310.949	103.44
311.179	111.44
311.409	91.44
311.639	92.44
311.868	98.44
312.098	95.44
312.328	93.44
312.557	94.44
312.787	95.44
313.017	85.44
313.246	101.44
313.476	92.44
313.706	102.44
313.935	96.44
314.165	101.44
314.394	92.44
314.624	89.44
314.853	100.44
315.083	77.44
315.312	93.44
315.542	97.44
315.771	91.44
316.001	86.44
316.23	84.44
316.46	94.44
316.689	91.44
316.919	115.44
317.148	61.44
317.377	96.44
317.607	81.44
317.836	83.44
318.065	91.44
318.295	81.44
318.524	91.44
318.753	97.44
318.983	89.44
319.212	97.44
319.441	99.44
319.67	103.44
319.9	92.44
320.129	99.44
320.358	93.44
320.587	90.44
320.816	105.44
321.046	114.44
321.275	90.44
321.504	88.44
321.733	89.44
321.962	111.44
322.191	108.44
322.42	100.44
322.649	116.44
322.878	104.44
323.108	110.44
323.337	117.44
323.566	132.44
323.795	143.44
324.024	195.44
324.253	412.44
324.482	834.44
324.71	1739.44
324.939	2290.44
325.168	873.44
325.397	246.44
325.626	150.44
325.855	140.44
326.084	119.44
326.313	115.44
326.542	144.44
326.77	229.44
326.999	477.44
327.228	997.44
327.457	1792.44
327.686	1401.44
327.914	361.44
328.143	184.44
328.372	131.44
328.6	126.44
328.829	112.44
329.058	100.44
329.287	133.44
329.515	107.44
329.744	105.44
329.972	83.44
330.201	100.44
330.43	115.44
330.658	114.44
330.887	133.44
331.115	99.44
331.344	94.44
331.572	88.44
331.801	95.44
332.03	101.44
332.258	104.44
332.486	89.44
332.715	89.44
332.943	90.44
333.172	96.44
333.4	102.44
333.629	106.44
333.857	108.44
334.085	110.44
334.314	102.44
334.542	98.44
334.771	101.44
334.999	90.44
335.227	101.44
335.455	99.44
335.684	97.44
335.912	105.44
336.14	96.44
336.369	97.44
336.597	101.44
336.825	83.44
337.053	91.44
337.281	88.44
337.51	88.44
337.738	90.44
337.966	82.44
338.194	88.44
338.422	103.44
338.65	97.44
338.878	91.44
339.106	95.44
339.334	96.44
339.562	103.44
339.79	83.44
340.018	91.44
340.246	89.44
340.474	83.44
340.702	97.44
340.93	93.44
341.158	97.44
341.386	97.44
341.614	91.44
341.842	88.44
342.07	87.44
342.298	100.44
342.526	77.44
342.754	94.44
342.981	90.44
343.209	94.44
343.437	99.44
343.665	89.44
343.893	93.44
344.12	106.44
344.348	82.44
344.576	88.44
344.804	75.44
345.031	88.44
345.259	84.44
345.487	96.44
345.714	87.44
345.942	88.44
346.17	92.44
346.397	91.44
346.625	102.44
346.853	88.44
347.08	95.44
347.308	100.44
347.535	99.44
347.763	89.44
347.99	102.44
348.218	103.44
348.445	107.44
348.673	97.44
348.9	103.44
349.128	97.44
349.355	92.44
349.583	88.44
349.81	91.44
350.037	95.44
350.265	72.44
350.492	88.44
350.72	110.44
350.947	97.44
351.174	111.44
351.402	123.44
351.629	101.44
351.856	88.44
352.083	95.44
352.311	125.44
352.538	112.44
352.765	113.44
352.992	101.44
353.22	112.44
353.447	112.44
353.674	95.44
353.901	109.44
354.128	98.44
354.355	103.44
354.583	91.44
354.81	96.44
355.037	87.44
355.264	83.44
355.491	90.44
355.718	95.44
355.945	92.44
356.172	103.44
356.399	107.44
356.626	94.44
356.853	100.44
357.08	93.44
357.307	78.44
357.534	95.44
357.761	90.44
357.988	106.44
358.215	83.44
358.441	74.44
358.668	95.44
358.895	90.44
359.122	91.44
359.349	89.44
359.576	102.44
359.802	96.44
360.029	93.44
360.256	92.44
360.483	92.44
360.709	97.44
360.936	85.44
361.163	82.44
361.39	95.44
361.616	97.44
361.843	74.44
362.07	98.44
362.296	79.44
362.523	91.44
362.749	90.44
362.976	100.44
363.203	89.44
363.429	95.44
363.656	97.44
363.882	82.44
364.109	93.44
364.335	92.44
364.562	80.44
364.788	96.44
365.015	90.44
365.241	101.44
365.468	111.44
365.694	101.44
365.92	86.44
366.147	91.44
366.373	87.44
366.599	88.44
366.826	87.44
367.052	92.44
367.278	95.44
367.505	92.44
367.731	90.44
367.957	109.44
368.184	97.44
368.41	93.44
368.636	104.44
368.862	118.44
369.089	97.44
369.315	95.44
369.541	89.44
369.767	89.44
369.993	88.44
370.219	102.44
370.445	86.44
370.672	87.44
370.898	84.44
371.124	80.44
371.35	87.44
371.576	77.44
371.802	77.44
372.028	101.44
372.254	100.44
372.48	83.44
372.706	86.44
372.932	83.44
373.158	97.44
373.384	95.44
373.61	83.44
373.835	95.44
374.061	67.44
374.287	87.44
374.513	86.44
374.739	88.44
374.965	78.44
375.191	83.44
375.416	97.44
375.642	89.44
375.868	79.44
376.094	87.44
376.319	81.44
376.545	85.44
376.771	84.44
376.997	90.44
377.222	77.44
377.448	79.44
377.674	83.44
377.899	88.44
378.125	97.44
378.35	78.44
378.576	95.44
378.802	101.44
379.027	89.44
379.253	92.44
379.478	84.44
379.704	84.44
379.929	103.44
380.155	86.44
380.38	77.44
380.606	101.44
380.831	98.44
381.057	99.44
381.282	93.44
381.507	100.44
381.733	85.44
381.958	95.44
382.184	99.44
382.409	104.44
382.634	105.44
382.86	93.44
383.085	96.44
383.31	99.44
383.535	95.44
383.761	99.44
383.986	107.44
384.211	100.44
384.436	92.44
384.662	89.44
384.887	105.44
385.112	94.44
385.337	110.44
385.562	97.44
385.787	97.44
386.013	109.44
386.238	89.44
386.463	102.44
386.688	115.44
386.913	102.44
387.138	102.44
387.363	85.44
387.588	109.44
387.813	93.44
388.038	109.44
388.263	119.44
388.488	94.44
388.713	99.44
388.938	100.44
389.163	103.44
389.387	91.44
389.612	82.44
389.837	89.44
390.062	94.44
390.287	75.44
390.512	74.44
390.736	104.44
390.961	85.44
391.186	107.44
391.411	97.44
391.636	97.44
391.86	110.44
392.085	86.44
392.31	89.44
392.534	101.44
392.759	87.44
392.984	82.44
393.208	95.44
393.433	97.44
393.658	70.44
393.882	80.44
394.107	83.44
394.331	83.44
394.556	79.44
394.78	83.44
395.005	87.44
395.229	89.44
395.454	90.44
395.678	88.44
395.903	79.44
396.127	101.44
396.352	88.44
396.576	85.44
396.801	83.44
397.025	97.44
397.249	104.44
397.474	84.44
397.698	94.44
397.922	92.44
398.147	90.44
398.371	94.44
398.595	74.44
398.82	84.44
399.044	102.44
399.268	86.44
399.492	75.44
399.717	97.44
399.941	101.44
400.165	87.44
400.389	93.44
400.613	80.44
400.837	93.44
401.062	96.44
401.286	84.44
401.51	88.44
401.734	73.44
401.958	97.44
402.182	117.44
402.406	139.44
402.63	119.44
402.854	97.44
403.078	107.44
403.302	75.44
403.526	77.44
403.75	83.44
403.974	91.44
404.198	70.44
404.422	90.44
404.645	83.44
404.869	86.44
405.093	95.44
405.317	91.44
405.541	94.44
405.765	105.44
405.988	106.44
406.212	152.44
406.436	203.44
406.66	131.44
406.883	91.44
407.107	81.44
407.331	97.44
407.555	108.44
407.778	90.44
408.002	86.44
408.226	90.44
408.449	96.44
408.673	86.44
408.896	92.44
409.12	89.44
409.344	82.44
409.567	80.44
409.791	85.44
410.014	97.44
410.238	93.44
410.461	89.44
410.685	97.44
410.908	108.44
411.132	119.44
411.355	92.44
411.578	80.44
411.802	82.44
412.025	93.44
412.249	91.44
412.472	98.44
412.695	86.44
412.919	91.44
413.142	107.44
413.365	84.44
413.589	95.44
413.812	73.44
414.035	94.44
414.258	90.44
414.482	86.44
414.705	79.44
414.928	81.44
415.151	92.44
415.374	97.44
415.597	93.44
415.821	97.44
416.044	89.44
416.267	89.44
416.49	94.44
416.713	89.44
416.936	92.44
417.159	99.44
417.382	104.44
417.605	96.44
417.828	91.44
418.051	90.44
418.274	97.44
418.497	75.44
418.72	85.44
418.943	106.44
419.166	89.44
419.389	87.44
419.611	89.44
419.834	73.44
420.057	92.44
420.28	94.44
420.503	83.44
420.726	90.44
420.948	99.44
421.171	88.44
421.394	93.44
421.617	105.44
421.839	102.44
422.062	97.44
422.285	104.44
422.507	95.44
422.73	99.44
422.953	95.44
423.175	86.44
423.398	81.44
423.621	87.44
423.843	80.44
424.066	93.44
424.288	89.44
424.511	88.44
424.733	97.44
424.956	93.44
425.178	111.44
425.401	98.44
425.623	86.44
425.846	97.44
426.068	89.44
426.291	86.44
426.513	79.44
426.735	88.44
426.958	84.44
427.18	99.44
427.402	138.44
427.625	165.44
427.847	125.44
428.069	97.44
428.292	96.44
428.514	83.44
428.736	67.44
428.958	95.44
429.181	83.44
429.403	94.44
429.625	82.44
429.847	87.44
430.069	86.44
430.292	90.44
430.514	90.44
430.736	95.44
430.958	97.44
431.18	85.44
431.402	85.44
431.624	85.44
431.846	79.44
432.068	76.44
432.29	84.44
432.512	92.44
432.734	76.44
432.956	93.44
433.178	87.44
433.4	103.44
433.622	94.44
433.844	87.44
434.066	96.44
434.287	100.44
434.509	89.44
434.731	80.44
434.953	74.44
435.175	87.44
435.397	92.44
435.618	101.44
435.84	103.44
436.062	113.44
436.284	103.44
436.505	108.44
436.727	102.44
436.949	94.44
437.17	88.44
437.392	92.44
437.614	87.44
437.835	93.44
438.057	108.44
438.278	96.44
438.5	95.44
438.721	114.44
438.943	101.44
439.165	90.44
439.386	79.44
439.608	85.44
439.829	89.44
440.05	119.44
440.272	127.44
440.493	96.44
440.715	83.44
440.936	86.44
441.158	81.44
441.379	72.44
441.6	87.44
441.822	103.44
442.043	100.44
442.264	113.44
442.486	106.44
442.707	93.44
442.928	101.44
443.149	118.44
443.371	117.44
443.592	108.44
443.813	103.44
444.034	93.44
444.255	92.44
444.476	75.44
444.698	78.44
444.919	81.44
445.14	131.44
445.361	115.44
445.582	115.44
445.803	124.44
446.024	141.44
446.245	117.44
446.466	95.44
446.687	84.44
446.908	82.44
447.129	86.44
447.35	79.44
447.571	85.44
447.792	96.44
448.013	91.44
448.234	95.44
448.455	92.44
448.675	119.44
448.896	94.44
449.117	99.44
449.338	95.44
449.559	126.44
449.779	122.44
450	85.44
450.221	97.44
450.442	84.44
450.662	95.44
450.883	95.44
451.104	84.44
451.324	80.44
451.545	92.44
451.766	79.44
451.986	81.44
452.207	90.44
452.428	89.44
452.648	93.44
452.869	104.44
453.089	113.44
453.31	104.44
453.53	92.44
453.751	89.44
453.971	109.44
454.192	100.44
454.412	101.44
454.633	79.44
454.853	93.44
455.073	68.44
455.294	91.44
455.514	88.44
455.734	90.44
455.955	77.44
456.175	93.44
456.395	84.44
456.616	87.44
456.836	85.44
457.056	76.44
457.276	99.44
457.497	88.44
457.717	80.44
457.937	90.44
458.157	92.44
458.377	104.44
458.598	98.44
458.818	125.44
459.038	146.44
459.258	108.44
459.478	99.44
459.698	95.44
459.918	93.44
460.138	88.44
460.358	88.44
460.578	89.44
460.798	92.44
461.018	85.44
461.238	87.44
461.458	78.44
461.678	97.44
461.898	79.44
462.118	67.44
462.338	85.44
462.558	76.44
462.777	83.44
462.997	84.44
463.217	81.44
463.437	106.44
463.657	83.44
463.876	86.44
464.096	95.44
464.316	90.44
464.536	92.44
464.755	92.44
464.975	102.44
465.195	143.44
465.414	133.44
465.634	85.44
465.854	83.44
466.073	87.44
466.293	70.44
466.512	73.44
466.732	85.44
466.951	86.44
467.171	102.44
467.391	103.44
467.61	93.44
467.829	91.44
468.049	90.44
468.268	93.44
468.488	94.44
468.707	91.44
468.927	86.44
469.146	78.44
469.365	84.44
469.585	83.44
469.804	104.44
470.023	80.44
470.243	92.44
470.462	103.44
470.681	103.44
470.901	102.44
471.12	100.44
471.339	102.44
471.558	91.44
471.777	76.44
471.997	87.44
472.216	88.44
472.435	76.44
472.654	99.44
472.873	93.44
473.092	94.44
473.311	82.44
473.53	90.44
473.749	81.44
473.968	87.44
474.187	78.44
474.406	93.44
474.625	84.44
474.844	91.44
475.063	95.44
475.282	90.44
475.501	69.44
475.72	85.44
475.939	76.44
476.158	90.44
476.377	77.44
476.596	83.44
476.814	85.44
477.033	93.44
477.252	87.44
477.471	85.44
477.69	86.44
477.908	85.44
478.127	97.44
478.346	92.44
478.564	93.44
478.783	98.44
479.002	92.44
479.22	88.44
479.439	83.44
479.658	90.44
479.876	94.44
480.095	97.44
480.313	77.44
480.532	76.44
480.751	87.44
480.969	80.44
481.188	96.44
481.406	96.44
481.624	79.44
481.843	91.44
482.061	89.44
482.28	83.44
482.498	90.44
482.717	85.44
482.935	89.44
483.153	81.44
483.372	75.44
483.59	78.44
483.808	84.44
484.027	93.44
484.245	103.44
484.463	101.44
484.681	85.44
484.9	101.44
485.118	82.44
485.336	87.44
485.554	95.44
485.772	102.44
485.99	94.44
486.209	100.44
486.427	94.44
486.645	102.44
486.863	123.44
487.081	106.44
487.299	96.44
487.517	95.44
487.735	80.44
487.953	116.44
488.171	97.44
488.389	105.44
488.607	98.44
488.825	89.44
489.043	87.44
489.261	92.44
489.479	95.44
489.696	92.44
489.914	77.44
490.132	101.44
490.35	88.44
490.568	86.44
490.786	89.44
491.003	82.44
491.221	87.44
491.439	103.44
491.657	101.44
491.874	98.44
492.092	92.44
492.31	85.44
492.527	109.44
492.745	87.44
492.963	79.44
493.18	95.44
493.398	85.44
493.615	102.44
493.833	95.44
494.05	96.44
494.268	90.44
494.485	92.44
494.703	92.44
494.92	87.44
495.138	81.44
495.355	103.44
495.573	89.44
495.79	96.44
496.008	97.44
496.225	92.44
496.442	81.44
496.66	96.44
496.877	92.44
497.094	86.44
497.312	86.44
497.529	85.44
497.746	91.44
497.963	84.44
498.181	97.44
498.398	84.44
498.615	103.44
498.832	98.44
499.049	99.44
499.267	95.44
499.484	98.44
499.701	92.44
499.918	87.44
500.135	89.44
500.352	83.44
500.569	94.44
500.786	88.44
501.003	73.44
501.22	89.44
501.437	90.44
501.654	88.44
501.871	111.44
502.088	94.44
502.305	84.44
502.522	96.44
502.739	90.44
502.956	92.44
503.172	84.44
503.389	92.44
503.606	78.44
503.823	92.44
504.04	79.44
504.256	88.44
504.473	83.44
504.69	89.44
504.907	94.44
505.123	88.44
505.34	89.44
505.557	96.44
505.773	100.44
505.99	92.44
506.207	76.44
506.423	93.44
506.64	76.44
506.856	89.44
507.073	83.44
507.289	91.44
507.506	107.44
507.722	113.44
507.939	104.44
508.155	99.44
508.372	90.44
508.588	91.44
508.805	88.44
509.021	100.44
509.238	107.44
509.454	95.44
509.67	89.44
509.887	107.44
510.103	137.44
510.319	208.44
510.536	752.44
510.752	2455.44
510.968	677.44
511.184	162.44
511.401	112.44
511.617	86.44
511.833	93.44
512.049	93.44
512.265	95.44
512.481	95.44
512.698	97.44
512.914	81.44
513.13	97.44
513.346	98.44
513.562	92.44
513.778	95.44
513.994	92.44
514.21	95.44
514.426	124.44
514.642	131.44
514.858	123.44
515.074	149.44
515.29	433.44
515.506	1341.44
515.721	516.44
515.937	152.44
516.153	105.44
516.369	97.44
516.585	87.44
516.801	108.44
517.016	103.44
517.232	86.44
517.448	104.44
517.664	98.44
517.879	108.44
518.095	79.44
518.311	94.44
518.527	107.44
518.742	100.44
518.958	95.44
519.173	84.44
519.389	80.44
519.605	89.44
519.82	101.44
520.036	104.44
520.251	111.44
520.467	101.44
520.682	115.44
520.898	98.44
521.113	126.44
521.329	131.44
521.544	190.44
521.76	505.44
521.975	2279.44
522.19	1339.44
522.406	299.44
522.621	121.44
522.836	97.44
523.052	85.44
523.267	80.44
523.482	95.44
523.698	95.44
523.913	121.44
524.128	97.44
524.343	81.44
524.559	91.44
524.774	86.44
524.989	105.44
525.204	110.44
525.419	111.44
525.634	79.44
525.849	89.44
526.064	98.44
526.28	82.44
526.495	80.44
526.71	85.44
526.925	110.44
527.14	90.44
527.355	71.44
527.57	101.44
527.785	95.44
527.999	86.44
528.214	91.44
528.429	85.44
528.644	83.44
528.859	94.44
529.074	93.44
529.289	108.44
529.503	164.44
529.718	89.44
529.933	86.44
530.148	94.44
530.363	98.44
530.577	84.44
530.792	80.44
531.007	96.44
531.221	84.44
531.436	98.44
531.651	102.44
531.865	80.44
532.08	105.44
532.295	90.44
532.509	85.44
532.724	93.44
532.938	89.44
533.153	95.44
533.367	78.44
533.582	100.44
533.796	95.44
534.011	92.44
534.225	85.44
534.44	92.44
534.654	96.44
534.868	99.44
535.083	89.44
535.297	99.44
535.511	102.44
535.726	85.44
535.94	90.44
536.154	98.44
536.369	89.44
536.583	87.44
536.797	79.44
537.011	75.44
537.225	87.44
537.44	87.44
537.654	84.44
537.868	81.44
538.082	88.44
538.296	87.44
538.51	96.44
538.724	79.44
538.938	84.44
539.153	85.44
539.367	110.44
539.581	105.44
539.795	75.44
540.009	91.44
540.222	95.44
540.436	94.44
540.65	76.44
540.864	93.44
541.078	91.44
541.292	98.44
541.506	88.44
541.72	94.44
541.934	83.44
542.147	85.44
542.361	95.44
542.575	76.44
542.789	92.44
543.002	88.44
543.216	88.44
543.43	87.44
543.644	90.44
543.857	84.44
544.071	87.44
544.285	96.44
544.498	79.44
544.712	94.44
544.925	90.44
545.139	99.44
545.352	100.44
545.566	103.44
545.779	97.44
545.993	92.44
546.206	94.44
546.42	104.44
546.633	81.44
546.847	93.44
547.06	91.44
547.274	92.44
547.487	88.44
547.7	95.44
547.914	94.44
548.127	89.44
548.34	105.44
548.554	81.44
548.767	85.44
548.98	88.44
549.193	72.44
549.407	76.44
549.62	76.44
549.833	69.44
550.046	72.44
550.259	97.44
550.473	79.44
550.686	78.44
550.899	89.44
551.112	88.44
551.325	87.44
551.538	98.44
551.751	93.44
551.964	77.44
552.177	100.44
552.39	85.44
552.603	97.44
552.816	80.44
553.029	97.44
553.242	94.44
553.455	93.44
553.667	104.44
553.88	90.44
554.093	92.44
554.306	84.44
554.519	79.44
554.732	88.44
554.944	84.44
555.157	83.44
555.37	92.44
555.583	93.44
555.795	89.44
556.008	97.44
556.221	85.44
556.433	87.44
556.646	92.44
556.859	96.44
557.071	98.44
557.284	88.44
557.496	83.44
557.709	93.44
557.921	100.44
558.134	91.44
558.346	86.44
558.559	80.44
558.771	83.44
558.984	84.44
559.196	87.44
559.409	89.44
559.621	81.44
559.833	77.44
560.046	71.44
560.258	87.44
560.47	87.44
560.683	77.44
560.895	94.44
561.107	73.44
561.32	95.44
561.532	99.44
561.744	102.44
561.956	90.44
562.168	86.44
562.381	102.44
562.593	87.44
562.805	91.44
563.017	89.44
563.229	99.44
563.441	88.44
563.653	83.44
563.865	92.44
564.077	92.44
564.289	99.44
564.501	84.44
564.713	94.44
564.925	100.44
565.137	117.44
565.349	88.44
565.561	84.44
565.773	88.44
565.985	71.44
566.197	77.44
566.408	85.44
566.62	91.44
566.832	80.44
567.044	91.44
567.255	88.44
567.467	85.44
567.679	73.44
567.891	76.44
568.102	83.44
568.314	104.44
568.526	93.44
568.737	90.44
568.949	93.44
569.161	84.44
569.372	83.44
569.584	79.44
569.795	84.44
570.007	104.44
570.218	238.44
570.43	134.44
570.641	89.44
570.853	86.44
571.064	83.44
571.276	84.44
571.487	91.44
571.698	77.44
571.91	79.44
572.121	96.44
572.333	77.44
572.544	77.44
572.755	108.44
572.966	84.44
573.178	88.44
573.389	83.44
573.6	82.44
573.811	90.44
574.023	94.44
574.234	93.44
574.445	94.44
574.656	75.44
574.867	93.44
575.078	89.44
575.289	79.44
575.501	98.44
575.712	99.44
575.923	92.44
576.134	96.44
576.345	97.44
576.556	87.44
576.767	85.44
576.978	89.44
577.188	82.44
577.399	88.44
577.61	92.44
577.821	113.44
578.032	119.44
578.243	270.44
578.454	788.44
578.665	211.44
578.875	111.44
579.086	76.44
579.297	92.44
579.508	85.44
579.718	90.44
579.929	101.44
580.14	85.44
580.35	95.44
580.561	96.44
580.772	88.44
580.982	94.44
581.193	89.44
581.403	88.44
581.614	94.44
581.825	84.44
582.035	91.44
582.246	88.44
582.456	91.44
582.667	92.44
582.877	81.44
583.087	88.44
583.298	103.44
583.508	98.44
583.719	85.44
583.929	88.44
584.139	73.44
584.35	79.44
584.56	81.44
584.77	71.44
584.981	87.44
585.191	97.44
585.401	83.44
585.611	77.44
585.821	89.44
586.032	94.44
586.242	89.44
586.452	85.44
586.662	86.44
586.872	78.44
587.082	86.44
587.292	88.44
587.502	73.44
587.713	83.44
587.923	101.44
588.133	83.44
588.343	69.44
588.553	85.44
588.762	94.44
588.972	77.44
589.182	79.44
589.392	89.44
589.602	83.44
589.812	94.44
590.022	86.44
590.232	92.44
590.441	103.44
590.651	81.44
590.861	92.44
591.071	75.44
591.281	91.44
591.49	78.44
591.7	83.44
591.91	71.44
592.119	87.44
592.329	90.44
592.539	81.44
592.748	87.44
592.958	85.44
593.167	83.44
593.377	80.44
593.587	92.44
593.796	91.44
594.006	89.44
594.215	94.44
594.424	89.44
594.634	83.44
594.843	81.44
595.053	84.44
595.262	79.44
595.472	85.44
595.681	101.44
595.89	71.44
596.1	83.44
596.309	79.44
596.518	87.44
596.727	96.44
596.937	85.44
597.146	46.44
597.355	92.44
597.564	95.44
597.774	96.44
597.983	93.44
598.192	102.44
598.401	90.44
598.61	82.44
598.819	92.44
599.028	95.44
599.237	97.44
599.446	85.44
599.655	80.44
599.864	84.44
600.073	91.44
600.282	93.44
600.491	105.44
600.7	91.44
600.909	89.44
601.118	86.44
601.327	79.44
601.536	87.44
601.745	89.44
601.953	87.44
602.162	71.44
602.371	89.44
602.58	78.44
602.789	79.44
602.997	85.44
603.206	83.44
603.415	72.44
603.623	83.44
603.832	83.44
604.041	68.44
604.249	75.44
604.458	86.44
604.666	69.44
604.875	72.44
605.084	75.44
605.292	79.44
605.501	94.44
605.709	78.44
605.918	83.44
606.126	82.44
606.334	77.44
606.543	91.44
606.751	81.44
606.96	82.44
607.168	62.44
607.376	77.44
607.585	87.44
607.793	92.44
608.001	89.44
608.21	93.44
608.418	91.44
608.626	79.44
608.834	97.44
609.043	79.44
609.251	105.44
609.459	85.44
609.667	93.44
609.875	82.44
610.083	75.44
610.291	87.44
610.499	78.44
610.707	77.44
610.916	80.44
611.124	71.44
611.332	89.44
611.54	78.44
611.748	92.44
611.955	86.44
612.163	86.44
612.371	79.44
612.579	94.44
612.787	88.44
612.995	92.44
613.203	92.44
613.411	88.44
613.618	83.44
613.826	89.44
614.034	99.44
614.242	76.44
614.449	80.44
614.657	83.44
614.865	84.44
615.072	83.44
615.28	96.44
615.488	94.44
615.695	91.44
615.903	96.44
616.111	91.44
616.318	102.44
616.526	86.44
616.733	99.44
616.941	83.44
617.148	65.44
617.356	80.44
617.563	97.44
617.771	81.44
617.978	84.44
618.185	99.44
618.393	81.44
618.6	95.44
618.807	88.44
619.015	90.44
619.222	80.44
619.429	73.44
619.637	87.44
619.844	78.44
620.051	78.44
620.258	80.44
620.466	78.44
620.673	77.44
620.88	83.44
621.087	78.44
621.294	91.44
621.501	80.44
621.708	94.44
621.915	89.44
622.122	94.44
622.329	91.44
622.536	88.44
622.743	88.44
622.95	93.44
623.157	89.44
623.364	73.44
623.571	92.44
623.778	90.44
623.985	81.44
624.192	88.44
624.399	89.44
624.606	96.44
624.812	86.44
625.019	91.44
625.226	80.44
625.433	89.44
625.639	92.44
625.846	80.44
626.053	94.44
626.259	73.44
626.466	88.44
626.673	71.44
626.879	81.44
627.086	78.44
627.293	70.44
627.499	84.44
627.706	80.44
627.912	91.44
628.119	80.44
628.325	92.44
628.532	89.44
628.738	76.44
628.945	79.44
629.151	92.44
629.357	75.44
629.564	87.44
629.77	78.44
629.976	87.44
630.183	93.44
630.389	79.44
630.595	75.44
630.802	77.44
631.008	83.44
631.214	74.44
631.42	86.44
631.627	81.44
631.833	82.44
632.039	83.44
632.245	70.44
632.451	63.44
632.657	86.44
632.863	79.44
633.069	85.44
633.275	77.44
633.481	98.44
633.688	73.44
633.893	80.44
634.099	90.44
634.305	95.44
634.511	86.44
634.717	87.44
634.923	81.44
635.129	96.44
635.335	83.44
635.541	68.44
635.747	85.44
635.952	83.44
636.158	84.44
636.364	88.44
636.57	83.44
636.775	84.44
636.981	78.44
637.187	78.44
637.392	89.44
637.598	82.44
637.804	79.44
638.009	92.44
638.215	80.44
638.421	93.44
638.626	96.44
638.832	71.44
639.037	89.44
639.243	81.44
639.448	77.44
639.654	84.44
639.859	75.44
640.065	87.44
640.27	88.44
640.475	88.44
640.681	73.44
640.886	84.44
641.091	76.44
641.297	84.44
641.502	82.44
641.707	98.44
641.913	80.44
642.118	79.44
642.323	90.44
642.528	87.44
642.733	84.44
642.939	94.44
643.144	75.44
643.349	84.44
643.554	72.44
643.759	82.44
643.964	92.44
644.169	80.44
644.374	95.44
644.579	86.44
644.784	87.44
644.989	92.44
645.194	70.44
645.399	86.44
645.604	77.44
645.809	83.44
646.014	84.44
646.219	87.44
646.423	91.44
646.628	76.44
646.833	75.44
647.038	71.44
647.243	88.44
647.447	79.44
647.652	81.44
647.857	86.44
648.062	86.44
648.266	83.44
648.471	79.44
648.676	103.44
648.88	87.44
649.085	90.44
649.289	91.44
649.494	93.44
649.698	152.44
649.903	102.44
650.107	79.44
650.312	91.44
650.516	70.44
650.721	86.44
650.925	76.44
651.13	73.44
651.334	80.44
651.539	84.44
651.743	79.44
651.947	79.44
652.152	93.44
652.356	97.44
652.56	87.44
652.764	88.44
652.969	85.44
653.173	80.44
653.377	84.44
653.581	65.44
653.785	92.44
653.99	83.44
654.194	83.44
654.398	78.44
654.602	80.44
654.806	100.44
655.01	93.44
655.214	97.44
655.418	76.44
655.622	90.44
655.826	86.44
656.03	77.44
656.234	77.44
656.438	97.44
656.642	96.44
656.846	90.44
657.049	77.44
657.253	88.44
657.457	72.44
657.661	70.44
657.865	83.44
658.068	76.44
658.272	84.44
658.476	71.44
658.68	72.44
658.883	89.44
659.087	78.44
659.291	76.44
659.494	69.44
659.698	81.44
659.901	87.44
660.105	79.44
660.309	85.44
660.512	78.44
660.716	79.44
660.919	83.44
661.123	92.44
661.326	85.44
661.53	85.44
661.733	80.44
661.936	90.44
662.14	86.44
662.343	79.44
662.546	78.44
662.75	83.44
662.953	69.44
663.156	79.44
663.36	81.44
663.563	84.44
663.766	60.44
663.969	71.44
664.173	61.44
664.376	67.44
664.579	81.44
664.782	76.44
664.985	72.44
665.188	77.44
665.391	69.44
665.594	79.44
665.797	75.44
666	80.44
666.203	91.44
666.406	89.44
666.609	80.44
666.812	84.44
667.015	78.44
667.218	85.44
667.421	70.44
667.624	86.44
667.827	91.44
668.03	87.44
668.232	68.44
668.435	89.44
668.638	83.44
668.841	79.44
669.043	79.44
669.246	77.44
669.449	76.44
669.651	83.44
669.854	80.44
670.057	73.44
670.259	84.44
670.462	86.44
670.665	80.44
670.867	95.44
671.07	78.44
671.272	82.44
671.475	83.44
671.677	83.44
671.88	91.44
672.082	86.44
672.284	84.44
672.487	79.44
672.689	86.44
672.892	85.44
