Data from Uncirc_1999_H10_HRD10591_00097.txt Node
Date: Wed Jan 03 11:22:24 EST 2024
User: Yrep
Spectrometer: HR+D1059
Trigger mode: 1
Integration Time (sec): 1.000000E-1
Scans to average: 1
Electric dark correction enabled: true
Nonlinearity correction enabled: false
Boxcar width: 0
XAxis mode: Wavelengths
Number of Pixels in Spectrum: 2048
>>>>>Begin Spectral Data<<<<<
223.165	-14.19
223.4	-14.19
223.635	-14.19
223.869	-19.19
224.104	-25.19
224.338	3.81
224.573	-13.19
224.808	-14.19
225.042	-5.19
225.277	-15.19
225.511	-9.19
225.746	6.81
225.98	18.81
226.215	0.81
226.449	15.81
226.683	17.81
226.918	8.81
227.152	42.81
227.387	22.81
227.621	34.81
227.856	44.81
228.09	48.81
228.324	53.81
228.559	54.81
228.793	68.81
229.027	56.81
229.262	63.81
229.496	86.81
229.73	74.81
229.964	81.81
230.199	70.81
230.433	78.81
230.667	78.81
230.901	70.81
231.136	77.81
231.37	93.81
231.604	94.81
231.838	79.81
232.072	86.81
232.306	87.81
232.541	83.81
232.775	84.81
233.009	84.81
233.243	92.81
233.477	83.81
233.711	106.81
233.945	84.81
234.179	94.81
234.413	80.81
234.647	84.81
234.881	78.81
235.115	77.81
235.349	77.81
235.583	88.81
235.817	70.81
236.051	73.81
236.285	90.81
236.519	88.81
236.753	80.81
236.987	78.81
237.221	79.81
237.455	80.81
237.689	68.81
237.922	72.81
238.156	82.81
238.39	90.81
238.624	91.81
238.858	68.81
239.091	92.81
239.325	81.81
239.559	79.81
239.793	88.81
240.027	72.81
240.26	61.81
240.494	77.81
240.728	82.81
240.961	73.81
241.195	76.81
241.429	75.81
241.662	57.81
241.896	81.81
242.13	94.81
242.363	74.81
242.597	57.81
242.83	74.81
243.064	95.81
243.298	59.81
243.531	78.81
243.765	74.81
243.998	75.81
244.232	71.81
244.465	92.81
244.699	81.81
244.932	70.81
245.166	73.81
245.399	75.81
245.633	85.81
245.866	74.81
246.099	92.81
246.333	81.81
246.566	84.81
246.8	89.81
247.033	98.81
247.266	90.81
247.5	72.81
247.733	90.81
247.966	77.81
248.2	91.81
248.433	81.81
248.666	87.81
248.899	76.81
249.133	87.81
249.366	90.81
249.599	86.81
249.832	74.81
250.066	76.81
250.299	74.81
250.532	83.81
250.765	87.81
250.998	80.81
251.231	79.81
251.465	79.81
251.698	74.81
251.931	76.81
252.164	87.81
252.397	85.81
252.63	83.81
252.863	78.81
253.096	78.81
253.329	98.81
253.562	95.81
253.795	88.81
254.028	91.81
254.261	91.81
254.494	69.81
254.727	81.81
254.96	81.81
255.193	91.81
255.426	77.81
255.659	70.81
255.892	71.81
256.124	80.81
256.357	83.81
256.59	91.81
256.823	92.81
257.056	65.81
257.289	83.81
257.521	81.81
257.754	78.81
257.987	84.81
258.22	94.81
258.452	84.81
258.685	75.81
258.918	74.81
259.151	84.81
259.383	89.81
259.616	85.81
259.849	90.81
260.081	86.81
260.314	71.81
260.547	87.81
260.779	80.81
261.012	79.81
261.244	78.81
261.477	82.81
261.71	91.81
261.942	102.81
262.175	112.81
262.407	87.81
262.64	83.81
262.872	93.81
263.105	83.81
263.337	85.81
263.57	88.81
263.802	80.81
264.035	83.81
264.267	86.81
264.499	83.81
264.732	85.81
264.964	92.81
265.197	102.81
265.429	83.81
265.661	84.81
265.894	69.81
266.126	90.81
266.358	87.81
266.591	82.81
266.823	89.81
267.055	80.81
267.287	72.81
267.52	79.81
267.752	98.81
267.984	91.81
268.216	93.81
268.448	91.81
268.681	99.81
268.913	84.81
269.145	76.81
269.377	81.81
269.609	82.81
269.841	88.81
270.073	67.81
270.306	88.81
270.538	83.81
270.77	93.81
271.002	80.81
271.234	76.81
271.466	91.81
271.698	93.81
271.93	90.81
272.162	95.81
272.394	93.81
272.626	86.81
272.858	86.81
273.09	96.81
273.322	87.81
273.553	91.81
273.785	96.81
274.017	92.81
274.249	86.81
274.481	95.81
274.713	82.81
274.945	86.81
275.176	91.81
275.408	93.81
275.64	83.81
275.872	85.81
276.104	78.81
276.335	89.81
276.567	108.81
276.799	104.81
277.031	93.81
277.262	89.81
277.494	103.81
277.726	98.81
277.957	90.81
278.189	88.81
278.421	81.81
278.652	85.81
278.884	88.81
279.115	77.81
279.347	92.81
279.579	89.81
279.81	76.81
280.042	95.81
280.273	102.81
280.505	86.81
280.736	86.81
280.968	86.81
281.199	85.81
281.431	96.81
281.662	91.81
281.894	94.81
282.125	100.81
282.356	124.81
282.588	111.81
282.819	114.81
283.051	101.81
283.282	88.81
283.513	95.81
283.745	91.81
283.976	75.81
284.207	74.81
284.439	106.81
284.67	100.81
284.901	94.81
285.132	88.81
285.364	86.81
285.595	93.81
285.826	93.81
286.057	95.81
286.288	78.81
286.52	74.81
286.751	79.81
286.982	83.81
287.213	86.81
287.444	96.81
287.675	99.81
287.906	75.81
288.138	82.81
288.369	80.81
288.6	98.81
288.831	88.81
289.062	104.81
289.293	89.81
289.524	86.81
289.755	93.81
289.986	90.81
290.217	106.81
290.448	95.81
290.679	100.81
290.91	96.81
291.141	88.81
291.371	95.81
291.602	87.81
291.833	75.81
292.064	67.81
292.295	98.81
292.526	89.81
292.757	95.81
292.987	88.81
293.218	90.81
293.449	95.81
293.68	90.81
293.91	83.81
294.141	81.81
294.372	76.81
294.603	80.81
294.833	91.81
295.064	97.81
295.295	90.81
295.525	84.81
295.756	94.81
295.987	111.81
296.217	135.81
296.448	115.81
296.679	102.81
296.909	103.81
297.14	93.81
297.37	95.81
297.601	85.81
297.831	92.81
298.062	87.81
298.292	90.81
298.523	97.81
298.753	81.81
298.984	92.81
299.214	97.81
299.445	84.81
299.675	100.81
299.905	88.81
300.136	88.81
300.366	86.81
300.597	92.81
300.827	88.81
301.057	100.81
301.288	95.81
301.518	102.81
301.748	91.81
301.979	96.81
302.209	85.81
302.439	97.81
302.669	80.81
302.9	90.81
303.13	102.81
303.36	96.81
303.59	99.81
303.82	94.81
304.051	103.81
304.281	92.81
304.511	86.81
304.741	95.81
304.971	83.81
305.201	82.81
305.431	112.81
305.661	84.81
305.891	83.81
306.121	104.81
306.352	103.81
306.582	110.81
306.812	94.81
307.042	92.81
307.272	88.81
307.502	103.81
307.731	87.81
307.961	85.81
308.191	91.81
308.421	97.81
308.651	85.81
308.881	98.81
309.111	90.81
309.341	101.81
309.571	98.81
309.8	94.81
310.03	95.81
310.26	87.81
310.49	93.81
310.72	104.81
310.949	92.81
311.179	102.81
311.409	86.81
311.639	94.81
311.868	92.81
312.098	95.81
312.328	88.81
312.557	104.81
312.787	93.81
313.017	90.81
313.246	96.81
313.476	94.81
313.706	81.81
313.935	93.81
314.165	99.81
314.394	93.81
314.624	67.81
314.853	86.81
315.083	88.81
315.312	87.81
315.542	96.81
315.771	91.81
316.001	84.81
316.23	97.81
316.46	87.81
316.689	93.81
316.919	98.81
317.148	76.81
317.377	97.81
317.607	110.81
317.836	89.81
318.065	97.81
318.295	99.81
318.524	97.81
318.753	91.81
318.983	87.81
319.212	99.81
319.441	103.81
319.67	104.81
319.9	89.81
320.129	89.81
320.358	86.81
320.587	112.81
320.816	96.81
321.046	113.81
321.275	108.81
321.504	99.81
321.733	92.81
321.962	105.81
322.191	109.81
322.42	112.81
322.649	114.81
322.878	118.81
323.108	121.81
323.337	136.81
323.566	120.81
323.795	164.81
324.024	198.81
324.253	378.81
324.482	852.81
324.71	1690.81
324.939	2209.81
325.168	783.81
325.397	258.81
325.626	147.81
325.855	124.81
326.084	131.81
326.313	136.81
326.542	140.81
326.77	235.81
326.999	443.81
327.228	965.81
327.457	1734.81
327.686	1359.81
327.914	360.81
328.143	169.81
328.372	144.81
328.6	134.81
328.829	121.81
329.058	123.81
329.287	131.81
329.515	104.81
329.744	100.81
329.972	107.81
330.201	108.81
330.43	105.81
330.658	124.81
330.887	125.81
331.115	120.81
331.344	84.81
331.572	92.81
331.801	106.81
332.03	114.81
332.258	103.81
332.486	100.81
332.715	86.81
332.943	92.81
333.172	91.81
333.4	104.81
333.629	101.81
333.857	100.81
334.085	105.81
334.314	103.81
334.542	104.81
334.771	108.81
334.999	99.81
335.227	88.81
335.455	87.81
335.684	112.81
335.912	95.81
336.14	99.81
336.369	99.81
336.597	101.81
336.825	106.81
337.053	87.81
337.281	103.81
337.51	87.81
337.738	100.81
337.966	91.81
338.194	104.81
338.422	103.81
338.65	108.81
338.878	78.81
339.106	97.81
339.334	88.81
339.562	88.81
339.79	99.81
340.018	86.81
340.246	89.81
340.474	103.81
340.702	106.81
340.93	95.81
341.158	92.81
341.386	107.81
341.614	93.81
341.842	86.81
342.07	80.81
342.298	96.81
342.526	86.81
342.754	88.81
342.981	86.81
343.209	95.81
343.437	87.81
343.665	99.81
343.893	98.81
344.12	96.81
344.348	73.81
344.576	91.81
344.804	97.81
345.031	105.81
345.259	82.81
345.487	91.81
345.714	91.81
345.942	95.81
346.17	97.81
346.397	99.81
346.625	84.81
346.853	90.81
347.08	92.81
347.308	94.81
347.535	90.81
347.763	108.81
347.99	96.81
348.218	108.81
348.445	94.81
348.673	82.81
348.9	105.81
349.128	96.81
349.355	99.81
349.583	109.81
349.81	99.81
350.037	92.81
350.265	94.81
350.492	106.81
350.72	99.81
350.947	94.81
351.174	100.81
351.402	105.81
351.629	110.81
351.856	95.81
352.083	102.81
352.311	125.81
352.538	96.81
352.765	102.81
352.992	102.81
353.22	104.81
353.447	109.81
353.674	100.81
353.901	101.81
354.128	95.81
354.355	105.81
354.583	102.81
354.81	100.81
355.037	81.81
355.264	110.81
355.491	90.81
355.718	106.81
355.945	107.81
356.172	96.81
356.399	95.81
356.626	103.81
356.853	99.81
357.08	100.81
357.307	99.81
357.534	94.81
357.761	87.81
357.988	113.81
358.215	86.81
358.441	94.81
358.668	86.81
358.895	82.81
359.122	98.81
359.349	77.81
359.576	96.81
359.802	87.81
360.029	97.81
360.256	96.81
360.483	102.81
360.709	95.81
360.936	96.81
361.163	104.81
361.39	100.81
361.616	94.81
361.843	96.81
362.07	95.81
362.296	97.81
362.523	90.81
362.749	89.81
362.976	96.81
363.203	103.81
363.429	106.81
363.656	95.81
363.882	94.81
364.109	94.81
364.335	86.81
364.562	97.81
364.788	95.81
365.015	78.81
365.241	97.81
365.468	97.81
365.694	107.81
365.92	92.81
366.147	88.81
366.373	94.81
366.599	81.81
366.826	82.81
367.052	94.81
367.278	87.81
367.505	108.81
367.731	100.81
367.957	84.81
368.184	103.81
368.41	93.81
368.636	91.81
368.862	123.81
369.089	103.81
369.315	105.81
369.541	96.81
369.767	94.81
369.993	88.81
370.219	84.81
370.445	92.81
370.672	86.81
370.898	101.81
371.124	89.81
371.35	96.81
371.576	94.81
371.802	95.81
372.028	82.81
372.254	90.81
372.48	84.81
372.706	99.81
372.932	89.81
373.158	92.81
373.384	95.81
373.61	109.81
373.835	92.81
374.061	89.81
374.287	82.81
374.513	91.81
374.739	100.81
374.965	98.81
375.191	85.81
375.416	101.81
375.642	98.81
375.868	99.81
376.094	77.81
376.319	97.81
376.545	109.81
376.771	100.81
376.997	90.81
377.222	82.81
377.448	91.81
377.674	108.81
377.899	90.81
378.125	89.81
378.35	98.81
378.576	94.81
378.802	100.81
379.027	89.81
379.253	89.81
379.478	99.81
379.704	100.81
379.929	89.81
380.155	100.81
380.38	92.81
380.606	87.81
380.831	106.81
381.057	102.81
381.282	88.81
381.507	75.81
381.733	100.81
381.958	102.81
382.184	102.81
382.409	112.81
382.634	102.81
382.86	109.81
383.085	99.81
383.31	99.81
383.535	111.81
383.761	108.81
383.986	93.81
384.211	99.81
384.436	89.81
384.662	105.81
384.887	116.81
385.112	107.81
385.337	101.81
385.562	109.81
385.787	104.81
386.013	119.81
386.238	107.81
386.463	119.81
386.688	105.81
386.913	100.81
387.138	106.81
387.363	108.81
387.588	93.81
387.813	106.81
388.038	110.81
388.263	105.81
388.488	102.81
388.713	100.81
388.938	92.81
389.163	114.81
389.387	104.81
389.612	105.81
389.837	89.81
390.062	111.81
390.287	98.81
390.512	93.81
390.736	101.81
390.961	95.81
391.186	83.81
391.411	97.81
391.636	96.81
391.86	94.81
392.085	99.81
392.31	91.81
392.534	95.81
392.759	94.81
392.984	88.81
393.208	92.81
393.433	87.81
393.658	90.81
393.882	87.81
394.107	91.81
394.331	84.81
394.556	86.81
394.78	95.81
395.005	97.81
395.229	86.81
395.454	99.81
395.678	91.81
395.903	71.81
396.127	94.81
396.352	84.81
396.576	84.81
396.801	94.81
397.025	104.81
397.249	105.81
397.474	110.81
397.698	90.81
397.922	81.81
398.147	87.81
398.371	80.81
398.595	96.81
398.82	94.81
399.044	90.81
399.268	81.81
399.492	97.81
399.717	89.81
399.941	87.81
400.165	99.81
400.389	104.81
400.613	104.81
400.837	75.81
401.062	95.81
401.286	89.81
401.51	89.81
401.734	96.81
401.958	116.81
402.182	125.81
402.406	135.81
402.63	107.81
402.854	95.81
403.078	81.81
403.302	99.81
403.526	85.81
403.75	92.81
403.974	88.81
404.198	91.81
404.422	85.81
404.645	90.81
404.869	94.81
405.093	95.81
405.317	86.81
405.541	97.81
405.765	95.81
405.988	110.81
406.212	133.81
406.436	204.81
406.66	141.81
406.883	106.81
407.107	98.81
407.331	100.81
407.555	97.81
407.778	94.81
408.002	84.81
408.226	80.81
408.449	95.81
408.673	99.81
408.896	103.81
409.12	91.81
409.344	103.81
409.567	84.81
409.791	109.81
410.014	96.81
410.238	83.81
410.461	86.81
410.685	100.81
410.908	100.81
411.132	97.81
411.355	116.81
411.578	92.81
411.802	100.81
412.025	90.81
412.249	94.81
412.472	94.81
412.695	88.81
412.919	74.81
413.142	110.81
413.365	99.81
413.589	92.81
413.812	89.81
414.035	100.81
414.258	99.81
414.482	94.81
414.705	97.81
414.928	90.81
415.151	100.81
415.374	103.81
415.597	92.81
415.821	88.81
416.044	92.81
416.267	103.81
416.49	96.81
416.713	111.81
416.936	86.81
417.159	79.81
417.382	100.81
417.605	104.81
417.828	75.81
418.051	108.81
418.274	88.81
418.497	92.81
418.72	85.81
418.943	90.81
419.166	100.81
419.389	105.81
419.611	95.81
419.834	85.81
420.057	84.81
420.28	101.81
420.503	102.81
420.726	79.81
420.948	93.81
421.171	97.81
421.394	90.81
421.617	95.81
421.839	85.81
422.062	106.81
422.285	102.81
422.507	96.81
422.73	98.81
422.953	112.81
423.175	88.81
423.398	103.81
423.621	100.81
423.843	86.81
424.066	91.81
424.288	97.81
424.511	93.81
424.733	105.81
424.956	101.81
425.178	108.81
425.401	105.81
425.623	100.81
425.846	73.81
426.068	89.81
426.291	84.81
426.513	92.81
426.735	89.81
426.958	94.81
427.18	81.81
427.402	118.81
427.625	140.81
427.847	118.81
428.069	102.81
428.292	98.81
428.514	97.81
428.736	97.81
428.958	85.81
429.181	92.81
429.403	93.81
429.625	94.81
429.847	93.81
430.069	89.81
430.292	101.81
430.514	88.81
430.736	81.81
430.958	100.81
431.18	95.81
431.402	102.81
431.624	85.81
431.846	83.81
432.068	88.81
432.29	80.81
432.512	81.81
432.734	94.81
432.956	88.81
433.178	100.81
433.4	102.81
433.622	106.81
433.844	100.81
434.066	98.81
434.287	95.81
434.509	96.81
434.731	98.81
434.953	99.81
435.175	93.81
435.397	85.81
435.618	88.81
435.84	103.81
436.062	120.81
436.284	110.81
436.505	103.81
436.727	104.81
436.949	84.81
437.17	107.81
437.392	86.81
437.614	79.81
437.835	94.81
438.057	123.81
438.278	99.81
438.5	126.81
438.721	113.81
438.943	101.81
439.165	93.81
439.386	87.81
439.608	84.81
439.829	108.81
440.05	100.81
440.272	122.81
440.493	97.81
440.715	79.81
440.936	94.81
441.158	97.81
441.379	94.81
441.6	90.81
441.822	93.81
442.043	99.81
442.264	99.81
442.486	111.81
442.707	90.81
442.928	97.81
443.149	121.81
443.371	133.81
443.592	115.81
443.813	97.81
444.034	92.81
444.255	90.81
444.476	93.81
444.698	103.81
444.919	102.81
445.14	129.81
445.361	130.81
445.582	114.81
445.803	135.81
446.024	140.81
446.245	140.81
446.466	109.81
446.687	121.81
446.908	94.81
447.129	79.81
447.35	94.81
447.571	85.81
447.792	82.81
448.013	106.81
448.234	103.81
448.455	100.81
448.675	118.81
448.896	123.81
449.117	100.81
449.338	101.81
449.559	123.81
449.779	122.81
450	97.81
450.221	97.81
450.442	84.81
450.662	86.81
450.883	88.81
451.104	104.81
451.324	96.81
451.545	99.81
451.766	85.81
451.986	95.81
452.207	94.81
452.428	92.81
452.648	103.81
452.869	102.81
453.089	93.81
453.31	106.81
453.53	99.81
453.751	92.81
453.971	112.81
454.192	104.81
454.412	88.81
454.633	87.81
454.853	88.81
455.073	90.81
455.294	82.81
455.514	88.81
455.734	89.81
455.955	80.81
456.175	84.81
456.395	81.81
456.616	97.81
456.836	83.81
457.056	88.81
457.276	101.81
457.497	106.81
457.717	95.81
457.937	91.81
458.157	93.81
458.377	107.81
458.598	112.81
458.818	132.81
459.038	134.81
459.258	108.81
459.478	91.81
459.698	96.81
459.918	93.81
460.138	96.81
460.358	84.81
460.578	92.81
460.798	98.81
461.018	101.81
461.238	104.81
461.458	81.81
461.678	90.81
461.898	86.81
462.118	90.81
462.338	90.81
462.558	100.81
462.777	88.81
462.997	94.81
463.217	102.81
463.437	75.81
463.657	83.81
463.876	85.81
464.096	96.81
464.316	88.81
464.536	94.81
464.755	98.81
464.975	106.81
465.195	142.81
465.414	145.81
465.634	90.81
465.854	77.81
466.073	96.81
466.293	99.81
466.512	88.81
466.732	84.81
466.951	85.81
467.171	105.81
467.391	97.81
467.61	91.81
467.829	104.81
468.049	105.81
468.268	87.81
468.488	85.81
468.707	84.81
468.927	81.81
469.146	91.81
469.365	94.81
469.585	104.81
469.804	90.81
470.023	93.81
470.243	97.81
470.462	97.81
470.681	121.81
470.901	91.81
471.12	86.81
471.339	87.81
471.558	87.81
471.777	101.81
471.997	97.81
472.216	92.81
472.435	100.81
472.654	91.81
472.873	96.81
473.092	77.81
473.311	80.81
473.53	80.81
473.749	92.81
473.968	110.81
474.187	106.81
474.406	97.81
474.625	86.81
474.844	89.81
475.063	82.81
475.282	83.81
475.501	94.81
475.72	96.81
475.939	91.81
476.158	87.81
476.377	97.81
476.596	103.81
476.814	91.81
477.033	96.81
477.252	89.81
477.471	89.81
477.69	95.81
477.908	94.81
478.127	95.81
478.346	87.81
478.564	90.81
478.783	104.81
479.002	88.81
479.22	82.81
479.439	92.81
479.658	103.81
479.876	98.81
480.095	94.81
480.313	87.81
480.532	95.81
480.751	92.81
480.969	95.81
481.188	128.81
481.406	90.81
481.624	90.81
481.843	105.81
482.061	100.81
482.28	96.81
482.498	86.81
482.717	93.81
482.935	87.81
483.153	90.81
483.372	94.81
483.59	94.81
483.808	105.81
484.027	104.81
484.245	93.81
484.463	81.81
484.681	94.81
484.9	95.81
485.118	104.81
485.336	96.81
485.554	94.81
485.772	97.81
485.99	106.81
486.209	100.81
486.427	106.81
486.645	121.81
486.863	111.81
487.081	95.81
487.299	100.81
487.517	102.81
487.735	104.81
487.953	96.81
488.171	99.81
488.389	91.81
488.607	95.81
488.825	83.81
489.043	89.81
489.261	102.81
489.479	103.81
489.696	97.81
489.914	106.81
490.132	103.81
490.35	82.81
490.568	89.81
490.786	89.81
491.003	85.81
491.221	99.81
491.439	94.81
491.657	99.81
491.874	93.81
492.092	97.81
492.31	94.81
492.527	81.81
492.745	83.81
492.963	83.81
493.18	90.81
493.398	98.81
493.615	99.81
493.833	103.81
494.05	93.81
494.268	98.81
494.485	103.81
494.703	89.81
494.92	90.81
495.138	95.81
495.355	96.81
495.573	91.81
495.79	96.81
496.008	89.81
496.225	95.81
496.442	90.81
496.66	108.81
496.877	95.81
497.094	86.81
497.312	103.81
497.529	97.81
497.746	91.81
497.963	79.81
498.181	98.81
498.398	99.81
498.615	114.81
498.832	102.81
499.049	91.81
499.267	84.81
499.484	104.81
499.701	94.81
499.918	104.81
500.135	78.81
500.352	85.81
500.569	91.81
500.786	88.81
501.003	90.81
501.22	92.81
501.437	84.81
501.654	88.81
501.871	99.81
502.088	89.81
502.305	104.81
502.522	99.81
502.739	95.81
502.956	89.81
503.172	104.81
503.389	89.81
503.606	103.81
503.823	108.81
504.04	96.81
504.256	99.81
504.473	94.81
504.69	108.81
504.907	90.81
505.123	90.81
505.34	92.81
505.557	85.81
505.773	89.81
505.99	85.81
506.207	89.81
506.423	96.81
506.64	100.81
506.856	94.81
507.073	97.81
507.289	96.81
507.506	103.81
507.722	106.81
507.939	113.81
508.155	98.81
508.372	86.81
508.588	92.81
508.805	98.81
509.021	105.81
509.238	103.81
509.454	88.81
509.67	98.81
509.887	97.81
510.103	132.81
510.319	191.81
510.536	719.81
510.752	2121.81
510.968	616.81
511.184	154.81
511.401	126.81
511.617	106.81
511.833	103.81
512.049	108.81
512.265	81.81
512.481	99.81
512.698	96.81
512.914	109.81
513.13	100.81
513.346	88.81
513.562	105.81
513.778	100.81
513.994	101.81
514.21	108.81
514.426	111.81
514.642	120.81
514.858	102.81
515.074	164.81
515.29	409.81
515.506	1233.81
515.721	471.81
515.937	158.81
516.153	95.81
516.369	108.81
516.585	90.81
516.801	105.81
517.016	97.81
517.232	94.81
517.448	101.81
517.664	91.81
517.879	95.81
518.095	95.81
518.311	92.81
518.527	111.81
518.742	96.81
518.958	93.81
519.173	98.81
519.389	94.81
519.605	107.81
519.82	104.81
520.036	95.81
520.251	115.81
520.467	111.81
520.682	88.81
520.898	122.81
521.113	120.81
521.329	118.81
521.544	187.81
521.76	478.81
521.975	2044.81
522.19	1242.81
522.406	273.81
522.621	136.81
522.836	82.81
523.052	93.81
523.267	93.81
523.482	95.81
523.698	104.81
523.913	125.81
524.128	102.81
524.343	99.81
524.559	92.81
524.774	82.81
524.989	88.81
525.204	95.81
525.419	91.81
525.634	96.81
525.849	103.81
526.064	83.81
526.28	99.81
526.495	99.81
526.71	97.81
526.925	114.81
527.14	88.81
527.355	103.81
527.57	93.81
527.785	90.81
527.999	89.81
528.214	111.81
528.429	99.81
528.644	102.81
528.859	96.81
529.074	87.81
529.289	117.81
529.503	162.81
529.718	118.81
529.933	94.81
530.148	83.81
530.363	82.81
530.577	93.81
530.792	92.81
531.007	91.81
531.221	98.81
531.436	83.81
531.651	89.81
531.865	69.81
532.08	88.81
532.295	88.81
532.509	101.81
532.724	105.81
532.938	99.81
533.153	103.81
533.367	93.81
533.582	105.81
533.796	94.81
534.011	99.81
534.225	94.81
534.44	90.81
534.654	87.81
534.868	103.81
535.083	108.81
535.297	109.81
535.511	99.81
535.726	102.81
535.94	96.81
536.154	95.81
536.369	95.81
536.583	96.81
536.797	98.81
537.011	107.81
537.225	75.81
537.44	88.81
537.654	99.81
537.868	98.81
538.082	84.81
538.296	99.81
538.51	86.81
538.724	99.81
538.938	95.81
539.153	102.81
539.367	89.81
539.581	91.81
539.795	94.81
540.009	93.81
540.222	91.81
540.436	100.81
540.65	102.81
540.864	73.81
541.078	84.81
541.292	87.81
541.506	94.81
541.72	98.81
541.934	105.81
542.147	98.81
542.361	92.81
542.575	90.81
542.789	82.81
543.002	87.81
543.216	106.81
543.43	99.81
543.644	94.81
543.857	97.81
544.071	95.81
544.285	106.81
544.498	99.81
544.712	97.81
544.925	80.81
545.139	87.81
545.352	89.81
545.566	95.81
545.779	87.81
545.993	88.81
546.206	81.81
546.42	106.81
546.633	99.81
546.847	103.81
547.06	96.81
547.274	78.81
547.487	87.81
547.7	86.81
547.914	102.81
548.127	110.81
548.34	88.81
548.554	100.81
548.767	91.81
548.98	91.81
549.193	79.81
549.407	94.81
549.62	92.81
549.833	95.81
550.046	87.81
550.259	82.81
550.473	87.81
550.686	94.81
550.899	80.81
551.112	95.81
551.325	83.81
551.538	100.81
551.751	91.81
551.964	91.81
552.177	102.81
552.39	91.81
552.603	108.81
552.816	95.81
553.029	111.81
553.242	85.81
553.455	107.81
553.667	102.81
553.88	83.81
554.093	98.81
554.306	91.81
554.519	97.81
554.732	82.81
554.944	103.81
555.157	92.81
555.37	94.81
555.583	96.81
555.795	95.81
556.008	92.81
556.221	88.81
556.433	90.81
556.646	89.81
556.859	96.81
557.071	95.81
557.284	110.81
557.496	93.81
557.709	99.81
557.921	87.81
558.134	96.81
558.346	100.81
558.559	101.81
558.771	99.81
558.984	85.81
559.196	84.81
559.409	98.81
559.621	97.81
559.833	92.81
560.046	97.81
560.258	96.81
560.47	82.81
560.683	88.81
560.895	92.81
561.107	86.81
561.32	104.81
561.532	95.81
561.744	66.81
561.956	80.81
562.168	94.81
562.381	105.81
562.593	95.81
562.805	105.81
563.017	105.81
563.229	80.81
563.441	81.81
563.653	78.81
563.865	89.81
564.077	72.81
564.289	94.81
564.501	86.81
564.713	92.81
564.925	88.81
565.137	97.81
565.349	99.81
565.561	89.81
565.773	91.81
565.985	87.81
566.197	95.81
566.408	86.81
566.62	92.81
566.832	88.81
567.044	86.81
567.255	88.81
567.467	90.81
567.679	83.81
567.891	98.81
568.102	78.81
568.314	82.81
568.526	102.81
568.737	100.81
568.949	103.81
569.161	93.81
569.372	91.81
569.584	113.81
569.795	101.81
570.007	115.81
570.218	231.81
570.43	134.81
570.641	100.81
570.853	87.81
571.064	83.81
571.276	84.81
571.487	93.81
571.698	96.81
571.91	82.81
572.121	74.81
572.333	99.81
572.544	86.81
572.755	90.81
572.966	90.81
573.178	94.81
573.389	86.81
573.6	96.81
573.811	76.81
574.023	96.81
574.234	86.81
574.445	82.81
574.656	93.81
574.867	90.81
575.078	79.81
575.289	89.81
575.501	84.81
575.712	94.81
575.923	84.81
576.134	99.81
576.345	84.81
576.556	84.81
576.767	81.81
576.978	83.81
577.188	106.81
577.399	95.81
577.61	98.81
577.821	99.81
578.032	109.81
578.243	245.81
578.454	706.81
578.665	208.81
578.875	118.81
579.086	102.81
579.297	95.81
579.508	82.81
579.718	95.81
579.929	102.81
580.14	90.81
580.35	96.81
580.561	88.81
580.772	92.81
580.982	83.81
581.193	88.81
581.403	94.81
581.614	78.81
581.825	87.81
582.035	100.81
582.246	99.81
582.456	83.81
582.667	83.81
582.877	100.81
583.087	88.81
583.298	89.81
583.508	89.81
583.719	85.81
583.929	89.81
584.139	88.81
584.35	96.81
584.56	104.81
584.77	97.81
584.981	106.81
585.191	97.81
585.401	91.81
585.611	84.81
585.821	87.81
586.032	89.81
586.242	92.81
586.452	80.81
586.662	87.81
586.872	80.81
587.082	79.81
587.292	93.81
587.502	78.81
587.713	92.81
587.923	105.81
588.133	84.81
588.343	76.81
588.553	87.81
588.762	83.81
588.972	98.81
589.182	97.81
589.392	85.81
589.602	93.81
589.812	88.81
590.022	102.81
590.232	99.81
590.441	86.81
590.651	92.81
590.861	98.81
591.071	96.81
591.281	88.81
591.49	86.81
591.7	80.81
591.91	88.81
592.119	98.81
592.329	106.81
592.539	109.81
592.748	102.81
592.958	75.81
593.167	81.81
593.377	78.81
593.587	94.81
593.796	86.81
594.006	87.81
594.215	87.81
594.424	80.81
594.634	84.81
594.843	104.81
595.053	94.81
595.262	97.81
595.472	98.81
595.681	88.81
595.89	83.81
596.1	86.81
596.309	90.81
596.518	95.81
596.727	89.81
596.937	81.81
597.146	96.81
597.355	92.81
597.564	95.81
597.774	91.81
597.983	89.81
598.192	98.81
598.401	90.81
598.61	96.81
598.819	93.81
599.028	96.81
599.237	82.81
599.446	70.81
599.655	72.81
599.864	74.81
600.073	95.81
600.282	63.81
600.491	75.81
600.7	91.81
600.909	79.81
601.118	101.81
601.327	92.81
601.536	83.81
601.745	84.81
601.953	80.81
602.162	78.81
602.371	83.81
602.58	101.81
602.789	87.81
602.997	85.81
603.206	91.81
603.415	71.81
603.623	76.81
603.832	90.81
604.041	81.81
604.249	75.81
604.458	82.81
604.666	91.81
604.875	86.81
605.084	76.81
605.292	86.81
605.501	90.81
605.709	81.81
605.918	90.81
606.126	86.81
606.334	97.81
606.543	83.81
606.751	84.81
606.96	86.81
607.168	86.81
607.376	91.81
607.585	100.81
607.793	85.81
608.001	92.81
608.21	89.81
608.418	80.81
608.626	79.81
608.834	93.81
609.043	87.81
609.251	97.81
609.459	90.81
609.667	71.81
609.875	89.81
610.083	106.81
610.291	92.81
610.499	92.81
610.707	98.81
610.916	93.81
611.124	90.81
611.332	80.81
611.54	82.81
611.748	80.81
611.955	79.81
612.163	96.81
612.371	105.81
612.579	89.81
612.787	82.81
612.995	65.81
613.203	87.81
613.411	95.81
613.618	87.81
613.826	82.81
614.034	75.81
614.242	97.81
614.449	86.81
614.657	83.81
614.865	89.81
615.072	94.81
615.28	88.81
615.488	90.81
615.695	103.81
615.903	107.81
616.111	93.81
616.318	99.81
616.526	112.81
616.733	104.81
616.941	98.81
617.148	92.81
617.356	85.81
617.563	82.81
617.771	95.81
617.978	97.81
618.185	104.81
618.393	78.81
618.6	83.81
618.807	93.81
619.015	73.81
619.222	83.81
619.429	84.81
619.637	90.81
619.844	91.81
620.051	84.81
620.258	77.81
620.466	103.81
620.673	76.81
620.88	79.81
621.087	79.81
621.294	88.81
621.501	91.81
621.708	91.81
621.915	92.81
622.122	100.81
622.329	79.81
622.536	88.81
622.743	85.81
622.95	88.81
623.157	95.81
623.364	95.81
623.571	94.81
623.778	97.81
623.985	91.81
624.192	93.81
624.399	86.81
624.606	85.81
624.812	90.81
625.019	98.81
625.226	85.81
625.433	76.81
625.639	82.81
625.846	75.81
626.053	57.81
626.259	91.81
626.466	89.81
626.673	71.81
626.879	81.81
627.086	84.81
627.293	94.81
627.499	91.81
627.706	79.81
627.912	81.81
628.119	89.81
628.325	94.81
628.532	70.81
628.738	81.81
628.945	89.81
629.151	106.81
629.357	81.81
629.564	75.81
629.77	91.81
629.976	94.81
630.183	91.81
630.389	82.81
630.595	93.81
630.802	90.81
631.008	83.81
631.214	74.81
631.42	89.81
631.627	79.81
631.833	86.81
632.039	76.81
632.245	78.81
632.451	83.81
632.657	82.81
632.863	81.81
633.069	88.81
633.275	80.81
633.481	77.81
633.688	84.81
633.893	84.81
634.099	91.81
634.305	82.81
634.511	81.81
634.717	87.81
634.923	95.81
635.129	79.81
635.335	81.81
635.541	76.81
635.747	82.81
635.952	88.81
636.158	86.81
636.364	95.81
636.57	91.81
636.775	97.81
636.981	90.81
637.187	87.81
637.392	83.81
637.598	84.81
637.804	90.81
638.009	81.81
638.215	72.81
638.421	94.81
638.626	86.81
638.832	89.81
639.037	96.81
639.243	83.81
639.448	89.81
639.654	83.81
639.859	72.81
640.065	66.81
640.27	83.81
640.475	90.81
640.681	81.81
640.886	89.81
641.091	88.81
641.297	83.81
641.502	90.81
641.707	82.81
641.913	89.81
642.118	94.81
642.323	87.81
642.528	93.81
642.733	89.81
642.939	88.81
643.144	103.81
643.349	81.81
643.554	91.81
643.759	95.81
643.964	85.81
644.169	80.81
644.374	94.81
644.579	99.81
644.784	97.81
644.989	95.81
645.194	85.81
645.399	94.81
645.604	88.81
645.809	100.81
646.014	85.81
646.219	84.81
646.423	95.81
646.628	96.81
646.833	98.81
647.038	93.81
647.243	91.81
647.447	95.81
647.652	74.81
647.857	75.81
648.062	87.81
648.266	83.81
648.471	98.81
648.676	99.81
648.88	90.81
649.085	101.81
649.289	106.81
649.494	99.81
649.698	137.81
649.903	90.81
650.107	88.81
650.312	74.81
650.516	90.81
650.721	81.81
650.925	86.81
651.13	93.81
651.334	82.81
651.539	85.81
651.743	83.81
651.947	83.81
652.152	76.81
652.356	95.81
652.56	77.81
652.764	88.81
652.969	89.81
653.173	79.81
653.377	81.81
653.581	88.81
653.785	80.81
653.99	88.81
654.194	88.81
654.398	83.81
654.602	89.81
654.806	73.81
655.01	98.81
655.214	102.81
655.418	80.81
655.622	86.81
655.826	80.81
656.03	86.81
656.234	84.81
656.438	83.81
656.642	104.81
656.846	93.81
657.049	92.81
657.253	91.81
657.457	99.81
657.661	74.81
657.865	73.81
658.068	90.81
658.272	90.81
658.476	85.81
658.68	92.81
658.883	93.81
659.087	88.81
659.291	89.81
659.494	93.81
659.698	99.81
659.901	91.81
660.105	66.81
660.309	84.81
660.512	67.81
660.716	77.81
660.919	95.81
661.123	90.81
661.326	88.81
661.53	94.81
661.733	75.81
661.936	86.81
662.14	76.81
662.343	75.81
662.546	93.81
662.75	99.81
662.953	93.81
663.156	84.81
663.36	76.81
663.563	87.81
663.766	86.81
663.969	77.81
664.173	63.81
664.376	89.81
664.579	86.81
664.782	72.81
664.985	84.81
665.188	86.81
665.391	82.81
665.594	80.81
665.797	71.81
666	76.81
666.203	97.81
666.406	74.81
666.609	75.81
666.812	77.81
667.015	78.81
667.218	77.81
667.421	86.81
667.624	92.81
667.827	86.81
668.03	83.81
668.232	88.81
668.435	72.81
668.638	88.81
668.841	65.81
669.043	95.81
669.246	86.81
669.449	88.81
669.651	79.81
669.854	88.81
670.057	71.81
670.259	99.81
670.462	82.81
670.665	82.81
670.867	89.81
671.07	87.81
671.272	75.81
671.475	80.81
671.677	71.81
671.88	81.81
672.082	78.81
672.284	71.81
672.487	72.81
672.689	85.81
672.892	88.81
