Data from Uncirc_1999_H10_HRD10591_00067.txt Node
Date: Wed Jan 03 11:22:18 EST 2024
User: Yrep
Spectrometer: HR+D1059
Trigger mode: 1
Integration Time (sec): 1.000000E-1
Scans to average: 1
Electric dark correction enabled: true
Nonlinearity correction enabled: false
Boxcar width: 0
XAxis mode: Wavelengths
Number of Pixels in Spectrum: 2048
>>>>>Begin Spectral Data<<<<<
223.165	-26.75
223.4	-26.75
223.635	-26.75
223.869	-20.75
224.104	-15.75
224.338	-22.75
224.573	-24.75
224.808	-4.75
225.042	-15.75
225.277	-5.75
225.511	5.25
225.746	8.25
225.98	13.25
226.215	17.25
226.449	23.25
226.683	18.25
226.918	27.25
227.152	24.25
227.387	17.25
227.621	31.25
227.856	29.25
228.09	50.25
228.324	56.25
228.559	62.25
228.793	56.25
229.027	58.25
229.262	74.25
229.496	70.25
229.73	64.25
229.964	95.25
230.199	74.25
230.433	77.25
230.667	73.25
230.901	80.25
231.136	85.25
231.37	90.25
231.604	86.25
231.838	93.25
232.072	88.25
232.306	79.25
232.541	69.25
232.775	93.25
233.009	90.25
233.243	77.25
233.477	95.25
233.711	94.25
233.945	73.25
234.179	79.25
234.413	86.25
234.647	79.25
234.881	86.25
235.115	73.25
235.349	79.25
235.583	74.25
235.817	79.25
236.051	76.25
236.285	77.25
236.519	91.25
236.753	66.25
236.987	84.25
237.221	85.25
237.455	79.25
237.689	69.25
237.922	85.25
238.156	77.25
238.39	70.25
238.624	79.25
238.858	81.25
239.091	69.25
239.325	84.25
239.559	86.25
239.793	84.25
240.027	85.25
240.26	83.25
240.494	76.25
240.728	72.25
240.961	83.25
241.195	78.25
241.429	83.25
241.662	81.25
241.896	63.25
242.13	79.25
242.363	60.25
242.597	78.25
242.83	92.25
243.064	85.25
243.298	80.25
243.531	66.25
243.765	75.25
243.998	80.25
244.232	73.25
244.465	87.25
244.699	60.25
244.932	66.25
245.166	81.25
245.399	83.25
245.633	74.25
245.866	85.25
246.099	78.25
246.333	61.25
246.566	77.25
246.8	72.25
247.033	79.25
247.266	93.25
247.5	81.25
247.733	80.25
247.966	88.25
248.2	73.25
248.433	71.25
248.666	64.25
248.899	73.25
249.133	90.25
249.366	97.25
249.599	105.25
249.832	89.25
250.066	78.25
250.299	64.25
250.532	88.25
250.765	72.25
250.998	78.25
251.231	90.25
251.465	90.25
251.698	75.25
251.931	71.25
252.164	85.25
252.397	75.25
252.63	78.25
252.863	68.25
253.096	94.25
253.329	89.25
253.562	95.25
253.795	82.25
254.028	81.25
254.261	74.25
254.494	79.25
254.727	82.25
254.96	85.25
255.193	81.25
255.426	76.25
255.659	85.25
255.892	83.25
256.124	86.25
256.357	76.25
256.59	94.25
256.823	73.25
257.056	89.25
257.289	95.25
257.521	82.25
257.754	89.25
257.987	65.25
258.22	74.25
258.452	71.25
258.685	72.25
258.918	71.25
259.151	89.25
259.383	91.25
259.616	82.25
259.849	77.25
260.081	90.25
260.314	72.25
260.547	76.25
260.779	75.25
261.012	86.25
261.244	83.25
261.477	101.25
261.71	82.25
261.942	88.25
262.175	110.25
262.407	78.25
262.64	82.25
262.872	90.25
263.105	73.25
263.337	77.25
263.57	95.25
263.802	76.25
264.035	76.25
264.267	88.25
264.499	92.25
264.732	81.25
264.964	85.25
265.197	83.25
265.429	83.25
265.661	89.25
265.894	77.25
266.126	84.25
266.358	74.25
266.591	81.25
266.823	93.25
267.055	79.25
267.287	78.25
267.52	87.25
267.752	82.25
267.984	77.25
268.216	84.25
268.448	79.25
268.681	86.25
268.913	81.25
269.145	82.25
269.377	90.25
269.609	80.25
269.841	88.25
270.073	75.25
270.306	85.25
270.538	85.25
270.77	85.25
271.002	84.25
271.234	86.25
271.466	87.25
271.698	66.25
271.93	94.25
272.162	96.25
272.394	78.25
272.626	80.25
272.858	80.25
273.09	98.25
273.322	91.25
273.553	82.25
273.785	83.25
274.017	75.25
274.249	92.25
274.481	77.25
274.713	78.25
274.945	93.25
275.176	98.25
275.408	97.25
275.64	87.25
275.872	88.25
276.104	88.25
276.335	89.25
276.567	89.25
276.799	100.25
277.031	91.25
277.262	71.25
277.494	97.25
277.726	82.25
277.957	97.25
278.189	89.25
278.421	88.25
278.652	85.25
278.884	93.25
279.115	85.25
279.347	101.25
279.579	95.25
279.81	78.25
280.042	90.25
280.273	77.25
280.505	90.25
280.736	88.25
280.968	95.25
281.199	85.25
281.431	89.25
281.662	83.25
281.894	90.25
282.125	93.25
282.356	118.25
282.588	129.25
282.819	104.25
283.051	83.25
283.282	87.25
283.513	82.25
283.745	79.25
283.976	86.25
284.207	94.25
284.439	85.25
284.67	73.25
284.901	91.25
285.132	98.25
285.364	93.25
285.595	86.25
285.826	85.25
286.057	89.25
286.288	93.25
286.52	76.25
286.751	96.25
286.982	85.25
287.213	88.25
287.444	86.25
287.675	92.25
287.906	88.25
288.138	105.25
288.369	103.25
288.6	89.25
288.831	82.25
289.062	92.25
289.293	98.25
289.524	97.25
289.755	89.25
289.986	75.25
290.217	96.25
290.448	92.25
290.679	82.25
290.91	85.25
291.141	92.25
291.371	99.25
291.602	80.25
291.833	88.25
292.064	88.25
292.295	82.25
292.526	83.25
292.757	81.25
292.987	90.25
293.218	98.25
293.449	94.25
293.68	94.25
293.91	91.25
294.141	85.25
294.372	69.25
294.603	86.25
294.833	81.25
295.064	89.25
295.295	91.25
295.525	95.25
295.756	98.25
295.987	104.25
296.217	120.25
296.448	119.25
296.679	103.25
296.909	87.25
297.14	104.25
297.37	87.25
297.601	85.25
297.831	85.25
298.062	106.25
298.292	83.25
298.523	86.25
298.753	82.25
298.984	73.25
299.214	76.25
299.445	91.25
299.675	103.25
299.905	108.25
300.136	97.25
300.366	75.25
300.597	80.25
300.827	86.25
301.057	96.25
301.288	114.25
301.518	109.25
301.748	97.25
301.979	98.25
302.209	96.25
302.439	94.25
302.669	88.25
302.9	77.25
303.13	79.25
303.36	80.25
303.59	95.25
303.82	95.25
304.051	85.25
304.281	83.25
304.511	79.25
304.741	79.25
304.971	80.25
305.201	90.25
305.431	80.25
305.661	77.25
305.891	92.25
306.121	93.25
306.352	98.25
306.582	104.25
306.812	91.25
307.042	97.25
307.272	102.25
307.502	102.25
307.731	112.25
307.961	84.25
308.191	76.25
308.421	87.25
308.651	97.25
308.881	88.25
309.111	100.25
309.341	93.25
309.571	105.25
309.8	90.25
310.03	88.25
310.26	93.25
310.49	95.25
310.72	92.25
310.949	104.25
311.179	102.25
311.409	103.25
311.639	81.25
311.868	103.25
312.098	102.25
312.328	93.25
312.557	88.25
312.787	92.25
313.017	98.25
313.246	83.25
313.476	91.25
313.706	93.25
313.935	91.25
314.165	98.25
314.394	109.25
314.624	88.25
314.853	98.25
315.083	102.25
315.312	96.25
315.542	86.25
315.771	94.25
316.001	92.25
316.23	89.25
316.46	94.25
316.689	82.25
316.919	103.25
317.148	96.25
317.377	89.25
317.607	104.25
317.836	81.25
318.065	91.25
318.295	97.25
318.524	111.25
318.753	106.25
318.983	92.25
319.212	89.25
319.441	94.25
319.67	95.25
319.9	95.25
320.129	93.25
320.358	95.25
320.587	97.25
320.816	95.25
321.046	105.25
321.275	99.25
321.504	94.25
321.733	93.25
321.962	96.25
322.191	113.25
322.42	93.25
322.649	98.25
322.878	108.25
323.108	117.25
323.337	124.25
323.566	138.25
323.795	152.25
324.024	225.25
324.253	414.25
324.482	874.25
324.71	1876.25
324.939	2410.25
325.168	850.25
325.397	246.25
325.626	152.25
325.855	148.25
326.084	120.25
326.313	111.25
326.542	163.25
326.77	238.25
326.999	481.25
327.228	1037.25
327.457	1869.25
327.686	1422.25
327.914	377.25
328.143	191.25
328.372	152.25
328.6	119.25
328.829	106.25
329.058	119.25
329.287	102.25
329.515	93.25
329.744	111.25
329.972	94.25
330.201	104.25
330.43	123.25
330.658	104.25
330.887	126.25
331.115	111.25
331.344	92.25
331.572	91.25
331.801	89.25
332.03	86.25
332.258	100.25
332.486	91.25
332.715	88.25
332.943	110.25
333.172	109.25
333.4	80.25
333.629	105.25
333.857	107.25
334.085	99.25
334.314	102.25
334.542	102.25
334.771	103.25
334.999	93.25
335.227	90.25
335.455	98.25
335.684	96.25
335.912	90.25
336.14	85.25
336.369	101.25
336.597	95.25
336.825	89.25
337.053	102.25
337.281	101.25
337.51	86.25
337.738	105.25
337.966	90.25
338.194	100.25
338.422	94.25
338.65	105.25
338.878	99.25
339.106	78.25
339.334	97.25
339.562	88.25
339.79	81.25
340.018	89.25
340.246	87.25
340.474	81.25
340.702	82.25
340.93	89.25
341.158	83.25
341.386	102.25
341.614	103.25
341.842	92.25
342.07	96.25
342.298	79.25
342.526	84.25
342.754	83.25
342.981	93.25
343.209	82.25
343.437	91.25
343.665	86.25
343.893	82.25
344.12	104.25
344.348	88.25
344.576	78.25
344.804	82.25
345.031	101.25
345.259	114.25
345.487	79.25
345.714	98.25
345.942	88.25
346.17	86.25
346.397	104.25
346.625	90.25
346.853	91.25
347.08	94.25
347.308	85.25
347.535	98.25
347.763	102.25
347.99	99.25
348.218	101.25
348.445	90.25
348.673	98.25
348.9	94.25
349.128	85.25
349.355	95.25
349.583	90.25
349.81	91.25
350.037	99.25
350.265	91.25
350.492	91.25
350.72	97.25
350.947	105.25
351.174	116.25
351.402	108.25
351.629	110.25
351.856	94.25
352.083	91.25
352.311	105.25
352.538	109.25
352.765	104.25
352.992	116.25
353.22	111.25
353.447	101.25
353.674	106.25
353.901	105.25
354.128	97.25
354.355	109.25
354.583	105.25
354.81	86.25
355.037	92.25
355.264	103.25
355.491	107.25
355.718	95.25
355.945	97.25
356.172	99.25
356.399	94.25
356.626	92.25
356.853	106.25
357.08	103.25
357.307	92.25
357.534	87.25
357.761	94.25
357.988	102.25
358.215	90.25
358.441	79.25
358.668	109.25
358.895	85.25
359.122	94.25
359.349	87.25
359.576	88.25
359.802	96.25
360.029	96.25
360.256	108.25
360.483	89.25
360.709	99.25
360.936	103.25
361.163	85.25
361.39	93.25
361.616	88.25
361.843	94.25
362.07	99.25
362.296	90.25
362.523	73.25
362.749	90.25
362.976	99.25
363.203	88.25
363.429	80.25
363.656	94.25
363.882	97.25
364.109	81.25
364.335	102.25
364.562	85.25
364.788	91.25
365.015	94.25
365.241	113.25
365.468	103.25
365.694	114.25
365.92	103.25
366.147	79.25
366.373	77.25
366.599	81.25
366.826	94.25
367.052	79.25
367.278	98.25
367.505	93.25
367.731	104.25
367.957	88.25
368.184	103.25
368.41	100.25
368.636	106.25
368.862	109.25
369.089	107.25
369.315	89.25
369.541	83.25
369.767	89.25
369.993	87.25
370.219	82.25
370.445	79.25
370.672	87.25
370.898	75.25
371.124	92.25
371.35	93.25
371.576	99.25
371.802	90.25
372.028	85.25
372.254	73.25
372.48	81.25
372.706	93.25
372.932	88.25
373.158	79.25
373.384	92.25
373.61	98.25
373.835	95.25
374.061	85.25
374.287	94.25
374.513	93.25
374.739	91.25
374.965	79.25
375.191	81.25
375.416	101.25
375.642	101.25
375.868	97.25
376.094	88.25
376.319	91.25
376.545	86.25
376.771	89.25
376.997	85.25
377.222	90.25
377.448	99.25
377.674	93.25
377.899	95.25
378.125	98.25
378.35	98.25
378.576	99.25
378.802	95.25
379.027	96.25
379.253	85.25
379.478	101.25
379.704	94.25
379.929	99.25
380.155	85.25
380.38	85.25
380.606	97.25
380.831	90.25
381.057	104.25
381.282	83.25
381.507	89.25
381.733	105.25
381.958	97.25
382.184	107.25
382.409	104.25
382.634	94.25
382.86	104.25
383.085	100.25
383.31	111.25
383.535	100.25
383.761	90.25
383.986	100.25
384.211	90.25
384.436	87.25
384.662	95.25
384.887	120.25
385.112	103.25
385.337	96.25
385.562	111.25
385.787	95.25
386.013	99.25
386.238	104.25
386.463	100.25
386.688	110.25
386.913	100.25
387.138	108.25
387.363	112.25
387.588	104.25
387.813	106.25
388.038	106.25
388.263	113.25
388.488	109.25
388.713	94.25
388.938	103.25
389.163	91.25
389.387	96.25
389.612	112.25
389.837	87.25
390.062	89.25
390.287	102.25
390.512	96.25
390.736	93.25
390.961	98.25
391.186	107.25
391.411	90.25
391.636	82.25
391.86	90.25
392.085	96.25
392.31	94.25
392.534	97.25
392.759	87.25
392.984	73.25
393.208	88.25
393.433	81.25
393.658	84.25
393.882	95.25
394.107	87.25
394.331	76.25
394.556	94.25
394.78	91.25
395.005	90.25
395.229	94.25
395.454	74.25
395.678	81.25
395.903	85.25
396.127	96.25
396.352	82.25
396.576	81.25
396.801	97.25
397.025	87.25
397.249	85.25
397.474	79.25
397.698	83.25
397.922	86.25
398.147	84.25
398.371	88.25
398.595	90.25
398.82	91.25
399.044	95.25
399.268	81.25
399.492	78.25
399.717	77.25
399.941	72.25
400.165	95.25
400.389	93.25
400.613	97.25
400.837	94.25
401.062	93.25
401.286	94.25
401.51	89.25
401.734	83.25
401.958	104.25
402.182	134.25
402.406	167.25
402.63	109.25
402.854	97.25
403.078	72.25
403.302	101.25
403.526	85.25
403.75	66.25
403.974	83.25
404.198	77.25
404.422	95.25
404.645	88.25
404.869	91.25
405.093	87.25
405.317	93.25
405.541	78.25
405.765	94.25
405.988	113.25
406.212	158.25
406.436	213.25
406.66	136.25
406.883	89.25
407.107	97.25
407.331	96.25
407.555	104.25
407.778	90.25
408.002	96.25
408.226	96.25
408.449	96.25
408.673	78.25
408.896	103.25
409.12	99.25
409.344	86.25
409.567	91.25
409.791	97.25
410.014	98.25
410.238	113.25
410.461	96.25
410.685	99.25
410.908	105.25
411.132	103.25
411.355	85.25
411.578	100.25
411.802	106.25
412.025	97.25
412.249	101.25
412.472	97.25
412.695	98.25
412.919	88.25
413.142	81.25
413.365	92.25
413.589	81.25
413.812	91.25
414.035	86.25
414.258	79.25
414.482	98.25
414.705	82.25
414.928	96.25
415.151	96.25
415.374	98.25
415.597	104.25
415.821	90.25
416.044	77.25
416.267	94.25
416.49	97.25
416.713	86.25
416.936	88.25
417.159	81.25
417.382	77.25
417.605	70.25
417.828	89.25
418.051	100.25
418.274	89.25
418.497	90.25
418.72	66.25
418.943	77.25
419.166	82.25
419.389	108.25
419.611	97.25
419.834	99.25
420.057	90.25
420.28	99.25
420.503	99.25
420.726	89.25
420.948	81.25
421.171	85.25
421.394	102.25
421.617	93.25
421.839	91.25
422.062	81.25
422.285	93.25
422.507	91.25
422.73	95.25
422.953	86.25
423.175	107.25
423.398	85.25
423.621	80.25
423.843	90.25
424.066	81.25
424.288	77.25
424.511	101.25
424.733	103.25
424.956	100.25
425.178	100.25
425.401	109.25
425.623	98.25
425.846	95.25
426.068	86.25
426.291	96.25
426.513	104.25
426.735	89.25
426.958	86.25
427.18	94.25
427.402	122.25
427.625	154.25
427.847	126.25
428.069	96.25
428.292	88.25
428.514	91.25
428.736	92.25
428.958	95.25
429.181	94.25
429.403	78.25
429.625	90.25
429.847	86.25
430.069	94.25
430.292	83.25
430.514	95.25
430.736	86.25
430.958	83.25
431.18	76.25
431.402	82.25
431.624	88.25
431.846	82.25
432.068	86.25
432.29	94.25
432.512	86.25
432.734	88.25
432.956	89.25
433.178	103.25
433.4	101.25
433.622	80.25
433.844	91.25
434.066	76.25
434.287	98.25
434.509	88.25
434.731	80.25
434.953	63.25
435.175	89.25
435.397	87.25
435.618	87.25
435.84	107.25
436.062	114.25
436.284	101.25
436.505	96.25
436.727	107.25
436.949	97.25
437.17	82.25
437.392	73.25
437.614	90.25
437.835	104.25
438.057	97.25
438.278	102.25
438.5	96.25
438.721	112.25
438.943	90.25
439.165	97.25
439.386	85.25
439.608	89.25
439.829	103.25
440.05	122.25
440.272	126.25
440.493	92.25
440.715	88.25
440.936	99.25
441.158	91.25
441.379	90.25
441.6	95.25
441.822	97.25
442.043	91.25
442.264	104.25
442.486	100.25
442.707	96.25
442.928	107.25
443.149	115.25
443.371	123.25
443.592	113.25
443.813	105.25
444.034	114.25
444.255	87.25
444.476	98.25
444.698	89.25
444.919	77.25
445.14	127.25
445.361	119.25
445.582	108.25
445.803	109.25
446.024	124.25
446.245	133.25
446.466	107.25
446.687	98.25
446.908	87.25
447.129	88.25
447.35	79.25
447.571	87.25
447.792	90.25
448.013	104.25
448.234	110.25
448.455	87.25
448.675	95.25
448.896	135.25
449.117	109.25
449.338	107.25
449.559	137.25
449.779	120.25
450	101.25
450.221	80.25
450.442	91.25
450.662	98.25
450.883	104.25
451.104	117.25
451.324	93.25
451.545	89.25
451.766	85.25
451.986	89.25
452.207	85.25
452.428	91.25
452.648	92.25
452.869	110.25
453.089	115.25
453.31	117.25
453.53	106.25
453.751	100.25
453.971	96.25
454.192	105.25
454.412	85.25
454.633	81.25
454.853	85.25
455.073	85.25
455.294	95.25
455.514	92.25
455.734	78.25
455.955	69.25
456.175	77.25
456.395	92.25
456.616	90.25
456.836	83.25
457.056	79.25
457.276	98.25
457.497	97.25
457.717	90.25
457.937	87.25
458.157	94.25
458.377	94.25
458.598	100.25
458.818	139.25
459.038	137.25
459.258	114.25
459.478	92.25
459.698	83.25
459.918	83.25
460.138	88.25
460.358	77.25
460.578	101.25
460.798	86.25
461.018	74.25
461.238	80.25
461.458	89.25
461.678	93.25
461.898	75.25
462.118	78.25
462.338	92.25
462.558	84.25
462.777	89.25
462.997	90.25
463.217	70.25
463.437	70.25
463.657	76.25
463.876	95.25
464.096	102.25
464.316	92.25
464.536	81.25
464.755	90.25
464.975	107.25
465.195	158.25
465.414	139.25
465.634	82.25
465.854	95.25
466.073	85.25
466.293	87.25
466.512	77.25
466.732	83.25
466.951	99.25
467.171	82.25
467.391	102.25
467.61	87.25
467.829	97.25
468.049	106.25
468.268	93.25
468.488	93.25
468.707	74.25
468.927	82.25
469.146	83.25
469.365	89.25
469.585	94.25
469.804	104.25
470.023	87.25
470.243	93.25
470.462	84.25
470.681	89.25
470.901	104.25
471.12	73.25
471.339	87.25
471.558	83.25
471.777	89.25
471.997	103.25
472.216	106.25
472.435	92.25
472.654	82.25
472.873	94.25
473.092	89.25
473.311	91.25
473.53	84.25
473.749	76.25
473.968	97.25
474.187	101.25
474.406	91.25
474.625	103.25
474.844	85.25
475.063	90.25
475.282	97.25
475.501	70.25
475.72	98.25
475.939	83.25
476.158	95.25
476.377	105.25
476.596	92.25
476.814	90.25
477.033	89.25
477.252	86.25
477.471	97.25
477.69	73.25
477.908	85.25
478.127	93.25
478.346	90.25
478.564	86.25
478.783	89.25
479.002	85.25
479.22	90.25
479.439	102.25
479.658	99.25
479.876	102.25
480.095	91.25
480.313	99.25
480.532	85.25
480.751	98.25
480.969	99.25
481.188	108.25
481.406	121.25
481.624	107.25
481.843	96.25
482.061	93.25
482.28	90.25
482.498	89.25
482.717	93.25
482.935	97.25
483.153	95.25
483.372	98.25
483.59	89.25
483.808	92.25
484.027	99.25
484.245	93.25
484.463	81.25
484.681	83.25
484.9	80.25
485.118	94.25
485.336	87.25
485.554	94.25
485.772	119.25
485.99	94.25
486.209	102.25
486.427	105.25
486.645	108.25
486.863	106.25
487.081	104.25
487.299	98.25
487.517	98.25
487.735	101.25
487.953	101.25
488.171	83.25
488.389	80.25
488.607	93.25
488.825	89.25
489.043	91.25
489.261	92.25
489.479	98.25
489.696	100.25
489.914	81.25
490.132	86.25
490.35	82.25
490.568	91.25
490.786	95.25
491.003	95.25
491.221	106.25
491.439	86.25
491.657	86.25
491.874	90.25
492.092	106.25
492.31	91.25
492.527	92.25
492.745	95.25
492.963	104.25
493.18	89.25
493.398	95.25
493.615	113.25
493.833	103.25
494.05	90.25
494.268	91.25
494.485	93.25
494.703	87.25
494.92	85.25
495.138	98.25
495.355	80.25
495.573	96.25
495.79	94.25
496.008	97.25
496.225	92.25
496.442	92.25
496.66	85.25
496.877	98.25
497.094	92.25
497.312	87.25
497.529	78.25
497.746	79.25
497.963	97.25
498.181	100.25
498.398	92.25
498.615	105.25
498.832	105.25
499.049	95.25
499.267	93.25
499.484	82.25
499.701	94.25
499.918	85.25
500.135	99.25
500.352	95.25
500.569	101.25
500.786	90.25
501.003	87.25
501.22	102.25
501.437	93.25
501.654	106.25
501.871	94.25
502.088	95.25
502.305	95.25
502.522	108.25
502.739	102.25
502.956	93.25
503.172	94.25
503.389	89.25
503.606	103.25
503.823	101.25
504.04	106.25
504.256	83.25
504.473	71.25
504.69	86.25
504.907	95.25
505.123	82.25
505.34	86.25
505.557	86.25
505.773	92.25
505.99	92.25
506.207	90.25
506.423	89.25
506.64	94.25
506.856	96.25
507.073	82.25
507.289	92.25
507.506	94.25
507.722	107.25
507.939	111.25
508.155	99.25
508.372	92.25
508.588	95.25
508.805	99.25
509.021	93.25
509.238	99.25
509.454	99.25
509.67	104.25
509.887	105.25
510.103	138.25
510.319	206.25
510.536	758.25
510.752	2372.25
510.968	662.25
511.184	176.25
511.401	113.25
511.617	93.25
511.833	85.25
512.049	87.25
512.265	96.25
512.481	77.25
512.698	104.25
512.914	79.25
513.13	90.25
513.346	101.25
513.562	88.25
513.778	97.25
513.994	98.25
514.21	102.25
514.426	104.25
514.642	119.25
514.858	114.25
515.074	149.25
515.29	429.25
515.506	1339.25
515.721	473.25
515.937	133.25
516.153	106.25
516.369	93.25
516.585	89.25
516.801	98.25
517.016	99.25
517.232	83.25
517.448	100.25
517.664	81.25
517.879	101.25
518.095	105.25
518.311	94.25
518.527	93.25
518.742	92.25
518.958	94.25
519.173	89.25
519.389	93.25
519.605	92.25
519.82	93.25
520.036	97.25
520.251	112.25
520.467	102.25
520.682	91.25
520.898	106.25
521.113	115.25
521.329	144.25
521.544	197.25
521.76	537.25
521.975	2195.25
522.19	1347.25
522.406	284.25
522.621	124.25
522.836	102.25
523.052	95.25
523.267	96.25
523.482	94.25
523.698	102.25
523.913	119.25
524.128	90.25
524.343	93.25
524.559	86.25
524.774	93.25
524.989	99.25
525.204	108.25
525.419	90.25
525.634	92.25
525.849	96.25
526.064	99.25
526.28	107.25
526.495	92.25
526.71	84.25
526.925	90.25
527.14	101.25
527.355	87.25
527.57	99.25
527.785	80.25
527.999	89.25
528.214	90.25
528.429	91.25
528.644	89.25
528.859	94.25
529.074	93.25
529.289	120.25
529.503	144.25
529.718	97.25
529.933	83.25
530.148	92.25
530.363	85.25
530.577	95.25
530.792	93.25
531.007	89.25
531.221	103.25
531.436	105.25
531.651	97.25
531.865	73.25
532.08	102.25
532.295	88.25
532.509	97.25
532.724	102.25
532.938	85.25
533.153	97.25
533.367	101.25
533.582	97.25
533.796	94.25
534.011	92.25
534.225	89.25
534.44	94.25
534.654	90.25
534.868	89.25
535.083	85.25
535.297	87.25
535.511	107.25
535.726	97.25
535.94	93.25
536.154	114.25
536.369	85.25
536.583	99.25
536.797	99.25
537.011	105.25
537.225	96.25
537.44	86.25
537.654	77.25
537.868	77.25
538.082	98.25
538.296	84.25
538.51	85.25
538.724	87.25
538.938	95.25
539.153	89.25
539.367	103.25
539.581	95.25
539.795	91.25
540.009	81.25
540.222	96.25
540.436	87.25
540.65	94.25
540.864	91.25
541.078	102.25
541.292	75.25
541.506	91.25
541.72	85.25
541.934	73.25
542.147	89.25
542.361	89.25
542.575	85.25
542.789	103.25
543.002	97.25
543.216	90.25
543.43	96.25
543.644	104.25
543.857	93.25
544.071	95.25
544.285	105.25
544.498	92.25
544.712	81.25
544.925	81.25
545.139	93.25
545.352	85.25
545.566	97.25
545.779	89.25
545.993	85.25
546.206	83.25
546.42	89.25
546.633	93.25
546.847	91.25
547.06	89.25
547.274	72.25
547.487	82.25
547.7	72.25
547.914	77.25
548.127	71.25
548.34	79.25
548.554	97.25
548.767	94.25
548.98	91.25
549.193	78.25
549.407	89.25
549.62	89.25
549.833	108.25
550.046	92.25
550.259	95.25
550.473	91.25
550.686	101.25
550.899	99.25
551.112	84.25
551.325	78.25
551.538	77.25
551.751	83.25
551.964	83.25
552.177	90.25
552.39	90.25
552.603	86.25
552.816	93.25
553.029	77.25
553.242	98.25
553.455	89.25
553.667	110.25
553.88	111.25
554.093	83.25
554.306	73.25
554.519	87.25
554.732	90.25
554.944	99.25
555.157	93.25
555.37	96.25
555.583	86.25
555.795	102.25
556.008	93.25
556.221	89.25
556.433	89.25
556.646	95.25
556.859	107.25
557.071	84.25
557.284	89.25
557.496	87.25
557.709	97.25
557.921	90.25
558.134	88.25
558.346	83.25
558.559	98.25
558.771	87.25
558.984	90.25
559.196	88.25
559.409	92.25
559.621	93.25
559.833	75.25
560.046	87.25
560.258	87.25
560.47	93.25
560.683	89.25
560.895	90.25
561.107	86.25
561.32	103.25
561.532	94.25
561.744	85.25
561.956	88.25
562.168	90.25
562.381	89.25
562.593	92.25
562.805	81.25
563.017	101.25
563.229	97.25
563.441	75.25
563.653	94.25
563.865	97.25
564.077	83.25
564.289	88.25
564.501	94.25
564.713	90.25
564.925	102.25
565.137	96.25
565.349	99.25
565.561	94.25
565.773	94.25
565.985	90.25
566.197	93.25
566.408	108.25
566.62	83.25
566.832	94.25
567.044	103.25
567.255	78.25
567.467	89.25
567.679	78.25
567.891	89.25
568.102	79.25
568.314	105.25
568.526	91.25
568.737	90.25
568.949	78.25
569.161	98.25
569.372	89.25
569.584	93.25
569.795	103.25
570.007	103.25
570.218	247.25
570.43	134.25
570.641	86.25
570.853	102.25
571.064	86.25
571.276	99.25
571.487	87.25
571.698	98.25
571.91	85.25
572.121	85.25
572.333	94.25
572.544	83.25
572.755	83.25
572.966	94.25
573.178	87.25
573.389	86.25
573.6	85.25
573.811	69.25
574.023	91.25
574.234	83.25
574.445	92.25
574.656	91.25
574.867	97.25
575.078	99.25
575.289	110.25
575.501	98.25
575.712	91.25
575.923	105.25
576.134	85.25
576.345	93.25
576.556	99.25
576.767	85.25
576.978	89.25
577.188	95.25
577.399	90.25
577.61	101.25
577.821	89.25
578.032	124.25
578.243	276.25
578.454	768.25
578.665	233.25
578.875	95.25
579.086	94.25
579.297	90.25
579.508	93.25
579.718	88.25
579.929	93.25
580.14	91.25
580.35	80.25
580.561	90.25
580.772	91.25
580.982	80.25
581.193	91.25
581.403	81.25
581.614	87.25
581.825	84.25
582.035	88.25
582.246	85.25
582.456	82.25
582.667	78.25
582.877	97.25
583.087	80.25
583.298	90.25
583.508	87.25
583.719	98.25
583.929	75.25
584.139	99.25
584.35	74.25
584.56	87.25
584.77	77.25
584.981	90.25
585.191	78.25
585.401	92.25
585.611	81.25
585.821	99.25
586.032	100.25
586.242	94.25
586.452	100.25
586.662	76.25
586.872	86.25
587.082	85.25
587.292	78.25
587.502	75.25
587.713	99.25
587.923	90.25
588.133	79.25
588.343	92.25
588.553	98.25
588.762	101.25
588.972	66.25
589.182	87.25
589.392	76.25
589.602	97.25
589.812	89.25
590.022	102.25
590.232	95.25
590.441	99.25
590.651	97.25
590.861	86.25
591.071	85.25
591.281	84.25
591.49	86.25
591.7	93.25
591.91	103.25
592.119	101.25
592.329	95.25
592.539	100.25
592.748	82.25
592.958	84.25
593.167	85.25
593.377	83.25
593.587	107.25
593.796	97.25
594.006	89.25
594.215	82.25
594.424	90.25
594.634	80.25
594.843	81.25
595.053	90.25
595.262	87.25
595.472	82.25
595.681	86.25
595.89	91.25
596.1	87.25
596.309	99.25
596.518	96.25
596.727	88.25
596.937	85.25
597.146	76.25
597.355	75.25
597.564	86.25
597.774	85.25
597.983	92.25
598.192	87.25
598.401	77.25
598.61	76.25
598.819	96.25
599.028	87.25
599.237	94.25
599.446	91.25
599.655	92.25
599.864	93.25
600.073	98.25
600.282	88.25
600.491	86.25
600.7	81.25
600.909	97.25
601.118	91.25
601.327	107.25
601.536	97.25
601.745	94.25
601.953	81.25
602.162	87.25
602.371	77.25
602.58	77.25
602.789	97.25
602.997	91.25
603.206	85.25
603.415	87.25
603.623	81.25
603.832	87.25
604.041	97.25
604.249	81.25
604.458	89.25
604.666	79.25
604.875	86.25
605.084	84.25
605.292	80.25
605.501	88.25
605.709	90.25
605.918	70.25
606.126	86.25
606.334	91.25
606.543	89.25
606.751	86.25
606.96	85.25
607.168	91.25
607.376	85.25
607.585	97.25
607.793	100.25
608.001	90.25
608.21	92.25
608.418	82.25
608.626	85.25
608.834	92.25
609.043	81.25
609.251	86.25
609.459	73.25
609.667	97.25
609.875	105.25
610.083	91.25
610.291	95.25
610.499	90.25
610.707	89.25
610.916	96.25
611.124	90.25
611.332	81.25
611.54	84.25
611.748	86.25
611.955	89.25
612.163	73.25
612.371	77.25
612.579	89.25
612.787	77.25
612.995	94.25
613.203	89.25
613.411	89.25
613.618	78.25
613.826	93.25
614.034	88.25
614.242	96.25
614.449	78.25
614.657	88.25
614.865	95.25
615.072	83.25
615.28	94.25
615.488	91.25
615.695	99.25
615.903	103.25
616.111	99.25
616.318	89.25
616.526	93.25
616.733	90.25
616.941	89.25
617.148	87.25
617.356	78.25
617.563	96.25
617.771	103.25
617.978	96.25
618.185	81.25
618.393	77.25
618.6	91.25
618.807	88.25
619.015	88.25
619.222	75.25
619.429	97.25
619.637	78.25
619.844	76.25
620.051	76.25
620.258	75.25
620.466	79.25
620.673	88.25
620.88	84.25
621.087	87.25
621.294	98.25
621.501	82.25
621.708	81.25
621.915	83.25
622.122	86.25
622.329	87.25
622.536	94.25
622.743	94.25
622.95	91.25
623.157	89.25
623.364	76.25
623.571	89.25
623.778	73.25
623.985	63.25
624.192	79.25
624.399	91.25
624.606	92.25
624.812	85.25
625.019	78.25
625.226	73.25
625.433	68.25
625.639	72.25
625.846	79.25
626.053	82.25
626.259	80.25
626.466	83.25
626.673	88.25
626.879	85.25
627.086	85.25
627.293	80.25
627.499	78.25
627.706	82.25
627.912	74.25
628.119	88.25
628.325	93.25
628.532	86.25
628.738	91.25
628.945	88.25
629.151	80.25
629.357	69.25
629.564	93.25
629.77	82.25
629.976	80.25
630.183	84.25
630.389	85.25
630.595	91.25
630.802	87.25
631.008	90.25
631.214	81.25
631.42	93.25
631.627	91.25
631.833	83.25
632.039	79.25
632.245	76.25
632.451	99.25
632.657	85.25
632.863	82.25
633.069	89.25
633.275	83.25
633.481	98.25
633.688	106.25
633.893	82.25
634.099	94.25
634.305	81.25
634.511	76.25
634.717	83.25
634.923	77.25
635.129	78.25
635.335	91.25
635.541	73.25
635.747	83.25
635.952	64.25
636.158	80.25
636.364	89.25
636.57	81.25
636.775	92.25
636.981	96.25
637.187	81.25
637.392	71.25
637.598	87.25
637.804	92.25
638.009	93.25
638.215	94.25
638.421	76.25
638.626	86.25
638.832	77.25
639.037	81.25
639.243	77.25
639.448	83.25
639.654	85.25
639.859	78.25
640.065	88.25
640.27	77.25
640.475	79.25
640.681	74.25
640.886	83.25
641.091	73.25
641.297	93.25
641.502	91.25
641.707	94.25
641.913	83.25
642.118	75.25
642.323	80.25
642.528	80.25
642.733	90.25
642.939	74.25
643.144	97.25
643.349	88.25
643.554	95.25
643.759	93.25
643.964	77.25
644.169	85.25
644.374	96.25
644.579	79.25
644.784	91.25
644.989	92.25
645.194	82.25
645.399	85.25
645.604	76.25
645.809	87.25
646.014	67.25
646.219	96.25
646.423	77.25
646.628	101.25
646.833	81.25
647.038	103.25
647.243	76.25
647.447	81.25
647.652	81.25
647.857	82.25
648.062	76.25
648.266	85.25
648.471	90.25
648.676	90.25
648.88	83.25
649.085	80.25
649.289	99.25
649.494	111.25
649.698	122.25
649.903	94.25
650.107	80.25
650.312	89.25
650.516	89.25
650.721	80.25
650.925	75.25
651.13	89.25
651.334	82.25
651.539	87.25
651.743	92.25
651.947	89.25
652.152	83.25
652.356	91.25
652.56	89.25
652.764	62.25
652.969	92.25
653.173	97.25
653.377	88.25
653.581	83.25
653.785	83.25
653.99	74.25
654.194	74.25
654.398	90.25
654.602	78.25
654.806	87.25
655.01	109.25
655.214	101.25
655.418	79.25
655.622	82.25
655.826	87.25
656.03	77.25
656.234	99.25
656.438	86.25
656.642	92.25
656.846	97.25
657.049	81.25
657.253	85.25
657.457	86.25
657.661	75.25
657.865	82.25
658.068	80.25
658.272	81.25
658.476	77.25
658.68	87.25
658.883	77.25
659.087	86.25
659.291	89.25
659.494	73.25
659.698	90.25
659.901	75.25
660.105	87.25
660.309	67.25
660.512	86.25
660.716	77.25
660.919	94.25
661.123	73.25
661.326	81.25
661.53	98.25
661.733	88.25
661.936	89.25
662.14	71.25
662.343	101.25
662.546	90.25
662.75	103.25
662.953	94.25
663.156	84.25
663.36	56.25
663.563	77.25
663.766	94.25
663.969	89.25
664.173	82.25
664.376	84.25
664.579	75.25
664.782	81.25
664.985	93.25
665.188	79.25
665.391	78.25
665.594	91.25
665.797	81.25
666	90.25
666.203	90.25
666.406	78.25
666.609	81.25
666.812	74.25
667.015	86.25
667.218	81.25
667.421	78.25
667.624	81.25
667.827	84.25
668.03	87.25
668.232	81.25
668.435	85.25
668.638	75.25
668.841	70.25
669.043	85.25
669.246	80.25
669.449	71.25
669.651	69.25
669.854	77.25
670.057	96.25
670.259	85.25
670.462	88.25
670.665	86.25
670.867	78.25
671.07	83.25
671.272	83.25
671.475	75.25
671.677	85.25
671.88	79.25
672.082	66.25
672.284	91.25
672.487	82.25
672.689	80.25
672.892	99.25
