Data from 1600_2_HRD10591_00013.txt Node
Date: Mon Jan 19 13:53:47 EST 2026
User: Yrep
Spectrometer: HR+D1059
Trigger mode: 1
Integration Time (sec): 1.000000E-1
Scans to average: 1
Electric dark correction enabled: true
Nonlinearity correction enabled: false
Boxcar width: 0
XAxis mode: Wavelengths
Number of Pixels in Spectrum: 2048
>>>>>Begin Spectral Data<<<<<
223.165	-12.69
223.4	-12.69
223.635	-12.69
223.869	-31.69
224.104	-20.69
224.338	-21.69
224.573	-24.69
224.808	-23.69
225.042	-6.69
225.277	-10.69
225.511	3.31
225.746	0.31
225.98	12.31
226.215	21.31
226.449	12.31
226.683	27.31
226.918	38.31
227.152	37.31
227.387	45.31
227.621	44.31
227.856	61.31
228.09	49.31
228.324	55.31
228.559	59.31
228.793	71.31
229.027	66.31
229.262	61.31
229.496	67.31
229.73	67.31
229.964	74.31
230.199	84.31
230.433	83.31
230.667	91.31
230.901	85.31
231.136	77.31
231.37	92.31
231.604	89.31
231.838	95.31
232.072	69.31
232.306	95.31
232.541	83.31
232.775	80.31
233.009	91.31
233.243	96.31
233.477	59.31
233.711	90.31
233.945	73.31
234.179	97.31
234.413	83.31
234.647	67.31
234.881	64.31
235.115	77.31
235.349	84.31
235.583	79.31
235.817	73.31
236.051	76.31
236.285	71.31
236.519	79.31
236.753	74.31
236.987	76.31
237.221	95.31
237.455	83.31
237.689	70.31
237.922	85.31
238.156	83.31
238.39	80.31
238.624	75.31
238.858	71.31
239.091	83.31
239.325	89.31
239.559	78.31
239.793	88.31
240.027	94.31
240.26	82.31
240.494	89.31
240.728	79.31
240.961	75.31
241.195	77.31
241.429	90.31
241.662	71.31
241.896	73.31
242.13	86.31
242.363	87.31
242.597	80.31
242.83	72.31
243.064	79.31
243.298	79.31
243.531	84.31
243.765	82.31
243.998	80.31
244.232	87.31
244.465	84.31
244.699	68.31
244.932	78.31
245.166	74.31
245.399	72.31
245.633	78.31
245.866	73.31
246.099	89.31
246.333	74.31
246.566	85.31
246.8	89.31
247.033	93.31
247.266	83.31
247.5	84.31
247.733	81.31
247.966	84.31
248.2	90.31
248.433	92.31
248.666	84.31
248.899	70.31
249.133	90.31
249.366	95.31
249.599	76.31
249.832	77.31
250.066	81.31
250.299	72.31
250.532	91.31
250.765	70.31
250.998	77.31
251.231	92.31
251.465	81.31
251.698	81.31
251.931	77.31
252.164	72.31
252.397	74.31
252.63	79.31
252.863	80.31
253.096	97.31
253.329	91.31
253.562	91.31
253.795	82.31
254.028	96.31
254.261	76.31
254.494	85.31
254.727	90.31
254.96	79.31
255.193	87.31
255.426	90.31
255.659	89.31
255.892	84.31
256.124	91.31
256.357	85.31
256.59	84.31
256.823	63.31
257.056	88.31
257.289	77.31
257.521	71.31
257.754	77.31
257.987	87.31
258.22	76.31
258.452	87.31
258.685	69.31
258.918	83.31
259.151	87.31
259.383	83.31
259.616	75.31
259.849	85.31
260.081	91.31
260.314	81.31
260.547	80.31
260.779	84.31
261.012	86.31
261.244	79.31
261.477	79.31
261.71	89.31
261.942	81.31
262.175	82.31
262.407	92.31
262.64	87.31
262.872	84.31
263.105	91.31
263.337	102.31
263.57	87.31
263.802	102.31
264.035	88.31
264.267	75.31
264.499	77.31
264.732	80.31
264.964	78.31
265.197	84.31
265.429	96.31
265.661	88.31
265.894	99.31
266.126	86.31
266.358	92.31
266.591	92.31
266.823	67.31
267.055	80.31
267.287	79.31
267.52	76.31
267.752	88.31
267.984	78.31
268.216	82.31
268.448	100.31
268.681	87.31
268.913	93.31
269.145	81.31
269.377	85.31
269.609	80.31
269.841	99.31
270.073	98.31
270.306	91.31
270.538	96.31
270.77	94.31
271.002	81.31
271.234	96.31
271.466	84.31
271.698	91.31
271.93	78.31
272.162	88.31
272.394	89.31
272.626	92.31
272.858	92.31
273.09	85.31
273.322	88.31
273.553	92.31
273.785	76.31
274.017	83.31
274.249	95.31
274.481	75.31
274.713	87.31
274.945	82.31
275.176	69.31
275.408	75.31
275.64	84.31
275.872	92.31
276.104	85.31
276.335	81.31
276.567	90.31
276.799	88.31
277.031	92.31
277.262	84.31
277.494	93.31
277.726	83.31
277.957	84.31
278.189	95.31
278.421	88.31
278.652	96.31
278.884	86.31
279.115	80.31
279.347	74.31
279.579	105.31
279.81	76.31
280.042	83.31
280.273	75.31
280.505	92.31
280.736	84.31
280.968	104.31
281.199	100.31
281.431	83.31
281.662	74.31
281.894	82.31
282.125	86.31
282.356	86.31
282.588	99.31
282.819	81.31
283.051	91.31
283.282	100.31
283.513	92.31
283.745	93.31
283.976	68.31
284.207	101.31
284.439	95.31
284.67	85.31
284.901	83.31
285.132	88.31
285.364	91.31
285.595	93.31
285.826	95.31
286.057	75.31
286.288	84.31
286.52	91.31
286.751	93.31
286.982	90.31
287.213	107.31
287.444	95.31
287.675	78.31
287.906	83.31
288.138	84.31
288.369	92.31
288.6	87.31
288.831	83.31
289.062	95.31
289.293	85.31
289.524	103.31
289.755	91.31
289.986	89.31
290.217	92.31
290.448	91.31
290.679	95.31
290.91	89.31
291.141	88.31
291.371	89.31
291.602	85.31
291.833	70.31
292.064	77.31
292.295	89.31
292.526	91.31
292.757	91.31
292.987	76.31
293.218	97.31
293.449	91.31
293.68	71.31
293.91	90.31
294.141	93.31
294.372	84.31
294.603	90.31
294.833	93.31
295.064	89.31
295.295	68.31
295.525	106.31
295.756	100.31
295.987	83.31
296.217	77.31
296.448	89.31
296.679	89.31
296.909	90.31
297.14	105.31
297.37	104.31
297.601	89.31
297.831	73.31
298.062	85.31
298.292	77.31
298.523	91.31
298.753	86.31
298.984	81.31
299.214	91.31
299.445	85.31
299.675	96.31
299.905	82.31
300.136	91.31
300.366	93.31
300.597	90.31
300.827	92.31
301.057	90.31
301.288	73.31
301.518	93.31
301.748	101.31
301.979	109.31
302.209	89.31
302.439	90.31
302.669	76.31
302.9	83.31
303.13	99.31
303.36	86.31
303.59	90.31
303.82	97.31
304.051	85.31
304.281	86.31
304.511	98.31
304.741	88.31
304.971	92.31
305.201	87.31
305.431	88.31
305.661	97.31
305.891	81.31
306.121	96.31
306.352	85.31
306.582	80.31
306.812	75.31
307.042	92.31
307.272	84.31
307.502	91.31
307.731	91.31
307.961	85.31
308.191	99.31
308.421	99.31
308.651	102.31
308.881	97.31
309.111	91.31
309.341	101.31
309.571	85.31
309.8	77.31
310.03	92.31
310.26	95.31
310.49	90.31
310.72	92.31
310.949	97.31
311.179	87.31
311.409	81.31
311.639	95.31
311.868	77.31
312.098	90.31
312.328	86.31
312.557	84.31
312.787	85.31
313.017	88.31
313.246	96.31
313.476	95.31
313.706	88.31
313.935	82.31
314.165	99.31
314.394	76.31
314.624	92.31
314.853	89.31
315.083	88.31
315.312	96.31
315.542	90.31
315.771	100.31
316.001	84.31
316.23	85.31
316.46	73.31
316.689	96.31
316.919	99.31
317.148	81.31
317.377	91.31
317.607	86.31
317.836	80.31
318.065	86.31
318.295	77.31
318.524	95.31
318.753	92.31
318.983	91.31
319.212	84.31
319.441	82.31
319.67	81.31
319.9	100.31
320.129	89.31
320.358	80.31
320.587	85.31
320.816	86.31
321.046	81.31
321.275	89.31
321.504	92.31
321.733	93.31
321.962	100.31
322.191	95.31
322.42	84.31
322.649	91.31
322.878	96.31
323.108	89.31
323.337	88.31
323.566	79.31
323.795	89.31
324.024	89.31
324.253	81.31
324.482	84.31
324.71	96.31
324.939	105.31
325.168	86.31
325.397	74.31
325.626	84.31
325.855	93.31
326.084	91.31
326.313	85.31
326.542	84.31
326.77	92.31
326.999	97.31
327.228	87.31
327.457	85.31
327.686	91.31
327.914	112.31
328.143	98.31
328.372	78.31
328.6	81.31
328.829	72.31
329.058	91.31
329.287	97.31
329.515	83.31
329.744	98.31
329.972	92.31
330.201	92.31
330.43	93.31
330.658	98.31
330.887	91.31
331.115	85.31
331.344	81.31
331.572	87.31
331.801	79.31
332.03	88.31
332.258	89.31
332.486	95.31
332.715	91.31
332.943	98.31
333.172	86.31
333.4	89.31
333.629	82.31
333.857	89.31
334.085	95.31
334.314	85.31
334.542	92.31
334.771	92.31
334.999	87.31
335.227	93.31
335.455	92.31
335.684	96.31
335.912	89.31
336.14	94.31
336.369	102.31
336.597	87.31
336.825	91.31
337.053	96.31
337.281	92.31
337.51	96.31
337.738	93.31
337.966	85.31
338.194	94.31
338.422	90.31
338.65	90.31
338.878	99.31
339.106	85.31
339.334	94.31
339.562	80.31
339.79	92.31
340.018	82.31
340.246	84.31
340.474	80.31
340.702	91.31
340.93	96.31
341.158	95.31
341.386	81.31
341.614	95.31
341.842	97.31
342.07	78.31
342.298	66.31
342.526	88.31
342.754	86.31
342.981	89.31
343.209	95.31
343.437	105.31
343.665	72.31
343.893	90.31
344.12	101.31
344.348	83.31
344.576	99.31
344.804	97.31
345.031	71.31
345.259	96.31
345.487	93.31
345.714	91.31
345.942	92.31
346.17	75.31
346.397	100.31
346.625	96.31
346.853	93.31
347.08	88.31
347.308	101.31
347.535	96.31
347.763	85.31
347.99	89.31
348.218	99.31
348.445	73.31
348.673	90.31
348.9	98.31
349.128	98.31
349.355	80.31
349.583	82.31
349.81	91.31
350.037	85.31
350.265	91.31
350.492	83.31
350.72	78.31
350.947	83.31
351.174	87.31
351.402	88.31
351.629	76.31
351.856	83.31
352.083	77.31
352.311	91.31
352.538	77.31
352.765	93.31
352.992	87.31
353.22	85.31
353.447	89.31
353.674	101.31
353.901	102.31
354.128	89.31
354.355	90.31
354.583	89.31
354.81	87.31
355.037	85.31
355.264	95.31
355.491	100.31
355.718	87.31
355.945	86.31
356.172	93.31
356.399	86.31
356.626	113.31
356.853	102.31
357.08	81.31
357.307	88.31
357.534	96.31
357.761	101.31
357.988	93.31
358.215	112.31
358.441	87.31
358.668	95.31
358.895	83.31
359.122	92.31
359.349	85.31
359.576	87.31
359.802	81.31
360.029	90.31
360.256	88.31
360.483	79.31
360.709	76.31
360.936	92.31
361.163	105.31
361.39	80.31
361.616	104.31
361.843	99.31
362.07	95.31
362.296	92.31
362.523	92.31
362.749	78.31
362.976	83.31
363.203	95.31
363.429	85.31
363.656	97.31
363.882	107.31
364.109	102.31
364.335	108.31
364.562	104.31
364.788	88.31
365.015	105.31
365.241	89.31
365.468	90.31
365.694	88.31
365.92	83.31
366.147	88.31
366.373	83.31
366.599	93.31
366.826	83.31
367.052	93.31
367.278	99.31
367.505	85.31
367.731	89.31
367.957	98.31
368.184	99.31
368.41	97.31
368.636	90.31
368.862	89.31
369.089	82.31
369.315	98.31
369.541	90.31
369.767	96.31
369.993	87.31
370.219	87.31
370.445	80.31
370.672	91.31
370.898	83.31
371.124	100.31
371.35	85.31
371.576	75.31
371.802	85.31
372.028	99.31
372.254	78.31
372.48	80.31
372.706	86.31
372.932	91.31
373.158	98.31
373.384	89.31
373.61	82.31
373.835	95.31
374.061	91.31
374.287	95.31
374.513	104.31
374.739	102.31
374.965	101.31
375.191	94.31
375.416	92.31
375.642	103.31
375.868	103.31
376.094	100.31
376.319	64.31
376.545	75.31
376.771	93.31
376.997	101.31
377.222	89.31
377.448	67.31
377.674	75.31
377.899	102.31
378.125	79.31
378.35	91.31
378.576	89.31
378.802	85.31
379.027	101.31
379.253	104.31
379.478	86.31
379.704	89.31
379.929	99.31
380.155	94.31
380.38	82.31
380.606	95.31
380.831	85.31
381.057	84.31
381.282	87.31
381.507	76.31
381.733	89.31
381.958	101.31
382.184	103.31
382.409	83.31
382.634	106.31
382.86	84.31
383.085	115.31
383.31	108.31
383.535	108.31
383.761	101.31
383.986	104.31
384.211	90.31
384.436	88.31
384.662	100.31
384.887	99.31
385.112	83.31
385.337	82.31
385.562	76.31
385.787	97.31
386.013	103.31
386.238	93.31
386.463	107.31
386.688	84.31
386.913	74.31
387.138	93.31
387.363	80.31
387.588	99.31
387.813	86.31
388.038	100.31
388.263	87.31
388.488	97.31
388.713	91.31
388.938	90.31
389.163	93.31
389.387	93.31
389.612	87.31
389.837	90.31
390.062	98.31
390.287	89.31
390.512	82.31
390.736	83.31
390.961	88.31
391.186	88.31
391.411	90.31
391.636	92.31
391.86	91.31
392.085	100.31
392.31	85.31
392.534	92.31
392.759	92.31
392.984	116.31
393.208	135.31
393.433	168.31
393.658	138.31
393.882	101.31
394.107	106.31
394.331	104.31
394.556	112.31
394.78	103.31
395.005	92.31
395.229	89.31
395.454	100.31
395.678	81.31
395.903	103.31
396.127	136.31
396.352	127.31
396.576	115.31
396.801	130.31
397.025	135.31
397.249	104.31
397.474	84.31
397.698	80.31
397.922	97.31
398.147	78.31
398.371	88.31
398.595	74.31
398.82	84.31
399.044	83.31
399.268	83.31
399.492	82.31
399.717	89.31
399.941	95.31
400.165	83.31
400.389	89.31
400.613	76.31
400.837	96.31
401.062	87.31
401.286	95.31
401.51	83.31
401.734	78.31
401.958	91.31
402.182	91.31
402.406	77.31
402.63	100.31
402.854	91.31
403.078	97.31
403.302	94.31
403.526	92.31
403.75	81.31
403.974	92.31
404.198	84.31
404.422	114.31
404.645	131.31
404.869	93.31
405.093	100.31
405.317	75.31
405.541	69.31
405.765	83.31
405.988	83.31
406.212	104.31
406.436	89.31
406.66	89.31
406.883	83.31
407.107	77.31
407.331	101.31
407.555	99.31
407.778	86.31
408.002	84.31
408.226	79.31
408.449	86.31
408.673	90.31
408.896	94.31
409.12	82.31
409.344	98.31
409.567	93.31
409.791	92.31
410.014	82.31
410.238	87.31
410.461	83.31
410.685	76.31
410.908	81.31
411.132	95.31
411.355	83.31
411.578	94.31
411.802	86.31
412.025	87.31
412.249	88.31
412.472	81.31
412.695	87.31
412.919	82.31
413.142	101.31
413.365	84.31
413.589	103.31
413.812	95.31
414.035	77.31
414.258	76.31
414.482	90.31
414.705	85.31
414.928	85.31
415.151	83.31
415.374	88.31
415.597	80.31
415.821	89.31
416.044	87.31
416.267	73.31
416.49	90.31
416.713	75.31
416.936	78.31
417.159	79.31
417.382	87.31
417.605	86.31
417.828	96.31
418.051	88.31
418.274	78.31
418.497	73.31
418.72	92.31
418.943	75.31
419.166	77.31
419.389	85.31
419.611	99.31
419.834	89.31
420.057	86.31
420.28	81.31
420.503	96.31
420.726	71.31
420.948	99.31
421.171	75.31
421.394	91.31
421.617	89.31
421.839	96.31
422.062	112.31
422.285	105.31
422.507	150.31
422.73	216.31
422.953	175.31
423.175	118.31
423.398	104.31
423.621	91.31
423.843	81.31
424.066	82.31
424.288	74.31
424.511	89.31
424.733	88.31
424.956	87.31
425.178	83.31
425.401	87.31
425.623	86.31
425.846	98.31
426.068	79.31
426.291	83.31
426.513	89.31
426.735	92.31
426.958	82.31
427.18	93.31
427.402	82.31
427.625	93.31
427.847	74.31
428.069	102.31
428.292	92.31
428.514	109.31
428.736	84.31
428.958	108.31
429.181	102.31
429.403	95.31
429.625	93.31
429.847	94.31
430.069	105.31
430.292	116.31
430.514	119.31
430.736	90.31
430.958	104.31
431.18	100.31
431.402	87.31
431.624	88.31
431.846	99.31
432.068	113.31
432.29	88.31
432.512	95.31
432.734	84.31
432.956	103.31
433.178	94.31
433.4	97.31
433.622	93.31
433.844	93.31
434.066	92.31
434.287	81.31
434.509	93.31
434.731	87.31
434.953	79.31
435.175	100.31
435.397	89.31
435.618	85.31
435.84	91.31
436.062	99.31
436.284	86.31
436.505	83.31
436.727	87.31
436.949	84.31
437.17	89.31
437.392	90.31
437.614	77.31
437.835	85.31
438.057	95.31
438.278	90.31
438.5	79.31
438.721	87.31
438.943	86.31
439.165	87.31
439.386	72.31
439.608	77.31
439.829	89.31
440.05	83.31
440.272	84.31
440.493	85.31
440.715	74.31
440.936	90.31
441.158	92.31
441.379	81.31
441.6	84.31
441.822	87.31
442.043	81.31
442.264	81.31
442.486	93.31
442.707	108.31
442.928	101.31
443.149	95.31
443.371	115.31
443.592	118.31
443.813	139.31
444.034	102.31
444.255	75.31
444.476	86.31
444.698	83.31
444.919	98.31
445.14	184.31
445.361	151.31
445.582	165.31
445.803	132.31
446.024	88.31
446.245	95.31
446.466	84.31
446.687	75.31
446.908	85.31
447.129	87.31
447.35	91.31
447.571	92.31
447.792	86.31
448.013	87.31
448.234	77.31
448.455	86.31
448.675	92.31
448.896	92.31
449.117	71.31
449.338	88.31
449.559	77.31
449.779	97.31
450	86.31
450.221	96.31
450.442	83.31
450.662	81.31
450.883	83.31
451.104	80.31
451.324	80.31
451.545	101.31
451.766	104.31
451.986	86.31
452.207	100.31
452.428	97.31
452.648	96.31
452.869	115.31
453.089	79.31
453.31	86.31
453.53	100.31
453.751	88.31
453.971	107.31
454.192	89.31
454.412	87.31
454.633	72.31
454.853	76.31
455.073	82.31
455.294	80.31
455.514	98.31
455.734	91.31
455.955	82.31
456.175	87.31
456.395	92.31
456.616	88.31
456.836	88.31
457.056	84.31
457.276	90.31
457.497	80.31
457.717	80.31
457.937	87.31
458.157	86.31
458.377	89.31
458.598	92.31
458.818	96.31
459.038	84.31
459.258	83.31
459.478	89.31
459.698	74.31
459.918	79.31
460.138	78.31
460.358	77.31
460.578	103.31
460.798	109.31
461.018	108.31
461.238	102.31
461.458	87.31
461.678	83.31
461.898	76.31
462.118	93.31
462.338	95.31
462.558	87.31
462.777	88.31
462.997	96.31
463.217	84.31
463.437	82.31
463.657	90.31
463.876	99.31
464.096	88.31
464.316	85.31
464.536	72.31
464.755	97.31
464.975	94.31
465.195	99.31
465.414	104.31
465.634	88.31
465.854	85.31
466.073	85.31
466.293	83.31
466.512	91.31
466.732	89.31
466.951	91.31
467.171	69.31
467.391	82.31
467.61	89.31
467.829	87.31
468.049	83.31
468.268	83.31
468.488	71.31
468.707	83.31
468.927	74.31
469.146	103.31
469.365	81.31
469.585	84.31
469.804	91.31
470.023	93.31
470.243	94.31
470.462	97.31
470.681	86.31
470.901	87.31
471.12	90.31
471.339	101.31
471.558	98.31
471.777	83.31
471.997	93.31
472.216	105.31
472.435	96.31
472.654	79.31
472.873	91.31
473.092	88.31
473.311	83.31
473.53	90.31
473.749	98.31
473.968	89.31
474.187	87.31
474.406	79.31
474.625	93.31
474.844	81.31
475.063	64.31
475.282	80.31
475.501	105.31
475.72	87.31
475.939	93.31
476.158	74.31
476.377	99.31
476.596	83.31
476.814	84.31
477.033	78.31
477.252	100.31
477.471	66.31
477.69	87.31
477.908	91.31
478.127	75.31
478.346	90.31
478.564	79.31
478.783	97.31
479.002	77.31
479.22	81.31
479.439	76.31
479.658	90.31
479.876	104.31
480.095	88.31
480.313	90.31
480.532	87.31
480.751	74.31
480.969	93.31
481.188	90.31
481.406	100.31
481.624	88.31
481.843	95.31
482.061	70.31
482.28	90.31
482.498	95.31
482.717	91.31
482.935	82.31
483.153	92.31
483.372	93.31
483.59	88.31
483.808	86.31
484.027	96.31
484.245	90.31
484.463	83.31
484.681	104.31
484.9	86.31
485.118	80.31
485.336	98.31
485.554	92.31
485.772	97.31
485.99	98.31
486.209	91.31
486.427	88.31
486.645	73.31
486.863	87.31
487.081	90.31
487.299	95.31
487.517	85.31
487.735	103.31
487.953	106.31
488.171	94.31
488.389	89.31
488.607	92.31
488.825	80.31
489.043	98.31
489.261	92.31
489.479	95.31
489.696	83.31
489.914	82.31
490.132	81.31
490.35	89.31
490.568	85.31
490.786	76.31
491.003	98.31
491.221	82.31
491.439	71.31
491.657	85.31
491.874	95.31
492.092	77.31
492.31	107.31
492.527	71.31
492.745	81.31
492.963	99.31
493.18	93.31
493.398	101.31
493.615	80.31
493.833	105.31
494.05	82.31
494.268	95.31
494.485	80.31
494.703	83.31
494.92	91.31
495.138	101.31
495.355	88.31
495.573	83.31
495.79	97.31
496.008	108.31
496.225	81.31
496.442	65.31
496.66	85.31
496.877	88.31
497.094	97.31
497.312	94.31
497.529	83.31
497.746	97.31
497.963	104.31
498.181	96.31
498.398	95.31
498.615	99.31
498.832	91.31
499.049	88.31
499.267	106.31
499.484	89.31
499.701	99.31
499.918	95.31
500.135	90.31
500.352	81.31
500.569	82.31
500.786	98.31
501.003	87.31
501.22	101.31
501.437	84.31
501.654	90.31
501.871	98.31
502.088	89.31
502.305	95.31
502.522	85.31
502.739	87.31
502.956	71.31
503.172	89.31
503.389	97.31
503.606	97.31
503.823	95.31
504.04	98.31
504.256	107.31
504.473	93.31
504.69	83.31
504.907	86.31
505.123	80.31
505.34	85.31
505.557	96.31
505.773	78.31
505.99	83.31
506.207	79.31
506.423	83.31
506.64	102.31
506.856	81.31
507.073	95.31
507.289	89.31
507.506	77.31
507.722	76.31
507.939	96.31
508.155	86.31
508.372	85.31
508.588	90.31
508.805	101.31
509.021	108.31
509.238	101.31
509.454	91.31
509.67	93.31
509.887	96.31
510.103	89.31
510.319	101.31
510.536	92.31
510.752	79.31
510.968	97.31
511.184	87.31
511.401	93.31
511.617	99.31
511.833	80.31
512.049	103.31
512.265	83.31
512.481	75.31
512.698	93.31
512.914	95.31
513.13	97.31
513.346	99.31
513.562	97.31
513.778	87.31
513.994	81.31
514.21	105.31
514.426	95.31
514.642	87.31
514.858	75.31
515.074	93.31
515.29	89.31
515.506	76.31
515.721	80.31
515.937	93.31
516.153	98.31
516.369	97.31
516.585	92.31
516.801	106.31
517.016	104.31
517.232	88.31
517.448	104.31
517.664	85.31
517.879	96.31
518.095	92.31
518.311	106.31
518.527	114.31
518.742	100.31
518.958	91.31
519.173	110.31
519.389	91.31
519.605	75.31
519.82	83.31
520.036	95.31
520.251	83.31
520.467	88.31
520.682	94.31
520.898	101.31
521.113	84.31
521.329	91.31
521.544	86.31
521.76	77.31
521.975	87.31
522.19	92.31
522.406	88.31
522.621	95.31
522.836	97.31
523.052	88.31
523.267	96.31
523.482	84.31
523.698	92.31
523.913	105.31
524.128	87.31
524.343	81.31
524.559	99.31
524.774	100.31
524.989	100.31
525.204	98.31
525.419	88.31
525.634	78.31
525.849	98.31
526.064	102.31
526.28	105.31
526.495	145.31
526.71	148.31
526.925	136.31
527.14	163.31
527.355	124.31
527.57	100.31
527.785	85.31
527.999	91.31
528.214	80.31
528.429	82.31
528.644	83.31
528.859	82.31
529.074	82.31
529.289	103.31
529.503	84.31
529.718	100.31
529.933	91.31
530.148	98.31
530.363	103.31
530.577	99.31
530.792	102.31
531.007	93.31
531.221	79.31
531.436	93.31
531.651	85.31
531.865	95.31
532.08	95.31
532.295	90.31
532.509	89.31
532.724	98.31
532.938	97.31
533.153	99.31
533.367	84.31
533.582	105.31
533.796	83.31
534.011	92.31
534.225	87.31
534.44	105.31
534.654	100.31
534.868	86.31
535.083	101.31
535.297	109.31
535.511	92.31
535.726	97.31
535.94	74.31
536.154	100.31
536.369	96.31
536.583	88.31
536.797	75.31
537.011	90.31
537.225	111.31
537.44	92.31
537.654	88.31
537.868	97.31
538.082	96.31
538.296	89.31
538.51	92.31
538.724	91.31
538.938	85.31
539.153	100.31
539.367	104.31
539.581	92.31
539.795	98.31
540.009	92.31
540.222	96.31
540.436	92.31
540.65	93.31
540.864	101.31
541.078	92.31
541.292	100.31
541.506	87.31
541.72	92.31
541.934	92.31
542.147	78.31
542.361	91.31
542.575	98.31
542.789	98.31
543.002	92.31
543.216	95.31
543.43	93.31
543.644	90.31
543.857	90.31
544.071	83.31
544.285	91.31
544.498	80.31
544.712	91.31
544.925	91.31
545.139	77.31
545.352	78.31
545.566	97.31
545.779	97.31
545.993	93.31
546.206	85.31
546.42	90.31
546.633	72.31
546.847	91.31
547.06	93.31
547.274	97.31
547.487	104.31
547.7	105.31
547.914	93.31
548.127	91.31
548.34	106.31
548.554	113.31
548.767	115.31
548.98	108.31
549.193	108.31
549.407	120.31
549.62	106.31
549.833	117.31
550.046	131.31
550.259	138.31
550.473	110.31
550.686	135.31
550.899	145.31
551.112	129.31
551.325	141.31
551.538	134.31
551.751	132.31
551.964	120.31
552.177	140.31
552.39	159.31
552.603	152.31
552.816	141.31
553.029	124.31
553.242	125.31
553.455	132.31
553.667	148.31
553.88	147.31
554.093	148.31
554.306	141.31
554.519	149.31
554.732	159.31
554.944	140.31
555.157	134.31
555.37	144.31
555.583	130.31
555.795	127.31
556.008	132.31
556.221	117.31
556.433	122.31
556.646	103.31
556.859	121.31
557.071	121.31
557.284	109.31
557.496	105.31
557.709	114.31
557.921	107.31
558.134	101.31
558.346	124.31
558.559	104.31
558.771	125.31
558.984	159.31
559.196	178.31
559.409	127.31
559.621	155.31
559.833	134.31
560.046	136.31
560.258	123.31
560.47	129.31
560.683	114.31
560.895	91.31
561.107	95.31
561.32	114.31
561.532	95.31
561.744	103.31
561.956	99.31
562.168	89.31
562.381	111.31
562.593	99.31
562.805	89.31
563.017	95.31
563.229	101.31
563.441	88.31
563.653	88.31
563.865	92.31
564.077	88.31
564.289	95.31
564.501	92.31
564.713	96.31
564.925	92.31
565.137	91.31
565.349	85.31
565.561	83.31
565.773	95.31
565.985	92.31
566.197	87.31
566.408	95.31
566.62	90.31
566.832	90.31
567.044	89.31
567.255	100.31
567.467	92.31
567.679	87.31
567.891	101.31
568.102	93.31
568.314	90.31
568.526	99.31
568.737	97.31
568.949	105.31
569.161	92.31
569.372	96.31
569.584	83.31
569.795	103.31
570.007	117.31
570.218	97.31
570.43	89.31
570.641	104.31
570.853	86.31
571.064	82.31
571.276	90.31
571.487	105.31
571.698	87.31
571.91	98.31
572.121	94.31
572.333	104.31
572.544	100.31
572.755	105.31
572.966	98.31
573.178	93.31
573.389	85.31
573.6	96.31
573.811	78.31
574.023	91.31
574.234	96.31
574.445	98.31
574.656	97.31
574.867	101.31
575.078	82.31
575.289	76.31
575.501	93.31
575.712	97.31
575.923	99.31
576.134	105.31
576.345	80.31
576.556	96.31
576.767	90.31
576.978	87.31
577.188	98.31
577.399	83.31
577.61	91.31
577.821	95.31
578.032	91.31
578.243	95.31
578.454	100.31
578.665	107.31
578.875	81.31
579.086	90.31
579.297	76.31
579.508	91.31
579.718	88.31
579.929	91.31
580.14	86.31
580.35	85.31
580.561	81.31
580.772	99.31
580.982	103.31
581.193	93.31
581.403	99.31
581.614	108.31
581.825	100.31
582.035	97.31
582.246	87.31
582.456	87.31
582.667	89.31
582.877	90.31
583.087	83.31
583.298	92.31
583.508	105.31
583.719	106.31
583.929	105.31
584.139	98.31
584.35	110.31
584.56	91.31
584.77	96.31
584.981	111.31
585.191	88.31
585.401	92.31
585.611	93.31
585.821	102.31
586.032	121.31
586.242	101.31
586.452	79.31
586.662	92.31
586.872	87.31
587.082	107.31
587.292	99.31
587.502	92.31
587.713	87.31
587.923	98.31
588.133	87.31
588.343	109.31
588.553	108.31
588.762	121.31
588.972	217.31
589.182	435.31
589.392	296.31
589.602	200.31
589.812	365.31
590.022	210.31
590.232	121.31
590.441	98.31
590.651	104.31
590.861	103.31
591.071	111.31
591.281	95.31
591.49	91.31
591.7	102.31
591.91	98.31
592.119	99.31
592.329	99.31
592.539	85.31
592.748	103.31
592.958	98.31
593.167	99.31
593.377	89.31
593.587	104.31
593.796	92.31
594.006	111.31
594.215	93.31
594.424	109.31
594.634	97.31
594.843	93.31
595.053	94.31
595.262	95.31
595.472	101.31
595.681	103.31
595.89	100.31
596.1	110.31
596.309	105.31
596.518	95.31
596.727	124.31
596.937	111.31
597.146	108.31
597.355	109.31
597.564	118.31
597.774	115.31
597.983	101.31
598.192	115.31
598.401	100.31
598.61	109.31
598.819	110.31
599.028	113.31
599.237	107.31
599.446	103.31
599.655	105.31
599.864	100.31
600.073	120.31
600.282	119.31
600.491	121.31
600.7	120.31
600.909	107.31
601.118	124.31
601.327	116.31
601.536	111.31
601.745	120.31
601.953	106.31
602.162	114.31
602.371	119.31
602.58	113.31
602.789	119.31
602.997	119.31
603.206	108.31
603.415	119.31
603.623	116.31
603.832	127.31
604.041	127.31
604.249	132.31
604.458	123.31
604.666	98.31
604.875	100.31
605.084	125.31
605.292	124.31
605.501	126.31
605.709	109.31
605.918	133.31
606.126	114.31
606.334	114.31
606.543	115.31
606.751	112.31
606.96	126.31
607.168	114.31
607.376	112.31
607.585	130.31
607.793	98.31
608.001	113.31
608.21	103.31
608.418	115.31
608.626	113.31
608.834	123.31
609.043	122.31
609.251	127.31
609.459	118.31
609.667	113.31
609.875	114.31
610.083	125.31
610.291	145.31
610.499	165.31
610.707	108.31
610.916	112.31
611.124	113.31
611.332	134.31
611.54	125.31
611.748	127.31
611.955	120.31
612.163	140.31
612.371	168.31
612.579	163.31
612.787	131.31
612.995	140.31
613.203	129.31
613.411	117.31
613.618	120.31
613.826	127.31
614.034	126.31
614.242	123.31
614.449	105.31
614.657	126.31
614.865	137.31
615.072	135.31
615.28	132.31
615.488	124.31
615.695	127.31
615.903	135.31
616.111	134.31
616.318	186.31
616.526	215.31
616.733	156.31
616.941	142.31
617.148	160.31
617.356	151.31
617.563	129.31
617.771	141.31
617.978	118.31
618.185	126.31
618.393	111.31
618.6	129.31
618.807	119.31
619.015	137.31
619.222	123.31
619.429	129.31
619.637	113.31
619.844	125.31
620.051	123.31
620.258	127.31
620.466	123.31
620.673	128.31
620.88	143.31
621.087	127.31
621.294	141.31
621.501	131.31
621.708	138.31
621.915	124.31
622.122	112.31
622.329	128.31
622.536	126.31
622.743	125.31
622.95	125.31
623.157	132.31
623.364	146.31
623.571	133.31
623.778	127.31
623.985	132.31
624.192	133.31
624.399	134.31
624.606	135.31
624.812	138.31
625.019	134.31
625.226	150.31
625.433	145.31
625.639	138.31
625.846	122.31
626.053	132.31
626.259	121.31
626.466	125.31
626.673	109.31
626.879	125.31
627.086	123.31
627.293	123.31
627.499	131.31
627.706	107.31
627.912	112.31
628.119	103.31
628.325	111.31
628.532	107.31
628.738	107.31
628.945	106.31
629.151	109.31
629.357	95.31
629.564	89.31
629.77	95.31
629.976	93.31
630.183	97.31
630.389	95.31
630.595	83.31
630.802	97.31
631.008	86.31
631.214	95.31
631.42	100.31
631.627	99.31
631.833	90.31
632.039	93.31
632.245	106.31
632.451	99.31
632.657	86.31
632.863	97.31
633.069	104.31
633.275	89.31
633.481	86.31
633.688	107.31
633.893	77.31
634.099	97.31
634.305	97.31
634.511	93.31
634.717	90.31
634.923	86.31
635.129	95.31
635.335	89.31
635.541	78.31
635.747	86.31
635.952	84.31
636.158	99.31
636.364	90.31
636.57	91.31
636.775	82.31
636.981	91.31
637.187	81.31
637.392	89.31
637.598	83.31
637.804	97.31
638.009	82.31
638.215	94.31
638.421	90.31
638.626	81.31
638.832	102.31
639.037	91.31
639.243	95.31
639.448	100.31
639.654	102.31
639.859	89.31
640.065	85.31
640.27	86.31
640.475	101.31
640.681	99.31
640.886	85.31
641.091	88.31
641.297	103.31
641.502	78.31
641.707	87.31
641.913	93.31
642.118	94.31
642.323	84.31
642.528	100.31
642.733	91.31
642.939	81.31
643.144	84.31
643.349	94.31
643.554	104.31
643.759	91.31
643.964	90.31
644.169	122.31
644.374	97.31
644.579	83.31
644.784	90.31
644.989	106.31
645.194	96.31
645.399	88.31
645.604	90.31
645.809	96.31
646.014	87.31
646.219	95.31
646.423	98.31
646.628	93.31
646.833	92.31
647.038	91.31
647.243	95.31
647.447	104.31
647.652	84.31
647.857	90.31
648.062	83.31
648.266	97.31
648.471	99.31
648.676	85.31
648.88	97.31
649.085	99.31
649.289	85.31
649.494	95.31
649.698	100.31
649.903	88.31
650.107	87.31
650.312	89.31
650.516	98.31
650.721	98.31
650.925	82.31
651.13	77.31
651.334	71.31
651.539	90.31
651.743	103.31
651.947	93.31
652.152	87.31
652.356	81.31
652.56	97.31
652.764	88.31
652.969	80.31
653.173	92.31
653.377	71.31
653.581	82.31
653.785	71.31
653.99	76.31
654.194	92.31
654.398	91.31
654.602	85.31
654.806	77.31
655.01	75.31
655.214	84.31
655.418	99.31
655.622	87.31
655.826	92.31
656.03	92.31
656.234	71.31
656.438	80.31
656.642	90.31
656.846	92.31
657.049	93.31
657.253	88.31
657.457	82.31
657.661	77.31
657.865	80.31
658.068	100.31
658.272	71.31
658.476	93.31
658.68	81.31
658.883	93.31
659.087	92.31
659.291	85.31
659.494	83.31
659.698	85.31
659.901	96.31
660.105	97.31
660.309	90.31
660.512	83.31
660.716	81.31
660.919	90.31
661.123	92.31
661.326	98.31
661.53	83.31
661.733	85.31
661.936	87.31
662.14	85.31
662.343	85.31
662.546	94.31
662.75	77.31
662.953	99.31
663.156	103.31
663.36	90.31
663.563	72.31
663.766	69.31
663.969	84.31
664.173	79.31
664.376	70.31
664.579	87.31
664.782	83.31
664.985	90.31
665.188	83.31
665.391	72.31
665.594	76.31
665.797	90.31
666	75.31
666.203	81.31
666.406	74.31
666.609	88.31
666.812	96.31
667.015	86.31
667.218	89.31
667.421	86.31
667.624	81.31
667.827	87.31
668.03	89.31
668.232	73.31
668.435	65.31
668.638	89.31
668.841	97.31
669.043	81.31
669.246	89.31
669.449	78.31
669.651	76.31
669.854	89.31
670.057	57.31
670.259	72.31
670.462	97.31
670.665	69.31
670.867	90.31
671.07	73.31
671.272	95.31
671.475	84.31
671.677	78.31
671.88	80.31
672.082	81.31
672.284	97.31
672.487	82.31
672.689	98.31
672.892	88.31
