Data from SampD_HRD10591_00020.txt Node
Date: Mon Jan 19 11:50:22 EST 2026
User: Yrep
Spectrometer: HR+D1059
Trigger mode: 0
Integration Time (sec): 3.443000E-1
Scans to average: 1
Electric dark correction enabled: true
Nonlinearity correction enabled: false
Boxcar width: 0
XAxis mode: Wavelengths
Number of Pixels in Spectrum: 2048
>>>>>Begin Spectral Data<<<<<
223.165	-34.75
223.4	-34.75
223.635	-34.75
223.869	-32.75
224.104	-12.75
224.338	-27.75
224.573	-24.75
224.808	-8.75
225.042	15.25
225.277	-0.75
225.511	-3.75
225.746	18.25
225.98	2.25
226.215	14.25
226.449	21.25
226.683	17.25
226.918	29.25
227.152	28.25
227.387	38.25
227.621	42.25
227.856	43.25
228.09	51.25
228.324	47.25
228.559	48.25
228.793	48.25
229.027	50.25
229.262	73.25
229.496	75.25
229.73	84.25
229.964	72.25
230.199	78.25
230.433	79.25
230.667	82.25
230.901	65.25
231.136	81.25
231.37	70.25
231.604	80.25
231.838	91.25
232.072	72.25
232.306	91.25
232.541	79.25
232.775	77.25
233.009	92.25
233.243	71.25
233.477	82.25
233.711	84.25
233.945	94.25
234.179	79.25
234.413	78.25
234.647	71.25
234.881	82.25
235.115	76.25
235.349	91.25
235.583	70.25
235.817	78.25
236.051	79.25
236.285	86.25
236.519	95.25
236.753	79.25
236.987	70.25
237.221	82.25
237.455	76.25
237.689	84.25
237.922	86.25
238.156	76.25
238.39	81.25
238.624	78.25
238.858	89.25
239.091	88.25
239.325	82.25
239.559	65.25
239.793	68.25
240.027	94.25
240.26	85.25
240.494	84.25
240.728	92.25
240.961	74.25
241.195	76.25
241.429	86.25
241.662	83.25
241.896	73.25
242.13	71.25
242.363	90.25
242.597	83.25
242.83	95.25
243.064	67.25
243.298	88.25
243.531	80.25
243.765	75.25
243.998	86.25
244.232	82.25
244.465	79.25
244.699	95.25
244.932	95.25
245.166	84.25
245.399	70.25
245.633	94.25
245.866	86.25
246.099	93.25
246.333	90.25
246.566	94.25
246.8	86.25
247.033	76.25
247.266	83.25
247.5	87.25
247.733	83.25
247.966	97.25
248.2	97.25
248.433	75.25
248.666	71.25
248.899	87.25
249.133	86.25
249.366	100.25
249.599	79.25
249.832	88.25
250.066	91.25
250.299	88.25
250.532	95.25
250.765	96.25
250.998	96.25
251.231	80.25
251.465	93.25
251.698	73.25
251.931	87.25
252.164	83.25
252.397	79.25
252.63	95.25
252.863	89.25
253.096	98.25
253.329	100.25
253.562	99.25
253.795	99.25
254.028	97.25
254.261	84.25
254.494	99.25
254.727	100.25
254.96	87.25
255.193	89.25
255.426	79.25
255.659	85.25
255.892	102.25
256.124	95.25
256.357	109.25
256.59	88.25
256.823	103.25
257.056	87.25
257.289	116.25
257.521	107.25
257.754	88.25
257.987	87.25
258.22	106.25
258.452	92.25
258.685	87.25
258.918	103.25
259.151	110.25
259.383	90.25
259.616	88.25
259.849	72.25
260.081	92.25
260.314	93.25
260.547	109.25
260.779	94.25
261.012	93.25
261.244	98.25
261.477	104.25
261.71	90.25
261.942	101.25
262.175	84.25
262.407	83.25
262.64	104.25
262.872	101.25
263.105	89.25
263.337	122.25
263.57	91.25
263.802	90.25
264.035	97.25
264.267	86.25
264.499	103.25
264.732	97.25
264.964	108.25
265.197	97.25
265.429	87.25
265.661	111.25
265.894	112.25
266.126	106.25
266.358	94.25
266.591	104.25
266.823	104.25
267.055	108.25
267.287	113.25
267.52	100.25
267.752	112.25
267.984	104.25
268.216	103.25
268.448	116.25
268.681	112.25
268.913	112.25
269.145	108.25
269.377	101.25
269.609	110.25
269.841	100.25
270.073	103.25
270.306	98.25
270.538	108.25
270.77	95.25
271.002	107.25
271.234	98.25
271.466	124.25
271.698	102.25
271.93	95.25
272.162	112.25
272.394	119.25
272.626	99.25
272.858	106.25
273.09	107.25
273.322	100.25
273.553	99.25
273.785	111.25
274.017	93.25
274.249	105.25
274.481	108.25
274.713	98.25
274.945	107.25
275.176	107.25
275.408	108.25
275.64	101.25
275.872	94.25
276.104	104.25
276.335	117.25
276.567	92.25
276.799	108.25
277.031	97.25
277.262	104.25
277.494	112.25
277.726	112.25
277.957	97.25
278.189	112.25
278.421	122.25
278.652	98.25
278.884	105.25
279.115	94.25
279.347	117.25
279.579	102.25
279.81	99.25
280.042	96.25
280.273	98.25
280.505	100.25
280.736	103.25
280.968	100.25
281.199	121.25
281.431	107.25
281.662	125.25
281.894	113.25
282.125	125.25
282.356	108.25
282.588	118.25
282.819	120.25
283.051	129.25
283.282	117.25
283.513	126.25
283.745	112.25
283.976	124.25
284.207	114.25
284.439	118.25
284.67	119.25
284.901	126.25
285.132	108.25
285.364	113.25
285.595	124.25
285.826	113.25
286.057	117.25
286.288	112.25
286.52	112.25
286.751	131.25
286.982	126.25
287.213	110.25
287.444	109.25
287.675	119.25
287.906	115.25
288.138	114.25
288.369	111.25
288.6	116.25
288.831	127.25
289.062	134.25
289.293	114.25
289.524	116.25
289.755	120.25
289.986	110.25
290.217	103.25
290.448	116.25
290.679	107.25
290.91	113.25
291.141	103.25
291.371	121.25
291.602	118.25
291.833	108.25
292.064	114.25
292.295	102.25
292.526	115.25
292.757	124.25
292.987	125.25
293.218	126.25
293.449	104.25
293.68	124.25
293.91	107.25
294.141	115.25
294.372	120.25
294.603	109.25
294.833	111.25
295.064	106.25
295.295	103.25
295.525	119.25
295.756	119.25
295.987	129.25
296.217	120.25
296.448	112.25
296.679	119.25
296.909	127.25
297.14	108.25
297.37	145.25
297.601	117.25
297.831	117.25
298.062	118.25
298.292	123.25
298.523	128.25
298.753	135.25
298.984	120.25
299.214	123.25
299.445	121.25
299.675	137.25
299.905	121.25
300.136	113.25
300.366	120.25
300.597	131.25
300.827	127.25
301.057	136.25
301.288	119.25
301.518	120.25
301.748	123.25
301.979	162.25
302.209	129.25
302.439	114.25
302.669	106.25
302.9	127.25
303.13	134.25
303.36	136.25
303.59	142.25
303.82	134.25
304.051	112.25
304.281	113.25
304.511	122.25
304.741	120.25
304.971	116.25
305.201	123.25
305.431	124.25
305.661	111.25
305.891	131.25
306.121	119.25
306.352	128.25
306.582	126.25
306.812	114.25
307.042	116.25
307.272	114.25
307.502	121.25
307.731	125.25
307.961	116.25
308.191	123.25
308.421	131.25
308.651	127.25
308.881	105.25
309.111	123.25
309.341	108.25
309.571	121.25
309.8	116.25
310.03	118.25
310.26	123.25
310.49	137.25
310.72	134.25
310.949	116.25
311.179	126.25
311.409	124.25
311.639	116.25
311.868	131.25
312.098	136.25
312.328	137.25
312.557	118.25
312.787	131.25
313.017	146.25
313.246	149.25
313.476	138.25
313.706	120.25
313.935	128.25
314.165	123.25
314.394	130.25
314.624	138.25
314.853	132.25
315.083	130.25
315.312	114.25
315.542	122.25
315.771	122.25
316.001	123.25
316.23	126.25
316.46	116.25
316.689	126.25
316.919	129.25
317.148	127.25
317.377	139.25
317.607	122.25
317.836	130.25
318.065	123.25
318.295	126.25
318.524	116.25
318.753	139.25
318.983	124.25
319.212	140.25
319.441	127.25
319.67	119.25
319.9	123.25
320.129	134.25
320.358	120.25
320.587	132.25
320.816	119.25
321.046	134.25
321.275	122.25
321.504	124.25
321.733	127.25
321.962	124.25
322.191	131.25
322.42	127.25
322.649	133.25
322.878	119.25
323.108	131.25
323.337	136.25
323.566	134.25
323.795	130.25
324.024	122.25
324.253	119.25
324.482	132.25
324.71	118.25
324.939	129.25
325.168	112.25
325.397	133.25
325.626	143.25
325.855	131.25
326.084	137.25
326.313	134.25
326.542	135.25
326.77	115.25
326.999	129.25
327.228	126.25
327.457	128.25
327.686	126.25
327.914	128.25
328.143	137.25
328.372	133.25
328.6	131.25
328.829	130.25
329.058	117.25
329.287	121.25
329.515	138.25
329.744	132.25
329.972	142.25
330.201	127.25
330.43	123.25
330.658	128.25
330.887	130.25
331.115	137.25
331.344	137.25
331.572	141.25
331.801	139.25
332.03	144.25
332.258	143.25
332.486	136.25
332.715	135.25
332.943	143.25
333.172	164.25
333.4	164.25
333.629	164.25
333.857	157.25
334.085	159.25
334.314	142.25
334.542	136.25
334.771	135.25
334.999	152.25
335.227	130.25
335.455	135.25
335.684	162.25
335.912	140.25
336.14	153.25
336.369	157.25
336.597	142.25
336.825	162.25
337.053	156.25
337.281	153.25
337.51	132.25
337.738	127.25
337.966	127.25
338.194	137.25
338.422	138.25
338.65	161.25
338.878	154.25
339.106	147.25
339.334	155.25
339.562	119.25
339.79	125.25
340.018	127.25
340.246	145.25
340.474	126.25
340.702	137.25
340.93	130.25
341.158	132.25
341.386	129.25
341.614	134.25
341.842	139.25
342.07	124.25
342.298	134.25
342.526	142.25
342.754	145.25
342.981	140.25
343.209	136.25
343.437	178.25
343.665	143.25
343.893	142.25
344.12	156.25
344.348	154.25
344.576	127.25
344.804	133.25
345.031	151.25
345.259	129.25
345.487	122.25
345.714	141.25
345.942	136.25
346.17	143.25
346.397	133.25
346.625	129.25
346.853	126.25
347.08	137.25
347.308	132.25
347.535	133.25
347.763	134.25
347.99	139.25
348.218	130.25
348.445	126.25
348.673	138.25
348.9	129.25
349.128	118.25
349.355	143.25
349.583	135.25
349.81	125.25
350.037	129.25
350.265	130.25
350.492	133.25
350.72	123.25
350.947	125.25
351.174	136.25
351.402	131.25
351.629	112.25
351.856	115.25
352.083	139.25
352.311	146.25
352.538	120.25
352.765	130.25
352.992	152.25
353.22	134.25
353.447	122.25
353.674	131.25
353.901	137.25
354.128	139.25
354.355	132.25
354.583	121.25
354.81	138.25
355.037	125.25
355.264	134.25
355.491	131.25
355.718	122.25
355.945	140.25
356.172	138.25
356.399	137.25
356.626	151.25
356.853	146.25
357.08	134.25
357.307	136.25
357.534	142.25
357.761	139.25
357.988	139.25
358.215	138.25
358.441	134.25
358.668	127.25
358.895	135.25
359.122	129.25
359.349	147.25
359.576	144.25
359.802	122.25
360.029	136.25
360.256	141.25
360.483	122.25
360.709	129.25
360.936	128.25
361.163	137.25
361.39	127.25
361.616	124.25
361.843	126.25
362.07	135.25
362.296	131.25
362.523	131.25
362.749	131.25
362.976	129.25
363.203	130.25
363.429	118.25
363.656	127.25
363.882	117.25
364.109	132.25
364.335	146.25
364.562	117.25
364.788	134.25
365.015	140.25
365.241	131.25
365.468	137.25
365.694	131.25
365.92	138.25
366.147	132.25
366.373	127.25
366.599	125.25
366.826	128.25
367.052	127.25
367.278	138.25
367.505	128.25
367.731	139.25
367.957	123.25
368.184	135.25
368.41	137.25
368.636	137.25
368.862	132.25
369.089	131.25
369.315	124.25
369.541	145.25
369.767	124.25
369.993	137.25
370.219	139.25
370.445	124.25
370.672	122.25
370.898	130.25
371.124	137.25
371.35	163.25
371.576	136.25
371.802	144.25
372.028	135.25
372.254	133.25
372.48	121.25
372.706	147.25
372.932	139.25
373.158	139.25
373.384	141.25
373.61	130.25
373.835	148.25
374.061	145.25
374.287	144.25
374.513	143.25
374.739	143.25
374.965	142.25
375.191	149.25
375.416	127.25
375.642	137.25
375.868	149.25
376.094	161.25
376.319	138.25
376.545	144.25
376.771	150.25
376.997	169.25
377.222	127.25
377.448	128.25
377.674	142.25
377.899	144.25
378.125	134.25
378.35	134.25
378.576	134.25
378.802	126.25
379.027	127.25
379.253	135.25
379.478	120.25
379.704	139.25
379.929	126.25
380.155	148.25
380.38	140.25
380.606	128.25
380.831	133.25
381.057	153.25
381.282	127.25
381.507	147.25
381.733	129.25
381.958	145.25
382.184	137.25
382.409	158.25
382.634	146.25
382.86	142.25
383.085	152.25
383.31	155.25
383.535	173.25
383.761	160.25
383.986	168.25
384.211	161.25
384.436	153.25
384.662	170.25
384.887	136.25
385.112	158.25
385.337	158.25
385.562	154.25
385.787	167.25
386.013	145.25
386.238	152.25
386.463	177.25
386.688	186.25
386.913	168.25
387.138	146.25
387.363	163.25
387.588	164.25
387.813	160.25
388.038	172.25
388.263	171.25
388.488	142.25
388.713	167.25
388.938	162.25
389.163	155.25
389.387	161.25
389.612	165.25
389.837	167.25
390.062	158.25
390.287	153.25
390.512	164.25
390.736	165.25
390.961	173.25
391.186	167.25
391.411	169.25
391.636	175.25
391.86	182.25
392.085	165.25
392.31	167.25
392.534	166.25
392.759	165.25
392.984	166.25
393.208	177.25
393.433	159.25
393.658	175.25
393.882	162.25
394.107	180.25
394.331	177.25
394.556	161.25
394.78	171.25
395.005	172.25
395.229	172.25
395.454	178.25
395.678	176.25
395.903	172.25
396.127	171.25
396.352	190.25
396.576	182.25
396.801	182.25
397.025	190.25
397.249	191.25
397.474	185.25
397.698	171.25
397.922	177.25
398.147	161.25
398.371	169.25
398.595	184.25
398.82	174.25
399.044	193.25
399.268	198.25
399.492	231.25
399.717	243.25
399.941	216.25
400.165	212.25
400.389	210.25
400.613	184.25
400.837	193.25
401.062	191.25
401.286	197.25
401.51	187.25
401.734	176.25
401.958	191.25
402.182	187.25
402.406	200.25
402.63	190.25
402.854	209.25
403.078	197.25
403.302	201.25
403.526	214.25
403.75	202.25
403.974	190.25
404.198	208.25
404.422	211.25
404.645	199.25
404.869	193.25
405.093	218.25
405.317	209.25
405.541	203.25
405.765	216.25
405.988	185.25
406.212	211.25
406.436	197.25
406.66	216.25
406.883	202.25
407.107	216.25
407.331	220.25
407.555	207.25
407.778	229.25
408.002	201.25
408.226	194.25
408.449	220.25
408.673	198.25
408.896	194.25
409.12	201.25
409.344	203.25
409.567	203.25
409.791	217.25
410.014	219.25
410.238	197.25
410.461	212.25
410.685	194.25
410.908	216.25
411.132	211.25
411.355	193.25
411.578	191.25
411.802	206.25
412.025	180.25
412.249	198.25
412.472	199.25
412.695	209.25
412.919	190.25
413.142	199.25
413.365	195.25
413.589	201.25
413.812	201.25
414.035	188.25
414.258	192.25
414.482	195.25
414.705	190.25
414.928	199.25
415.151	177.25
415.374	200.25
415.597	188.25
415.821	182.25
416.044	201.25
416.267	182.25
416.49	193.25
416.713	172.25
416.936	181.25
417.159	200.25
417.382	197.25
417.605	190.25
417.828	194.25
418.051	191.25
418.274	208.25
418.497	211.25
418.72	211.25
418.943	207.25
419.166	199.25
419.389	216.25
419.611	219.25
419.834	210.25
420.057	202.25
420.28	186.25
420.503	179.25
420.726	198.25
420.948	192.25
421.171	198.25
421.394	200.25
421.617	223.25
421.839	206.25
422.062	204.25
422.285	208.25
422.507	206.25
422.73	198.25
422.953	194.25
423.175	207.25
423.398	203.25
423.621	211.25
423.843	214.25
424.066	201.25
424.288	202.25
424.511	214.25
424.733	210.25
424.956	198.25
425.178	187.25
425.401	203.25
425.623	183.25
425.846	184.25
426.068	183.25
426.291	191.25
426.513	180.25
426.735	194.25
426.958	202.25
427.18	181.25
427.402	212.25
427.625	178.25
427.847	170.25
428.069	185.25
428.292	192.25
428.514	196.25
428.736	171.25
428.958	185.25
429.181	176.25
429.403	184.25
429.625	184.25
429.847	185.25
430.069	184.25
430.292	187.25
430.514	199.25
430.736	175.25
430.958	201.25
431.18	181.25
431.402	185.25
431.624	180.25
431.846	180.25
432.068	183.25
432.29	175.25
432.512	190.25
432.734	193.25
432.956	199.25
433.178	188.25
433.4	187.25
433.622	184.25
433.844	200.25
434.066	191.25
434.287	159.25
434.509	178.25
434.731	185.25
434.953	183.25
435.175	190.25
435.397	197.25
435.618	190.25
435.84	195.25
436.062	180.25
436.284	170.25
436.505	176.25
436.727	182.25
436.949	168.25
437.17	181.25
437.392	184.25
437.614	172.25
437.835	163.25
438.057	169.25
438.278	171.25
438.5	197.25
438.721	197.25
438.943	190.25
439.165	185.25
439.386	169.25
439.608	211.25
439.829	178.25
440.05	201.25
440.272	200.25
440.493	195.25
440.715	212.25
440.936	201.25
441.158	190.25
441.379	194.25
441.6	212.25
441.822	208.25
442.043	211.25
442.264	212.25
442.486	208.25
442.707	191.25
442.928	206.25
443.149	208.25
443.371	206.25
443.592	201.25
443.813	201.25
444.034	198.25
444.255	220.25
444.476	215.25
444.698	231.25
444.919	219.25
445.14	403.25
445.361	290.25
445.582	216.25
445.803	200.25
446.024	212.25
446.245	208.25
446.466	214.25
446.687	199.25
446.908	216.25
447.129	189.25
447.35	195.25
447.571	194.25
447.792	198.25
448.013	178.25
448.234	183.25
448.455	177.25
448.675	183.25
448.896	198.25
449.117	192.25
449.338	180.25
449.559	190.25
449.779	166.25
450	186.25
450.221	181.25
450.442	179.25
450.662	199.25
450.883	187.25
451.104	188.25
451.324	173.25
451.545	200.25
451.766	176.25
451.986	178.25
452.207	185.25
452.428	180.25
452.648	186.25
452.869	175.25
453.089	166.25
453.31	169.25
453.53	170.25
453.751	158.25
453.971	163.25
454.192	169.25
454.412	152.25
454.633	167.25
454.853	163.25
455.073	152.25
455.294	166.25
455.514	180.25
455.734	143.25
455.955	155.25
456.175	148.25
456.395	168.25
456.616	153.25
456.836	178.25
457.056	181.25
457.276	161.25
457.497	167.25
457.717	160.25
457.937	163.25
458.157	180.25
458.377	152.25
458.598	142.25
458.818	147.25
459.038	161.25
459.258	161.25
459.478	162.25
459.698	177.25
459.918	176.25
460.138	195.25
460.358	196.25
460.578	190.25
460.798	219.25
461.018	192.25
461.238	208.25
461.458	201.25
461.678	194.25
461.898	208.25
462.118	207.25
462.338	190.25
462.558	212.25
462.777	215.25
462.997	233.25
463.217	225.25
463.437	231.25
463.657	219.25
463.876	218.25
464.096	199.25
464.316	202.25
464.536	208.25
464.755	223.25
464.975	192.25
465.195	200.25
465.414	188.25
465.634	183.25
465.854	172.25
466.073	186.25
466.293	166.25
466.512	178.25
466.732	187.25
466.951	180.25
467.171	180.25
467.391	187.25
467.61	192.25
467.829	188.25
468.049	199.25
468.268	176.25
468.488	169.25
468.707	174.25
468.927	171.25
469.146	176.25
469.365	179.25
469.585	191.25
469.804	182.25
470.023	173.25
470.243	196.25
470.462	170.25
470.681	195.25
470.901	183.25
471.12	190.25
471.339	175.25
471.558	197.25
471.777	174.25
471.997	182.25
472.216	190.25
472.435	164.25
472.654	181.25
472.873	183.25
473.092	173.25
473.311	186.25
473.53	178.25
473.749	172.25
473.968	181.25
474.187	172.25
474.406	174.25
474.625	182.25
474.844	185.25
475.063	177.25
475.282	192.25
475.501	169.25
475.72	184.25
475.939	187.25
476.158	180.25
476.377	180.25
476.596	177.25
476.814	182.25
477.033	175.25
477.252	176.25
477.471	179.25
477.69	190.25
477.908	203.25
478.127	202.25
478.346	184.25
478.564	212.25
478.783	199.25
479.002	188.25
479.22	214.25
479.439	208.25
479.658	196.25
479.876	196.25
480.095	182.25
480.313	201.25
480.532	191.25
480.751	195.25
480.969	192.25
481.188	183.25
481.406	180.25
481.624	166.25
481.843	168.25
482.061	180.25
482.28	176.25
482.498	169.25
482.717	176.25
482.935	194.25
483.153	196.25
483.372	185.25
483.59	210.25
483.808	189.25
484.027	195.25
484.245	197.25
484.463	206.25
484.681	223.25
484.9	218.25
485.118	184.25
485.336	200.25
485.554	190.25
485.772	188.25
485.99	172.25
486.209	181.25
486.427	186.25
486.645	193.25
486.863	201.25
487.081	205.25
487.299	214.25
487.517	223.25
487.735	242.25
487.953	227.25
488.171	230.25
488.389	222.25
488.607	217.25
488.825	207.25
489.043	198.25
489.261	212.25
489.479	199.25
489.696	206.25
489.914	208.25
490.132	212.25
490.35	204.25
490.568	204.25
490.786	224.25
491.003	225.25
491.221	223.25
491.439	227.25
491.657	233.25
491.874	240.25
492.092	269.25
492.31	258.25
492.527	241.25
492.745	237.25
492.963	243.25
493.18	247.25
493.398	222.25
493.615	218.25
493.833	236.25
494.05	237.25
494.268	228.25
494.485	240.25
494.703	248.25
494.92	224.25
495.138	215.25
495.355	239.25
495.573	243.25
495.79	246.25
496.008	243.25
496.225	215.25
496.442	216.25
496.66	244.25
496.877	230.25
497.094	262.25
497.312	219.25
497.529	230.25
497.746	219.25
497.963	211.25
498.181	228.25
498.398	217.25
498.615	233.25
498.832	237.25
499.049	257.25
499.267	276.25
499.484	278.25
499.701	307.25
499.918	356.25
500.135	372.25
500.352	432.25
500.569	433.25
500.786	429.25
501.003	377.25
501.22	361.25
501.437	324.25
501.654	312.25
501.871	270.25
502.088	255.25
502.305	239.25
502.522	241.25
502.739	242.25
502.956	239.25
503.172	238.25
503.389	225.25
503.606	210.25
503.823	215.25
504.04	227.25
504.256	214.25
504.473	222.25
504.69	225.25
504.907	225.25
505.123	199.25
505.34	218.25
505.557	202.25
505.773	210.25
505.99	198.25
506.207	184.25
506.423	183.25
506.64	182.25
506.856	175.25
507.073	211.25
507.289	181.25
507.506	197.25
507.722	172.25
507.939	185.25
508.155	199.25
508.372	172.25
508.588	186.25
508.805	182.25
509.021	182.25
509.238	191.25
509.454	190.25
509.67	171.25
509.887	176.25
510.103	164.25
510.319	151.25
510.536	156.25
510.752	136.25
510.968	149.25
511.184	166.25
511.401	145.25
511.617	170.25
511.833	159.25
512.049	150.25
512.265	170.25
512.481	163.25
512.698	166.25
512.914	161.25
513.13	170.25
513.346	163.25
513.562	175.25
513.778	180.25
513.994	168.25
514.21	172.25
514.426	171.25
514.642	171.25
514.858	163.25
515.074	165.25
515.29	175.25
515.506	185.25
515.721	178.25
515.937	164.25
516.153	174.25
516.369	171.25
516.585	192.25
516.801	177.25
517.016	184.25
517.232	184.25
517.448	191.25
517.664	187.25
517.879	201.25
518.095	195.25
518.311	195.25
518.527	194.25
518.742	190.25
518.958	191.25
519.173	182.25
519.389	194.25
519.605	170.25
519.82	178.25
520.036	170.25
520.251	168.25
520.467	169.25
520.682	162.25
520.898	153.25
521.113	161.25
521.329	172.25
521.544	150.25
521.76	154.25
521.975	186.25
522.19	155.25
522.406	175.25
522.621	159.25
522.836	168.25
523.052	175.25
523.267	172.25
523.482	180.25
523.698	148.25
523.913	167.25
524.128	164.25
524.343	158.25
524.559	183.25
524.774	162.25
524.989	184.25
525.204	170.25
525.419	183.25
525.634	167.25
525.849	154.25
526.064	169.25
526.28	164.25
526.495	152.25
526.71	137.25
526.925	130.25
527.14	147.25
527.355	134.25
527.57	152.25
527.785	159.25
527.999	166.25
528.214	178.25
528.429	180.25
528.644	171.25
528.859	188.25
529.074	183.25
529.289	210.25
529.503	195.25
529.718	186.25
529.933	186.25
530.148	158.25
530.363	158.25
530.577	151.25
530.792	149.25
531.007	148.25
531.221	160.25
531.436	146.25
531.651	151.25
531.865	134.25
532.08	148.25
532.295	163.25
532.509	153.25
532.724	158.25
532.938	164.25
533.153	169.25
533.367	152.25
533.582	167.25
533.796	168.25
534.011	180.25
534.225	162.25
534.44	156.25
534.654	149.25
534.868	154.25
535.083	165.25
535.297	164.25
535.511	185.25
535.726	175.25
535.94	159.25
536.154	164.25
536.369	164.25
536.583	139.25
536.797	155.25
537.011	148.25
537.225	158.25
537.44	138.25
537.654	139.25
537.868	167.25
538.082	140.25
538.296	168.25
538.51	155.25
538.724	169.25
538.938	182.25
539.153	189.25
539.367	167.25
539.581	156.25
539.795	161.25
540.009	149.25
540.222	162.25
540.436	158.25
540.65	174.25
540.864	182.25
541.078	170.25
541.292	186.25
541.506	173.25
541.72	184.25
541.934	181.25
542.147	212.25
542.361	201.25
542.575	182.25
542.789	189.25
543.002	168.25
543.216	166.25
543.43	180.25
543.644	185.25
543.857	177.25
544.071	207.25
544.285	185.25
544.498	192.25
544.712	209.25
544.925	183.25
545.139	185.25
545.352	201.25
545.566	209.25
545.779	202.25
545.993	208.25
546.206	200.25
546.42	184.25
546.633	182.25
546.847	214.25
547.06	199.25
547.274	183.25
547.487	210.25
547.7	206.25
547.914	216.25
548.127	200.25
548.34	185.25
548.554	186.25
548.767	197.25
548.98	189.25
549.193	203.25
549.407	210.25
549.62	191.25
549.833	182.25
550.046	175.25
550.259	193.25
550.473	180.25
550.686	186.25
550.899	187.25
551.112	194.25
551.325	182.25
551.538	172.25
551.751	180.25
551.964	188.25
552.177	190.25
552.39	169.25
552.603	176.25
552.816	176.25
553.029	192.25
553.242	217.25
553.455	195.25
553.667	196.25
553.88	211.25
554.093	196.25
554.306	198.25
554.519	197.25
554.732	189.25
554.944	184.25
555.157	183.25
555.37	189.25
555.583	178.25
555.795	194.25
556.008	168.25
556.221	173.25
556.433	158.25
556.646	169.25
556.859	163.25
557.071	164.25
557.284	172.25
557.496	166.25
557.709	172.25
557.921	186.25
558.134	173.25
558.346	190.25
558.559	177.25
558.771	184.25
558.984	178.25
559.196	159.25
559.409	144.25
559.621	158.25
559.833	153.25
560.046	168.25
560.258	153.25
560.47	160.25
560.683	167.25
560.895	169.25
561.107	147.25
561.32	168.25
561.532	168.25
561.744	166.25
561.956	153.25
562.168	160.25
562.381	148.25
562.593	156.25
562.805	168.25
563.017	160.25
563.229	150.25
563.441	163.25
563.653	160.25
563.865	150.25
564.077	158.25
564.289	164.25
564.501	168.25
564.713	154.25
564.925	152.25
565.137	152.25
565.349	171.25
565.561	173.25
565.773	164.25
565.985	185.25
566.197	172.25
566.408	182.25
566.62	211.25
566.832	214.25
567.044	191.25
567.255	222.25
567.467	188.25
567.679	198.25
567.891	206.25
568.102	226.25
568.314	193.25
568.526	197.25
568.737	186.25
568.949	153.25
569.161	147.25
569.372	143.25
569.584	136.25
569.795	133.25
570.007	143.25
570.218	146.25
570.43	145.25
570.641	134.25
570.853	142.25
571.064	158.25
571.276	127.25
571.487	152.25
571.698	161.25
571.91	149.25
572.121	161.25
572.333	148.25
572.544	123.25
572.755	139.25
572.966	128.25
573.178	124.25
573.389	127.25
573.6	122.25
573.811	109.25
574.023	122.25
574.234	139.25
574.445	128.25
574.656	127.25
574.867	120.25
575.078	126.25
575.289	129.25
575.501	120.25
575.712	139.25
575.923	136.25
576.134	147.25
576.345	134.25
576.556	154.25
576.767	151.25
576.978	136.25
577.188	133.25
577.399	128.25
577.61	134.25
577.821	136.25
578.032	139.25
578.243	120.25
578.454	135.25
578.665	132.25
578.875	128.25
579.086	127.25
579.297	120.25
579.508	123.25
579.718	124.25
579.929	122.25
580.14	121.25
580.35	113.25
580.561	128.25
580.772	126.25
580.982	118.25
581.193	118.25
581.403	119.25
581.614	126.25
581.825	131.25
582.035	127.25
582.246	143.25
582.456	132.25
582.667	114.25
582.877	110.25
583.087	136.25
583.298	128.25
583.508	134.25
583.719	114.25
583.929	114.25
584.139	107.25
584.35	110.25
584.56	132.25
584.77	107.25
584.981	122.25
585.191	111.25
585.401	114.25
585.611	108.25
585.821	132.25
586.032	124.25
586.242	105.25
586.452	117.25
586.662	100.25
586.872	111.25
587.082	123.25
587.292	112.25
587.502	132.25
587.713	113.25
587.923	122.25
588.133	122.25
588.343	125.25
588.553	110.25
588.762	144.25
588.972	125.25
589.182	128.25
589.392	119.25
589.602	120.25
589.812	116.25
590.022	122.25
590.232	106.25
590.441	120.25
590.651	122.25
590.861	123.25
591.071	124.25
591.281	112.25
591.49	102.25
591.7	113.25
591.91	119.25
592.119	127.25
592.329	110.25
592.539	119.25
592.748	123.25
592.958	130.25
593.167	143.25
593.377	130.25
593.587	160.25
593.796	143.25
594.006	138.25
594.215	142.25
594.424	138.25
594.634	130.25
594.843	131.25
595.053	120.25
595.262	114.25
595.472	151.25
595.681	121.25
595.89	130.25
596.1	128.25
596.309	121.25
596.518	118.25
596.727	118.25
596.937	146.25
597.146	125.25
597.355	131.25
597.564	100.25
597.774	126.25
597.983	111.25
598.192	118.25
598.401	121.25
598.61	112.25
598.819	117.25
599.028	120.25
599.237	115.25
599.446	128.25
599.655	127.25
599.864	115.25
600.073	121.25
600.282	122.25
600.491	130.25
600.7	120.25
600.909	115.25
601.118	113.25
601.327	133.25
601.536	118.25
601.745	115.25
601.953	108.25
602.162	125.25
602.371	134.25
602.58	128.25
602.789	128.25
602.997	127.25
603.206	125.25
603.415	134.25
603.623	121.25
603.832	127.25
604.041	120.25
604.249	125.25
604.458	124.25
604.666	115.25
604.875	125.25
605.084	106.25
605.292	113.25
605.501	130.25
605.709	120.25
605.918	111.25
606.126	131.25
606.334	127.25
606.543	131.25
606.751	134.25
606.96	116.25
607.168	117.25
607.376	104.25
607.585	126.25
607.793	134.25
608.001	131.25
608.21	136.25
608.418	126.25
608.626	128.25
608.834	116.25
609.043	121.25
609.251	107.25
609.459	130.25
609.667	135.25
609.875	122.25
610.083	118.25
610.291	119.25
610.499	133.25
610.707	133.25
610.916	115.25
611.124	132.25
611.332	120.25
611.54	147.25
611.748	128.25
611.955	121.25
612.163	137.25
612.371	128.25
612.579	107.25
612.787	123.25
612.995	124.25
613.203	132.25
613.411	132.25
613.618	110.25
613.826	123.25
614.034	130.25
614.242	136.25
614.449	107.25
614.657	113.25
614.865	111.25
615.072	119.25
615.28	119.25
615.488	129.25
615.695	137.25
615.903	127.25
616.111	137.25
616.318	124.25
616.526	118.25
616.733	130.25
616.941	116.25
617.148	121.25
617.356	117.25
617.563	116.25
617.771	140.25
617.978	115.25
618.185	132.25
618.393	99.25
618.6	111.25
618.807	130.25
619.015	129.25
619.222	115.25
619.429	120.25
619.637	118.25
619.844	107.25
620.051	117.25
620.258	133.25
620.466	113.25
620.673	99.25
620.88	106.25
621.087	128.25
621.294	121.25
621.501	119.25
621.708	109.25
621.915	112.25
622.122	107.25
622.329	131.25
622.536	127.25
622.743	105.25
622.95	122.25
623.157	120.25
623.364	112.25
623.571	121.25
623.778	119.25
623.985	111.25
624.192	122.25
624.399	113.25
624.606	121.25
624.812	111.25
625.019	116.25
625.226	115.25
625.433	118.25
625.639	102.25
625.846	114.25
626.053	116.25
626.259	102.25
626.466	113.25
626.673	100.25
626.879	113.25
627.086	107.25
627.293	131.25
627.499	114.25
627.706	121.25
627.912	113.25
628.119	109.25
628.325	97.25
628.532	106.25
628.738	97.25
628.945	106.25
629.151	107.25
629.357	103.25
629.564	97.25
629.77	115.25
629.976	96.25
630.183	105.25
630.389	100.25
630.595	104.25
630.802	102.25
631.008	116.25
631.214	103.25
631.42	114.25
631.627	119.25
631.833	118.25
632.039	118.25
632.245	113.25
632.451	115.25
632.657	127.25
632.863	103.25
633.069	117.25
633.275	111.25
633.481	107.25
633.688	106.25
633.893	103.25
634.099	118.25
634.305	117.25
634.511	108.25
634.717	116.25
634.923	97.25
635.129	95.25
635.335	96.25
635.541	94.25
635.747	115.25
635.952	120.25
636.158	94.25
636.364	121.25
636.57	110.25
636.775	119.25
636.981	110.25
637.187	101.25
637.392	116.25
637.598	106.25
637.804	103.25
638.009	120.25
638.215	117.25
638.421	105.25
638.626	103.25
638.832	105.25
639.037	111.25
639.243	100.25
639.448	107.25
639.654	127.25
639.859	93.25
640.065	83.25
640.27	131.25
640.475	108.25
640.681	114.25
640.886	108.25
641.091	96.25
641.297	104.25
641.502	107.25
641.707	103.25
641.913	106.25
642.118	102.25
642.323	105.25
642.528	108.25
642.733	116.25
642.939	115.25
643.144	95.25
643.349	110.25
643.554	98.25
643.759	84.25
643.964	100.25
644.169	98.25
644.374	108.25
644.579	112.25
644.784	100.25
644.989	97.25
645.194	122.25
645.399	112.25
645.604	100.25
645.809	114.25
646.014	117.25
646.219	113.25
646.423	104.25
646.628	110.25
646.833	91.25
647.038	94.25
647.243	115.25
647.447	113.25
647.652	108.25
647.857	101.25
648.062	100.25
648.266	115.25
648.471	98.25
648.676	112.25
648.88	103.25
649.085	107.25
649.289	104.25
649.494	96.25
649.698	120.25
649.903	91.25
650.107	114.25
650.312	112.25
650.516	99.25
650.721	97.25
650.925	105.25
651.13	100.25
651.334	101.25
651.539	92.25
651.743	91.25
651.947	106.25
652.152	102.25
652.356	103.25
652.56	95.25
652.764	105.25
652.969	92.25
653.173	76.25
653.377	92.25
653.581	90.25
653.785	91.25
653.99	91.25
654.194	90.25
654.398	102.25
654.602	96.25
654.806	94.25
655.01	90.25
655.214	88.25
655.418	98.25
655.622	95.25
655.826	105.25
656.03	97.25
656.234	104.25
656.438	99.25
656.642	78.25
656.846	90.25
657.049	90.25
657.253	96.25
657.457	91.25
657.661	96.25
657.865	90.25
658.068	87.25
658.272	95.25
658.476	96.25
658.68	92.25
658.883	84.25
659.087	86.25
659.291	91.25
659.494	103.25
659.698	88.25
659.901	97.25
660.105	84.25
660.309	71.25
660.512	74.25
660.716	97.25
660.919	87.25
661.123	96.25
661.326	99.25
661.53	78.25
661.733	91.25
661.936	96.25
662.14	85.25
662.343	83.25
662.546	79.25
662.75	83.25
662.953	103.25
663.156	104.25
663.36	83.25
663.563	86.25
663.766	73.25
663.969	81.25
664.173	70.25
664.376	70.25
664.579	79.25
664.782	84.25
664.985	75.25
665.188	88.25
665.391	88.25
665.594	80.25
665.797	85.25
666	86.25
666.203	87.25
666.406	79.25
666.609	85.25
666.812	81.25
667.015	73.25
667.218	74.25
667.421	96.25
667.624	85.25
667.827	86.25
668.03	78.25
668.232	80.25
668.435	82.25
668.638	80.25
668.841	81.25
669.043	70.25
669.246	97.25
669.449	78.25
669.651	92.25
669.854	84.25
670.057	89.25
670.259	78.25
670.462	86.25
670.665	91.25
670.867	76.25
671.07	82.25
671.272	84.25
671.475	109.25
671.677	82.25
671.88	70.25
672.082	71.25
672.284	86.25
672.487	87.25
672.689	66.25
672.892	78.25
