Data from SampD_HRD10591_00094.txt Node
Date: Mon Jan 19 11:50:47 EST 2026
User: Yrep
Spectrometer: HR+D1059
Trigger mode: 0
Integration Time (sec): 3.443000E-1
Scans to average: 1
Electric dark correction enabled: true
Nonlinearity correction enabled: false
Boxcar width: 0
XAxis mode: Wavelengths
Number of Pixels in Spectrum: 2048
>>>>>Begin Spectral Data<<<<<
223.165	-19.81
223.4	-19.81
223.635	-19.81
223.869	-35.81
224.104	-19.81
224.338	-14.81
224.573	-18.81
224.808	-18.81
225.042	-13.81
225.277	-4.81
225.511	3.19
225.746	8.19
225.98	6.19
226.215	26.19
226.449	18.19
226.683	26.19
226.918	31.19
227.152	27.19
227.387	39.19
227.621	29.19
227.856	56.19
228.09	41.19
228.324	60.19
228.559	64.19
228.793	56.19
229.027	55.19
229.262	55.19
229.496	82.19
229.73	82.19
229.964	71.19
230.199	71.19
230.433	70.19
230.667	72.19
230.901	79.19
231.136	80.19
231.37	86.19
231.604	74.19
231.838	85.19
232.072	87.19
232.306	81.19
232.541	91.19
232.775	87.19
233.009	84.19
233.243	75.19
233.477	86.19
233.711	76.19
233.945	87.19
234.179	79.19
234.413	85.19
234.647	71.19
234.881	73.19
235.115	90.19
235.349	81.19
235.583	82.19
235.817	84.19
236.051	74.19
236.285	76.19
236.519	80.19
236.753	76.19
236.987	84.19
237.221	85.19
237.455	75.19
237.689	91.19
237.922	82.19
238.156	92.19
238.39	92.19
238.624	75.19
238.858	92.19
239.091	74.19
239.325	77.19
239.559	68.19
239.793	63.19
240.027	90.19
240.26	80.19
240.494	89.19
240.728	86.19
240.961	76.19
241.195	98.19
241.429	70.19
241.662	72.19
241.896	87.19
242.13	85.19
242.363	68.19
242.597	84.19
242.83	86.19
243.064	69.19
243.298	76.19
243.531	80.19
243.765	96.19
243.998	69.19
244.232	86.19
244.465	82.19
244.699	94.19
244.932	80.19
245.166	85.19
245.399	83.19
245.633	76.19
245.866	76.19
246.099	84.19
246.333	82.19
246.566	91.19
246.8	75.19
247.033	85.19
247.266	74.19
247.5	60.19
247.733	72.19
247.966	90.19
248.2	83.19
248.433	78.19
248.666	77.19
248.899	76.19
249.133	80.19
249.366	97.19
249.599	87.19
249.832	89.19
250.066	81.19
250.299	82.19
250.532	90.19
250.765	85.19
250.998	74.19
251.231	91.19
251.465	74.19
251.698	70.19
251.931	82.19
252.164	82.19
252.397	83.19
252.63	95.19
252.863	74.19
253.096	82.19
253.329	91.19
253.562	71.19
253.795	90.19
254.028	78.19
254.261	84.19
254.494	78.19
254.727	92.19
254.96	95.19
255.193	90.19
255.426	91.19
255.659	93.19
255.892	90.19
256.124	69.19
256.357	82.19
256.59	70.19
256.823	82.19
257.056	92.19
257.289	81.19
257.521	87.19
257.754	82.19
257.987	80.19
258.22	105.19
258.452	92.19
258.685	82.19
258.918	98.19
259.151	94.19
259.383	88.19
259.616	82.19
259.849	97.19
260.081	90.19
260.314	79.19
260.547	82.19
260.779	84.19
261.012	98.19
261.244	87.19
261.477	99.19
261.71	83.19
261.942	84.19
262.175	88.19
262.407	79.19
262.64	76.19
262.872	92.19
263.105	94.19
263.337	106.19
263.57	97.19
263.802	82.19
264.035	80.19
264.267	76.19
264.499	87.19
264.732	94.19
264.964	84.19
265.197	84.19
265.429	95.19
265.661	78.19
265.894	89.19
266.126	84.19
266.358	98.19
266.591	96.19
266.823	85.19
267.055	82.19
267.287	99.19
267.52	91.19
267.752	93.19
267.984	95.19
268.216	97.19
268.448	94.19
268.681	84.19
268.913	105.19
269.145	96.19
269.377	106.19
269.609	83.19
269.841	88.19
270.073	91.19
270.306	90.19
270.538	104.19
270.77	84.19
271.002	89.19
271.234	115.19
271.466	94.19
271.698	92.19
271.93	97.19
272.162	88.19
272.394	97.19
272.626	99.19
272.858	100.19
273.09	94.19
273.322	83.19
273.553	104.19
273.785	81.19
274.017	98.19
274.249	98.19
274.481	81.19
274.713	84.19
274.945	94.19
275.176	85.19
275.408	101.19
275.64	70.19
275.872	91.19
276.104	96.19
276.335	105.19
276.567	92.19
276.799	91.19
277.031	91.19
277.262	85.19
277.494	95.19
277.726	101.19
277.957	91.19
278.189	91.19
278.421	96.19
278.652	90.19
278.884	82.19
279.115	86.19
279.347	85.19
279.579	89.19
279.81	100.19
280.042	91.19
280.273	103.19
280.505	82.19
280.736	88.19
280.968	92.19
281.199	85.19
281.431	86.19
281.662	108.19
281.894	96.19
282.125	95.19
282.356	89.19
282.588	100.19
282.819	83.19
283.051	85.19
283.282	92.19
283.513	103.19
283.745	86.19
283.976	112.19
284.207	91.19
284.439	98.19
284.67	102.19
284.901	95.19
285.132	98.19
285.364	103.19
285.595	100.19
285.826	89.19
286.057	105.19
286.288	94.19
286.52	93.19
286.751	113.19
286.982	101.19
287.213	108.19
287.444	88.19
287.675	90.19
287.906	91.19
288.138	84.19
288.369	95.19
288.6	98.19
288.831	89.19
289.062	112.19
289.293	108.19
289.524	94.19
289.755	100.19
289.986	98.19
290.217	98.19
290.448	98.19
290.679	107.19
290.91	115.19
291.141	89.19
291.371	98.19
291.602	96.19
291.833	98.19
292.064	103.19
292.295	109.19
292.526	94.19
292.757	94.19
292.987	95.19
293.218	102.19
293.449	97.19
293.68	104.19
293.91	96.19
294.141	110.19
294.372	102.19
294.603	87.19
294.833	100.19
295.064	91.19
295.295	111.19
295.525	111.19
295.756	104.19
295.987	106.19
296.217	107.19
296.448	104.19
296.679	91.19
296.909	107.19
297.14	97.19
297.37	103.19
297.601	101.19
297.831	102.19
298.062	98.19
298.292	105.19
298.523	99.19
298.753	102.19
298.984	100.19
299.214	100.19
299.445	102.19
299.675	103.19
299.905	103.19
300.136	111.19
300.366	98.19
300.597	100.19
300.827	87.19
301.057	106.19
301.288	101.19
301.518	106.19
301.748	104.19
301.979	144.19
302.209	99.19
302.439	97.19
302.669	99.19
302.9	109.19
303.13	114.19
303.36	107.19
303.59	99.19
303.82	100.19
304.051	114.19
304.281	118.19
304.511	120.19
304.741	95.19
304.971	91.19
305.201	88.19
305.431	106.19
305.661	109.19
305.891	96.19
306.121	107.19
306.352	111.19
306.582	82.19
306.812	93.19
307.042	110.19
307.272	101.19
307.502	96.19
307.731	107.19
307.961	108.19
308.191	109.19
308.421	104.19
308.651	106.19
308.881	106.19
309.111	105.19
309.341	111.19
309.571	103.19
309.8	99.19
310.03	111.19
310.26	104.19
310.49	106.19
310.72	107.19
310.949	111.19
311.179	114.19
311.409	106.19
311.639	107.19
311.868	112.19
312.098	110.19
312.328	103.19
312.557	99.19
312.787	90.19
313.017	109.19
313.246	105.19
313.476	98.19
313.706	99.19
313.935	92.19
314.165	98.19
314.394	119.19
314.624	104.19
314.853	121.19
315.083	118.19
315.312	102.19
315.542	107.19
315.771	117.19
316.001	96.19
316.23	99.19
316.46	104.19
316.689	98.19
316.919	108.19
317.148	110.19
317.377	113.19
317.607	105.19
317.836	109.19
318.065	104.19
318.295	97.19
318.524	112.19
318.753	110.19
318.983	103.19
319.212	99.19
319.441	107.19
319.67	122.19
319.9	101.19
320.129	103.19
320.358	116.19
320.587	97.19
320.816	91.19
321.046	98.19
321.275	95.19
321.504	107.19
321.733	108.19
321.962	98.19
322.191	102.19
322.42	111.19
322.649	106.19
322.878	118.19
323.108	105.19
323.337	108.19
323.566	100.19
323.795	109.19
324.024	111.19
324.253	92.19
324.482	96.19
324.71	102.19
324.939	112.19
325.168	113.19
325.397	92.19
325.626	92.19
325.855	100.19
326.084	108.19
326.313	116.19
326.542	111.19
326.77	106.19
326.999	103.19
327.228	105.19
327.457	107.19
327.686	113.19
327.914	119.19
328.143	105.19
328.372	106.19
328.6	98.19
328.829	105.19
329.058	116.19
329.287	106.19
329.515	104.19
329.744	115.19
329.972	97.19
330.201	106.19
330.43	98.19
330.658	99.19
330.887	95.19
331.115	115.19
331.344	99.19
331.572	103.19
331.801	116.19
332.03	120.19
332.258	108.19
332.486	119.19
332.715	112.19
332.943	110.19
333.172	112.19
333.4	126.19
333.629	118.19
333.857	103.19
334.085	104.19
334.314	115.19
334.542	125.19
334.771	120.19
334.999	103.19
335.227	111.19
335.455	106.19
335.684	114.19
335.912	119.19
336.14	98.19
336.369	111.19
336.597	110.19
336.825	120.19
337.053	111.19
337.281	113.19
337.51	110.19
337.738	126.19
337.966	107.19
338.194	105.19
338.422	112.19
338.65	108.19
338.878	100.19
339.106	102.19
339.334	111.19
339.562	120.19
339.79	103.19
340.018	106.19
340.246	112.19
340.474	107.19
340.702	123.19
340.93	105.19
341.158	111.19
341.386	106.19
341.614	101.19
341.842	108.19
342.07	112.19
342.298	102.19
342.526	119.19
342.754	110.19
342.981	108.19
343.209	111.19
343.437	128.19
343.665	110.19
343.893	103.19
344.12	128.19
344.348	119.19
344.576	113.19
344.804	111.19
345.031	114.19
345.259	98.19
345.487	103.19
345.714	104.19
345.942	102.19
346.17	94.19
346.397	99.19
346.625	101.19
346.853	110.19
347.08	98.19
347.308	96.19
347.535	101.19
347.763	103.19
347.99	105.19
348.218	104.19
348.445	111.19
348.673	91.19
348.9	108.19
349.128	128.19
349.355	104.19
349.583	113.19
349.81	100.19
350.037	91.19
350.265	117.19
350.492	110.19
350.72	98.19
350.947	108.19
351.174	103.19
351.402	97.19
351.629	92.19
351.856	119.19
352.083	92.19
352.311	111.19
352.538	102.19
352.765	99.19
352.992	107.19
353.22	113.19
353.447	112.19
353.674	107.19
353.901	95.19
354.128	102.19
354.355	113.19
354.583	102.19
354.81	113.19
355.037	93.19
355.264	100.19
355.491	96.19
355.718	95.19
355.945	113.19
356.172	111.19
356.399	107.19
356.626	114.19
356.853	130.19
357.08	114.19
357.307	118.19
357.534	110.19
357.761	102.19
357.988	116.19
358.215	108.19
358.441	98.19
358.668	98.19
358.895	99.19
359.122	107.19
359.349	103.19
359.576	114.19
359.802	90.19
360.029	105.19
360.256	112.19
360.483	103.19
360.709	111.19
360.936	113.19
361.163	107.19
361.39	106.19
361.616	105.19
361.843	110.19
362.07	108.19
362.296	119.19
362.523	95.19
362.749	94.19
362.976	98.19
363.203	130.19
363.429	107.19
363.656	104.19
363.882	99.19
364.109	102.19
364.335	100.19
364.562	112.19
364.788	103.19
365.015	104.19
365.241	107.19
365.468	118.19
365.694	106.19
365.92	106.19
366.147	98.19
366.373	110.19
366.599	106.19
366.826	94.19
367.052	116.19
367.278	102.19
367.505	107.19
367.731	108.19
367.957	106.19
368.184	99.19
368.41	105.19
368.636	116.19
368.862	122.19
369.089	96.19
369.315	113.19
369.541	119.19
369.767	128.19
369.993	97.19
370.219	92.19
370.445	115.19
370.672	102.19
370.898	91.19
371.124	104.19
371.35	96.19
371.576	108.19
371.802	122.19
372.028	107.19
372.254	109.19
372.48	115.19
372.706	107.19
372.932	115.19
373.158	113.19
373.384	114.19
373.61	114.19
373.835	120.19
374.061	113.19
374.287	101.19
374.513	106.19
374.739	106.19
374.965	115.19
375.191	104.19
375.416	110.19
375.642	98.19
375.868	111.19
376.094	119.19
376.319	115.19
376.545	101.19
376.771	115.19
376.997	113.19
377.222	116.19
377.448	107.19
377.674	98.19
377.899	116.19
378.125	101.19
378.35	98.19
378.576	113.19
378.802	118.19
379.027	122.19
379.253	118.19
379.478	111.19
379.704	103.19
379.929	108.19
380.155	114.19
380.38	102.19
380.606	118.19
380.831	114.19
381.057	111.19
381.282	114.19
381.507	115.19
381.733	109.19
381.958	114.19
382.184	122.19
382.409	114.19
382.634	112.19
382.86	122.19
383.085	101.19
383.31	105.19
383.535	116.19
383.761	96.19
383.986	130.19
384.211	126.19
384.436	116.19
384.662	115.19
384.887	111.19
385.112	128.19
385.337	126.19
385.562	107.19
385.787	114.19
386.013	122.19
386.238	111.19
386.463	108.19
386.688	161.19
386.913	132.19
387.138	120.19
387.363	110.19
387.588	118.19
387.813	121.19
388.038	132.19
388.263	124.19
388.488	106.19
388.713	118.19
388.938	111.19
389.163	120.19
389.387	112.19
389.612	94.19
389.837	110.19
390.062	110.19
390.287	110.19
390.512	127.19
390.736	112.19
390.961	119.19
391.186	131.19
391.411	132.19
391.636	143.19
391.86	124.19
392.085	120.19
392.31	122.19
392.534	125.19
392.759	119.19
392.984	133.19
393.208	122.19
393.433	138.19
393.658	111.19
393.882	131.19
394.107	131.19
394.331	135.19
394.556	132.19
394.78	139.19
395.005	131.19
395.229	127.19
395.454	127.19
395.678	128.19
395.903	132.19
396.127	115.19
396.352	117.19
396.576	97.19
396.801	119.19
397.025	135.19
397.249	146.19
397.474	139.19
397.698	132.19
397.922	144.19
398.147	120.19
398.371	130.19
398.595	139.19
398.82	132.19
399.044	143.19
399.268	145.19
399.492	156.19
399.717	172.19
399.941	155.19
400.165	146.19
400.389	133.19
400.613	136.19
400.837	142.19
401.062	143.19
401.286	143.19
401.51	123.19
401.734	128.19
401.958	144.19
402.182	134.19
402.406	130.19
402.63	130.19
402.854	129.19
403.078	144.19
403.302	135.19
403.526	144.19
403.75	137.19
403.974	139.19
404.198	135.19
404.422	137.19
404.645	136.19
404.869	130.19
405.093	145.19
405.317	158.19
405.541	124.19
405.765	142.19
405.988	127.19
406.212	134.19
406.436	142.19
406.66	146.19
406.883	142.19
407.107	152.19
407.331	135.19
407.555	147.19
407.778	148.19
408.002	142.19
408.226	158.19
408.449	154.19
408.673	126.19
408.896	131.19
409.12	136.19
409.344	131.19
409.567	142.19
409.791	145.19
410.014	134.19
410.238	147.19
410.461	168.19
410.685	143.19
410.908	129.19
411.132	153.19
411.355	133.19
411.578	154.19
411.802	128.19
412.025	134.19
412.249	138.19
412.472	136.19
412.695	135.19
412.919	143.19
413.142	137.19
413.365	138.19
413.589	135.19
413.812	115.19
414.035	150.19
414.258	131.19
414.482	135.19
414.705	136.19
414.928	142.19
415.151	137.19
415.374	148.19
415.597	119.19
415.821	146.19
416.044	139.19
416.267	136.19
416.49	116.19
416.713	133.19
416.936	149.19
417.159	132.19
417.382	135.19
417.605	133.19
417.828	141.19
418.051	131.19
418.274	139.19
418.497	134.19
418.72	138.19
418.943	114.19
419.166	136.19
419.389	136.19
419.611	123.19
419.834	158.19
420.057	134.19
420.28	110.19
420.503	139.19
420.726	126.19
420.948	124.19
421.171	142.19
421.394	132.19
421.617	144.19
421.839	143.19
422.062	131.19
422.285	131.19
422.507	136.19
422.73	139.19
422.953	140.19
423.175	137.19
423.398	134.19
423.621	146.19
423.843	138.19
424.066	150.19
424.288	154.19
424.511	148.19
424.733	155.19
424.956	130.19
425.178	137.19
425.401	137.19
425.623	123.19
425.846	123.19
426.068	127.19
426.291	134.19
426.513	138.19
426.735	128.19
426.958	144.19
427.18	147.19
427.402	135.19
427.625	128.19
427.847	127.19
428.069	119.19
428.292	130.19
428.514	123.19
428.736	142.19
428.958	131.19
429.181	129.19
429.403	133.19
429.625	131.19
429.847	133.19
430.069	127.19
430.292	137.19
430.514	124.19
430.736	135.19
430.958	126.19
431.18	130.19
431.402	127.19
431.624	121.19
431.846	122.19
432.068	131.19
432.29	108.19
432.512	124.19
432.734	124.19
432.956	143.19
433.178	139.19
433.4	132.19
433.622	133.19
433.844	144.19
434.066	135.19
434.287	124.19
434.509	128.19
434.731	131.19
434.953	126.19
435.175	144.19
435.397	142.19
435.618	126.19
435.84	120.19
436.062	131.19
436.284	145.19
436.505	130.19
436.727	142.19
436.949	133.19
437.17	127.19
437.392	122.19
437.614	118.19
437.835	128.19
438.057	117.19
438.278	113.19
438.5	127.19
438.721	128.19
438.943	126.19
439.165	142.19
439.386	133.19
439.608	130.19
439.829	139.19
440.05	156.19
440.272	141.19
440.493	130.19
440.715	142.19
440.936	143.19
441.158	134.19
441.379	145.19
441.6	132.19
441.822	135.19
442.043	133.19
442.264	150.19
442.486	127.19
442.707	131.19
442.928	132.19
443.149	140.19
443.371	150.19
443.592	133.19
443.813	120.19
444.034	138.19
444.255	162.19
444.476	156.19
444.698	140.19
444.919	153.19
445.14	392.19
445.361	261.19
445.582	162.19
445.803	132.19
446.024	138.19
446.245	141.19
446.466	150.19
446.687	133.19
446.908	126.19
447.129	142.19
447.35	122.19
447.571	141.19
447.792	129.19
448.013	135.19
448.234	135.19
448.455	136.19
448.675	150.19
448.896	133.19
449.117	114.19
449.338	131.19
449.559	132.19
449.779	126.19
450	133.19
450.221	115.19
450.442	126.19
450.662	138.19
450.883	135.19
451.104	137.19
451.324	139.19
451.545	136.19
451.766	132.19
451.986	121.19
452.207	132.19
452.428	117.19
452.648	124.19
452.869	131.19
453.089	121.19
453.31	111.19
453.53	122.19
453.751	117.19
453.971	124.19
454.192	107.19
454.412	127.19
454.633	116.19
454.853	143.19
455.073	120.19
455.294	116.19
455.514	145.19
455.734	127.19
455.955	127.19
456.175	122.19
456.395	115.19
456.616	119.19
456.836	122.19
457.056	111.19
457.276	119.19
457.497	123.19
457.717	130.19
457.937	121.19
458.157	131.19
458.377	110.19
458.598	119.19
458.818	125.19
459.038	111.19
459.258	107.19
459.478	122.19
459.698	118.19
459.918	127.19
460.138	136.19
460.358	145.19
460.578	149.19
460.798	146.19
461.018	134.19
461.238	133.19
461.458	143.19
461.678	136.19
461.898	147.19
462.118	147.19
462.338	147.19
462.558	143.19
462.777	140.19
462.997	155.19
463.217	153.19
463.437	149.19
463.657	131.19
463.876	155.19
464.096	149.19
464.316	142.19
464.536	148.19
464.755	151.19
464.975	143.19
465.195	141.19
465.414	148.19
465.634	150.19
465.854	146.19
466.073	147.19
466.293	109.19
466.512	114.19
466.732	115.19
466.951	139.19
467.171	123.19
467.391	138.19
467.61	145.19
467.829	124.19
468.049	119.19
468.268	113.19
468.488	127.19
468.707	124.19
468.927	137.19
469.146	132.19
469.365	133.19
469.585	127.19
469.804	130.19
470.023	121.19
470.243	139.19
470.462	124.19
470.681	126.19
470.901	139.19
471.12	115.19
471.339	134.19
471.558	136.19
471.777	130.19
471.997	134.19
472.216	129.19
472.435	131.19
472.654	126.19
472.873	124.19
473.092	132.19
473.311	133.19
473.53	128.19
473.749	137.19
473.968	127.19
474.187	126.19
474.406	122.19
474.625	123.19
474.844	124.19
475.063	121.19
475.282	123.19
475.501	128.19
475.72	139.19
475.939	134.19
476.158	122.19
476.377	118.19
476.596	124.19
476.814	127.19
477.033	115.19
477.252	139.19
477.471	133.19
477.69	138.19
477.908	132.19
478.127	154.19
478.346	136.19
478.564	142.19
478.783	131.19
479.002	139.19
479.22	132.19
479.439	150.19
479.658	147.19
479.876	122.19
480.095	126.19
480.313	160.19
480.532	138.19
480.751	142.19
480.969	123.19
481.188	135.19
481.406	128.19
481.624	131.19
481.843	125.19
482.061	126.19
482.28	125.19
482.498	132.19
482.717	146.19
482.935	124.19
483.153	138.19
483.372	160.19
483.59	137.19
483.808	135.19
484.027	127.19
484.245	146.19
484.463	135.19
484.681	148.19
484.9	132.19
485.118	143.19
485.336	142.19
485.554	143.19
485.772	113.19
485.99	125.19
486.209	114.19
486.427	144.19
486.645	128.19
486.863	144.19
487.081	144.19
487.299	136.19
487.517	159.19
487.735	150.19
487.953	156.19
488.171	162.19
488.389	142.19
488.607	142.19
488.825	146.19
489.043	123.19
489.261	146.19
489.479	127.19
489.696	141.19
489.914	134.19
490.132	136.19
490.35	135.19
490.568	132.19
490.786	147.19
491.003	148.19
491.221	145.19
491.439	176.19
491.657	148.19
491.874	161.19
492.092	158.19
492.31	160.19
492.527	167.19
492.745	149.19
492.963	163.19
493.18	166.19
493.398	158.19
493.615	165.19
493.833	155.19
494.05	146.19
494.268	148.19
494.485	147.19
494.703	138.19
494.92	146.19
495.138	137.19
495.355	160.19
495.573	149.19
495.79	144.19
496.008	152.19
496.225	165.19
496.442	149.19
496.66	160.19
496.877	158.19
497.094	163.19
497.312	154.19
497.529	149.19
497.746	150.19
497.963	149.19
498.181	156.19
498.398	150.19
498.615	161.19
498.832	159.19
499.049	162.19
499.267	175.19
499.484	184.19
499.701	202.19
499.918	215.19
500.135	229.19
500.352	256.19
500.569	270.19
500.786	263.19
501.003	234.19
501.22	209.19
501.437	199.19
501.654	172.19
501.871	184.19
502.088	188.19
502.305	179.19
502.522	168.19
502.739	169.19
502.956	156.19
503.172	155.19
503.389	146.19
503.606	148.19
503.823	142.19
504.04	147.19
504.256	148.19
504.473	142.19
504.69	147.19
504.907	172.19
505.123	159.19
505.34	150.19
505.557	142.19
505.773	151.19
505.99	148.19
506.207	129.19
506.423	142.19
506.64	148.19
506.856	135.19
507.073	126.19
507.289	117.19
507.506	125.19
507.722	122.19
507.939	139.19
508.155	137.19
508.372	130.19
508.588	136.19
508.805	135.19
509.021	125.19
509.238	131.19
509.454	106.19
509.67	116.19
509.887	122.19
510.103	129.19
510.319	124.19
510.536	127.19
510.752	102.19
510.968	120.19
511.184	114.19
511.401	115.19
511.617	111.19
511.833	108.19
512.049	122.19
512.265	129.19
512.481	115.19
512.698	128.19
512.914	116.19
513.13	131.19
513.346	123.19
513.562	115.19
513.778	127.19
513.994	124.19
514.21	118.19
514.426	131.19
514.642	117.19
514.858	117.19
515.074	114.19
515.29	135.19
515.506	128.19
515.721	128.19
515.937	127.19
516.153	131.19
516.369	127.19
516.585	142.19
516.801	129.19
517.016	124.19
517.232	138.19
517.448	142.19
517.664	147.19
517.879	131.19
518.095	132.19
518.311	144.19
518.527	131.19
518.742	131.19
518.958	130.19
519.173	141.19
519.389	119.19
519.605	145.19
519.82	128.19
520.036	136.19
520.251	121.19
520.467	130.19
520.682	111.19
520.898	118.19
521.113	131.19
521.329	123.19
521.544	115.19
521.76	120.19
521.975	103.19
522.19	131.19
522.406	119.19
522.621	128.19
522.836	122.19
523.052	121.19
523.267	119.19
523.482	122.19
523.698	120.19
523.913	115.19
524.128	114.19
524.343	126.19
524.559	142.19
524.774	135.19
524.989	127.19
525.204	137.19
525.419	129.19
525.634	112.19
525.849	126.19
526.064	119.19
526.28	126.19
526.495	146.19
526.71	128.19
526.925	109.19
527.14	100.19
527.355	99.19
527.57	110.19
527.785	117.19
527.999	115.19
528.214	110.19
528.429	116.19
528.644	120.19
528.859	126.19
529.074	144.19
529.289	134.19
529.503	124.19
529.718	143.19
529.933	134.19
530.148	118.19
530.363	119.19
530.577	112.19
530.792	108.19
531.007	101.19
531.221	103.19
531.436	102.19
531.651	126.19
531.865	113.19
532.08	119.19
532.295	131.19
532.509	107.19
532.724	105.19
532.938	112.19
533.153	121.19
533.367	107.19
533.582	108.19
533.796	141.19
534.011	103.19
534.225	119.19
534.44	116.19
534.654	123.19
534.868	110.19
535.083	131.19
535.297	122.19
535.511	131.19
535.726	113.19
535.94	120.19
536.154	122.19
536.369	118.19
536.583	99.19
536.797	100.19
537.011	108.19
537.225	119.19
537.44	103.19
537.654	115.19
537.868	113.19
538.082	122.19
538.296	120.19
538.51	128.19
538.724	134.19
538.938	130.19
539.153	127.19
539.367	139.19
539.581	131.19
539.795	109.19
540.009	109.19
540.222	112.19
540.436	132.19
540.65	131.19
540.864	127.19
541.078	127.19
541.292	135.19
541.506	140.19
541.72	161.19
541.934	147.19
542.147	153.19
542.361	149.19
542.575	124.19
542.789	135.19
543.002	114.19
543.216	131.19
543.43	133.19
543.644	102.19
543.857	125.19
544.071	128.19
544.285	146.19
544.498	138.19
544.712	130.19
544.925	134.19
545.139	128.19
545.352	158.19
545.566	142.19
545.779	137.19
545.993	158.19
546.206	119.19
546.42	132.19
546.633	142.19
546.847	165.19
547.06	127.19
547.274	151.19
547.487	128.19
547.7	143.19
547.914	134.19
548.127	128.19
548.34	148.19
548.554	120.19
548.767	141.19
548.98	148.19
549.193	135.19
549.407	139.19
549.62	125.19
549.833	133.19
550.046	135.19
550.259	122.19
550.473	140.19
550.686	136.19
550.899	124.19
551.112	130.19
551.325	128.19
551.538	126.19
551.751	123.19
551.964	129.19
552.177	124.19
552.39	136.19
552.603	142.19
552.816	146.19
553.029	124.19
553.242	136.19
553.455	128.19
553.667	153.19
553.88	134.19
554.093	129.19
554.306	140.19
554.519	118.19
554.732	132.19
554.944	137.19
555.157	119.19
555.37	123.19
555.583	130.19
555.795	114.19
556.008	123.19
556.221	132.19
556.433	131.19
556.646	141.19
556.859	108.19
557.071	126.19
557.284	142.19
557.496	139.19
557.709	114.19
557.921	127.19
558.134	137.19
558.346	136.19
558.559	117.19
558.771	103.19
558.984	126.19
559.196	117.19
559.409	113.19
559.621	130.19
559.833	134.19
560.046	114.19
560.258	101.19
560.47	122.19
560.683	115.19
560.895	110.19
561.107	113.19
561.32	125.19
561.532	118.19
561.744	131.19
561.956	127.19
562.168	120.19
562.381	113.19
562.593	120.19
562.805	114.19
563.017	119.19
563.229	122.19
563.441	132.19
563.653	107.19
563.865	119.19
564.077	120.19
564.289	119.19
564.501	132.19
564.713	111.19
564.925	115.19
565.137	127.19
565.349	122.19
565.561	126.19
565.773	142.19
565.985	129.19
566.197	122.19
566.408	111.19
566.62	137.19
566.832	131.19
567.044	139.19
567.255	131.19
567.467	144.19
567.679	137.19
567.891	154.19
568.102	152.19
568.314	139.19
568.526	145.19
568.737	143.19
568.949	121.19
569.161	126.19
569.372	108.19
569.584	126.19
569.795	123.19
570.007	123.19
570.218	108.19
570.43	108.19
570.641	92.19
570.853	129.19
571.064	109.19
571.276	105.19
571.487	116.19
571.698	108.19
571.91	96.19
572.121	107.19
572.333	120.19
572.544	105.19
572.755	104.19
572.966	98.19
573.178	104.19
573.389	104.19
573.6	120.19
573.811	116.19
574.023	95.19
574.234	107.19
574.445	98.19
574.656	95.19
574.867	103.19
575.078	105.19
575.289	104.19
575.501	108.19
575.712	113.19
575.923	104.19
576.134	116.19
576.345	109.19
576.556	118.19
576.767	135.19
576.978	103.19
577.188	107.19
577.399	102.19
577.61	108.19
577.821	113.19
578.032	101.19
578.243	97.19
578.454	101.19
578.665	97.19
578.875	97.19
579.086	95.19
579.297	107.19
579.508	95.19
579.718	117.19
579.929	104.19
580.14	96.19
580.35	102.19
580.561	111.19
580.772	96.19
580.982	99.19
581.193	95.19
581.403	118.19
581.614	108.19
581.825	94.19
582.035	100.19
582.246	101.19
582.456	88.19
582.667	103.19
582.877	100.19
583.087	114.19
583.298	108.19
583.508	85.19
583.719	104.19
583.929	103.19
584.139	98.19
584.35	92.19
584.56	102.19
584.77	95.19
584.981	78.19
585.191	102.19
585.401	101.19
585.611	94.19
585.821	90.19
586.032	114.19
586.242	96.19
586.452	106.19
586.662	98.19
586.872	101.19
587.082	87.19
587.292	98.19
587.502	105.19
587.713	102.19
587.923	99.19
588.133	110.19
588.343	106.19
588.553	78.19
588.762	115.19
588.972	112.19
589.182	86.19
589.392	94.19
589.602	92.19
589.812	105.19
590.022	107.19
590.232	89.19
590.441	107.19
590.651	108.19
590.861	94.19
591.071	108.19
591.281	102.19
591.49	94.19
591.7	100.19
591.91	110.19
592.119	92.19
592.329	97.19
592.539	107.19
592.748	108.19
592.958	107.19
593.167	103.19
593.377	96.19
593.587	128.19
593.796	104.19
594.006	107.19
594.215	102.19
594.424	102.19
594.634	97.19
594.843	116.19
595.053	103.19
595.262	85.19
595.472	97.19
595.681	91.19
595.89	114.19
596.1	105.19
596.309	97.19
596.518	106.19
596.727	102.19
596.937	102.19
597.146	89.19
597.355	103.19
597.564	106.19
597.774	112.19
597.983	87.19
598.192	104.19
598.401	88.19
598.61	104.19
598.819	95.19
599.028	95.19
599.237	100.19
599.446	107.19
599.655	102.19
599.864	94.19
600.073	95.19
600.282	105.19
600.491	92.19
600.7	105.19
600.909	101.19
601.118	108.19
601.327	97.19
601.536	95.19
601.745	104.19
601.953	105.19
602.162	99.19
602.371	100.19
602.58	106.19
602.789	119.19
602.997	104.19
603.206	115.19
603.415	94.19
603.623	95.19
603.832	92.19
604.041	110.19
604.249	105.19
604.458	98.19
604.666	98.19
604.875	101.19
605.084	90.19
605.292	98.19
605.501	106.19
605.709	107.19
605.918	101.19
606.126	115.19
606.334	100.19
606.543	96.19
606.751	99.19
606.96	92.19
607.168	115.19
607.376	86.19
607.585	107.19
607.793	93.19
608.001	97.19
608.21	108.19
608.418	106.19
608.626	90.19
608.834	108.19
609.043	97.19
609.251	99.19
609.459	98.19
609.667	104.19
609.875	107.19
610.083	105.19
610.291	114.19
610.499	101.19
610.707	110.19
610.916	104.19
611.124	99.19
611.332	94.19
611.54	105.19
611.748	103.19
611.955	98.19
612.163	101.19
612.371	109.19
612.579	95.19
612.787	96.19
612.995	96.19
613.203	116.19
613.411	96.19
613.618	95.19
613.826	98.19
614.034	103.19
614.242	94.19
614.449	94.19
614.657	90.19
614.865	91.19
615.072	104.19
615.28	106.19
615.488	103.19
615.695	95.19
615.903	117.19
616.111	104.19
616.318	116.19
616.526	111.19
616.733	118.19
616.941	99.19
617.148	111.19
617.356	95.19
617.563	104.19
617.771	107.19
617.978	112.19
618.185	89.19
618.393	99.19
618.6	106.19
618.807	98.19
619.015	91.19
619.222	101.19
619.429	100.19
619.637	107.19
619.844	104.19
620.051	100.19
620.258	84.19
620.466	105.19
620.673	95.19
620.88	105.19
621.087	99.19
621.294	96.19
621.501	87.19
621.708	102.19
621.915	104.19
622.122	101.19
622.329	90.19
622.536	97.19
622.743	99.19
622.95	107.19
623.157	86.19
623.364	96.19
623.571	78.19
623.778	99.19
623.985	105.19
624.192	96.19
624.399	107.19
624.606	111.19
624.812	103.19
625.019	104.19
625.226	86.19
625.433	110.19
625.639	99.19
625.846	102.19
626.053	97.19
626.259	109.19
626.466	99.19
626.673	82.19
626.879	87.19
627.086	99.19
627.293	103.19
627.499	102.19
627.706	94.19
627.912	87.19
628.119	95.19
628.325	99.19
628.532	104.19
628.738	93.19
628.945	99.19
629.151	108.19
629.357	84.19
629.564	92.19
629.77	105.19
629.976	83.19
630.183	98.19
630.389	105.19
630.595	83.19
630.802	98.19
631.008	99.19
631.214	94.19
631.42	88.19
631.627	104.19
631.833	102.19
632.039	105.19
632.245	87.19
632.451	88.19
632.657	87.19
632.863	85.19
633.069	96.19
633.275	90.19
633.481	84.19
633.688	74.19
633.893	106.19
634.099	92.19
634.305	81.19
634.511	101.19
634.717	92.19
634.923	70.19
635.129	87.19
635.335	74.19
635.541	87.19
635.747	93.19
635.952	95.19
636.158	107.19
636.364	86.19
636.57	85.19
636.775	86.19
636.981	111.19
637.187	102.19
637.392	91.19
637.598	77.19
637.804	91.19
638.009	87.19
638.215	85.19
638.421	74.19
638.626	83.19
638.832	104.19
639.037	89.19
639.243	92.19
639.448	107.19
639.654	99.19
639.859	97.19
640.065	99.19
640.27	110.19
640.475	72.19
640.681	82.19
640.886	104.19
641.091	97.19
641.297	89.19
641.502	104.19
641.707	104.19
641.913	116.19
642.118	105.19
642.323	87.19
642.528	98.19
642.733	105.19
642.939	103.19
643.144	101.19
643.349	95.19
643.554	106.19
643.759	104.19
643.964	86.19
644.169	88.19
644.374	98.19
644.579	85.19
644.784	83.19
644.989	94.19
645.194	90.19
645.399	92.19
645.604	86.19
645.809	83.19
646.014	82.19
646.219	83.19
646.423	87.19
646.628	84.19
646.833	98.19
647.038	104.19
647.243	102.19
647.447	103.19
647.652	105.19
647.857	86.19
648.062	91.19
648.266	93.19
648.471	113.19
648.676	110.19
648.88	90.19
649.085	91.19
649.289	94.19
649.494	84.19
649.698	82.19
649.903	83.19
650.107	96.19
650.312	102.19
650.516	95.19
650.721	87.19
650.925	93.19
651.13	75.19
651.334	80.19
651.539	92.19
651.743	98.19
651.947	99.19
652.152	73.19
652.356	76.19
652.56	101.19
652.764	93.19
652.969	95.19
653.173	88.19
653.377	88.19
653.581	78.19
653.785	94.19
653.99	93.19
654.194	94.19
654.398	95.19
654.602	90.19
654.806	80.19
655.01	92.19
655.214	83.19
655.418	96.19
655.622	106.19
655.826	83.19
656.03	84.19
656.234	88.19
656.438	82.19
656.642	85.19
656.846	84.19
657.049	88.19
657.253	86.19
657.457	96.19
657.661	75.19
657.865	86.19
658.068	102.19
658.272	70.19
658.476	91.19
658.68	73.19
658.883	73.19
659.087	78.19
659.291	93.19
659.494	92.19
659.698	76.19
659.901	94.19
660.105	78.19
660.309	78.19
660.512	81.19
660.716	94.19
660.919	81.19
661.123	96.19
661.326	94.19
661.53	82.19
661.733	85.19
661.936	72.19
662.14	70.19
662.343	81.19
662.546	73.19
662.75	76.19
662.953	80.19
663.156	106.19
663.36	80.19
663.563	77.19
663.766	72.19
663.969	61.19
664.173	79.19
664.376	83.19
664.579	83.19
664.782	82.19
664.985	89.19
665.188	77.19
665.391	86.19
665.594	80.19
665.797	80.19
666	83.19
666.203	84.19
666.406	88.19
666.609	94.19
666.812	78.19
667.015	71.19
667.218	74.19
667.421	73.19
667.624	76.19
667.827	88.19
668.03	59.19
668.232	69.19
668.435	66.19
668.638	81.19
668.841	83.19
669.043	68.19
669.246	104.19
669.449	68.19
669.651	83.19
669.854	61.19
670.057	82.19
670.259	80.19
670.462	71.19
670.665	61.19
670.867	86.19
671.07	84.19
671.272	71.19
671.475	86.19
671.677	69.19
671.88	83.19
672.082	79.19
672.284	85.19
672.487	84.19
672.689	63.19
672.892	82.19
