Data from SampD_HRD10591_00063.txt Node
Date: Mon Jan 19 11:50:37 EST 2026
User: Yrep
Spectrometer: HR+D1059
Trigger mode: 0
Integration Time (sec): 3.443000E-1
Scans to average: 1
Electric dark correction enabled: true
Nonlinearity correction enabled: false
Boxcar width: 0
XAxis mode: Wavelengths
Number of Pixels in Spectrum: 2048
>>>>>Begin Spectral Data<<<<<
223.165	-32.75
223.4	-32.75
223.635	-32.75
223.869	-21.75
224.104	-28.75
224.338	-0.75
224.573	-11.75
224.808	-12.75
225.042	-14.75
225.277	-12.75
225.511	-1.75
225.746	6.25
225.98	22.25
226.215	2.25
226.449	23.25
226.683	11.25
226.918	27.25
227.152	45.25
227.387	37.25
227.621	44.25
227.856	41.25
228.09	46.25
228.324	51.25
228.559	58.25
228.793	61.25
229.027	58.25
229.262	79.25
229.496	91.25
229.73	70.25
229.964	79.25
230.199	74.25
230.433	70.25
230.667	94.25
230.901	81.25
231.136	81.25
231.37	79.25
231.604	71.25
231.838	85.25
232.072	76.25
232.306	66.25
232.541	77.25
232.775	89.25
233.009	91.25
233.243	89.25
233.477	96.25
233.711	75.25
233.945	87.25
234.179	98.25
234.413	89.25
234.647	83.25
234.881	68.25
235.115	84.25
235.349	83.25
235.583	83.25
235.817	84.25
236.051	80.25
236.285	80.25
236.519	79.25
236.753	68.25
236.987	85.25
237.221	87.25
237.455	77.25
237.689	90.25
237.922	82.25
238.156	76.25
238.39	83.25
238.624	89.25
238.858	80.25
239.091	74.25
239.325	77.25
239.559	86.25
239.793	85.25
240.027	109.25
240.26	82.25
240.494	84.25
240.728	75.25
240.961	71.25
241.195	97.25
241.429	93.25
241.662	82.25
241.896	74.25
242.13	87.25
242.363	89.25
242.597	93.25
242.83	88.25
243.064	86.25
243.298	89.25
243.531	83.25
243.765	87.25
243.998	67.25
244.232	87.25
244.465	99.25
244.699	78.25
244.932	88.25
245.166	82.25
245.399	95.25
245.633	95.25
245.866	71.25
246.099	90.25
246.333	85.25
246.566	94.25
246.8	91.25
247.033	86.25
247.266	76.25
247.5	79.25
247.733	94.25
247.966	85.25
248.2	89.25
248.433	85.25
248.666	89.25
248.899	88.25
249.133	101.25
249.366	107.25
249.599	100.25
249.832	67.25
250.066	85.25
250.299	100.25
250.532	91.25
250.765	97.25
250.998	96.25
251.231	76.25
251.465	81.25
251.698	101.25
251.931	85.25
252.164	98.25
252.397	85.25
252.63	93.25
252.863	99.25
253.096	96.25
253.329	106.25
253.562	103.25
253.795	83.25
254.028	116.25
254.261	99.25
254.494	84.25
254.727	96.25
254.96	88.25
255.193	80.25
255.426	102.25
255.659	96.25
255.892	104.25
256.124	99.25
256.357	87.25
256.59	92.25
256.823	81.25
257.056	91.25
257.289	84.25
257.521	95.25
257.754	81.25
257.987	96.25
258.22	95.25
258.452	79.25
258.685	92.25
258.918	87.25
259.151	87.25
259.383	118.25
259.616	81.25
259.849	84.25
260.081	106.25
260.314	102.25
260.547	88.25
260.779	96.25
261.012	87.25
261.244	92.25
261.477	100.25
261.71	101.25
261.942	87.25
262.175	97.25
262.407	89.25
262.64	107.25
262.872	91.25
263.105	88.25
263.337	108.25
263.57	98.25
263.802	85.25
264.035	92.25
264.267	99.25
264.499	97.25
264.732	98.25
264.964	97.25
265.197	93.25
265.429	96.25
265.661	101.25
265.894	107.25
266.126	98.25
266.358	105.25
266.591	88.25
266.823	85.25
267.055	99.25
267.287	102.25
267.52	101.25
267.752	113.25
267.984	98.25
268.216	97.25
268.448	104.25
268.681	101.25
268.913	111.25
269.145	106.25
269.377	101.25
269.609	101.25
269.841	100.25
270.073	101.25
270.306	101.25
270.538	99.25
270.77	98.25
271.002	104.25
271.234	97.25
271.466	108.25
271.698	108.25
271.93	115.25
272.162	110.25
272.394	97.25
272.626	107.25
272.858	87.25
273.09	102.25
273.322	101.25
273.553	103.25
273.785	118.25
274.017	107.25
274.249	94.25
274.481	91.25
274.713	104.25
274.945	100.25
275.176	110.25
275.408	121.25
275.64	99.25
275.872	100.25
276.104	92.25
276.335	103.25
276.567	105.25
276.799	96.25
277.031	99.25
277.262	120.25
277.494	106.25
277.726	111.25
277.957	112.25
278.189	104.25
278.421	116.25
278.652	97.25
278.884	97.25
279.115	109.25
279.347	114.25
279.579	121.25
279.81	122.25
280.042	101.25
280.273	105.25
280.505	93.25
280.736	106.25
280.968	101.25
281.199	116.25
281.431	114.25
281.662	106.25
281.894	109.25
282.125	107.25
282.356	110.25
282.588	111.25
282.819	117.25
283.051	120.25
283.282	103.25
283.513	116.25
283.745	106.25
283.976	105.25
284.207	106.25
284.439	115.25
284.67	128.25
284.901	113.25
285.132	109.25
285.364	119.25
285.595	122.25
285.826	106.25
286.057	145.25
286.288	107.25
286.52	106.25
286.751	108.25
286.982	120.25
287.213	87.25
287.444	104.25
287.675	121.25
287.906	123.25
288.138	122.25
288.369	121.25
288.6	119.25
288.831	119.25
289.062	109.25
289.293	111.25
289.524	108.25
289.755	114.25
289.986	117.25
290.217	115.25
290.448	83.25
290.679	127.25
290.91	134.25
291.141	113.25
291.371	119.25
291.602	126.25
291.833	126.25
292.064	116.25
292.295	111.25
292.526	128.25
292.757	116.25
292.987	111.25
293.218	114.25
293.449	108.25
293.68	127.25
293.91	125.25
294.141	124.25
294.372	116.25
294.603	125.25
294.833	123.25
295.064	110.25
295.295	111.25
295.525	112.25
295.756	129.25
295.987	141.25
296.217	142.25
296.448	128.25
296.679	122.25
296.909	113.25
297.14	123.25
297.37	129.25
297.601	124.25
297.831	116.25
298.062	120.25
298.292	114.25
298.523	116.25
298.753	113.25
298.984	119.25
299.214	123.25
299.445	113.25
299.675	123.25
299.905	117.25
300.136	135.25
300.366	108.25
300.597	119.25
300.827	107.25
301.057	105.25
301.288	128.25
301.518	131.25
301.748	108.25
301.979	155.25
302.209	122.25
302.439	121.25
302.669	125.25
302.9	127.25
303.13	126.25
303.36	118.25
303.59	120.25
303.82	119.25
304.051	135.25
304.281	129.25
304.511	122.25
304.741	120.25
304.971	125.25
305.201	150.25
305.431	131.25
305.661	116.25
305.891	123.25
306.121	110.25
306.352	128.25
306.582	121.25
306.812	136.25
307.042	123.25
307.272	119.25
307.502	117.25
307.731	138.25
307.961	130.25
308.191	118.25
308.421	127.25
308.651	112.25
308.881	122.25
309.111	130.25
309.341	110.25
309.571	106.25
309.8	118.25
310.03	123.25
310.26	115.25
310.49	122.25
310.72	109.25
310.949	121.25
311.179	132.25
311.409	120.25
311.639	116.25
311.868	124.25
312.098	140.25
312.328	123.25
312.557	116.25
312.787	144.25
313.017	131.25
313.246	132.25
313.476	133.25
313.706	101.25
313.935	129.25
314.165	121.25
314.394	117.25
314.624	131.25
314.853	132.25
315.083	137.25
315.312	128.25
315.542	124.25
315.771	125.25
316.001	137.25
316.23	136.25
316.46	121.25
316.689	120.25
316.919	117.25
317.148	131.25
317.377	119.25
317.607	140.25
317.836	106.25
318.065	112.25
318.295	135.25
318.524	142.25
318.753	113.25
318.983	131.25
319.212	118.25
319.441	113.25
319.67	112.25
319.9	122.25
320.129	128.25
320.358	120.25
320.587	117.25
320.816	127.25
321.046	127.25
321.275	114.25
321.504	115.25
321.733	143.25
321.962	126.25
322.191	133.25
322.42	120.25
322.649	130.25
322.878	121.25
323.108	129.25
323.337	116.25
323.566	131.25
323.795	132.25
324.024	141.25
324.253	122.25
324.482	126.25
324.71	109.25
324.939	138.25
325.168	147.25
325.397	140.25
325.626	129.25
325.855	145.25
326.084	123.25
326.313	130.25
326.542	126.25
326.77	148.25
326.999	115.25
327.228	131.25
327.457	145.25
327.686	139.25
327.914	137.25
328.143	145.25
328.372	133.25
328.6	135.25
328.829	129.25
329.058	126.25
329.287	134.25
329.515	138.25
329.744	142.25
329.972	119.25
330.201	127.25
330.43	141.25
330.658	138.25
330.887	131.25
331.115	131.25
331.344	140.25
331.572	148.25
331.801	122.25
332.03	133.25
332.258	130.25
332.486	124.25
332.715	132.25
332.943	151.25
333.172	161.25
333.4	149.25
333.629	155.25
333.857	142.25
334.085	159.25
334.314	157.25
334.542	145.25
334.771	160.25
334.999	148.25
335.227	130.25
335.455	144.25
335.684	140.25
335.912	136.25
336.14	133.25
336.369	138.25
336.597	138.25
336.825	155.25
337.053	137.25
337.281	132.25
337.51	132.25
337.738	163.25
337.966	132.25
338.194	139.25
338.422	126.25
338.65	144.25
338.878	135.25
339.106	136.25
339.334	156.25
339.562	114.25
339.79	128.25
340.018	134.25
340.246	136.25
340.474	124.25
340.702	136.25
340.93	123.25
341.158	125.25
341.386	144.25
341.614	132.25
341.842	129.25
342.07	132.25
342.298	119.25
342.526	119.25
342.754	144.25
342.981	134.25
343.209	155.25
343.437	177.25
343.665	123.25
343.893	150.25
344.12	148.25
344.348	144.25
344.576	145.25
344.804	125.25
345.031	129.25
345.259	113.25
345.487	146.25
345.714	125.25
345.942	138.25
346.17	131.25
346.397	121.25
346.625	117.25
346.853	128.25
347.08	123.25
347.308	148.25
347.535	136.25
347.763	125.25
347.99	140.25
348.218	129.25
348.445	138.25
348.673	137.25
348.9	143.25
349.128	140.25
349.355	142.25
349.583	145.25
349.81	139.25
350.037	131.25
350.265	118.25
350.492	128.25
350.72	132.25
350.947	125.25
351.174	128.25
351.402	122.25
351.629	131.25
351.856	129.25
352.083	120.25
352.311	144.25
352.538	136.25
352.765	143.25
352.992	141.25
353.22	136.25
353.447	131.25
353.674	121.25
353.901	142.25
354.128	131.25
354.355	121.25
354.583	125.25
354.81	138.25
355.037	149.25
355.264	135.25
355.491	138.25
355.718	148.25
355.945	138.25
356.172	139.25
356.399	131.25
356.626	124.25
356.853	121.25
357.08	136.25
357.307	126.25
357.534	127.25
357.761	133.25
357.988	131.25
358.215	130.25
358.441	126.25
358.668	146.25
358.895	148.25
359.122	132.25
359.349	123.25
359.576	123.25
359.802	140.25
360.029	131.25
360.256	138.25
360.483	131.25
360.709	127.25
360.936	144.25
361.163	139.25
361.39	131.25
361.616	126.25
361.843	131.25
362.07	135.25
362.296	127.25
362.523	122.25
362.749	148.25
362.976	130.25
363.203	132.25
363.429	126.25
363.656	129.25
363.882	126.25
364.109	139.25
364.335	132.25
364.562	133.25
364.788	121.25
365.015	154.25
365.241	130.25
365.468	120.25
365.694	120.25
365.92	121.25
366.147	123.25
366.373	116.25
366.599	120.25
366.826	125.25
367.052	138.25
367.278	135.25
367.505	122.25
367.731	146.25
367.957	131.25
368.184	147.25
368.41	133.25
368.636	147.25
368.862	149.25
369.089	134.25
369.315	140.25
369.541	143.25
369.767	137.25
369.993	129.25
370.219	134.25
370.445	127.25
370.672	145.25
370.898	149.25
371.124	131.25
371.35	136.25
371.576	122.25
371.802	128.25
372.028	136.25
372.254	138.25
372.48	136.25
372.706	144.25
372.932	144.25
373.158	124.25
373.384	140.25
373.61	140.25
373.835	138.25
374.061	138.25
374.287	124.25
374.513	137.25
374.739	128.25
374.965	166.25
375.191	147.25
375.416	159.25
375.642	147.25
375.868	145.25
376.094	139.25
376.319	149.25
376.545	131.25
376.771	142.25
376.997	153.25
377.222	138.25
377.448	147.25
377.674	132.25
377.899	153.25
378.125	153.25
378.35	134.25
378.576	152.25
378.802	140.25
379.027	123.25
379.253	154.25
379.478	153.25
379.704	145.25
379.929	144.25
380.155	124.25
380.38	129.25
380.606	142.25
380.831	143.25
381.057	144.25
381.282	152.25
381.507	137.25
381.733	139.25
381.958	140.25
382.184	128.25
382.409	147.25
382.634	151.25
382.86	149.25
383.085	149.25
383.31	141.25
383.535	147.25
383.761	145.25
383.986	147.25
384.211	141.25
384.436	153.25
384.662	156.25
384.887	153.25
385.112	153.25
385.337	173.25
385.562	156.25
385.787	155.25
386.013	144.25
386.238	165.25
386.463	151.25
386.688	210.25
386.913	162.25
387.138	163.25
387.363	161.25
387.588	177.25
387.813	184.25
388.038	141.25
388.263	163.25
388.488	169.25
388.713	164.25
388.938	153.25
389.163	153.25
389.387	164.25
389.612	145.25
389.837	150.25
390.062	159.25
390.287	151.25
390.512	147.25
390.736	165.25
390.961	170.25
391.186	154.25
391.411	163.25
391.636	179.25
391.86	177.25
392.085	182.25
392.31	181.25
392.534	149.25
392.759	177.25
392.984	174.25
393.208	164.25
393.433	154.25
393.658	173.25
393.882	165.25
394.107	170.25
394.331	185.25
394.556	167.25
394.78	153.25
395.005	186.25
395.229	164.25
395.454	189.25
395.678	157.25
395.903	186.25
396.127	183.25
396.352	184.25
396.576	156.25
396.801	164.25
397.025	163.25
397.249	177.25
397.474	179.25
397.698	184.25
397.922	189.25
398.147	176.25
398.371	183.25
398.595	183.25
398.82	181.25
399.044	214.25
399.268	204.25
399.492	231.25
399.717	244.25
399.941	211.25
400.165	212.25
400.389	188.25
400.613	192.25
400.837	195.25
401.062	190.25
401.286	191.25
401.51	191.25
401.734	178.25
401.958	180.25
402.182	198.25
402.406	212.25
402.63	186.25
402.854	176.25
403.078	215.25
403.302	197.25
403.526	191.25
403.75	204.25
403.974	215.25
404.198	213.25
404.422	206.25
404.645	204.25
404.869	191.25
405.093	207.25
405.317	201.25
405.541	187.25
405.765	203.25
405.988	184.25
406.212	199.25
406.436	187.25
406.66	208.25
406.883	219.25
407.107	209.25
407.331	205.25
407.555	216.25
407.778	225.25
408.002	233.25
408.226	196.25
408.449	201.25
408.673	205.25
408.896	209.25
409.12	204.25
409.344	205.25
409.567	207.25
409.791	204.25
410.014	224.25
410.238	210.25
410.461	198.25
410.685	211.25
410.908	201.25
411.132	208.25
411.355	171.25
411.578	205.25
411.802	193.25
412.025	200.25
412.249	187.25
412.472	191.25
412.695	194.25
412.919	185.25
413.142	188.25
413.365	204.25
413.589	188.25
413.812	199.25
414.035	199.25
414.258	187.25
414.482	178.25
414.705	175.25
414.928	185.25
415.151	178.25
415.374	199.25
415.597	197.25
415.821	196.25
416.044	204.25
416.267	196.25
416.49	188.25
416.713	183.25
416.936	207.25
417.159	195.25
417.382	206.25
417.605	174.25
417.828	204.25
418.051	198.25
418.274	200.25
418.497	193.25
418.72	198.25
418.943	205.25
419.166	204.25
419.389	195.25
419.611	196.25
419.834	188.25
420.057	177.25
420.28	190.25
420.503	201.25
420.726	196.25
420.948	200.25
421.171	213.25
421.394	212.25
421.617	208.25
421.839	201.25
422.062	189.25
422.285	197.25
422.507	194.25
422.73	202.25
422.953	187.25
423.175	199.25
423.398	203.25
423.621	203.25
423.843	195.25
424.066	205.25
424.288	200.25
424.511	191.25
424.733	207.25
424.956	187.25
425.178	211.25
425.401	192.25
425.623	197.25
425.846	193.25
426.068	186.25
426.291	198.25
426.513	194.25
426.735	199.25
426.958	181.25
427.18	180.25
427.402	190.25
427.625	197.25
427.847	183.25
428.069	173.25
428.292	191.25
428.514	186.25
428.736	161.25
428.958	187.25
429.181	189.25
429.403	196.25
429.625	177.25
429.847	168.25
430.069	185.25
430.292	198.25
430.514	168.25
430.736	181.25
430.958	181.25
431.18	166.25
431.402	173.25
431.624	179.25
431.846	164.25
432.068	169.25
432.29	180.25
432.512	197.25
432.734	188.25
432.956	189.25
433.178	189.25
433.4	181.25
433.622	204.25
433.844	180.25
434.066	182.25
434.287	160.25
434.509	180.25
434.731	178.25
434.953	187.25
435.175	178.25
435.397	177.25
435.618	191.25
435.84	174.25
436.062	172.25
436.284	179.25
436.505	177.25
436.727	172.25
436.949	181.25
437.17	181.25
437.392	162.25
437.614	176.25
437.835	160.25
438.057	158.25
438.278	168.25
438.5	162.25
438.721	187.25
438.943	181.25
439.165	193.25
439.386	164.25
439.608	188.25
439.829	186.25
440.05	185.25
440.272	191.25
440.493	189.25
440.715	185.25
440.936	187.25
441.158	196.25
441.379	194.25
441.6	208.25
441.822	202.25
442.043	206.25
442.264	201.25
442.486	204.25
442.707	181.25
442.928	204.25
443.149	204.25
443.371	212.25
443.592	209.25
443.813	204.25
444.034	211.25
444.255	228.25
444.476	219.25
444.698	215.25
444.919	223.25
445.14	452.25
445.361	324.25
445.582	209.25
445.803	195.25
446.024	185.25
446.245	199.25
446.466	193.25
446.687	199.25
446.908	200.25
447.129	194.25
447.35	195.25
447.571	204.25
447.792	182.25
448.013	188.25
448.234	189.25
448.455	184.25
448.675	172.25
448.896	198.25
449.117	202.25
449.338	179.25
449.559	193.25
449.779	182.25
450	173.25
450.221	196.25
450.442	180.25
450.662	174.25
450.883	171.25
451.104	191.25
451.324	193.25
451.545	178.25
451.766	190.25
451.986	172.25
452.207	184.25
452.428	186.25
452.648	188.25
452.869	192.25
453.089	169.25
453.31	168.25
453.53	156.25
453.751	163.25
453.971	171.25
454.192	176.25
454.412	153.25
454.633	169.25
454.853	181.25
455.073	165.25
455.294	168.25
455.514	179.25
455.734	169.25
455.955	167.25
456.175	161.25
456.395	167.25
456.616	151.25
456.836	167.25
457.056	153.25
457.276	157.25
457.497	146.25
457.717	148.25
457.937	166.25
458.157	181.25
458.377	164.25
458.598	169.25
458.818	156.25
459.038	157.25
459.258	158.25
459.478	178.25
459.698	168.25
459.918	179.25
460.138	189.25
460.358	184.25
460.578	183.25
460.798	192.25
461.018	213.25
461.238	181.25
461.458	209.25
461.678	201.25
461.898	230.25
462.118	193.25
462.338	225.25
462.558	226.25
462.777	208.25
462.997	228.25
463.217	223.25
463.437	242.25
463.657	203.25
463.876	204.25
464.096	217.25
464.316	213.25
464.536	195.25
464.755	202.25
464.975	208.25
465.195	209.25
465.414	191.25
465.634	178.25
465.854	179.25
466.073	181.25
466.293	198.25
466.512	187.25
466.732	187.25
466.951	184.25
467.171	181.25
467.391	177.25
467.61	178.25
467.829	184.25
468.049	164.25
468.268	189.25
468.488	173.25
468.707	187.25
468.927	184.25
469.146	184.25
469.365	202.25
469.585	186.25
469.804	189.25
470.023	189.25
470.243	196.25
470.462	204.25
470.681	183.25
470.901	187.25
471.12	191.25
471.339	189.25
471.558	182.25
471.777	175.25
471.997	186.25
472.216	188.25
472.435	168.25
472.654	161.25
472.873	165.25
473.092	166.25
473.311	177.25
473.53	173.25
473.749	178.25
473.968	179.25
474.187	179.25
474.406	168.25
474.625	177.25
474.844	187.25
475.063	175.25
475.282	181.25
475.501	168.25
475.72	206.25
475.939	168.25
476.158	166.25
476.377	173.25
476.596	157.25
476.814	159.25
477.033	167.25
477.252	182.25
477.471	185.25
477.69	189.25
477.908	185.25
478.127	207.25
478.346	200.25
478.564	198.25
478.783	201.25
479.002	197.25
479.22	187.25
479.439	207.25
479.658	192.25
479.876	203.25
480.095	200.25
480.313	207.25
480.532	190.25
480.751	199.25
480.969	180.25
481.188	184.25
481.406	177.25
481.624	160.25
481.843	171.25
482.061	176.25
482.28	173.25
482.498	189.25
482.717	181.25
482.935	190.25
483.153	200.25
483.372	204.25
483.59	188.25
483.808	186.25
484.027	199.25
484.245	200.25
484.463	187.25
484.681	213.25
484.9	217.25
485.118	218.25
485.336	182.25
485.554	185.25
485.772	181.25
485.99	194.25
486.209	192.25
486.427	177.25
486.645	196.25
486.863	203.25
487.081	207.25
487.299	210.25
487.517	204.25
487.735	227.25
487.953	232.25
488.171	230.25
488.389	224.25
488.607	195.25
488.825	181.25
489.043	195.25
489.261	207.25
489.479	188.25
489.696	196.25
489.914	219.25
490.132	201.25
490.35	208.25
490.568	211.25
490.786	201.25
491.003	215.25
491.221	202.25
491.439	237.25
491.657	229.25
491.874	246.25
492.092	266.25
492.31	248.25
492.527	247.25
492.745	213.25
492.963	243.25
493.18	239.25
493.398	241.25
493.615	235.25
493.833	229.25
494.05	223.25
494.268	208.25
494.485	233.25
494.703	225.25
494.92	241.25
495.138	228.25
495.355	235.25
495.573	222.25
495.79	215.25
496.008	241.25
496.225	213.25
496.442	209.25
496.66	240.25
496.877	240.25
497.094	238.25
497.312	226.25
497.529	223.25
497.746	219.25
497.963	217.25
498.181	218.25
498.398	221.25
498.615	229.25
498.832	235.25
499.049	262.25
499.267	276.25
499.484	289.25
499.701	321.25
499.918	348.25
500.135	362.25
500.352	417.25
500.569	423.25
500.786	430.25
501.003	376.25
501.22	354.25
501.437	311.25
501.654	283.25
501.871	261.25
502.088	256.25
502.305	243.25
502.522	243.25
502.739	249.25
502.956	228.25
503.172	225.25
503.389	217.25
503.606	215.25
503.823	217.25
504.04	223.25
504.256	232.25
504.473	213.25
504.69	211.25
504.907	227.25
505.123	211.25
505.34	212.25
505.557	197.25
505.773	231.25
505.99	187.25
506.207	186.25
506.423	200.25
506.64	186.25
506.856	177.25
507.073	186.25
507.289	193.25
507.506	185.25
507.722	195.25
507.939	195.25
508.155	179.25
508.372	165.25
508.588	171.25
508.805	193.25
509.021	180.25
509.238	179.25
509.454	159.25
509.67	167.25
509.887	165.25
510.103	171.25
510.319	159.25
510.536	163.25
510.752	148.25
510.968	160.25
511.184	144.25
511.401	152.25
511.617	160.25
511.833	144.25
512.049	160.25
512.265	169.25
512.481	184.25
512.698	162.25
512.914	155.25
513.13	168.25
513.346	148.25
513.562	171.25
513.778	168.25
513.994	150.25
514.21	165.25
514.426	179.25
514.642	173.25
514.858	151.25
515.074	155.25
515.29	167.25
515.506	161.25
515.721	171.25
515.937	188.25
516.153	174.25
516.369	172.25
516.585	181.25
516.801	198.25
517.016	167.25
517.232	187.25
517.448	192.25
517.664	211.25
517.879	208.25
518.095	200.25
518.311	192.25
518.527	182.25
518.742	195.25
518.958	188.25
519.173	189.25
519.389	193.25
519.605	181.25
519.82	177.25
520.036	177.25
520.251	168.25
520.467	177.25
520.682	171.25
520.898	164.25
521.113	148.25
521.329	162.25
521.544	163.25
521.76	169.25
521.975	156.25
522.19	162.25
522.406	178.25
522.621	169.25
522.836	157.25
523.052	168.25
523.267	180.25
523.482	153.25
523.698	182.25
523.913	189.25
524.128	173.25
524.343	170.25
524.559	181.25
524.774	187.25
524.989	176.25
525.204	181.25
525.419	168.25
525.634	166.25
525.849	157.25
526.064	171.25
526.28	170.25
526.495	169.25
526.71	168.25
526.925	150.25
527.14	136.25
527.355	152.25
527.57	163.25
527.785	162.25
527.999	151.25
528.214	172.25
528.429	177.25
528.644	174.25
528.859	174.25
529.074	191.25
529.289	190.25
529.503	195.25
529.718	184.25
529.933	164.25
530.148	127.25
530.363	167.25
530.577	151.25
530.792	154.25
531.007	170.25
531.221	144.25
531.436	141.25
531.651	148.25
531.865	146.25
532.08	151.25
532.295	160.25
532.509	149.25
532.724	156.25
532.938	162.25
533.153	140.25
533.367	168.25
533.582	173.25
533.796	153.25
534.011	163.25
534.225	160.25
534.44	153.25
534.654	162.25
534.868	159.25
535.083	158.25
535.297	166.25
535.511	180.25
535.726	157.25
535.94	160.25
536.154	159.25
536.369	150.25
536.583	138.25
536.797	151.25
537.011	143.25
537.225	140.25
537.44	165.25
537.654	170.25
537.868	134.25
538.082	155.25
538.296	155.25
538.51	165.25
538.724	170.25
538.938	180.25
539.153	178.25
539.367	165.25
539.581	176.25
539.795	156.25
540.009	143.25
540.222	151.25
540.436	151.25
540.65	155.25
540.864	187.25
541.078	178.25
541.292	191.25
541.506	195.25
541.72	201.25
541.934	211.25
542.147	203.25
542.361	194.25
542.575	171.25
542.789	172.25
543.002	177.25
543.216	173.25
543.43	180.25
543.644	175.25
543.857	177.25
544.071	180.25
544.285	203.25
544.498	188.25
544.712	176.25
544.925	189.25
545.139	192.25
545.352	192.25
545.566	189.25
545.779	183.25
545.993	187.25
546.206	191.25
546.42	183.25
546.633	207.25
546.847	205.25
547.06	185.25
547.274	213.25
547.487	215.25
547.7	195.25
547.914	195.25
548.127	203.25
548.34	186.25
548.554	193.25
548.767	203.25
548.98	204.25
549.193	189.25
549.407	184.25
549.62	185.25
549.833	195.25
550.046	183.25
550.259	197.25
550.473	207.25
550.686	195.25
550.899	191.25
551.112	189.25
551.325	189.25
551.538	183.25
551.751	165.25
551.964	159.25
552.177	162.25
552.39	190.25
552.603	189.25
552.816	193.25
553.029	193.25
553.242	198.25
553.455	191.25
553.667	215.25
553.88	203.25
554.093	199.25
554.306	200.25
554.519	201.25
554.732	181.25
554.944	197.25
555.157	192.25
555.37	193.25
555.583	179.25
555.795	190.25
556.008	172.25
556.221	147.25
556.433	178.25
556.646	172.25
556.859	166.25
557.071	177.25
557.284	163.25
557.496	170.25
557.709	164.25
557.921	164.25
558.134	173.25
558.346	169.25
558.559	165.25
558.771	160.25
558.984	191.25
559.196	175.25
559.409	154.25
559.621	155.25
559.833	162.25
560.046	152.25
560.258	163.25
560.47	155.25
560.683	175.25
560.895	173.25
561.107	155.25
561.32	169.25
561.532	168.25
561.744	173.25
561.956	175.25
562.168	172.25
562.381	174.25
562.593	168.25
562.805	166.25
563.017	167.25
563.229	164.25
563.441	156.25
563.653	168.25
563.865	152.25
564.077	149.25
564.289	166.25
564.501	145.25
564.713	163.25
564.925	176.25
565.137	163.25
565.349	181.25
565.561	149.25
565.773	181.25
565.985	176.25
566.197	164.25
566.408	163.25
566.62	191.25
566.832	198.25
567.044	188.25
567.255	204.25
567.467	212.25
567.679	201.25
567.891	219.25
568.102	222.25
568.314	200.25
568.526	189.25
568.737	188.25
568.949	170.25
569.161	164.25
569.372	151.25
569.584	135.25
569.795	146.25
570.007	132.25
570.218	128.25
570.43	152.25
570.641	136.25
570.853	139.25
571.064	149.25
571.276	145.25
571.487	135.25
571.698	146.25
571.91	147.25
572.121	155.25
572.333	132.25
572.544	134.25
572.755	140.25
572.966	141.25
573.178	129.25
573.389	136.25
573.6	127.25
573.811	141.25
574.023	114.25
574.234	123.25
574.445	127.25
574.656	115.25
574.867	136.25
575.078	140.25
575.289	139.25
575.501	118.25
575.712	128.25
575.923	121.25
576.134	126.25
576.345	136.25
576.556	143.25
576.767	133.25
576.978	149.25
577.188	128.25
577.399	148.25
577.61	122.25
577.821	116.25
578.032	124.25
578.243	112.25
578.454	133.25
578.665	132.25
578.875	121.25
579.086	125.25
579.297	115.25
579.508	121.25
579.718	127.25
579.929	125.25
580.14	117.25
580.35	105.25
580.561	108.25
580.772	123.25
580.982	115.25
581.193	99.25
581.403	124.25
581.614	113.25
581.825	144.25
582.035	136.25
582.246	137.25
582.456	110.25
582.667	108.25
582.877	100.25
583.087	107.25
583.298	131.25
583.508	124.25
583.719	117.25
583.929	123.25
584.139	109.25
584.35	103.25
584.56	122.25
584.77	121.25
584.981	106.25
585.191	139.25
585.401	118.25
585.611	117.25
585.821	112.25
586.032	114.25
586.242	109.25
586.452	138.25
586.662	118.25
586.872	115.25
587.082	125.25
587.292	107.25
587.502	114.25
587.713	124.25
587.923	118.25
588.133	114.25
588.343	118.25
588.553	127.25
588.762	145.25
588.972	116.25
589.182	125.25
589.392	107.25
589.602	119.25
589.812	115.25
590.022	130.25
590.232	121.25
590.441	117.25
590.651	124.25
590.861	104.25
591.071	125.25
591.281	130.25
591.49	124.25
591.7	125.25
591.91	111.25
592.119	129.25
592.329	125.25
592.539	111.25
592.748	135.25
592.958	131.25
593.167	139.25
593.377	136.25
593.587	159.25
593.796	136.25
594.006	136.25
594.215	135.25
594.424	132.25
594.634	132.25
594.843	124.25
595.053	122.25
595.262	124.25
595.472	130.25
595.681	121.25
595.89	121.25
596.1	108.25
596.309	114.25
596.518	119.25
596.727	125.25
596.937	133.25
597.146	121.25
597.355	119.25
597.564	111.25
597.774	130.25
597.983	136.25
598.192	103.25
598.401	111.25
598.61	127.25
598.819	108.25
599.028	115.25
599.237	113.25
599.446	114.25
599.655	125.25
599.864	114.25
600.073	124.25
600.282	115.25
600.491	122.25
600.7	108.25
600.909	115.25
601.118	101.25
601.327	140.25
601.536	109.25
601.745	122.25
601.953	128.25
602.162	132.25
602.371	127.25
602.58	126.25
602.789	130.25
602.997	128.25
603.206	129.25
603.415	130.25
603.623	127.25
603.832	128.25
604.041	117.25
604.249	121.25
604.458	117.25
604.666	111.25
604.875	125.25
605.084	106.25
605.292	119.25
605.501	116.25
605.709	129.25
605.918	133.25
606.126	117.25
606.334	116.25
606.543	122.25
606.751	124.25
606.96	123.25
607.168	126.25
607.376	120.25
607.585	116.25
607.793	133.25
608.001	130.25
608.21	127.25
608.418	123.25
608.626	132.25
608.834	125.25
609.043	119.25
609.251	132.25
609.459	126.25
609.667	121.25
609.875	114.25
610.083	124.25
610.291	120.25
610.499	123.25
610.707	105.25
610.916	129.25
611.124	109.25
611.332	114.25
611.54	109.25
611.748	122.25
611.955	114.25
612.163	123.25
612.371	124.25
612.579	131.25
612.787	116.25
612.995	120.25
613.203	130.25
613.411	124.25
613.618	103.25
613.826	123.25
614.034	129.25
614.242	129.25
614.449	124.25
614.657	116.25
614.865	119.25
615.072	123.25
615.28	116.25
615.488	112.25
615.695	129.25
615.903	129.25
616.111	124.25
616.318	136.25
616.526	121.25
616.733	137.25
616.941	120.25
617.148	131.25
617.356	128.25
617.563	134.25
617.771	115.25
617.978	117.25
618.185	109.25
618.393	123.25
618.6	124.25
618.807	106.25
619.015	108.25
619.222	114.25
619.429	107.25
619.637	120.25
619.844	103.25
620.051	108.25
620.258	109.25
620.466	111.25
620.673	122.25
620.88	116.25
621.087	126.25
621.294	126.25
621.501	113.25
621.708	122.25
621.915	117.25
622.122	123.25
622.329	116.25
622.536	122.25
622.743	122.25
622.95	116.25
623.157	119.25
623.364	117.25
623.571	104.25
623.778	112.25
623.985	117.25
624.192	123.25
624.399	123.25
624.606	119.25
624.812	108.25
625.019	108.25
625.226	107.25
625.433	107.25
625.639	105.25
625.846	98.25
626.053	102.25
626.259	97.25
626.466	102.25
626.673	109.25
626.879	119.25
627.086	103.25
627.293	111.25
627.499	115.25
627.706	119.25
627.912	116.25
628.119	109.25
628.325	127.25
628.532	122.25
628.738	110.25
628.945	115.25
629.151	110.25
629.357	102.25
629.564	104.25
629.77	116.25
629.976	105.25
630.183	106.25
630.389	105.25
630.595	118.25
630.802	104.25
631.008	99.25
631.214	108.25
631.42	109.25
631.627	129.25
631.833	114.25
632.039	104.25
632.245	102.25
632.451	111.25
632.657	118.25
632.863	101.25
633.069	107.25
633.275	106.25
633.481	99.25
633.688	122.25
633.893	121.25
634.099	106.25
634.305	104.25
634.511	91.25
634.717	95.25
634.923	99.25
635.129	104.25
635.335	117.25
635.541	107.25
635.747	118.25
635.952	106.25
636.158	108.25
636.364	124.25
636.57	112.25
636.775	92.25
636.981	92.25
637.187	94.25
637.392	123.25
637.598	96.25
637.804	125.25
638.009	100.25
638.215	99.25
638.421	107.25
638.626	102.25
638.832	109.25
639.037	113.25
639.243	101.25
639.448	103.25
639.654	122.25
639.859	97.25
640.065	120.25
640.27	121.25
640.475	96.25
640.681	100.25
640.886	110.25
641.091	115.25
641.297	119.25
641.502	114.25
641.707	108.25
641.913	105.25
642.118	98.25
642.323	109.25
642.528	121.25
642.733	124.25
642.939	117.25
643.144	107.25
643.349	109.25
643.554	125.25
643.759	107.25
643.964	99.25
644.169	91.25
644.374	100.25
644.579	120.25
644.784	109.25
644.989	120.25
645.194	115.25
645.399	111.25
645.604	107.25
645.809	113.25
646.014	112.25
646.219	98.25
646.423	109.25
646.628	117.25
646.833	107.25
647.038	97.25
647.243	100.25
647.447	108.25
647.652	102.25
647.857	115.25
648.062	123.25
648.266	103.25
648.471	105.25
648.676	92.25
648.88	97.25
649.085	97.25
649.289	111.25
649.494	100.25
649.698	104.25
649.903	88.25
650.107	99.25
650.312	103.25
650.516	111.25
650.721	93.25
650.925	106.25
651.13	104.25
651.334	95.25
651.539	90.25
651.743	89.25
651.947	111.25
652.152	113.25
652.356	91.25
652.56	100.25
652.764	93.25
652.969	113.25
653.173	95.25
653.377	104.25
653.581	99.25
653.785	87.25
653.99	95.25
654.194	103.25
654.398	101.25
654.602	101.25
654.806	79.25
655.01	87.25
655.214	107.25
655.418	83.25
655.622	87.25
655.826	103.25
656.03	113.25
656.234	94.25
656.438	95.25
656.642	108.25
656.846	78.25
657.049	96.25
657.253	97.25
657.457	99.25
657.661	93.25
657.865	94.25
658.068	88.25
658.272	84.25
658.476	86.25
658.68	92.25
658.883	75.25
659.087	81.25
659.291	83.25
659.494	87.25
659.698	88.25
659.901	84.25
660.105	84.25
660.309	76.25
660.512	71.25
660.716	81.25
660.919	78.25
661.123	79.25
661.326	83.25
661.53	89.25
661.733	86.25
661.936	87.25
662.14	95.25
662.343	82.25
662.546	84.25
662.75	90.25
662.953	82.25
663.156	98.25
663.36	84.25
663.563	87.25
663.766	77.25
663.969	77.25
664.173	73.25
664.376	81.25
664.579	76.25
664.782	83.25
664.985	76.25
665.188	89.25
665.391	83.25
665.594	73.25
665.797	76.25
666	73.25
666.203	95.25
666.406	71.25
666.609	81.25
666.812	89.25
667.015	95.25
667.218	100.25
667.421	86.25
667.624	83.25
667.827	98.25
668.03	66.25
668.232	68.25
668.435	81.25
668.638	83.25
668.841	95.25
669.043	79.25
669.246	84.25
669.449	84.25
669.651	84.25
669.854	79.25
670.057	86.25
670.259	73.25
670.462	95.25
670.665	76.25
670.867	59.25
671.07	88.25
671.272	78.25
671.475	78.25
671.677	81.25
671.88	84.25
672.082	79.25
672.284	87.25
672.487	99.25
672.689	82.25
672.892	87.25
