Data from 2145_3_HRD10591_00045.txt Node
Date: Mon Jan 19 14:23:29 EST 2026
User: Yrep
Spectrometer: HR+D1059
Trigger mode: 1
Integration Time (sec): 1.000000E-1
Scans to average: 1
Electric dark correction enabled: true
Nonlinearity correction enabled: false
Boxcar width: 0
XAxis mode: Wavelengths
Number of Pixels in Spectrum: 2048
>>>>>Begin Spectral Data<<<<<
223.165	-11.12
223.4	-11.12
223.635	-11.12
223.869	-18.12
224.104	-19.12
224.338	-30.12
224.573	-14.12
224.808	-8.12
225.042	-4.12
225.277	-9.12
225.511	-1.12
225.746	0.88
225.98	15.88
226.215	22.88
226.449	13.88
226.683	20.88
226.918	21.88
227.152	18.88
227.387	36.88
227.621	29.88
227.856	52.88
228.09	52.88
228.324	61.88
228.559	58.88
228.793	70.88
229.027	66.88
229.262	58.88
229.496	83.88
229.73	67.88
229.964	78.88
230.199	72.88
230.433	73.88
230.667	87.88
230.901	73.88
231.136	84.88
231.37	76.88
231.604	73.88
231.838	78.88
232.072	74.88
232.306	64.88
232.541	83.88
232.775	70.88
233.009	87.88
233.243	76.88
233.477	73.88
233.711	81.88
233.945	82.88
234.179	84.88
234.413	81.88
234.647	83.88
234.881	89.88
235.115	91.88
235.349	87.88
235.583	75.88
235.817	81.88
236.051	66.88
236.285	89.88
236.519	71.88
236.753	80.88
236.987	63.88
237.221	69.88
237.455	74.88
237.689	78.88
237.922	76.88
238.156	74.88
238.39	80.88
238.624	63.88
238.858	82.88
239.091	74.88
239.325	85.88
239.559	67.88
239.793	79.88
240.027	72.88
240.26	80.88
240.494	66.88
240.728	84.88
240.961	82.88
241.195	78.88
241.429	76.88
241.662	76.88
241.896	82.88
242.13	93.88
242.363	77.88
242.597	91.88
242.83	88.88
243.064	81.88
243.298	75.88
243.531	66.88
243.765	70.88
243.998	85.88
244.232	92.88
244.465	87.88
244.699	84.88
244.932	75.88
245.166	71.88
245.399	73.88
245.633	88.88
245.866	77.88
246.099	89.88
246.333	91.88
246.566	66.88
246.8	84.88
247.033	79.88
247.266	83.88
247.5	78.88
247.733	81.88
247.966	74.88
248.2	75.88
248.433	84.88
248.666	90.88
248.899	80.88
249.133	68.88
249.366	87.88
249.599	66.88
249.832	70.88
250.066	77.88
250.299	81.88
250.532	77.88
250.765	78.88
250.998	89.88
251.231	82.88
251.465	77.88
251.698	90.88
251.931	83.88
252.164	70.88
252.397	83.88
252.63	85.88
252.863	89.88
253.096	87.88
253.329	83.88
253.562	79.88
253.795	86.88
254.028	84.88
254.261	70.88
254.494	81.88
254.727	84.88
254.96	71.88
255.193	82.88
255.426	86.88
255.659	72.88
255.892	80.88
256.124	91.88
256.357	85.88
256.59	83.88
256.823	82.88
257.056	76.88
257.289	78.88
257.521	89.88
257.754	77.88
257.987	80.88
258.22	88.88
258.452	83.88
258.685	98.88
258.918	86.88
259.151	74.88
259.383	82.88
259.616	74.88
259.849	76.88
260.081	85.88
260.314	81.88
260.547	64.88
260.779	84.88
261.012	80.88
261.244	88.88
261.477	86.88
261.71	82.88
261.942	79.88
262.175	76.88
262.407	77.88
262.64	79.88
262.872	87.88
263.105	83.88
263.337	68.88
263.57	76.88
263.802	83.88
264.035	88.88
264.267	61.88
264.499	86.88
264.732	79.88
264.964	82.88
265.197	78.88
265.429	63.88
265.661	78.88
265.894	92.88
266.126	76.88
266.358	86.88
266.591	82.88
266.823	84.88
267.055	76.88
267.287	98.88
267.52	88.88
267.752	96.88
267.984	92.88
268.216	82.88
268.448	72.88
268.681	90.88
268.913	72.88
269.145	85.88
269.377	78.88
269.609	86.88
269.841	94.88
270.073	87.88
270.306	77.88
270.538	95.88
270.77	78.88
271.002	77.88
271.234	84.88
271.466	89.88
271.698	77.88
271.93	99.88
272.162	84.88
272.394	85.88
272.626	73.88
272.858	85.88
273.09	74.88
273.322	80.88
273.553	74.88
273.785	77.88
274.017	104.88
274.249	81.88
274.481	83.88
274.713	81.88
274.945	78.88
275.176	67.88
275.408	76.88
275.64	79.88
275.872	91.88
276.104	99.88
276.335	94.88
276.567	80.88
276.799	72.88
277.031	86.88
277.262	81.88
277.494	68.88
277.726	84.88
277.957	79.88
278.189	78.88
278.421	83.88
278.652	84.88
278.884	86.88
279.115	85.88
279.347	92.88
279.579	96.88
279.81	84.88
280.042	87.88
280.273	77.88
280.505	78.88
280.736	77.88
280.968	90.88
281.199	92.88
281.431	77.88
281.662	93.88
281.894	83.88
282.125	84.88
282.356	92.88
282.588	92.88
282.819	89.88
283.051	90.88
283.282	88.88
283.513	95.88
283.745	88.88
283.976	86.88
284.207	84.88
284.439	86.88
284.67	94.88
284.901	83.88
285.132	101.88
285.364	94.88
285.595	108.88
285.826	84.88
286.057	74.88
286.288	76.88
286.52	81.88
286.751	96.88
286.982	84.88
287.213	87.88
287.444	87.88
287.675	100.88
287.906	73.88
288.138	93.88
288.369	89.88
288.6	83.88
288.831	73.88
289.062	86.88
289.293	88.88
289.524	78.88
289.755	89.88
289.986	85.88
290.217	92.88
290.448	91.88
290.679	80.88
290.91	90.88
291.141	92.88
291.371	87.88
291.602	98.88
291.833	90.88
292.064	82.88
292.295	71.88
292.526	90.88
292.757	92.88
292.987	87.88
293.218	86.88
293.449	72.88
293.68	80.88
293.91	81.88
294.141	96.88
294.372	94.88
294.603	81.88
294.833	96.88
295.064	85.88
295.295	76.88
295.525	96.88
295.756	91.88
295.987	84.88
296.217	85.88
296.448	81.88
296.679	83.88
296.909	98.88
297.14	92.88
297.37	84.88
297.601	91.88
297.831	85.88
298.062	88.88
298.292	101.88
298.523	88.88
298.753	76.88
298.984	88.88
299.214	100.88
299.445	101.88
299.675	97.88
299.905	97.88
300.136	98.88
300.366	92.88
300.597	81.88
300.827	102.88
301.057	81.88
301.288	92.88
301.518	94.88
301.748	93.88
301.979	102.88
302.209	103.88
302.439	94.88
302.669	93.88
302.9	83.88
303.13	94.88
303.36	72.88
303.59	103.88
303.82	81.88
304.051	93.88
304.281	93.88
304.511	92.88
304.741	80.88
304.971	85.88
305.201	100.88
305.431	77.88
305.661	91.88
305.891	98.88
306.121	94.88
306.352	86.88
306.582	91.88
306.812	89.88
307.042	84.88
307.272	89.88
307.502	90.88
307.731	97.88
307.961	100.88
308.191	90.88
308.421	105.88
308.651	96.88
308.881	96.88
309.111	107.88
309.341	104.88
309.571	112.88
309.8	107.88
310.03	89.88
310.26	79.88
310.49	94.88
310.72	82.88
310.949	89.88
311.179	88.88
311.409	96.88
311.639	93.88
311.868	93.88
312.098	74.88
312.328	85.88
312.557	107.88
312.787	81.88
313.017	82.88
313.246	98.88
313.476	84.88
313.706	99.88
313.935	88.88
314.165	93.88
314.394	80.88
314.624	87.88
314.853	79.88
315.083	81.88
315.312	94.88
315.542	85.88
315.771	91.88
316.001	82.88
316.23	101.88
316.46	100.88
316.689	102.88
316.919	88.88
317.148	84.88
317.377	92.88
317.607	103.88
317.836	114.88
318.065	105.88
318.295	98.88
318.524	100.88
318.753	92.88
318.983	88.88
319.212	99.88
319.441	93.88
319.67	94.88
319.9	87.88
320.129	98.88
320.358	80.88
320.587	91.88
320.816	82.88
321.046	94.88
321.275	88.88
321.504	97.88
321.733	100.88
321.962	93.88
322.191	91.88
322.42	89.88
322.649	100.88
322.878	103.88
323.108	89.88
323.337	94.88
323.566	97.88
323.795	77.88
324.024	85.88
324.253	74.88
324.482	89.88
324.71	84.88
324.939	99.88
325.168	90.88
325.397	83.88
325.626	88.88
325.855	91.88
326.084	81.88
326.313	99.88
326.542	98.88
326.77	101.88
326.999	98.88
327.228	94.88
327.457	84.88
327.686	97.88
327.914	87.88
328.143	82.88
328.372	87.88
328.6	88.88
328.829	81.88
329.058	91.88
329.287	78.88
329.515	81.88
329.744	90.88
329.972	93.88
330.201	101.88
330.43	98.88
330.658	94.88
330.887	98.88
331.115	95.88
331.344	89.88
331.572	107.88
331.801	86.88
332.03	85.88
332.258	106.88
332.486	86.88
332.715	89.88
332.943	81.88
333.172	81.88
333.4	83.88
333.629	94.88
333.857	98.88
334.085	84.88
334.314	109.88
334.542	84.88
334.771	106.88
334.999	106.88
335.227	112.88
335.455	99.88
335.684	108.88
335.912	106.88
336.14	118.88
336.369	123.88
336.597	101.88
336.825	105.88
337.053	108.88
337.281	108.88
337.51	97.88
337.738	100.88
337.966	87.88
338.194	100.88
338.422	90.88
338.65	94.88
338.878	83.88
339.106	84.88
339.334	87.88
339.562	88.88
339.79	83.88
340.018	96.88
340.246	85.88
340.474	94.88
340.702	83.88
340.93	91.88
341.158	94.88
341.386	80.88
341.614	67.88
341.842	79.88
342.07	91.88
342.298	86.88
342.526	92.88
342.754	101.88
342.981	89.88
343.209	82.88
343.437	113.88
343.665	96.88
343.893	97.88
344.12	107.88
344.348	92.88
344.576	93.88
344.804	104.88
345.031	92.88
345.259	72.88
345.487	93.88
345.714	84.88
345.942	87.88
346.17	96.88
346.397	84.88
346.625	88.88
346.853	77.88
347.08	96.88
347.308	99.88
347.535	97.88
347.763	98.88
347.99	97.88
348.218	78.88
348.445	81.88
348.673	103.88
348.9	112.88
349.128	94.88
349.355	83.88
349.583	97.88
349.81	85.88
350.037	91.88
350.265	80.88
350.492	76.88
350.72	85.88
350.947	75.88
351.174	93.88
351.402	90.88
351.629	99.88
351.856	91.88
352.083	84.88
352.311	93.88
352.538	86.88
352.765	85.88
352.992	96.88
353.22	78.88
353.447	90.88
353.674	91.88
353.901	91.88
354.128	98.88
354.355	93.88
354.583	94.88
354.81	85.88
355.037	75.88
355.264	92.88
355.491	91.88
355.718	83.88
355.945	87.88
356.172	83.88
356.399	98.88
356.626	87.88
356.853	94.88
357.08	85.88
357.307	101.88
357.534	97.88
357.761	92.88
357.988	109.88
358.215	119.88
358.441	109.88
358.668	103.88
358.895	94.88
359.122	76.88
359.349	89.88
359.576	89.88
359.802	78.88
360.029	103.88
360.256	99.88
360.483	97.88
360.709	106.88
360.936	113.88
361.163	99.88
361.39	92.88
361.616	91.88
361.843	98.88
362.07	122.88
362.296	128.88
362.523	135.88
362.749	146.88
362.976	155.88
363.203	159.88
363.429	133.88
363.656	107.88
363.882	130.88
364.109	164.88
364.335	207.88
364.562	222.88
364.788	157.88
365.015	110.88
365.241	101.88
365.468	98.88
365.694	99.88
365.92	82.88
366.147	95.88
366.373	96.88
366.599	100.88
366.826	100.88
367.052	96.88
367.278	99.88
367.505	107.88
367.731	100.88
367.957	96.88
368.184	113.88
368.41	93.88
368.636	96.88
368.862	84.88
369.089	83.88
369.315	88.88
369.541	88.88
369.767	97.88
369.993	90.88
370.219	88.88
370.445	94.88
370.672	99.88
370.898	112.88
371.124	93.88
371.35	93.88
371.576	82.88
371.802	110.88
372.028	92.88
372.254	89.88
372.48	112.88
372.706	82.88
372.932	96.88
373.158	100.88
373.384	131.88
373.61	120.88
373.835	113.88
374.061	101.88
374.287	94.88
374.513	115.88
374.739	102.88
374.965	125.88
375.191	103.88
375.416	114.88
375.642	105.88
375.868	100.88
376.094	85.88
376.319	92.88
376.545	80.88
376.771	93.88
376.997	92.88
377.222	87.88
377.448	104.88
377.674	95.88
377.899	94.88
378.125	89.88
378.35	89.88
378.576	93.88
378.802	87.88
379.027	93.88
379.253	94.88
379.478	101.88
379.704	85.88
379.929	101.88
380.155	95.88
380.38	99.88
380.606	90.88
380.831	81.88
381.057	108.88
381.282	93.88
381.507	88.88
381.733	107.88
381.958	91.88
382.184	98.88
382.409	98.88
382.634	102.88
382.86	106.88
383.085	112.88
383.31	118.88
383.535	115.88
383.761	109.88
383.986	120.88
384.211	107.88
384.436	93.88
384.662	92.88
384.887	123.88
385.112	109.88
385.337	96.88
385.562	97.88
385.787	105.88
386.013	125.88
386.238	105.88
386.463	98.88
386.688	129.88
386.913	87.88
387.138	100.88
387.363	84.88
387.588	118.88
387.813	104.88
388.038	108.88
388.263	109.88
388.488	108.88
388.713	108.88
388.938	95.88
389.163	95.88
389.387	110.88
389.612	109.88
389.837	105.88
390.062	90.88
390.287	103.88
390.512	93.88
390.736	106.88
390.961	106.88
391.186	95.88
391.411	96.88
391.636	104.88
391.86	100.88
392.085	98.88
392.31	121.88
392.534	129.88
392.759	152.88
392.984	234.88
393.208	381.88
393.433	548.88
393.658	425.88
393.882	210.88
394.107	157.88
394.331	164.88
394.556	176.88
394.78	139.88
395.005	131.88
395.229	97.88
395.454	118.88
395.678	137.88
395.903	188.88
396.127	227.88
396.352	254.88
396.576	252.88
396.801	389.88
397.025	436.88
397.249	262.88
397.474	177.88
397.698	134.88
397.922	120.88
398.147	100.88
398.371	98.88
398.595	105.88
398.82	106.88
399.044	99.88
399.268	106.88
399.492	96.88
399.717	102.88
399.941	91.88
400.165	100.88
400.389	89.88
400.613	104.88
400.837	88.88
401.062	92.88
401.286	99.88
401.51	87.88
401.734	102.88
401.958	93.88
402.182	77.88
402.406	83.88
402.63	91.88
402.854	91.88
403.078	93.88
403.302	99.88
403.526	98.88
403.75	100.88
403.974	102.88
404.198	123.88
404.422	181.88
404.645	208.88
404.869	155.88
405.093	117.88
405.317	96.88
405.541	92.88
405.765	93.88
405.988	104.88
406.212	102.88
406.436	100.88
406.66	100.88
406.883	94.88
407.107	94.88
407.331	93.88
407.555	113.88
407.778	145.88
408.002	137.88
408.226	102.88
408.449	90.88
408.673	72.88
408.896	88.88
409.12	94.88
409.344	103.88
409.567	113.88
409.791	139.88
410.014	120.88
410.238	120.88
410.461	91.88
410.685	97.88
410.908	84.88
411.132	81.88
411.355	97.88
411.578	98.88
411.802	98.88
412.025	100.88
412.249	101.88
412.472	87.88
412.695	90.88
412.919	100.88
413.142	92.88
413.365	89.88
413.589	83.88
413.812	94.88
414.035	94.88
414.258	86.88
414.482	96.88
414.705	98.88
414.928	80.88
415.151	91.88
415.374	101.88
415.597	82.88
415.821	100.88
416.044	86.88
416.267	94.88
416.49	84.88
416.713	83.88
416.936	89.88
417.159	88.88
417.382	76.88
417.605	101.88
417.828	90.88
418.051	103.88
418.274	92.88
418.497	86.88
418.72	91.88
418.943	100.88
419.166	100.88
419.389	99.88
419.611	99.88
419.834	104.88
420.057	101.88
420.28	101.88
420.503	99.88
420.726	89.88
420.948	97.88
421.171	125.88
421.394	134.88
421.617	157.88
421.839	173.88
422.062	201.88
422.285	320.88
422.507	506.88
422.73	661.88
422.953	620.88
423.175	380.88
423.398	237.88
423.621	163.88
423.843	150.88
424.066	143.88
424.288	120.88
424.511	116.88
424.733	104.88
424.956	88.88
425.178	108.88
425.401	110.88
425.623	114.88
425.846	100.88
426.068	88.88
426.291	98.88
426.513	92.88
426.735	97.88
426.958	95.88
427.18	110.88
427.402	104.88
427.625	100.88
427.847	126.88
428.069	130.88
428.292	195.88
428.514	249.88
428.736	154.88
428.958	197.88
429.181	198.88
429.403	122.88
429.625	127.88
429.847	196.88
430.069	278.88
430.292	354.88
430.514	308.88
430.736	235.88
430.958	240.88
431.18	126.88
431.402	106.88
431.624	123.88
431.846	193.88
432.068	230.88
432.29	135.88
432.512	83.88
432.734	84.88
432.956	84.88
433.178	93.88
433.4	80.88
433.622	105.88
433.844	94.88
434.066	83.88
434.287	98.88
434.509	84.88
434.731	90.88
434.953	75.88
435.175	91.88
435.397	114.88
435.618	104.88
435.84	94.88
436.062	94.88
436.284	104.88
436.505	97.88
436.727	101.88
436.949	80.88
437.17	88.88
437.392	76.88
437.614	86.88
437.835	80.88
438.057	87.88
438.278	86.88
438.5	98.88
438.721	94.88
438.943	104.88
439.165	70.88
439.386	86.88
439.608	90.88
439.829	102.88
440.05	96.88
440.272	86.88
440.493	105.88
440.715	92.88
440.936	93.88
441.158	93.88
441.379	97.88
441.6	91.88
441.822	97.88
442.043	109.88
442.264	140.88
442.486	236.88
442.707	334.88
442.928	204.88
443.149	163.88
443.371	284.88
443.592	531.88
443.813	427.88
444.034	182.88
444.255	132.88
444.476	100.88
444.698	128.88
444.919	121.88
445.14	276.88
445.361	389.88
445.582	650.88
445.803	528.88
446.024	206.88
446.245	112.88
446.466	104.88
446.687	84.88
446.908	88.88
447.129	83.88
447.35	100.88
447.571	97.88
447.792	98.88
448.013	88.88
448.234	94.88
448.455	103.88
448.675	94.88
448.896	101.88
449.117	109.88
449.338	92.88
449.559	74.88
449.779	82.88
450	98.88
450.221	96.88
450.442	73.88
450.662	90.88
450.883	94.88
451.104	81.88
451.324	94.88
451.545	89.88
451.766	99.88
451.986	107.88
452.207	104.88
452.428	108.88
452.648	117.88
452.869	128.88
453.089	128.88
453.31	114.88
453.53	117.88
453.751	126.88
453.971	95.88
454.192	90.88
454.412	80.88
454.633	78.88
454.853	100.88
455.073	87.88
455.294	86.88
455.514	98.88
455.734	100.88
455.955	85.88
456.175	92.88
456.395	94.88
456.616	85.88
456.836	93.88
457.056	86.88
457.276	87.88
457.497	83.88
457.717	104.88
457.937	152.88
458.157	218.88
458.377	218.88
458.598	194.88
458.818	226.88
459.038	131.88
459.258	112.88
459.478	96.88
459.698	89.88
459.918	77.88
460.138	96.88
460.358	89.88
460.578	119.88
460.798	167.88
461.018	162.88
461.238	105.88
461.458	90.88
461.678	95.88
461.898	86.88
462.118	90.88
462.338	86.88
462.558	98.88
462.777	74.88
462.997	91.88
463.217	90.88
463.437	77.88
463.657	95.88
463.876	93.88
464.096	98.88
464.316	73.88
464.536	82.88
464.755	89.88
464.975	69.88
465.195	94.88
465.414	68.88
465.634	93.88
465.854	88.88
466.073	91.88
466.293	91.88
466.512	94.88
466.732	88.88
466.951	86.88
467.171	92.88
467.391	80.88
467.61	80.88
467.829	89.88
468.049	97.88
468.268	89.88
468.488	96.88
468.707	100.88
468.927	97.88
469.146	91.88
469.365	85.88
469.585	82.88
469.804	95.88
470.023	98.88
470.243	82.88
470.462	94.88
470.681	86.88
470.901	86.88
471.12	92.88
471.339	87.88
471.558	92.88
471.777	84.88
471.997	94.88
472.216	102.88
472.435	98.88
472.654	88.88
472.873	96.88
473.092	85.88
473.311	87.88
473.53	89.88
473.749	98.88
473.968	87.88
474.187	91.88
474.406	84.88
474.625	75.88
474.844	88.88
475.063	85.88
475.282	82.88
475.501	89.88
475.72	106.88
475.939	97.88
476.158	114.88
476.377	93.88
476.596	84.88
476.814	89.88
477.033	97.88
477.252	97.88
477.471	90.88
477.69	76.88
477.908	84.88
478.127	101.88
478.346	79.88
478.564	86.88
478.783	95.88
479.002	100.88
479.22	89.88
479.439	95.88
479.658	91.88
479.876	93.88
480.095	93.88
480.313	98.88
480.532	94.88
480.751	84.88
480.969	85.88
481.188	74.88
481.406	116.88
481.624	100.88
481.843	91.88
482.061	104.88
482.28	93.88
482.498	105.88
482.717	92.88
482.935	82.88
483.153	103.88
483.372	96.88
483.59	96.88
483.808	87.88
484.027	112.88
484.245	110.88
484.463	99.88
484.681	93.88
484.9	107.88
485.118	97.88
485.336	103.88
485.554	93.88
485.772	93.88
485.99	101.88
486.209	105.88
486.427	85.88
486.645	103.88
486.863	92.88
487.081	95.88
487.299	110.88
487.517	134.88
487.735	165.88
487.953	318.88
488.171	269.88
488.389	131.88
488.607	104.88
488.825	95.88
489.043	84.88
489.261	89.88
489.479	109.88
489.696	91.88
489.914	113.88
490.132	76.88
490.35	88.88
490.568	105.88
490.786	86.88
491.003	87.88
491.221	82.88
491.439	88.88
491.657	96.88
491.874	87.88
492.092	116.88
492.31	100.88
492.527	102.88
492.745	83.88
492.963	97.88
493.18	96.88
493.398	113.88
493.615	90.88
493.833	85.88
494.05	95.88
494.268	92.88
494.485	92.88
494.703	98.88
494.92	86.88
495.138	98.88
495.355	89.88
495.573	86.88
495.79	100.88
496.008	103.88
496.225	107.88
496.442	110.88
496.66	91.88
496.877	89.88
497.094	108.88
497.312	98.88
497.529	101.88
497.746	109.88
497.963	87.88
498.181	110.88
498.398	132.88
498.615	86.88
498.832	90.88
499.049	99.88
499.267	143.88
499.484	94.88
499.701	98.88
499.918	117.88
500.135	108.88
500.352	107.88
500.569	100.88
500.786	116.88
501.003	123.88
501.22	92.88
501.437	109.88
501.654	100.88
501.871	101.88
502.088	103.88
502.305	97.88
502.522	87.88
502.739	102.88
502.956	101.88
503.172	94.88
503.389	92.88
503.606	107.88
503.823	115.88
504.04	142.88
504.256	225.88
504.473	198.88
504.69	152.88
504.907	124.88
505.123	104.88
505.34	89.88
505.557	92.88
505.773	103.88
505.99	96.88
506.207	91.88
506.423	98.88
506.64	92.88
506.856	95.88
507.073	88.88
507.289	94.88
507.506	89.88
507.722	90.88
507.939	108.88
508.155	90.88
508.372	96.88
508.588	87.88
508.805	90.88
509.021	77.88
509.238	108.88
509.454	92.88
509.67	90.88
509.887	82.88
510.103	109.88
510.319	106.88
510.536	92.88
510.752	84.88
510.968	95.88
511.184	96.88
511.401	98.88
511.617	109.88
511.833	100.88
512.049	101.88
512.265	99.88
512.481	104.88
512.698	100.88
512.914	92.88
513.13	88.88
513.346	89.88
513.562	91.88
513.778	96.88
513.994	95.88
514.21	113.88
514.426	84.88
514.642	100.88
514.858	103.88
515.074	104.88
515.29	93.88
515.506	83.88
515.721	93.88
515.937	102.88
516.153	100.88
516.369	85.88
516.585	103.88
516.801	118.88
517.016	93.88
517.232	94.88
517.448	107.88
517.664	108.88
517.879	89.88
518.095	114.88
518.311	109.88
518.527	139.88
518.742	138.88
518.958	279.88
519.173	288.88
519.389	153.88
519.605	124.88
519.82	92.88
520.036	91.88
520.251	97.88
520.467	89.88
520.682	91.88
520.898	96.88
521.113	81.88
521.329	108.88
521.544	100.88
521.76	97.88
521.975	88.88
522.19	84.88
522.406	94.88
522.621	90.88
522.836	100.88
523.052	90.88
523.267	102.88
523.482	90.88
523.698	108.88
523.913	105.88
524.128	101.88
524.343	105.88
524.559	97.88
524.774	96.88
524.989	89.88
525.204	96.88
525.419	98.88
525.634	110.88
525.849	135.88
526.064	197.88
526.28	467.88
526.495	716.88
526.71	800.88
526.925	518.88
527.14	600.88
527.355	588.88
527.57	173.88
527.785	105.88
527.999	90.88
528.214	106.88
528.429	108.88
528.644	95.88
528.859	97.88
529.074	96.88
529.289	101.88
529.503	112.88
529.718	100.88
529.933	113.88
530.148	103.88
530.363	102.88
530.577	94.88
530.792	95.88
531.007	91.88
531.221	97.88
531.436	99.88
531.651	115.88
531.865	85.88
532.08	100.88
532.295	108.88
532.509	93.88
532.724	104.88
532.938	112.88
533.153	98.88
533.367	99.88
533.582	107.88
533.796	105.88
534.011	107.88
534.225	117.88
534.44	101.88
534.654	132.88
534.868	148.88
535.083	317.88
535.297	259.88
535.511	128.88
535.726	102.88
535.94	112.88
536.154	114.88
536.369	122.88
536.583	106.88
536.797	120.88
537.011	102.88
537.225	112.88
537.44	105.88
537.654	114.88
537.868	108.88
538.082	106.88
538.296	100.88
538.51	108.88
538.724	113.88
538.938	123.88
539.153	105.88
539.367	96.88
539.581	109.88
539.795	108.88
540.009	99.88
540.222	108.88
540.436	105.88
540.65	107.88
540.864	100.88
541.078	112.88
541.292	105.88
541.506	102.88
541.72	124.88
541.934	112.88
542.147	96.88
542.361	110.88
542.575	117.88
542.789	96.88
543.002	114.88
543.216	112.88
543.43	105.88
543.644	117.88
543.857	109.88
544.071	110.88
544.285	115.88
544.498	89.88
544.712	112.88
544.925	116.88
545.139	110.88
545.352	116.88
545.566	112.88
545.779	115.88
545.993	112.88
546.206	115.88
546.42	123.88
546.633	118.88
546.847	129.88
547.06	148.88
547.274	148.88
547.487	188.88
547.7	181.88
547.914	199.88
548.127	192.88
548.34	228.88
548.554	215.88
548.767	198.88
548.98	214.88
549.193	198.88
549.407	208.88
549.62	225.88
549.833	219.88
550.046	255.88
550.259	264.88
550.473	241.88
550.686	284.88
550.899	314.88
551.112	332.88
551.325	361.88
551.538	398.88
551.751	343.88
551.964	318.88
552.177	298.88
552.39	296.88
552.603	299.88
552.816	299.88
553.029	293.88
553.242	299.88
553.455	293.88
553.667	337.88
553.88	340.88
554.093	316.88
554.306	325.88
554.519	325.88
554.732	337.88
554.944	320.88
555.157	316.88
555.37	300.88
555.583	282.88
555.795	279.88
556.008	263.88
556.221	236.88
556.433	237.88
556.646	227.88
556.859	212.88
557.071	220.88
557.284	204.88
557.496	178.88
557.709	192.88
557.921	201.88
558.134	194.88
558.346	336.88
558.559	313.88
558.771	267.88
558.984	608.88
559.196	808.88
559.409	400.88
559.621	602.88
559.833	479.88
560.046	570.88
560.258	459.88
560.47	461.88
560.683	225.88
560.895	148.88
561.107	129.88
561.32	107.88
561.532	112.88
561.744	122.88
561.956	124.88
562.168	108.88
562.381	109.88
562.593	110.88
562.805	106.88
563.017	118.88
563.229	116.88
563.441	115.88
563.653	104.88
563.865	104.88
564.077	122.88
564.289	104.88
564.501	122.88
564.713	107.88
564.925	116.88
565.137	106.88
565.349	106.88
565.561	98.88
565.773	105.88
565.985	98.88
566.197	111.88
566.408	108.88
566.62	103.88
566.832	115.88
567.044	108.88
567.255	119.88
567.467	122.88
567.679	113.88
567.891	129.88
568.102	88.88
568.314	116.88
568.526	116.88
568.737	131.88
568.949	136.88
569.161	151.88
569.372	125.88
569.584	114.88
569.795	96.88
570.007	104.88
570.218	116.88
570.43	118.88
570.641	99.88
570.853	106.88
571.064	108.88
571.276	99.88
571.487	102.88
571.698	109.88
571.91	115.88
572.121	98.88
572.333	100.88
572.544	120.88
572.755	108.88
572.966	113.88
573.178	94.88
573.389	100.88
573.6	92.88
573.811	107.88
574.023	101.88
574.234	112.88
574.445	110.88
574.656	102.88
574.867	98.88
575.078	108.88
575.289	118.88
575.501	94.88
575.712	98.88
575.923	99.88
576.134	103.88
576.345	96.88
576.556	106.88
576.767	119.88
576.978	101.88
577.188	94.88
577.399	101.88
577.61	93.88
577.821	110.88
578.032	103.88
578.243	100.88
578.454	119.88
578.665	104.88
578.875	99.88
579.086	105.88
579.297	100.88
579.508	94.88
579.718	104.88
579.929	103.88
580.14	108.88
580.35	113.88
580.561	124.88
580.772	128.88
580.982	106.88
581.193	105.88
581.403	97.88
581.614	113.88
581.825	105.88
582.035	102.88
582.246	113.88
582.456	107.88
582.667	101.88
582.877	102.88
583.087	100.88
583.298	128.88
583.508	102.88
583.719	108.88
583.929	113.88
584.139	105.88
584.35	105.88
584.56	106.88
584.77	104.88
584.981	103.88
585.191	113.88
585.401	120.88
585.611	129.88
585.821	290.88
586.032	524.88
586.242	223.88
586.452	141.88
586.662	130.88
586.872	122.88
587.082	121.88
587.292	128.88
587.502	116.88
587.713	120.88
587.923	114.88
588.133	143.88
588.343	149.88
588.553	201.88
588.762	254.88
588.972	517.88
589.182	1037.88
589.392	794.88
589.602	580.88
589.812	896.88
590.022	525.88
590.232	251.88
590.441	185.88
590.651	144.88
590.861	146.88
591.071	132.88
591.281	124.88
591.49	134.88
591.7	125.88
591.91	118.88
592.119	129.88
592.329	117.88
592.539	120.88
592.748	120.88
592.958	121.88
593.167	132.88
593.377	142.88
593.587	140.88
593.796	124.88
594.006	134.88
594.215	132.88
594.424	139.88
594.634	145.88
594.843	145.88
595.053	151.88
595.262	170.88
595.472	157.88
595.681	169.88
595.89	162.88
596.1	165.88
596.309	176.88
596.518	193.88
596.727	173.88
596.937	194.88
597.146	202.88
597.355	202.88
597.564	178.88
597.774	203.88
597.983	198.88
598.192	196.88
598.401	198.88
598.61	218.88
598.819	216.88
599.028	220.88
599.237	222.88
599.446	229.88
599.655	224.88
599.864	221.88
600.073	217.88
600.282	225.88
600.491	238.88
600.7	245.88
600.909	232.88
601.118	212.88
601.327	211.88
601.536	179.88
601.745	211.88
601.953	199.88
602.162	193.88
602.371	203.88
602.58	184.88
602.789	208.88
602.997	195.88
603.206	204.88
603.415	209.88
603.623	218.88
603.832	231.88
604.041	216.88
604.249	214.88
604.458	216.88
604.666	222.88
604.875	229.88
605.084	255.88
605.292	221.88
605.501	237.88
605.709	257.88
605.918	266.88
606.126	262.88
606.334	272.88
606.543	268.88
606.751	267.88
606.96	260.88
607.168	233.88
607.376	249.88
607.585	267.88
607.793	253.88
608.001	241.88
608.21	241.88
608.418	258.88
608.626	256.88
608.834	270.88
609.043	292.88
609.251	276.88
609.459	264.88
609.667	277.88
609.875	306.88
610.083	328.88
610.291	341.88
610.499	548.88
610.707	360.88
610.916	273.88
611.124	256.88
611.332	282.88
611.54	262.88
611.748	284.88
611.955	284.88
612.163	348.88
612.371	644.88
612.579	577.88
612.787	369.88
612.995	328.88
613.203	283.88
613.411	289.88
613.618	277.88
613.826	273.88
614.034	286.88
614.242	306.88
614.449	292.88
614.657	316.88
614.865	303.88
615.072	295.88
615.28	292.88
615.488	293.88
615.695	305.88
615.903	321.88
616.111	371.88
616.318	652.88
616.526	809.88
616.733	486.88
616.941	435.88
617.148	554.88
617.356	423.88
617.563	315.88
617.771	294.88
617.978	279.88
618.185	273.88
618.393	274.88
618.6	274.88
618.807	244.88
619.015	249.88
619.222	265.88
619.429	249.88
619.637	266.88
619.844	254.88
620.051	268.88
620.258	258.88
620.466	258.88
620.673	272.88
620.88	254.88
621.087	277.88
621.294	271.88
621.501	267.88
621.708	283.88
621.915	262.88
622.122	260.88
622.329	263.88
622.536	291.88
622.743	274.88
622.95	286.88
623.157	259.88
623.364	307.88
623.571	297.88
623.778	299.88
623.985	297.88
624.192	316.88
624.399	314.88
624.606	334.88
624.812	342.88
625.019	326.88
625.226	304.88
625.433	288.88
625.639	279.88
625.846	284.88
626.053	278.88
626.259	262.88
626.466	268.88
626.673	270.88
626.879	260.88
627.086	291.88
627.293	293.88
627.499	259.88
627.706	244.88
627.912	221.88
628.119	188.88
628.325	183.88
628.532	161.88
628.738	150.88
628.945	149.88
629.151	133.88
629.357	114.88
629.564	135.88
629.77	145.88
629.976	124.88
630.183	114.88
630.389	106.88
630.595	122.88
630.802	124.88
631.008	122.88
631.214	129.88
631.42	122.88
631.627	133.88
631.833	119.88
632.039	106.88
632.245	131.88
632.451	125.88
632.657	110.88
632.863	108.88
633.069	103.88
633.275	118.88
633.481	122.88
633.688	116.88
633.893	126.88
634.099	123.88
634.305	136.88
634.511	140.88
634.717	131.88
634.923	120.88
635.129	127.88
635.335	125.88
635.541	136.88
635.747	133.88
635.952	133.88
636.158	134.88
636.364	138.88
636.57	121.88
636.775	134.88
636.981	132.88
637.187	136.88
637.392	119.88
637.598	128.88
637.804	126.88
638.009	114.88
638.215	122.88
638.421	104.88
638.626	110.88
638.832	104.88
639.037	118.88
639.243	116.88
639.448	124.88
639.654	117.88
639.859	115.88
640.065	108.88
640.27	124.88
640.475	129.88
640.681	108.88
640.886	100.88
641.091	108.88
641.297	107.88
641.502	109.88
641.707	101.88
641.913	109.88
642.118	96.88
642.323	101.88
642.528	122.88
642.733	110.88
642.939	103.88
643.144	110.88
643.349	101.88
643.554	130.88
643.759	105.88
643.964	192.88
644.169	289.88
644.374	151.88
644.579	112.88
644.784	106.88
644.989	140.88
645.194	198.88
645.399	144.88
645.604	134.88
645.809	128.88
646.014	119.88
646.219	127.88
646.423	256.88
646.628	172.88
646.833	114.88
647.038	106.88
647.243	126.88
647.447	142.88
647.652	113.88
647.857	100.88
648.062	109.88
648.266	98.88
648.471	104.88
648.676	86.88
648.88	94.88
649.085	102.88
649.289	123.88
649.494	158.88
649.698	151.88
649.903	118.88
650.107	132.88
650.312	120.88
650.516	113.88
650.721	103.88
650.925	96.88
651.13	103.88
651.334	88.88
651.539	81.88
651.743	84.88
651.947	96.88
652.152	92.88
652.356	61.88
652.56	93.88
652.764	88.88
652.969	91.88
653.173	84.88
653.377	99.88
653.581	88.88
653.785	69.88
653.99	84.88
654.194	79.88
654.398	96.88
654.602	85.88
654.806	91.88
655.01	86.88
655.214	86.88
655.418	84.88
655.622	92.88
655.826	82.88
656.03	79.88
656.234	82.88
656.438	103.88
656.642	95.88
656.846	84.88
657.049	94.88
657.253	73.88
657.457	91.88
657.661	90.88
657.865	87.88
658.068	80.88
658.272	77.88
658.476	86.88
658.68	98.88
658.883	102.88
659.087	70.88
659.291	79.88
659.494	76.88
659.698	82.88
659.901	86.88
660.105	78.88
660.309	82.88
660.512	81.88
660.716	84.88
660.919	83.88
661.123	75.88
661.326	86.88
661.53	86.88
661.733	73.88
661.936	81.88
662.14	70.88
662.343	86.88
662.546	82.88
662.75	85.88
662.953	74.88
663.156	90.88
663.36	72.88
663.563	94.88
663.766	91.88
663.969	98.88
664.173	90.88
664.376	77.88
664.579	80.88
664.782	78.88
664.985	86.88
665.188	87.88
665.391	76.88
665.594	79.88
665.797	83.88
666	72.88
666.203	84.88
666.406	78.88
666.609	89.88
666.812	64.88
667.015	68.88
667.218	89.88
667.421	82.88
667.624	86.88
667.827	79.88
668.03	86.88
668.232	84.88
668.435	92.88
668.638	74.88
668.841	85.88
669.043	76.88
669.246	90.88
669.449	78.88
669.651	86.88
669.854	96.88
670.057	66.88
670.259	81.88
670.462	83.88
670.665	97.88
670.867	82.88
671.07	76.88
671.272	84.88
671.475	101.88
671.677	87.88
671.88	88.88
672.082	78.88
672.284	78.88
672.487	85.88
672.689	72.88
672.892	78.88
