Data from 2145_3_HRD10591_00035.txt Node
Date: Mon Jan 19 14:23:24 EST 2026
User: Yrep
Spectrometer: HR+D1059
Trigger mode: 1
Integration Time (sec): 1.000000E-1
Scans to average: 1
Electric dark correction enabled: true
Nonlinearity correction enabled: false
Boxcar width: 0
XAxis mode: Wavelengths
Number of Pixels in Spectrum: 2048
>>>>>Begin Spectral Data<<<<<
223.165	-15.5
223.4	-15.5
223.635	-15.5
223.869	-18.5
224.104	-16.5
224.338	-18.5
224.573	-15.5
224.808	-12.5
225.042	-8.5
225.277	-15.5
225.511	-1.5
225.746	1.5
225.98	5.5
226.215	21.5
226.449	16.5
226.683	5.5
226.918	38.5
227.152	33.5
227.387	37.5
227.621	36.5
227.856	49.5
228.09	52.5
228.324	45.5
228.559	46.5
228.793	50.5
229.027	58.5
229.262	71.5
229.496	67.5
229.73	67.5
229.964	56.5
230.199	65.5
230.433	81.5
230.667	81.5
230.901	52.5
231.136	82.5
231.37	69.5
231.604	67.5
231.838	62.5
232.072	62.5
232.306	72.5
232.541	79.5
232.775	88.5
233.009	75.5
233.243	78.5
233.477	57.5
233.711	77.5
233.945	88.5
234.179	79.5
234.413	76.5
234.647	75.5
234.881	78.5
235.115	61.5
235.349	73.5
235.583	79.5
235.817	83.5
236.051	67.5
236.285	73.5
236.519	71.5
236.753	64.5
236.987	73.5
237.221	83.5
237.455	68.5
237.689	59.5
237.922	69.5
238.156	75.5
238.39	70.5
238.624	69.5
238.858	72.5
239.091	75.5
239.325	76.5
239.559	88.5
239.793	72.5
240.027	69.5
240.26	69.5
240.494	79.5
240.728	82.5
240.961	67.5
241.195	78.5
241.429	75.5
241.662	76.5
241.896	65.5
242.13	65.5
242.363	72.5
242.597	62.5
242.83	78.5
243.064	72.5
243.298	66.5
243.531	89.5
243.765	79.5
243.998	81.5
244.232	77.5
244.465	77.5
244.699	65.5
244.932	76.5
245.166	54.5
245.399	77.5
245.633	82.5
245.866	81.5
246.099	76.5
246.333	79.5
246.566	74.5
246.8	68.5
247.033	65.5
247.266	81.5
247.5	82.5
247.733	82.5
247.966	80.5
248.2	78.5
248.433	77.5
248.666	72.5
248.899	65.5
249.133	80.5
249.366	70.5
249.599	84.5
249.832	85.5
250.066	83.5
250.299	85.5
250.532	77.5
250.765	74.5
250.998	64.5
251.231	64.5
251.465	73.5
251.698	77.5
251.931	69.5
252.164	81.5
252.397	78.5
252.63	81.5
252.863	86.5
253.096	78.5
253.329	82.5
253.562	73.5
253.795	75.5
254.028	81.5
254.261	65.5
254.494	76.5
254.727	87.5
254.96	70.5
255.193	71.5
255.426	80.5
255.659	78.5
255.892	75.5
256.124	79.5
256.357	73.5
256.59	75.5
256.823	79.5
257.056	77.5
257.289	79.5
257.521	68.5
257.754	79.5
257.987	63.5
258.22	99.5
258.452	70.5
258.685	71.5
258.918	85.5
259.151	75.5
259.383	73.5
259.616	74.5
259.849	67.5
260.081	90.5
260.314	86.5
260.547	77.5
260.779	96.5
261.012	71.5
261.244	82.5
261.477	78.5
261.71	83.5
261.942	88.5
262.175	73.5
262.407	83.5
262.64	72.5
262.872	77.5
263.105	75.5
263.337	74.5
263.57	79.5
263.802	81.5
264.035	88.5
264.267	81.5
264.499	83.5
264.732	79.5
264.964	70.5
265.197	74.5
265.429	65.5
265.661	79.5
265.894	69.5
266.126	73.5
266.358	81.5
266.591	93.5
266.823	75.5
267.055	88.5
267.287	79.5
267.52	73.5
267.752	87.5
267.984	81.5
268.216	67.5
268.448	83.5
268.681	92.5
268.913	88.5
269.145	83.5
269.377	91.5
269.609	82.5
269.841	76.5
270.073	72.5
270.306	79.5
270.538	77.5
270.77	75.5
271.002	79.5
271.234	86.5
271.466	95.5
271.698	81.5
271.93	73.5
272.162	86.5
272.394	91.5
272.626	68.5
272.858	73.5
273.09	78.5
273.322	77.5
273.553	69.5
273.785	70.5
274.017	73.5
274.249	84.5
274.481	74.5
274.713	83.5
274.945	93.5
275.176	77.5
275.408	85.5
275.64	90.5
275.872	87.5
276.104	90.5
276.335	79.5
276.567	82.5
276.799	80.5
277.031	78.5
277.262	81.5
277.494	95.5
277.726	97.5
277.957	86.5
278.189	95.5
278.421	90.5
278.652	87.5
278.884	69.5
279.115	72.5
279.347	77.5
279.579	84.5
279.81	79.5
280.042	74.5
280.273	94.5
280.505	80.5
280.736	87.5
280.968	81.5
281.199	80.5
281.431	71.5
281.662	74.5
281.894	88.5
282.125	71.5
282.356	80.5
282.588	65.5
282.819	89.5
283.051	86.5
283.282	80.5
283.513	91.5
283.745	75.5
283.976	92.5
284.207	73.5
284.439	78.5
284.67	93.5
284.901	75.5
285.132	72.5
285.364	87.5
285.595	88.5
285.826	80.5
286.057	88.5
286.288	100.5
286.52	86.5
286.751	84.5
286.982	75.5
287.213	85.5
287.444	77.5
287.675	73.5
287.906	84.5
288.138	86.5
288.369	79.5
288.6	83.5
288.831	67.5
289.062	75.5
289.293	81.5
289.524	72.5
289.755	90.5
289.986	85.5
290.217	80.5
290.448	94.5
290.679	65.5
290.91	77.5
291.141	79.5
291.371	91.5
291.602	73.5
291.833	87.5
292.064	77.5
292.295	78.5
292.526	81.5
292.757	72.5
292.987	73.5
293.218	78.5
293.449	75.5
293.68	91.5
293.91	65.5
294.141	79.5
294.372	84.5
294.603	91.5
294.833	78.5
295.064	85.5
295.295	81.5
295.525	78.5
295.756	91.5
295.987	84.5
296.217	85.5
296.448	94.5
296.679	79.5
296.909	85.5
297.14	89.5
297.37	76.5
297.601	84.5
297.831	79.5
298.062	87.5
298.292	84.5
298.523	88.5
298.753	70.5
298.984	81.5
299.214	71.5
299.445	87.5
299.675	104.5
299.905	91.5
300.136	98.5
300.366	85.5
300.597	91.5
300.827	95.5
301.057	97.5
301.288	79.5
301.518	78.5
301.748	88.5
301.979	89.5
302.209	84.5
302.439	99.5
302.669	79.5
302.9	90.5
303.13	71.5
303.36	73.5
303.59	77.5
303.82	82.5
304.051	78.5
304.281	87.5
304.511	91.5
304.741	85.5
304.971	81.5
305.201	69.5
305.431	88.5
305.661	81.5
305.891	91.5
306.121	82.5
306.352	81.5
306.582	76.5
306.812	81.5
307.042	76.5
307.272	84.5
307.502	77.5
307.731	91.5
307.961	85.5
308.191	79.5
308.421	87.5
308.651	85.5
308.881	90.5
309.111	82.5
309.341	104.5
309.571	105.5
309.8	100.5
310.03	83.5
310.26	77.5
310.49	79.5
310.72	67.5
310.949	80.5
311.179	89.5
311.409	84.5
311.639	83.5
311.868	83.5
312.098	68.5
312.328	65.5
312.557	77.5
312.787	80.5
313.017	81.5
313.246	79.5
313.476	79.5
313.706	75.5
313.935	80.5
314.165	84.5
314.394	70.5
314.624	70.5
314.853	83.5
315.083	86.5
315.312	95.5
315.542	94.5
315.771	87.5
316.001	87.5
316.23	83.5
316.46	91.5
316.689	80.5
316.919	79.5
317.148	77.5
317.377	92.5
317.607	98.5
317.836	87.5
318.065	81.5
318.295	89.5
318.524	76.5
318.753	84.5
318.983	76.5
319.212	81.5
319.441	96.5
319.67	88.5
319.9	82.5
320.129	76.5
320.358	73.5
320.587	89.5
320.816	79.5
321.046	73.5
321.275	83.5
321.504	85.5
321.733	80.5
321.962	82.5
322.191	80.5
322.42	80.5
322.649	85.5
322.878	73.5
323.108	76.5
323.337	87.5
323.566	97.5
323.795	94.5
324.024	81.5
324.253	90.5
324.482	83.5
324.71	85.5
324.939	95.5
325.168	83.5
325.397	93.5
325.626	81.5
325.855	71.5
326.084	87.5
326.313	95.5
326.542	89.5
326.77	77.5
326.999	91.5
327.228	79.5
327.457	77.5
327.686	90.5
327.914	94.5
328.143	75.5
328.372	93.5
328.6	68.5
328.829	71.5
329.058	84.5
329.287	89.5
329.515	78.5
329.744	92.5
329.972	77.5
330.201	88.5
330.43	80.5
330.658	85.5
330.887	79.5
331.115	65.5
331.344	48.5
331.572	85.5
331.801	82.5
332.03	90.5
332.258	83.5
332.486	86.5
332.715	63.5
332.943	78.5
333.172	89.5
333.4	71.5
333.629	83.5
333.857	87.5
334.085	91.5
334.314	93.5
334.542	73.5
334.771	85.5
334.999	91.5
335.227	91.5
335.455	95.5
335.684	92.5
335.912	74.5
336.14	83.5
336.369	86.5
336.597	81.5
336.825	97.5
337.053	91.5
337.281	79.5
337.51	84.5
337.738	98.5
337.966	95.5
338.194	83.5
338.422	95.5
338.65	99.5
338.878	85.5
339.106	83.5
339.334	79.5
339.562	90.5
339.79	86.5
340.018	75.5
340.246	71.5
340.474	72.5
340.702	87.5
340.93	91.5
341.158	86.5
341.386	79.5
341.614	82.5
341.842	79.5
342.07	72.5
342.298	81.5
342.526	81.5
342.754	93.5
342.981	80.5
343.209	80.5
343.437	94.5
343.665	73.5
343.893	85.5
344.12	91.5
344.348	100.5
344.576	88.5
344.804	90.5
345.031	104.5
345.259	93.5
345.487	82.5
345.714	98.5
345.942	94.5
346.17	90.5
346.397	70.5
346.625	84.5
346.853	86.5
347.08	74.5
347.308	73.5
347.535	84.5
347.763	83.5
347.99	77.5
348.218	82.5
348.445	72.5
348.673	85.5
348.9	81.5
349.128	93.5
349.355	83.5
349.583	81.5
349.81	81.5
350.037	89.5
350.265	78.5
350.492	78.5
350.72	79.5
350.947	83.5
351.174	81.5
351.402	75.5
351.629	83.5
351.856	95.5
352.083	89.5
352.311	73.5
352.538	84.5
352.765	82.5
352.992	95.5
353.22	77.5
353.447	101.5
353.674	80.5
353.901	95.5
354.128	83.5
354.355	73.5
354.583	83.5
354.81	90.5
355.037	85.5
355.264	89.5
355.491	88.5
355.718	89.5
355.945	86.5
356.172	73.5
356.399	78.5
356.626	82.5
356.853	85.5
357.08	95.5
357.307	79.5
357.534	83.5
357.761	88.5
357.988	92.5
358.215	86.5
358.441	80.5
358.668	85.5
358.895	100.5
359.122	79.5
359.349	90.5
359.576	75.5
359.802	85.5
360.029	81.5
360.256	91.5
360.483	90.5
360.709	97.5
360.936	89.5
361.163	91.5
361.39	96.5
361.616	89.5
361.843	110.5
362.07	102.5
362.296	93.5
362.523	100.5
362.749	128.5
362.976	105.5
363.203	115.5
363.429	91.5
363.656	100.5
363.882	97.5
364.109	98.5
364.335	115.5
364.562	133.5
364.788	111.5
365.015	99.5
365.241	92.5
365.468	95.5
365.694	95.5
365.92	81.5
366.147	88.5
366.373	63.5
366.599	68.5
366.826	84.5
367.052	97.5
367.278	83.5
367.505	96.5
367.731	94.5
367.957	77.5
368.184	80.5
368.41	78.5
368.636	82.5
368.862	69.5
369.089	82.5
369.315	89.5
369.541	79.5
369.767	79.5
369.993	84.5
370.219	80.5
370.445	82.5
370.672	88.5
370.898	89.5
371.124	92.5
371.35	88.5
371.576	83.5
371.802	97.5
372.028	87.5
372.254	100.5
372.48	89.5
372.706	91.5
372.932	88.5
373.158	104.5
373.384	112.5
373.61	104.5
373.835	97.5
374.061	91.5
374.287	92.5
374.513	87.5
374.739	93.5
374.965	79.5
375.191	95.5
375.416	92.5
375.642	88.5
375.868	102.5
376.094	95.5
376.319	87.5
376.545	100.5
376.771	79.5
376.997	80.5
377.222	87.5
377.448	80.5
377.674	74.5
377.899	69.5
378.125	86.5
378.35	77.5
378.576	74.5
378.802	88.5
379.027	87.5
379.253	78.5
379.478	83.5
379.704	75.5
379.929	69.5
380.155	92.5
380.38	87.5
380.606	79.5
380.831	83.5
381.057	100.5
381.282	76.5
381.507	81.5
381.733	92.5
381.958	91.5
382.184	101.5
382.409	98.5
382.634	89.5
382.86	82.5
383.085	83.5
383.31	93.5
383.535	78.5
383.761	82.5
383.986	84.5
384.211	85.5
384.436	76.5
384.662	77.5
384.887	87.5
385.112	82.5
385.337	70.5
385.562	82.5
385.787	105.5
386.013	96.5
386.238	99.5
386.463	80.5
386.688	95.5
386.913	91.5
387.138	78.5
387.363	89.5
387.588	94.5
387.813	101.5
388.038	94.5
388.263	77.5
388.488	87.5
388.713	85.5
388.938	84.5
389.163	80.5
389.387	83.5
389.612	104.5
389.837	80.5
390.062	87.5
390.287	93.5
390.512	93.5
390.736	83.5
390.961	80.5
391.186	72.5
391.411	78.5
391.636	87.5
391.86	90.5
392.085	89.5
392.31	91.5
392.534	80.5
392.759	115.5
392.984	151.5
393.208	229.5
393.433	322.5
393.658	254.5
393.882	144.5
394.107	119.5
394.331	131.5
394.556	140.5
394.78	108.5
395.005	95.5
395.229	86.5
395.454	101.5
395.678	98.5
395.903	112.5
396.127	159.5
396.352	151.5
396.576	169.5
396.801	247.5
397.025	261.5
397.249	164.5
397.474	100.5
397.698	95.5
397.922	97.5
398.147	91.5
398.371	78.5
398.595	110.5
398.82	92.5
399.044	89.5
399.268	90.5
399.492	70.5
399.717	89.5
399.941	87.5
400.165	85.5
400.389	94.5
400.613	93.5
400.837	96.5
401.062	76.5
401.286	75.5
401.51	94.5
401.734	87.5
401.958	84.5
402.182	91.5
402.406	85.5
402.63	85.5
402.854	84.5
403.078	81.5
403.302	75.5
403.526	93.5
403.75	105.5
403.974	101.5
404.198	156.5
404.422	225.5
404.645	263.5
404.869	221.5
405.093	137.5
405.317	107.5
405.541	91.5
405.765	82.5
405.988	92.5
406.212	84.5
406.436	85.5
406.66	87.5
406.883	92.5
407.107	81.5
407.331	79.5
407.555	91.5
407.778	99.5
408.002	95.5
408.226	85.5
408.449	78.5
408.673	86.5
408.896	86.5
409.12	85.5
409.344	95.5
409.567	95.5
409.791	81.5
410.014	81.5
410.238	94.5
410.461	92.5
410.685	85.5
410.908	74.5
411.132	91.5
411.355	83.5
411.578	99.5
411.802	87.5
412.025	86.5
412.249	88.5
412.472	88.5
412.695	89.5
412.919	86.5
413.142	77.5
413.365	86.5
413.589	63.5
413.812	97.5
414.035	85.5
414.258	91.5
414.482	92.5
414.705	72.5
414.928	89.5
415.151	95.5
415.374	84.5
415.597	79.5
415.821	94.5
416.044	88.5
416.267	72.5
416.49	77.5
416.713	80.5
416.936	85.5
417.159	97.5
417.382	83.5
417.605	88.5
417.828	96.5
418.051	103.5
418.274	90.5
418.497	79.5
418.72	86.5
418.943	83.5
419.166	82.5
419.389	86.5
419.611	85.5
419.834	91.5
420.057	61.5
420.28	90.5
420.503	86.5
420.726	85.5
420.948	75.5
421.171	113.5
421.394	111.5
421.617	104.5
421.839	123.5
422.062	137.5
422.285	218.5
422.507	351.5
422.73	515.5
422.953	478.5
423.175	254.5
423.398	151.5
423.621	111.5
423.843	105.5
424.066	97.5
424.288	91.5
424.511	87.5
424.733	89.5
424.956	93.5
425.178	93.5
425.401	85.5
425.623	87.5
425.846	79.5
426.068	73.5
426.291	91.5
426.513	81.5
426.735	93.5
426.958	75.5
427.18	95.5
427.402	101.5
427.625	89.5
427.847	84.5
428.069	107.5
428.292	135.5
428.514	163.5
428.736	124.5
428.958	147.5
429.181	162.5
429.403	110.5
429.625	124.5
429.847	145.5
430.069	195.5
430.292	237.5
430.514	219.5
430.736	152.5
430.958	164.5
431.18	105.5
431.402	100.5
431.624	111.5
431.846	149.5
432.068	177.5
432.29	118.5
432.512	101.5
432.734	93.5
432.956	94.5
433.178	80.5
433.4	80.5
433.622	87.5
433.844	79.5
434.066	76.5
434.287	79.5
434.509	78.5
434.731	89.5
434.953	85.5
435.175	89.5
435.397	82.5
435.618	89.5
435.84	79.5
436.062	78.5
436.284	83.5
436.505	95.5
436.727	77.5
436.949	80.5
437.17	68.5
437.392	71.5
437.614	77.5
437.835	85.5
438.057	70.5
438.278	85.5
438.5	84.5
438.721	88.5
438.943	105.5
439.165	89.5
439.386	73.5
439.608	91.5
439.829	81.5
440.05	75.5
440.272	87.5
440.493	68.5
440.715	87.5
440.936	77.5
441.158	74.5
441.379	76.5
441.6	84.5
441.822	91.5
442.043	95.5
442.264	103.5
442.486	142.5
442.707	209.5
442.928	150.5
443.149	123.5
443.371	204.5
443.592	343.5
443.813	275.5
444.034	121.5
444.255	111.5
444.476	92.5
444.698	99.5
444.919	100.5
445.14	205.5
445.361	267.5
445.582	413.5
445.803	354.5
446.024	158.5
446.245	93.5
446.466	83.5
446.687	86.5
446.908	85.5
447.129	83.5
447.35	96.5
447.571	88.5
447.792	68.5
448.013	87.5
448.234	87.5
448.455	76.5
448.675	68.5
448.896	74.5
449.117	76.5
449.338	72.5
449.559	95.5
449.779	85.5
450	87.5
450.221	79.5
450.442	70.5
450.662	89.5
450.883	71.5
451.104	93.5
451.324	87.5
451.545	94.5
451.766	78.5
451.986	98.5
452.207	101.5
452.428	73.5
452.648	98.5
452.869	89.5
453.089	84.5
453.31	83.5
453.53	96.5
453.751	87.5
453.971	89.5
454.192	87.5
454.412	83.5
454.633	80.5
454.853	76.5
455.073	98.5
455.294	84.5
455.514	80.5
455.734	90.5
455.955	85.5
456.175	101.5
456.395	79.5
456.616	77.5
456.836	72.5
457.056	73.5
457.276	84.5
457.497	77.5
457.717	96.5
457.937	99.5
458.157	125.5
458.377	118.5
458.598	131.5
458.818	128.5
459.038	104.5
459.258	89.5
459.478	79.5
459.698	90.5
459.918	93.5
460.138	83.5
460.358	83.5
460.578	98.5
460.798	139.5
461.018	134.5
461.238	84.5
461.458	95.5
461.678	92.5
461.898	100.5
462.118	92.5
462.338	77.5
462.558	90.5
462.777	77.5
462.997	84.5
463.217	88.5
463.437	83.5
463.657	66.5
463.876	83.5
464.096	83.5
464.316	79.5
464.536	99.5
464.755	74.5
464.975	81.5
465.195	79.5
465.414	72.5
465.634	77.5
465.854	79.5
466.073	81.5
466.293	90.5
466.512	86.5
466.732	87.5
466.951	71.5
467.171	87.5
467.391	80.5
467.61	87.5
467.829	79.5
468.049	90.5
468.268	83.5
468.488	85.5
468.707	55.5
468.927	96.5
469.146	89.5
469.365	89.5
469.585	77.5
469.804	76.5
470.023	74.5
470.243	82.5
470.462	86.5
470.681	87.5
470.901	85.5
471.12	78.5
471.339	77.5
471.558	72.5
471.777	91.5
471.997	87.5
472.216	103.5
472.435	97.5
472.654	91.5
472.873	91.5
473.092	96.5
473.311	87.5
473.53	93.5
473.749	81.5
473.968	81.5
474.187	88.5
474.406	92.5
474.625	100.5
474.844	87.5
475.063	99.5
475.282	86.5
475.501	79.5
475.72	83.5
475.939	83.5
476.158	76.5
476.377	91.5
476.596	85.5
476.814	87.5
477.033	77.5
477.252	80.5
477.471	88.5
477.69	85.5
477.908	81.5
478.127	76.5
478.346	85.5
478.564	81.5
478.783	92.5
479.002	91.5
479.22	79.5
479.439	87.5
479.658	88.5
479.876	83.5
480.095	84.5
480.313	76.5
480.532	79.5
480.751	85.5
480.969	86.5
481.188	91.5
481.406	96.5
481.624	98.5
481.843	89.5
482.061	77.5
482.28	79.5
482.498	89.5
482.717	79.5
482.935	101.5
483.153	83.5
483.372	90.5
483.59	79.5
483.808	91.5
484.027	95.5
484.245	91.5
484.463	80.5
484.681	94.5
484.9	95.5
485.118	83.5
485.336	87.5
485.554	96.5
485.772	73.5
485.99	99.5
486.209	84.5
486.427	73.5
486.645	104.5
486.863	84.5
487.081	86.5
487.299	95.5
487.517	86.5
487.735	111.5
487.953	142.5
488.171	148.5
488.389	118.5
488.607	98.5
488.825	92.5
489.043	87.5
489.261	83.5
489.479	81.5
489.696	104.5
489.914	96.5
490.132	92.5
490.35	94.5
490.568	85.5
490.786	94.5
491.003	83.5
491.221	86.5
491.439	96.5
491.657	109.5
491.874	97.5
492.092	76.5
492.31	85.5
492.527	87.5
492.745	87.5
492.963	87.5
493.18	73.5
493.398	86.5
493.615	83.5
493.833	103.5
494.05	94.5
494.268	101.5
494.485	83.5
494.703	90.5
494.92	80.5
495.138	86.5
495.355	88.5
495.573	92.5
495.79	96.5
496.008	91.5
496.225	91.5
496.442	95.5
496.66	95.5
496.877	97.5
497.094	86.5
497.312	80.5
497.529	90.5
497.746	86.5
497.963	90.5
498.181	93.5
498.398	110.5
498.615	81.5
498.832	85.5
499.049	90.5
499.267	77.5
499.484	87.5
499.701	103.5
499.918	88.5
500.135	87.5
500.352	94.5
500.569	81.5
500.786	87.5
501.003	92.5
501.22	78.5
501.437	100.5
501.654	91.5
501.871	92.5
502.088	102.5
502.305	101.5
502.522	90.5
502.739	97.5
502.956	75.5
503.172	96.5
503.389	103.5
503.606	97.5
503.823	102.5
504.04	98.5
504.256	132.5
504.473	134.5
504.69	88.5
504.907	99.5
505.123	88.5
505.34	105.5
505.557	93.5
505.773	84.5
505.99	89.5
506.207	97.5
506.423	90.5
506.64	80.5
506.856	77.5
507.073	85.5
507.289	92.5
507.506	89.5
507.722	89.5
507.939	93.5
508.155	101.5
508.372	103.5
508.588	99.5
508.805	76.5
509.021	72.5
509.238	88.5
509.454	91.5
509.67	74.5
509.887	100.5
510.103	96.5
510.319	98.5
510.536	93.5
510.752	89.5
510.968	94.5
511.184	82.5
511.401	90.5
511.617	93.5
511.833	89.5
512.049	95.5
512.265	104.5
512.481	85.5
512.698	91.5
512.914	95.5
513.13	95.5
513.346	104.5
513.562	93.5
513.778	89.5
513.994	78.5
514.21	82.5
514.426	81.5
514.642	82.5
514.858	81.5
515.074	94.5
515.29	79.5
515.506	75.5
515.721	86.5
515.937	89.5
516.153	80.5
516.369	87.5
516.585	82.5
516.801	84.5
517.016	99.5
517.232	96.5
517.448	105.5
517.664	86.5
517.879	82.5
518.095	97.5
518.311	71.5
518.527	93.5
518.742	121.5
518.958	143.5
519.173	140.5
519.389	115.5
519.605	98.5
519.82	98.5
520.036	79.5
520.251	91.5
520.467	76.5
520.682	87.5
520.898	88.5
521.113	85.5
521.329	89.5
521.544	94.5
521.76	92.5
521.975	75.5
522.19	87.5
522.406	81.5
522.621	79.5
522.836	86.5
523.052	98.5
523.267	94.5
523.482	90.5
523.698	94.5
523.913	91.5
524.128	91.5
524.343	78.5
524.559	85.5
524.774	83.5
524.989	91.5
525.204	87.5
525.419	103.5
525.634	88.5
525.849	102.5
526.064	139.5
526.28	245.5
526.495	354.5
526.71	385.5
526.925	303.5
527.14	363.5
527.355	323.5
527.57	127.5
527.785	104.5
527.999	83.5
528.214	85.5
528.429	92.5
528.644	92.5
528.859	88.5
529.074	83.5
529.289	98.5
529.503	80.5
529.718	91.5
529.933	91.5
530.148	86.5
530.363	99.5
530.577	87.5
530.792	82.5
531.007	92.5
531.221	97.5
531.436	92.5
531.651	84.5
531.865	89.5
532.08	82.5
532.295	91.5
532.509	92.5
532.724	103.5
532.938	105.5
533.153	97.5
533.367	85.5
533.582	89.5
533.796	97.5
534.011	98.5
534.225	107.5
534.44	111.5
534.654	109.5
534.868	128.5
535.083	179.5
535.297	176.5
535.511	114.5
535.726	89.5
535.94	104.5
536.154	109.5
536.369	109.5
536.583	88.5
536.797	111.5
537.011	91.5
537.225	101.5
537.44	110.5
537.654	93.5
537.868	88.5
538.082	93.5
538.296	92.5
538.51	98.5
538.724	96.5
538.938	95.5
539.153	99.5
539.367	83.5
539.581	94.5
539.795	81.5
540.009	99.5
540.222	82.5
540.436	82.5
540.65	81.5
540.864	87.5
541.078	95.5
541.292	91.5
541.506	80.5
541.72	111.5
541.934	79.5
542.147	78.5
542.361	89.5
542.575	83.5
542.789	84.5
543.002	86.5
543.216	97.5
543.43	92.5
543.644	93.5
543.857	96.5
544.071	94.5
544.285	85.5
544.498	86.5
544.712	85.5
544.925	103.5
545.139	91.5
545.352	99.5
545.566	89.5
545.779	86.5
545.993	91.5
546.206	103.5
546.42	85.5
546.633	98.5
546.847	96.5
547.06	85.5
547.274	94.5
547.487	105.5
547.7	124.5
547.914	104.5
548.127	123.5
548.34	115.5
548.554	118.5
548.767	108.5
548.98	103.5
549.193	123.5
549.407	111.5
549.62	111.5
549.833	120.5
550.046	123.5
550.259	131.5
550.473	135.5
550.686	126.5
550.899	152.5
551.112	163.5
551.325	168.5
551.538	157.5
551.751	127.5
551.964	133.5
552.177	136.5
552.39	132.5
552.603	126.5
552.816	131.5
553.029	137.5
553.242	115.5
553.455	137.5
553.667	132.5
553.88	121.5
554.093	125.5
554.306	119.5
554.519	121.5
554.732	134.5
554.944	133.5
555.157	120.5
555.37	116.5
555.583	118.5
555.795	114.5
556.008	108.5
556.221	113.5
556.433	110.5
556.646	114.5
556.859	89.5
557.071	108.5
557.284	102.5
557.496	105.5
557.709	109.5
557.921	93.5
558.134	125.5
558.346	191.5
558.559	173.5
558.771	174.5
558.984	371.5
559.196	467.5
559.409	239.5
559.621	379.5
559.833	277.5
560.046	307.5
560.258	248.5
560.47	240.5
560.683	138.5
560.895	111.5
561.107	99.5
561.32	100.5
561.532	96.5
561.744	100.5
561.956	95.5
562.168	89.5
562.381	89.5
562.593	83.5
562.805	84.5
563.017	92.5
563.229	94.5
563.441	89.5
563.653	91.5
563.865	83.5
564.077	84.5
564.289	107.5
564.501	98.5
564.713	101.5
564.925	100.5
565.137	92.5
565.349	96.5
565.561	95.5
565.773	97.5
565.985	89.5
566.197	82.5
566.408	100.5
566.62	99.5
566.832	86.5
567.044	74.5
567.255	103.5
567.467	97.5
567.679	80.5
567.891	77.5
568.102	96.5
568.314	102.5
568.526	107.5
568.737	77.5
568.949	92.5
569.161	100.5
569.372	81.5
569.584	100.5
569.795	99.5
570.007	96.5
570.218	91.5
570.43	78.5
570.641	91.5
570.853	91.5
571.064	92.5
571.276	77.5
571.487	86.5
571.698	94.5
571.91	84.5
572.121	89.5
572.333	89.5
572.544	76.5
572.755	90.5
572.966	87.5
573.178	89.5
573.389	92.5
573.6	78.5
573.811	80.5
574.023	88.5
574.234	73.5
574.445	82.5
574.656	91.5
574.867	75.5
575.078	80.5
575.289	81.5
575.501	83.5
575.712	88.5
575.923	93.5
576.134	99.5
576.345	83.5
576.556	91.5
576.767	107.5
576.978	79.5
577.188	82.5
577.399	93.5
577.61	91.5
577.821	94.5
578.032	99.5
578.243	98.5
578.454	122.5
578.665	120.5
578.875	101.5
579.086	99.5
579.297	86.5
579.508	96.5
579.718	103.5
579.929	100.5
580.14	98.5
580.35	133.5
580.561	151.5
580.772	124.5
580.982	126.5
581.193	91.5
581.403	108.5
581.614	107.5
581.825	108.5
582.035	107.5
582.246	83.5
582.456	89.5
582.667	80.5
582.877	84.5
583.087	96.5
583.298	96.5
583.508	139.5
583.719	126.5
583.929	109.5
584.139	104.5
584.35	91.5
584.56	91.5
584.77	88.5
584.981	91.5
585.191	87.5
585.401	86.5
585.611	97.5
585.821	157.5
586.032	249.5
586.242	144.5
586.452	109.5
586.662	94.5
586.872	93.5
587.082	102.5
587.292	102.5
587.502	100.5
587.713	92.5
587.923	97.5
588.133	105.5
588.343	112.5
588.553	150.5
588.762	192.5
588.972	376.5
589.182	836.5
589.392	596.5
589.602	419.5
589.812	675.5
590.022	383.5
590.232	177.5
590.441	121.5
590.651	117.5
590.861	109.5
591.071	106.5
591.281	100.5
591.49	99.5
591.7	98.5
591.91	95.5
592.119	76.5
592.329	109.5
592.539	74.5
592.748	99.5
592.958	96.5
593.167	98.5
593.377	85.5
593.587	84.5
593.796	103.5
594.006	81.5
594.215	91.5
594.424	94.5
594.634	115.5
594.843	102.5
595.053	91.5
595.262	104.5
595.472	88.5
595.681	103.5
595.89	107.5
596.1	99.5
596.309	108.5
596.518	96.5
596.727	118.5
596.937	111.5
597.146	106.5
597.355	108.5
597.564	110.5
597.774	129.5
597.983	119.5
598.192	100.5
598.401	114.5
598.61	116.5
598.819	119.5
599.028	126.5
599.237	135.5
599.446	104.5
599.655	106.5
599.864	122.5
600.073	117.5
600.282	102.5
600.491	111.5
600.7	133.5
600.909	135.5
601.118	136.5
601.327	102.5
601.536	86.5
601.745	95.5
601.953	101.5
602.162	116.5
602.371	111.5
602.58	94.5
602.789	110.5
602.997	95.5
603.206	115.5
603.415	119.5
603.623	107.5
603.832	111.5
604.041	102.5
604.249	121.5
604.458	114.5
604.666	124.5
604.875	109.5
605.084	120.5
605.292	119.5
605.501	125.5
605.709	140.5
605.918	135.5
606.126	141.5
606.334	139.5
606.543	135.5
606.751	128.5
606.96	125.5
607.168	127.5
607.376	123.5
607.585	135.5
607.793	120.5
608.001	130.5
608.21	127.5
608.418	143.5
608.626	123.5
608.834	116.5
609.043	145.5
609.251	123.5
609.459	127.5
609.667	143.5
609.875	151.5
610.083	155.5
610.291	190.5
610.499	269.5
610.707	189.5
610.916	143.5
611.124	129.5
611.332	128.5
611.54	132.5
611.748	116.5
611.955	131.5
612.163	152.5
612.371	333.5
612.579	320.5
612.787	181.5
612.995	147.5
613.203	132.5
613.411	134.5
613.618	139.5
613.826	131.5
614.034	158.5
614.242	141.5
614.449	135.5
614.657	136.5
614.865	136.5
615.072	135.5
615.28	144.5
615.488	144.5
615.695	134.5
615.903	157.5
616.111	176.5
616.318	344.5
616.526	431.5
616.733	249.5
616.941	199.5
617.148	238.5
617.356	197.5
617.563	137.5
617.771	135.5
617.978	137.5
618.185	136.5
618.393	142.5
618.6	126.5
618.807	97.5
619.015	102.5
619.222	111.5
619.429	111.5
619.637	121.5
619.844	111.5
620.051	114.5
620.258	129.5
620.466	114.5
620.673	111.5
620.88	114.5
621.087	122.5
621.294	122.5
621.501	123.5
621.708	104.5
621.915	119.5
622.122	118.5
622.329	134.5
622.536	117.5
622.743	134.5
622.95	120.5
623.157	128.5
623.364	135.5
623.571	140.5
623.778	135.5
623.985	148.5
624.192	141.5
624.399	146.5
624.606	163.5
624.812	156.5
625.019	163.5
625.226	134.5
625.433	146.5
625.639	147.5
625.846	155.5
626.053	139.5
626.259	134.5
626.466	148.5
626.673	139.5
626.879	143.5
627.086	151.5
627.293	163.5
627.499	141.5
627.706	129.5
627.912	124.5
628.119	105.5
628.325	103.5
628.532	99.5
628.738	113.5
628.945	91.5
629.151	95.5
629.357	101.5
629.564	85.5
629.77	94.5
629.976	83.5
630.183	72.5
630.389	90.5
630.595	99.5
630.802	89.5
631.008	82.5
631.214	101.5
631.42	96.5
631.627	91.5
631.833	103.5
632.039	101.5
632.245	92.5
632.451	86.5
632.657	82.5
632.863	83.5
633.069	82.5
633.275	92.5
633.481	72.5
633.688	79.5
633.893	106.5
634.099	84.5
634.305	97.5
634.511	112.5
634.717	83.5
634.923	107.5
635.129	89.5
635.335	100.5
635.541	83.5
635.747	97.5
635.952	73.5
636.158	107.5
636.364	93.5
636.57	105.5
636.775	88.5
636.981	87.5
637.187	96.5
637.392	91.5
637.598	86.5
637.804	89.5
638.009	89.5
638.215	81.5
638.421	92.5
638.626	92.5
638.832	86.5
639.037	93.5
639.243	90.5
639.448	73.5
639.654	82.5
639.859	77.5
640.065	86.5
640.27	86.5
640.475	88.5
640.681	83.5
640.886	83.5
641.091	94.5
641.297	81.5
641.502	79.5
641.707	91.5
641.913	84.5
642.118	73.5
642.323	91.5
642.528	92.5
642.733	81.5
642.939	88.5
643.144	83.5
643.349	89.5
643.554	91.5
643.759	99.5
643.964	136.5
644.169	198.5
644.374	100.5
644.579	93.5
644.784	86.5
644.989	92.5
645.194	123.5
645.399	103.5
645.604	84.5
645.809	88.5
646.014	71.5
646.219	98.5
646.423	181.5
646.628	144.5
646.833	88.5
647.038	84.5
647.243	100.5
647.447	103.5
647.652	81.5
647.857	80.5
648.062	91.5
648.266	75.5
648.471	88.5
648.676	85.5
648.88	73.5
649.085	91.5
649.289	91.5
649.494	133.5
649.698	135.5
649.903	99.5
650.107	96.5
650.312	105.5
650.516	84.5
650.721	77.5
650.925	73.5
651.13	83.5
651.334	78.5
651.539	80.5
651.743	91.5
651.947	93.5
652.152	92.5
652.356	70.5
652.56	89.5
652.764	85.5
652.969	81.5
653.173	77.5
653.377	85.5
653.581	80.5
653.785	88.5
653.99	71.5
654.194	82.5
654.398	83.5
654.602	83.5
654.806	70.5
655.01	77.5
655.214	81.5
655.418	80.5
655.622	74.5
655.826	72.5
656.03	80.5
656.234	77.5
656.438	85.5
656.642	66.5
656.846	71.5
657.049	85.5
657.253	79.5
657.457	77.5
657.661	70.5
657.865	89.5
658.068	87.5
658.272	82.5
658.476	80.5
658.68	77.5
658.883	82.5
659.087	91.5
659.291	78.5
659.494	86.5
659.698	73.5
659.901	84.5
660.105	74.5
660.309	62.5
660.512	84.5
660.716	78.5
660.919	79.5
661.123	79.5
661.326	70.5
661.53	85.5
661.733	83.5
661.936	81.5
662.14	93.5
662.343	74.5
662.546	73.5
662.75	77.5
662.953	79.5
663.156	99.5
663.36	85.5
663.563	93.5
663.766	82.5
663.969	85.5
664.173	94.5
664.376	80.5
664.579	76.5
664.782	77.5
664.985	92.5
665.188	80.5
665.391	89.5
665.594	64.5
665.797	85.5
666	65.5
666.203	74.5
666.406	83.5
666.609	66.5
666.812	82.5
667.015	69.5
667.218	90.5
667.421	69.5
667.624	72.5
667.827	72.5
668.03	81.5
668.232	68.5
668.435	77.5
668.638	74.5
668.841	92.5
669.043	87.5
669.246	76.5
669.449	74.5
669.651	85.5
669.854	67.5
670.057	81.5
670.259	79.5
670.462	69.5
670.665	71.5
670.867	75.5
671.07	77.5
671.272	75.5
671.475	81.5
671.677	94.5
671.88	86.5
672.082	79.5
672.284	67.5
672.487	84.5
672.689	71.5
672.892	75.5
