Data from 2145_3_HRD10591_00016.txt Node
Date: Mon Jan 19 14:23:15 EST 2026
User: Yrep
Spectrometer: HR+D1059
Trigger mode: 1
Integration Time (sec): 1.000000E-1
Scans to average: 1
Electric dark correction enabled: true
Nonlinearity correction enabled: false
Boxcar width: 0
XAxis mode: Wavelengths
Number of Pixels in Spectrum: 2048
>>>>>Begin Spectral Data<<<<<
223.165	-1.56
223.4	-1.56
223.635	-1.56
223.869	-21.56
224.104	-29.56
224.338	-18.56
224.573	-7.56
224.808	-9.56
225.042	-6.56
225.277	-10.56
225.511	-9.56
225.746	17.44
225.98	14.44
226.215	8.44
226.449	21.44
226.683	17.44
226.918	15.44
227.152	20.44
227.387	43.44
227.621	48.44
227.856	48.44
228.09	47.44
228.324	52.44
228.559	66.44
228.793	54.44
229.027	73.44
229.262	70.44
229.496	71.44
229.73	68.44
229.964	75.44
230.199	76.44
230.433	66.44
230.667	77.44
230.901	80.44
231.136	80.44
231.37	91.44
231.604	80.44
231.838	82.44
232.072	90.44
232.306	92.44
232.541	90.44
232.775	89.44
233.009	88.44
233.243	84.44
233.477	90.44
233.711	87.44
233.945	67.44
234.179	89.44
234.413	76.44
234.647	80.44
234.881	81.44
235.115	92.44
235.349	76.44
235.583	75.44
235.817	93.44
236.051	69.44
236.285	69.44
236.519	73.44
236.753	77.44
236.987	89.44
237.221	78.44
237.455	80.44
237.689	78.44
237.922	79.44
238.156	81.44
238.39	68.44
238.624	80.44
238.858	81.44
239.091	75.44
239.325	86.44
239.559	80.44
239.793	77.44
240.027	68.44
240.26	65.44
240.494	86.44
240.728	77.44
240.961	80.44
241.195	88.44
241.429	66.44
241.662	72.44
241.896	77.44
242.13	76.44
242.363	66.44
242.597	72.44
242.83	73.44
243.064	78.44
243.298	75.44
243.531	71.44
243.765	95.44
243.998	71.44
244.232	76.44
244.465	82.44
244.699	80.44
244.932	73.44
245.166	84.44
245.399	86.44
245.633	82.44
245.866	82.44
246.099	65.44
246.333	78.44
246.566	74.44
246.8	82.44
247.033	86.44
247.266	97.44
247.5	77.44
247.733	83.44
247.966	98.44
248.2	76.44
248.433	86.44
248.666	91.44
248.899	78.44
249.133	81.44
249.366	93.44
249.599	89.44
249.832	80.44
250.066	83.44
250.299	70.44
250.532	70.44
250.765	83.44
250.998	83.44
251.231	81.44
251.465	87.44
251.698	83.44
251.931	81.44
252.164	78.44
252.397	69.44
252.63	71.44
252.863	85.44
253.096	80.44
253.329	84.44
253.562	94.44
253.795	80.44
254.028	84.44
254.261	82.44
254.494	86.44
254.727	85.44
254.96	78.44
255.193	77.44
255.426	66.44
255.659	75.44
255.892	94.44
256.124	83.44
256.357	78.44
256.59	92.44
256.823	100.44
257.056	74.44
257.289	74.44
257.521	80.44
257.754	91.44
257.987	76.44
258.22	80.44
258.452	82.44
258.685	89.44
258.918	82.44
259.151	90.44
259.383	83.44
259.616	64.44
259.849	86.44
260.081	81.44
260.314	76.44
260.547	77.44
260.779	86.44
261.012	93.44
261.244	87.44
261.477	95.44
261.71	63.44
261.942	83.44
262.175	75.44
262.407	93.44
262.64	81.44
262.872	69.44
263.105	86.44
263.337	90.44
263.57	89.44
263.802	98.44
264.035	80.44
264.267	73.44
264.499	69.44
264.732	78.44
264.964	82.44
265.197	78.44
265.429	84.44
265.661	88.44
265.894	74.44
266.126	91.44
266.358	70.44
266.591	68.44
266.823	79.44
267.055	81.44
267.287	91.44
267.52	82.44
267.752	78.44
267.984	83.44
268.216	94.44
268.448	95.44
268.681	94.44
268.913	87.44
269.145	86.44
269.377	82.44
269.609	76.44
269.841	85.44
270.073	79.44
270.306	82.44
270.538	85.44
270.77	92.44
271.002	74.44
271.234	91.44
271.466	92.44
271.698	76.44
271.93	88.44
272.162	73.44
272.394	103.44
272.626	91.44
272.858	81.44
273.09	88.44
273.322	79.44
273.553	81.44
273.785	76.44
274.017	84.44
274.249	77.44
274.481	85.44
274.713	88.44
274.945	99.44
275.176	91.44
275.408	95.44
275.64	85.44
275.872	91.44
276.104	90.44
276.335	72.44
276.567	78.44
276.799	83.44
277.031	87.44
277.262	93.44
277.494	82.44
277.726	83.44
277.957	86.44
278.189	78.44
278.421	86.44
278.652	101.44
278.884	97.44
279.115	114.44
279.347	82.44
279.579	89.44
279.81	78.44
280.042	84.44
280.273	86.44
280.505	93.44
280.736	97.44
280.968	96.44
281.199	77.44
281.431	79.44
281.662	90.44
281.894	93.44
282.125	71.44
282.356	85.44
282.588	91.44
282.819	79.44
283.051	81.44
283.282	98.44
283.513	95.44
283.745	96.44
283.976	83.44
284.207	80.44
284.439	90.44
284.67	89.44
284.901	82.44
285.132	96.44
285.364	88.44
285.595	93.44
285.826	70.44
286.057	88.44
286.288	83.44
286.52	85.44
286.751	77.44
286.982	92.44
287.213	90.44
287.444	94.44
287.675	92.44
287.906	94.44
288.138	96.44
288.369	74.44
288.6	96.44
288.831	100.44
289.062	90.44
289.293	85.44
289.524	87.44
289.755	92.44
289.986	75.44
290.217	77.44
290.448	77.44
290.679	96.44
290.91	80.44
291.141	96.44
291.371	96.44
291.602	96.44
291.833	86.44
292.064	93.44
292.295	101.44
292.526	94.44
292.757	92.44
292.987	86.44
293.218	93.44
293.449	93.44
293.68	97.44
293.91	90.44
294.141	89.44
294.372	87.44
294.603	95.44
294.833	85.44
295.064	82.44
295.295	102.44
295.525	87.44
295.756	88.44
295.987	95.44
296.217	97.44
296.448	89.44
296.679	86.44
296.909	99.44
297.14	88.44
297.37	105.44
297.601	93.44
297.831	100.44
298.062	87.44
298.292	78.44
298.523	95.44
298.753	88.44
298.984	76.44
299.214	84.44
299.445	87.44
299.675	93.44
299.905	100.44
300.136	95.44
300.366	96.44
300.597	104.44
300.827	83.44
301.057	80.44
301.288	88.44
301.518	87.44
301.748	89.44
301.979	99.44
302.209	102.44
302.439	101.44
302.669	94.44
302.9	104.44
303.13	78.44
303.36	90.44
303.59	91.44
303.82	91.44
304.051	92.44
304.281	72.44
304.511	88.44
304.741	95.44
304.971	80.44
305.201	92.44
305.431	84.44
305.661	90.44
305.891	93.44
306.121	83.44
306.352	82.44
306.582	87.44
306.812	78.44
307.042	91.44
307.272	79.44
307.502	90.44
307.731	78.44
307.961	97.44
308.191	90.44
308.421	84.44
308.651	78.44
308.881	95.44
309.111	101.44
309.341	96.44
309.571	111.44
309.8	84.44
310.03	98.44
310.26	95.44
310.49	81.44
310.72	83.44
310.949	80.44
311.179	96.44
311.409	100.44
311.639	91.44
311.868	105.44
312.098	97.44
312.328	85.44
312.557	84.44
312.787	79.44
313.017	87.44
313.246	93.44
313.476	93.44
313.706	94.44
313.935	92.44
314.165	98.44
314.394	103.44
314.624	98.44
314.853	90.44
315.083	96.44
315.312	97.44
315.542	93.44
315.771	89.44
316.001	97.44
316.23	90.44
316.46	84.44
316.689	88.44
316.919	88.44
317.148	88.44
317.377	91.44
317.607	96.44
317.836	91.44
318.065	98.44
318.295	89.44
318.524	98.44
318.753	78.44
318.983	88.44
319.212	88.44
319.441	98.44
319.67	98.44
319.9	84.44
320.129	90.44
320.358	106.44
320.587	103.44
320.816	96.44
321.046	102.44
321.275	97.44
321.504	107.44
321.733	100.44
321.962	99.44
322.191	90.44
322.42	82.44
322.649	95.44
322.878	99.44
323.108	95.44
323.337	91.44
323.566	97.44
323.795	103.44
324.024	84.44
324.253	90.44
324.482	100.44
324.71	96.44
324.939	93.44
325.168	101.44
325.397	91.44
325.626	98.44
325.855	85.44
326.084	83.44
326.313	87.44
326.542	99.44
326.77	95.44
326.999	81.44
327.228	91.44
327.457	92.44
327.686	97.44
327.914	93.44
328.143	84.44
328.372	88.44
328.6	90.44
328.829	93.44
329.058	98.44
329.287	95.44
329.515	92.44
329.744	85.44
329.972	100.44
330.201	95.44
330.43	97.44
330.658	97.44
330.887	101.44
331.115	88.44
331.344	79.44
331.572	77.44
331.801	81.44
332.03	87.44
332.258	92.44
332.486	91.44
332.715	94.44
332.943	96.44
333.172	94.44
333.4	113.44
333.629	97.44
333.857	109.44
334.085	101.44
334.314	93.44
334.542	100.44
334.771	112.44
334.999	97.44
335.227	89.44
335.455	99.44
335.684	113.44
335.912	104.44
336.14	101.44
336.369	99.44
336.597	88.44
336.825	86.44
337.053	88.44
337.281	91.44
337.51	87.44
337.738	96.44
337.966	96.44
338.194	93.44
338.422	86.44
338.65	86.44
338.878	94.44
339.106	101.44
339.334	94.44
339.562	100.44
339.79	102.44
340.018	99.44
340.246	94.44
340.474	90.44
340.702	92.44
340.93	82.44
341.158	76.44
341.386	89.44
341.614	94.44
341.842	92.44
342.07	83.44
342.298	84.44
342.526	90.44
342.754	108.44
342.981	97.44
343.209	88.44
343.437	104.44
343.665	81.44
343.893	96.44
344.12	101.44
344.348	95.44
344.576	105.44
344.804	113.44
345.031	99.44
345.259	84.44
345.487	95.44
345.714	84.44
345.942	92.44
346.17	97.44
346.397	81.44
346.625	87.44
346.853	93.44
347.08	93.44
347.308	91.44
347.535	104.44
347.763	108.44
347.99	91.44
348.218	94.44
348.445	86.44
348.673	100.44
348.9	83.44
349.128	88.44
349.355	90.44
349.583	88.44
349.81	93.44
350.037	92.44
350.265	90.44
350.492	81.44
350.72	86.44
350.947	89.44
351.174	96.44
351.402	92.44
351.629	85.44
351.856	93.44
352.083	93.44
352.311	104.44
352.538	93.44
352.765	113.44
352.992	97.44
353.22	90.44
353.447	98.44
353.674	95.44
353.901	95.44
354.128	95.44
354.355	90.44
354.583	81.44
354.81	99.44
355.037	102.44
355.264	88.44
355.491	100.44
355.718	101.44
355.945	88.44
356.172	96.44
356.399	94.44
356.626	87.44
356.853	89.44
357.08	96.44
357.307	94.44
357.534	103.44
357.761	93.44
357.988	93.44
358.215	101.44
358.441	91.44
358.668	97.44
358.895	103.44
359.122	99.44
359.349	88.44
359.576	104.44
359.802	90.44
360.029	92.44
360.256	92.44
360.483	102.44
360.709	111.44
360.936	95.44
361.163	100.44
361.39	97.44
361.616	94.44
361.843	95.44
362.07	106.44
362.296	98.44
362.523	127.44
362.749	123.44
362.976	126.44
363.203	130.44
363.429	132.44
363.656	108.44
363.882	107.44
364.109	134.44
364.335	155.44
364.562	153.44
364.788	124.44
365.015	97.44
365.241	92.44
365.468	94.44
365.694	102.44
365.92	92.44
366.147	104.44
366.373	88.44
366.599	83.44
366.826	90.44
367.052	105.44
367.278	101.44
367.505	98.44
367.731	108.44
367.957	95.44
368.184	97.44
368.41	87.44
368.636	92.44
368.862	102.44
369.089	93.44
369.315	94.44
369.541	101.44
369.767	98.44
369.993	90.44
370.219	76.44
370.445	93.44
370.672	105.44
370.898	110.44
371.124	95.44
371.35	88.44
371.576	97.44
371.802	92.44
372.028	101.44
372.254	84.44
372.48	95.44
372.706	88.44
372.932	93.44
373.158	109.44
373.384	108.44
373.61	108.44
373.835	109.44
374.061	109.44
374.287	98.44
374.513	91.44
374.739	108.44
374.965	101.44
375.191	92.44
375.416	95.44
375.642	96.44
375.868	85.44
376.094	75.44
376.319	103.44
376.545	84.44
376.771	92.44
376.997	93.44
377.222	84.44
377.448	88.44
377.674	100.44
377.899	101.44
378.125	98.44
378.35	94.44
378.576	101.44
378.802	90.44
379.027	84.44
379.253	94.44
379.478	102.44
379.704	105.44
379.929	90.44
380.155	86.44
380.38	103.44
380.606	95.44
380.831	85.44
381.057	98.44
381.282	85.44
381.507	88.44
381.733	103.44
381.958	105.44
382.184	88.44
382.409	92.44
382.634	104.44
382.86	95.44
383.085	98.44
383.31	107.44
383.535	111.44
383.761	108.44
383.986	105.44
384.211	94.44
384.436	87.44
384.662	91.44
384.887	90.44
385.112	95.44
385.337	94.44
385.562	107.44
385.787	114.44
386.013	98.44
386.238	107.44
386.463	93.44
386.688	107.44
386.913	120.44
387.138	102.44
387.363	94.44
387.588	106.44
387.813	104.44
388.038	95.44
388.263	109.44
388.488	108.44
388.713	94.44
388.938	103.44
389.163	100.44
389.387	100.44
389.612	89.44
389.837	92.44
390.062	95.44
390.287	92.44
390.512	97.44
390.736	81.44
390.961	98.44
391.186	103.44
391.411	100.44
391.636	102.44
391.86	92.44
392.085	106.44
392.31	114.44
392.534	118.44
392.759	133.44
392.984	170.44
393.208	289.44
393.433	365.44
393.658	310.44
393.882	167.44
394.107	134.44
394.331	137.44
394.556	150.44
394.78	108.44
395.005	127.44
395.229	110.44
395.454	114.44
395.678	114.44
395.903	140.44
396.127	134.44
396.352	182.44
396.576	196.44
396.801	281.44
397.025	331.44
397.249	210.44
397.474	147.44
397.698	137.44
397.922	109.44
398.147	110.44
398.371	102.44
398.595	97.44
398.82	101.44
399.044	104.44
399.268	95.44
399.492	111.44
399.717	102.44
399.941	97.44
400.165	93.44
400.389	101.44
400.613	83.44
400.837	91.44
401.062	98.44
401.286	96.44
401.51	85.44
401.734	105.44
401.958	105.44
402.182	88.44
402.406	100.44
402.63	93.44
402.854	95.44
403.078	92.44
403.302	91.44
403.526	98.44
403.75	104.44
403.974	114.44
404.198	162.44
404.422	237.44
404.645	266.44
404.869	221.44
405.093	166.44
405.317	126.44
405.541	103.44
405.765	123.44
405.988	86.44
406.212	111.44
406.436	107.44
406.66	92.44
406.883	97.44
407.107	105.44
407.331	97.44
407.555	100.44
407.778	140.44
408.002	132.44
408.226	100.44
408.449	105.44
408.673	107.44
408.896	116.44
409.12	91.44
409.344	90.44
409.567	108.44
409.791	116.44
410.014	113.44
410.238	111.44
410.461	96.44
410.685	103.44
410.908	86.44
411.132	94.44
411.355	101.44
411.578	109.44
411.802	102.44
412.025	105.44
412.249	83.44
412.472	89.44
412.695	105.44
412.919	96.44
413.142	98.44
413.365	89.44
413.589	93.44
413.812	99.44
414.035	82.44
414.258	96.44
414.482	105.44
414.705	100.44
414.928	83.44
415.151	94.44
415.374	100.44
415.597	78.44
415.821	86.44
416.044	99.44
416.267	109.44
416.49	109.44
416.713	105.44
416.936	94.44
417.159	90.44
417.382	96.44
417.605	107.44
417.828	93.44
418.051	104.44
418.274	92.44
418.497	100.44
418.72	91.44
418.943	94.44
419.166	105.44
419.389	88.44
419.611	106.44
419.834	98.44
420.057	112.44
420.28	96.44
420.503	113.44
420.726	97.44
420.948	110.44
421.171	97.44
421.394	121.44
421.617	137.44
421.839	148.44
422.062	181.44
422.285	264.44
422.507	394.44
422.73	513.44
422.953	458.44
423.175	323.44
423.398	206.44
423.621	158.44
423.843	123.44
424.066	115.44
424.288	124.44
424.511	100.44
424.733	92.44
424.956	109.44
425.178	113.44
425.401	94.44
425.623	86.44
425.846	97.44
426.068	108.44
426.291	111.44
426.513	96.44
426.735	99.44
426.958	107.44
427.18	100.44
427.402	98.44
427.625	108.44
427.847	109.44
428.069	132.44
428.292	190.44
428.514	200.44
428.736	145.44
428.958	176.44
429.181	167.44
429.403	117.44
429.625	124.44
429.847	171.44
430.069	245.44
430.292	273.44
430.514	234.44
430.736	197.44
430.958	197.44
431.18	133.44
431.402	94.44
431.624	134.44
431.846	145.44
432.068	185.44
432.29	135.44
432.512	106.44
432.734	106.44
432.956	88.44
433.178	91.44
433.4	92.44
433.622	96.44
433.844	97.44
434.066	102.44
434.287	94.44
434.509	77.44
434.731	88.44
434.953	79.44
435.175	87.44
435.397	98.44
435.618	95.44
435.84	93.44
436.062	100.44
436.284	92.44
436.505	88.44
436.727	100.44
436.949	92.44
437.17	82.44
437.392	90.44
437.614	92.44
437.835	95.44
438.057	102.44
438.278	98.44
438.5	103.44
438.721	109.44
438.943	102.44
439.165	107.44
439.386	88.44
439.608	108.44
439.829	105.44
440.05	81.44
440.272	88.44
440.493	93.44
440.715	93.44
440.936	91.44
441.158	99.44
441.379	90.44
441.6	112.44
441.822	112.44
442.043	119.44
442.264	134.44
442.486	196.44
442.707	249.44
442.928	171.44
443.149	147.44
443.371	249.44
443.592	394.44
443.813	324.44
444.034	153.44
444.255	120.44
444.476	109.44
444.698	111.44
444.919	120.44
445.14	239.44
445.361	318.44
445.582	504.44
445.803	386.44
446.024	184.44
446.245	124.44
446.466	100.44
446.687	98.44
446.908	93.44
447.129	91.44
447.35	90.44
447.571	90.44
447.792	90.44
448.013	95.44
448.234	79.44
448.455	93.44
448.675	93.44
448.896	90.44
449.117	99.44
449.338	96.44
449.559	84.44
449.779	78.44
450	83.44
450.221	76.44
450.442	98.44
450.662	87.44
450.883	92.44
451.104	91.44
451.324	83.44
451.545	111.44
451.766	80.44
451.986	92.44
452.207	86.44
452.428	79.44
452.648	100.44
452.869	102.44
453.089	96.44
453.31	95.44
453.53	103.44
453.751	110.44
453.971	89.44
454.192	88.44
454.412	87.44
454.633	83.44
454.853	102.44
455.073	92.44
455.294	89.44
455.514	94.44
455.734	83.44
455.955	92.44
456.175	80.44
456.395	101.44
456.616	91.44
456.836	92.44
457.056	96.44
457.276	91.44
457.497	92.44
457.717	108.44
457.937	130.44
458.157	146.44
458.377	149.44
458.598	168.44
458.818	166.44
459.038	134.44
459.258	108.44
459.478	96.44
459.698	98.44
459.918	93.44
460.138	96.44
460.358	103.44
460.578	122.44
460.798	159.44
461.018	160.44
461.238	112.44
461.458	99.44
461.678	94.44
461.898	87.44
462.118	86.44
462.338	80.44
462.558	86.44
462.777	87.44
462.997	88.44
463.217	84.44
463.437	82.44
463.657	84.44
463.876	68.44
464.096	97.44
464.316	100.44
464.536	88.44
464.755	91.44
464.975	102.44
465.195	92.44
465.414	80.44
465.634	94.44
465.854	94.44
466.073	98.44
466.293	96.44
466.512	85.44
466.732	80.44
466.951	100.44
467.171	92.44
467.391	79.44
467.61	107.44
467.829	100.44
468.049	92.44
468.268	92.44
468.488	104.44
468.707	92.44
468.927	95.44
469.146	92.44
469.365	102.44
469.585	108.44
469.804	100.44
470.023	82.44
470.243	90.44
470.462	88.44
470.681	95.44
470.901	96.44
471.12	88.44
471.339	96.44
471.558	89.44
471.777	90.44
471.997	90.44
472.216	90.44
472.435	99.44
472.654	84.44
472.873	84.44
473.092	96.44
473.311	88.44
473.53	88.44
473.749	86.44
473.968	98.44
474.187	87.44
474.406	88.44
474.625	78.44
474.844	102.44
475.063	95.44
475.282	107.44
475.501	87.44
475.72	89.44
475.939	89.44
476.158	104.44
476.377	91.44
476.596	95.44
476.814	95.44
477.033	100.44
477.252	117.44
477.471	94.44
477.69	111.44
477.908	84.44
478.127	102.44
478.346	100.44
478.564	85.44
478.783	89.44
479.002	86.44
479.22	85.44
479.439	89.44
479.658	90.44
479.876	82.44
480.095	100.44
480.313	81.44
480.532	95.44
480.751	96.44
480.969	104.44
481.188	103.44
481.406	109.44
481.624	92.44
481.843	82.44
482.061	107.44
482.28	99.44
482.498	103.44
482.717	95.44
482.935	95.44
483.153	105.44
483.372	97.44
483.59	88.44
483.808	88.44
484.027	91.44
484.245	96.44
484.463	94.44
484.681	104.44
484.9	98.44
485.118	93.44
485.336	83.44
485.554	91.44
485.772	83.44
485.99	114.44
486.209	84.44
486.427	96.44
486.645	100.44
486.863	111.44
487.081	104.44
487.299	105.44
487.517	118.44
487.735	153.44
487.953	209.44
488.171	207.44
488.389	135.44
488.607	98.44
488.825	107.44
489.043	106.44
489.261	88.44
489.479	96.44
489.696	109.44
489.914	98.44
490.132	86.44
490.35	111.44
490.568	90.44
490.786	94.44
491.003	84.44
491.221	112.44
491.439	90.44
491.657	93.44
491.874	93.44
492.092	98.44
492.31	94.44
492.527	103.44
492.745	100.44
492.963	110.44
493.18	105.44
493.398	110.44
493.615	95.44
493.833	100.44
494.05	101.44
494.268	94.44
494.485	109.44
494.703	94.44
494.92	111.44
495.138	108.44
495.355	93.44
495.573	100.44
495.79	109.44
496.008	103.44
496.225	96.44
496.442	110.44
496.66	94.44
496.877	87.44
497.094	109.44
497.312	94.44
497.529	97.44
497.746	85.44
497.963	91.44
498.181	99.44
498.398	121.44
498.615	112.44
498.832	86.44
499.049	100.44
499.267	88.44
499.484	91.44
499.701	94.44
499.918	88.44
500.135	105.44
500.352	97.44
500.569	92.44
500.786	93.44
501.003	102.44
501.22	104.44
501.437	108.44
501.654	112.44
501.871	116.44
502.088	108.44
502.305	103.44
502.522	97.44
502.739	109.44
502.956	109.44
503.172	97.44
503.389	91.44
503.606	109.44
503.823	118.44
504.04	126.44
504.256	160.44
504.473	153.44
504.69	128.44
504.907	113.44
505.123	112.44
505.34	103.44
505.557	96.44
505.773	95.44
505.99	96.44
506.207	87.44
506.423	99.44
506.64	97.44
506.856	91.44
507.073	101.44
507.289	90.44
507.506	79.44
507.722	95.44
507.939	90.44
508.155	94.44
508.372	92.44
508.588	109.44
508.805	105.44
509.021	95.44
509.238	90.44
509.454	105.44
509.67	93.44
509.887	97.44
510.103	108.44
510.319	87.44
510.536	110.44
510.752	94.44
510.968	101.44
511.184	92.44
511.401	99.44
511.617	81.44
511.833	114.44
512.049	112.44
512.265	111.44
512.481	114.44
512.698	95.44
512.914	106.44
513.13	96.44
513.346	96.44
513.562	104.44
513.778	101.44
513.994	96.44
514.21	90.44
514.426	100.44
514.642	98.44
514.858	100.44
515.074	100.44
515.29	114.44
515.506	101.44
515.721	86.44
515.937	108.44
516.153	104.44
516.369	101.44
516.585	100.44
516.801	97.44
517.016	114.44
517.232	89.44
517.448	103.44
517.664	93.44
517.879	88.44
518.095	105.44
518.311	95.44
518.527	118.44
518.742	123.44
518.958	174.44
519.173	197.44
519.389	145.44
519.605	110.44
519.82	110.44
520.036	102.44
520.251	104.44
520.467	92.44
520.682	92.44
520.898	107.44
521.113	109.44
521.329	88.44
521.544	94.44
521.76	107.44
521.975	98.44
522.19	99.44
522.406	82.44
522.621	116.44
522.836	102.44
523.052	83.44
523.267	98.44
523.482	89.44
523.698	81.44
523.913	102.44
524.128	113.44
524.343	116.44
524.559	100.44
524.774	91.44
524.989	94.44
525.204	100.44
525.419	119.44
525.634	128.44
525.849	129.44
526.064	166.44
526.28	326.44
526.495	474.44
526.71	551.44
526.925	368.44
527.14	464.44
527.355	424.44
527.57	166.44
527.785	118.44
527.999	106.44
528.214	125.44
528.429	108.44
528.644	90.44
528.859	111.44
529.074	97.44
529.289	103.44
529.503	104.44
529.718	95.44
529.933	97.44
530.148	103.44
530.363	103.44
530.577	105.44
530.792	99.44
531.007	94.44
531.221	110.44
531.436	104.44
531.651	106.44
531.865	97.44
532.08	91.44
532.295	98.44
532.509	105.44
532.724	107.44
532.938	116.44
533.153	102.44
533.367	116.44
533.582	109.44
533.796	118.44
534.011	101.44
534.225	124.44
534.44	146.44
534.654	128.44
534.868	147.44
535.083	256.44
535.297	215.44
535.511	133.44
535.726	112.44
535.94	128.44
536.154	118.44
536.369	118.44
536.583	129.44
536.797	133.44
537.011	108.44
537.225	90.44
537.44	101.44
537.654	98.44
537.868	112.44
538.082	116.44
538.296	110.44
538.51	96.44
538.724	109.44
538.938	106.44
539.153	101.44
539.367	98.44
539.581	113.44
539.795	89.44
540.009	96.44
540.222	111.44
540.436	107.44
540.65	128.44
540.864	94.44
541.078	90.44
541.292	90.44
541.506	107.44
541.72	96.44
541.934	108.44
542.147	129.44
542.361	105.44
542.575	101.44
542.789	108.44
543.002	116.44
543.216	104.44
543.43	97.44
543.644	85.44
543.857	102.44
544.071	101.44
544.285	104.44
544.498	112.44
544.712	100.44
544.925	96.44
545.139	100.44
545.352	109.44
545.566	107.44
545.779	96.44
545.993	112.44
546.206	103.44
546.42	108.44
546.633	113.44
546.847	119.44
547.06	118.44
547.274	139.44
547.487	143.44
547.7	151.44
547.914	153.44
548.127	172.44
548.34	163.44
548.554	153.44
548.767	138.44
548.98	153.44
549.193	154.44
549.407	158.44
549.62	189.44
549.833	176.44
550.046	175.44
550.259	174.44
550.473	185.44
550.686	180.44
550.899	205.44
551.112	229.44
551.325	242.44
551.538	248.44
551.751	218.44
551.964	183.44
552.177	212.44
552.39	196.44
552.603	204.44
552.816	182.44
553.029	193.44
553.242	184.44
553.455	192.44
553.667	200.44
553.88	227.44
554.093	186.44
554.306	204.44
554.519	185.44
554.732	199.44
554.944	180.44
555.157	173.44
555.37	175.44
555.583	169.44
555.795	158.44
556.008	140.44
556.221	139.44
556.433	160.44
556.646	158.44
556.859	133.44
557.071	133.44
557.284	135.44
557.496	130.44
557.709	142.44
557.921	138.44
558.134	155.44
558.346	240.44
558.559	230.44
558.771	210.44
558.984	440.44
559.196	605.44
559.409	313.44
559.621	463.44
559.833	370.44
560.046	419.44
560.258	346.44
560.47	345.44
560.683	193.44
560.895	122.44
561.107	106.44
561.32	111.44
561.532	109.44
561.744	105.44
561.956	93.44
562.168	122.44
562.381	111.44
562.593	93.44
562.805	103.44
563.017	116.44
563.229	100.44
563.441	92.44
563.653	114.44
563.865	103.44
564.077	107.44
564.289	96.44
564.501	100.44
564.713	97.44
564.925	104.44
565.137	102.44
565.349	103.44
565.561	110.44
565.773	103.44
565.985	97.44
566.197	94.44
566.408	100.44
566.62	99.44
566.832	103.44
567.044	97.44
567.255	113.44
567.467	102.44
567.679	96.44
567.891	92.44
568.102	107.44
568.314	91.44
568.526	103.44
568.737	109.44
568.949	122.44
569.161	120.44
569.372	112.44
569.584	103.44
569.795	104.44
570.007	104.44
570.218	99.44
570.43	105.44
570.641	106.44
570.853	97.44
571.064	102.44
571.276	112.44
571.487	103.44
571.698	98.44
571.91	82.44
572.121	98.44
572.333	103.44
572.544	93.44
572.755	96.44
572.966	106.44
573.178	111.44
573.389	105.44
573.6	92.44
573.811	94.44
574.023	95.44
574.234	94.44
574.445	106.44
574.656	97.44
574.867	95.44
575.078	94.44
575.289	98.44
575.501	90.44
575.712	90.44
575.923	94.44
576.134	100.44
576.345	96.44
576.556	85.44
576.767	91.44
576.978	102.44
577.188	113.44
577.399	107.44
577.61	93.44
577.821	100.44
578.032	103.44
578.243	104.44
578.454	117.44
578.665	129.44
578.875	111.44
579.086	109.44
579.297	114.44
579.508	112.44
579.718	100.44
579.929	110.44
580.14	110.44
580.35	140.44
580.561	153.44
580.772	132.44
580.982	136.44
581.193	113.44
581.403	121.44
581.614	124.44
581.825	117.44
582.035	101.44
582.246	106.44
582.456	102.44
582.667	101.44
582.877	111.44
583.087	110.44
583.298	103.44
583.508	124.44
583.719	122.44
583.929	116.44
584.139	118.44
584.35	109.44
584.56	110.44
584.77	112.44
584.981	106.44
585.191	121.44
585.401	108.44
585.611	124.44
585.821	185.44
586.032	352.44
586.242	210.44
586.452	142.44
586.662	110.44
586.872	117.44
587.082	100.44
587.292	114.44
587.502	119.44
587.713	119.44
587.923	125.44
588.133	136.44
588.343	158.44
588.553	168.44
588.762	255.44
588.972	428.44
589.182	759.44
589.392	622.44
589.602	474.44
589.812	667.44
590.022	436.44
590.232	226.44
590.441	174.44
590.651	136.44
590.861	128.44
591.071	135.44
591.281	103.44
591.49	122.44
591.7	113.44
591.91	126.44
592.119	101.44
592.329	106.44
592.539	111.44
592.748	116.44
592.958	120.44
593.167	114.44
593.377	111.44
593.587	114.44
593.796	125.44
594.006	116.44
594.215	106.44
594.424	102.44
594.634	111.44
594.843	118.44
595.053	124.44
595.262	127.44
595.472	138.44
595.681	133.44
595.89	133.44
596.1	115.44
596.309	133.44
596.518	142.44
596.727	149.44
596.937	155.44
597.146	169.44
597.355	140.44
597.564	158.44
597.774	156.44
597.983	152.44
598.192	152.44
598.401	159.44
598.61	163.44
598.819	160.44
599.028	171.44
599.237	168.44
599.446	182.44
599.655	169.44
599.864	188.44
600.073	191.44
600.282	186.44
600.491	203.44
600.7	198.44
600.909	181.44
601.118	183.44
601.327	176.44
601.536	153.44
601.745	152.44
601.953	153.44
602.162	157.44
602.371	154.44
602.58	157.44
602.789	155.44
602.997	155.44
603.206	162.44
603.415	167.44
603.623	150.44
603.832	169.44
604.041	170.44
604.249	152.44
604.458	166.44
604.666	177.44
604.875	184.44
605.084	191.44
605.292	168.44
605.501	180.44
605.709	193.44
605.918	193.44
606.126	196.44
606.334	200.44
606.543	204.44
606.751	187.44
606.96	187.44
607.168	178.44
607.376	186.44
607.585	208.44
607.793	198.44
608.001	187.44
608.21	192.44
608.418	206.44
608.626	222.44
608.834	221.44
609.043	230.44
609.251	235.44
609.459	236.44
609.667	241.44
609.875	273.44
610.083	265.44
610.291	286.44
610.499	418.44
610.707	291.44
610.916	210.44
611.124	218.44
611.332	191.44
611.54	173.44
611.748	209.44
611.955	222.44
612.163	241.44
612.371	427.44
612.579	430.44
612.787	252.44
612.995	238.44
613.203	214.44
613.411	205.44
613.618	211.44
613.826	226.44
614.034	226.44
614.242	231.44
614.449	247.44
614.657	229.44
614.865	209.44
615.072	218.44
615.28	221.44
615.488	215.44
615.695	252.44
615.903	224.44
616.111	258.44
616.318	439.44
616.526	561.44
616.733	366.44
616.941	314.44
617.148	354.44
617.356	297.44
617.563	241.44
617.771	226.44
617.978	201.44
618.185	189.44
618.393	188.44
618.6	198.44
618.807	157.44
619.015	164.44
619.222	178.44
619.429	189.44
619.637	184.44
619.844	173.44
620.051	176.44
620.258	187.44
620.466	182.44
620.673	196.44
620.88	205.44
621.087	197.44
621.294	186.44
621.501	185.44
621.708	177.44
621.915	183.44
622.122	193.44
622.329	216.44
622.536	208.44
622.743	208.44
622.95	222.44
623.157	225.44
623.364	244.44
623.571	243.44
623.778	259.44
623.985	265.44
624.192	269.44
624.399	278.44
624.606	298.44
624.812	313.44
625.019	281.44
625.226	267.44
625.433	291.44
625.639	259.44
625.846	261.44
626.053	251.44
626.259	222.44
626.466	238.44
626.673	269.44
626.879	266.44
627.086	268.44
627.293	273.44
627.499	258.44
627.706	236.44
627.912	200.44
628.119	184.44
628.325	167.44
628.532	150.44
628.738	133.44
628.945	120.44
629.151	126.44
629.357	113.44
629.564	124.44
629.77	107.44
629.976	111.44
630.183	100.44
630.389	109.44
630.595	122.44
630.802	119.44
631.008	103.44
631.214	114.44
631.42	117.44
631.627	109.44
631.833	126.44
632.039	112.44
632.245	105.44
632.451	99.44
632.657	120.44
632.863	98.44
633.069	108.44
633.275	103.44
633.481	119.44
633.688	109.44
633.893	113.44
634.099	113.44
634.305	139.44
634.511	135.44
634.717	123.44
634.923	139.44
635.129	130.44
635.335	146.44
635.541	145.44
635.747	125.44
635.952	127.44
636.158	109.44
636.364	128.44
636.57	140.44
636.775	128.44
636.981	117.44
637.187	135.44
637.392	131.44
637.598	104.44
637.804	123.44
638.009	125.44
638.215	119.44
638.421	119.44
638.626	104.44
638.832	108.44
639.037	95.44
639.243	100.44
639.448	96.44
639.654	89.44
639.859	100.44
640.065	92.44
640.27	100.44
640.475	90.44
640.681	102.44
640.886	100.44
641.091	97.44
641.297	106.44
641.502	109.44
641.707	118.44
641.913	103.44
642.118	106.44
642.323	89.44
642.528	91.44
642.733	117.44
642.939	103.44
643.144	99.44
643.349	109.44
643.554	111.44
643.759	118.44
643.964	158.44
644.169	228.44
644.374	130.44
644.579	90.44
644.784	109.44
644.989	125.44
645.194	150.44
645.399	130.44
645.604	98.44
645.809	100.44
646.014	108.44
646.219	127.44
646.423	222.44
646.628	163.44
646.833	114.44
647.038	113.44
647.243	121.44
647.447	126.44
647.652	121.44
647.857	105.44
648.062	102.44
648.266	84.44
648.471	87.44
648.676	98.44
648.88	100.44
649.085	90.44
649.289	96.44
649.494	147.44
649.698	142.44
649.903	113.44
650.107	128.44
650.312	108.44
650.516	88.44
650.721	96.44
650.925	85.44
651.13	95.44
651.334	83.44
651.539	89.44
651.743	88.44
651.947	85.44
652.152	96.44
652.356	96.44
652.56	90.44
652.764	80.44
652.969	75.44
653.173	92.44
653.377	82.44
653.581	95.44
653.785	81.44
653.99	97.44
654.194	89.44
654.398	95.44
654.602	88.44
654.806	81.44
655.01	88.44
655.214	93.44
655.418	86.44
655.622	82.44
655.826	93.44
656.03	72.44
656.234	76.44
656.438	80.44
656.642	82.44
656.846	84.44
657.049	90.44
657.253	100.44
657.457	85.44
657.661	94.44
657.865	88.44
658.068	85.44
658.272	88.44
658.476	90.44
658.68	101.44
658.883	91.44
659.087	95.44
659.291	84.44
659.494	76.44
659.698	81.44
659.901	88.44
660.105	92.44
660.309	88.44
660.512	84.44
660.716	90.44
660.919	88.44
661.123	76.44
661.326	85.44
661.53	85.44
661.733	76.44
661.936	93.44
662.14	88.44
662.343	82.44
662.546	85.44
662.75	77.44
662.953	89.44
663.156	95.44
663.36	79.44
663.563	86.44
663.766	75.44
663.969	80.44
664.173	80.44
664.376	82.44
664.579	80.44
664.782	91.44
664.985	75.44
665.188	95.44
665.391	87.44
665.594	86.44
665.797	84.44
666	88.44
666.203	87.44
666.406	83.44
666.609	75.44
666.812	87.44
667.015	82.44
667.218	97.44
667.421	82.44
667.624	88.44
667.827	76.44
668.03	97.44
668.232	85.44
668.435	77.44
668.638	91.44
668.841	82.44
669.043	88.44
669.246	87.44
669.449	82.44
669.651	84.44
669.854	80.44
670.057	83.44
670.259	85.44
670.462	82.44
670.665	93.44
670.867	85.44
671.07	89.44
671.272	78.44
671.475	88.44
671.677	88.44
671.88	102.44
672.082	87.44
672.284	91.44
672.487	83.44
672.689	80.44
672.892	82.44
