Data from 2145_3_HRD10591_00012.txt Node
Date: Mon Jan 19 14:23:14 EST 2026
User: Yrep
Spectrometer: HR+D1059
Trigger mode: 1
Integration Time (sec): 1.000000E-1
Scans to average: 1
Electric dark correction enabled: true
Nonlinearity correction enabled: false
Boxcar width: 0
XAxis mode: Wavelengths
Number of Pixels in Spectrum: 2048
>>>>>Begin Spectral Data<<<<<
223.165	-23.44
223.4	-23.44
223.635	-23.44
223.869	-15.44
224.104	-2.44
224.338	-8.44
224.573	-17.44
224.808	-14.44
225.042	3.56
225.277	-5.44
225.511	-0.44
225.746	-3.44
225.98	2.56
226.215	7.56
226.449	29.56
226.683	15.56
226.918	13.56
227.152	18.56
227.387	17.56
227.621	25.56
227.856	44.56
228.09	40.56
228.324	51.56
228.559	39.56
228.793	65.56
229.027	56.56
229.262	62.56
229.496	56.56
229.73	76.56
229.964	70.56
230.199	67.56
230.433	72.56
230.667	65.56
230.901	80.56
231.136	76.56
231.37	75.56
231.604	71.56
231.838	67.56
232.072	75.56
232.306	91.56
232.541	87.56
232.775	83.56
233.009	71.56
233.243	72.56
233.477	71.56
233.711	85.56
233.945	84.56
234.179	83.56
234.413	69.56
234.647	62.56
234.881	78.56
235.115	93.56
235.349	80.56
235.583	73.56
235.817	75.56
236.051	67.56
236.285	74.56
236.519	70.56
236.753	74.56
236.987	71.56
237.221	67.56
237.455	70.56
237.689	70.56
237.922	82.56
238.156	67.56
238.39	72.56
238.624	75.56
238.858	66.56
239.091	70.56
239.325	66.56
239.559	67.56
239.793	58.56
240.027	68.56
240.26	70.56
240.494	76.56
240.728	75.56
240.961	89.56
241.195	89.56
241.429	63.56
241.662	80.56
241.896	78.56
242.13	72.56
242.363	64.56
242.597	85.56
242.83	70.56
243.064	68.56
243.298	64.56
243.531	86.56
243.765	89.56
243.998	72.56
244.232	74.56
244.465	86.56
244.699	74.56
244.932	78.56
245.166	74.56
245.399	75.56
245.633	86.56
245.866	79.56
246.099	67.56
246.333	78.56
246.566	71.56
246.8	76.56
247.033	66.56
247.266	79.56
247.5	88.56
247.733	76.56
247.966	84.56
248.2	71.56
248.433	75.56
248.666	75.56
248.899	91.56
249.133	73.56
249.366	81.56
249.599	70.56
249.832	85.56
250.066	58.56
250.299	66.56
250.532	66.56
250.765	60.56
250.998	77.56
251.231	72.56
251.465	74.56
251.698	71.56
251.931	73.56
252.164	80.56
252.397	87.56
252.63	80.56
252.863	77.56
253.096	83.56
253.329	84.56
253.562	72.56
253.795	87.56
254.028	76.56
254.261	89.56
254.494	80.56
254.727	74.56
254.96	73.56
255.193	70.56
255.426	75.56
255.659	67.56
255.892	88.56
256.124	80.56
256.357	79.56
256.59	72.56
256.823	63.56
257.056	66.56
257.289	90.56
257.521	60.56
257.754	75.56
257.987	70.56
258.22	75.56
258.452	82.56
258.685	68.56
258.918	74.56
259.151	68.56
259.383	82.56
259.616	82.56
259.849	61.56
260.081	82.56
260.314	75.56
260.547	77.56
260.779	70.56
261.012	64.56
261.244	68.56
261.477	68.56
261.71	73.56
261.942	83.56
262.175	68.56
262.407	67.56
262.64	83.56
262.872	80.56
263.105	74.56
263.337	95.56
263.57	80.56
263.802	75.56
264.035	73.56
264.267	70.56
264.499	79.56
264.732	88.56
264.964	73.56
265.197	92.56
265.429	78.56
265.661	86.56
265.894	65.56
266.126	69.56
266.358	60.56
266.591	80.56
266.823	81.56
267.055	81.56
267.287	78.56
267.52	90.56
267.752	81.56
267.984	67.56
268.216	77.56
268.448	93.56
268.681	75.56
268.913	80.56
269.145	72.56
269.377	89.56
269.609	75.56
269.841	87.56
270.073	80.56
270.306	85.56
270.538	58.56
270.77	60.56
271.002	86.56
271.234	87.56
271.466	83.56
271.698	82.56
271.93	77.56
272.162	72.56
272.394	83.56
272.626	83.56
272.858	80.56
273.09	90.56
273.322	95.56
273.553	86.56
273.785	76.56
274.017	74.56
274.249	80.56
274.481	80.56
274.713	75.56
274.945	89.56
275.176	72.56
275.408	76.56
275.64	73.56
275.872	82.56
276.104	97.56
276.335	72.56
276.567	82.56
276.799	74.56
277.031	86.56
277.262	87.56
277.494	71.56
277.726	77.56
277.957	66.56
278.189	80.56
278.421	82.56
278.652	69.56
278.884	81.56
279.115	69.56
279.347	80.56
279.579	88.56
279.81	88.56
280.042	81.56
280.273	80.56
280.505	87.56
280.736	82.56
280.968	73.56
281.199	74.56
281.431	72.56
281.662	75.56
281.894	83.56
282.125	83.56
282.356	76.56
282.588	68.56
282.819	73.56
283.051	81.56
283.282	62.56
283.513	90.56
283.745	67.56
283.976	82.56
284.207	84.56
284.439	76.56
284.67	80.56
284.901	86.56
285.132	94.56
285.364	81.56
285.595	91.56
285.826	76.56
286.057	92.56
286.288	71.56
286.52	64.56
286.751	93.56
286.982	73.56
287.213	87.56
287.444	94.56
287.675	84.56
287.906	81.56
288.138	92.56
288.369	76.56
288.6	86.56
288.831	82.56
289.062	65.56
289.293	64.56
289.524	70.56
289.755	80.56
289.986	85.56
290.217	71.56
290.448	80.56
290.679	73.56
290.91	94.56
291.141	87.56
291.371	83.56
291.602	74.56
291.833	78.56
292.064	84.56
292.295	77.56
292.526	83.56
292.757	83.56
292.987	70.56
293.218	81.56
293.449	81.56
293.68	83.56
293.91	86.56
294.141	82.56
294.372	80.56
294.603	80.56
294.833	75.56
295.064	74.56
295.295	75.56
295.525	90.56
295.756	87.56
295.987	86.56
296.217	84.56
296.448	80.56
296.679	76.56
296.909	91.56
297.14	79.56
297.37	81.56
297.601	83.56
297.831	69.56
298.062	76.56
298.292	93.56
298.523	94.56
298.753	96.56
298.984	98.56
299.214	80.56
299.445	82.56
299.675	72.56
299.905	86.56
300.136	88.56
300.366	81.56
300.597	93.56
300.827	84.56
301.057	75.56
301.288	73.56
301.518	78.56
301.748	82.56
301.979	97.56
302.209	82.56
302.439	79.56
302.669	79.56
302.9	81.56
303.13	88.56
303.36	82.56
303.59	76.56
303.82	83.56
304.051	87.56
304.281	82.56
304.511	80.56
304.741	84.56
304.971	79.56
305.201	80.56
305.431	76.56
305.661	70.56
305.891	86.56
306.121	88.56
306.352	81.56
306.582	95.56
306.812	89.56
307.042	85.56
307.272	91.56
307.502	83.56
307.731	83.56
307.961	77.56
308.191	82.56
308.421	87.56
308.651	65.56
308.881	76.56
309.111	81.56
309.341	90.56
309.571	79.56
309.8	80.56
310.03	86.56
310.26	77.56
310.49	81.56
310.72	83.56
310.949	83.56
311.179	81.56
311.409	88.56
311.639	97.56
311.868	97.56
312.098	70.56
312.328	88.56
312.557	95.56
312.787	76.56
313.017	86.56
313.246	81.56
313.476	78.56
313.706	81.56
313.935	69.56
314.165	88.56
314.394	74.56
314.624	82.56
314.853	80.56
315.083	74.56
315.312	86.56
315.542	83.56
315.771	89.56
316.001	79.56
316.23	70.56
316.46	80.56
316.689	84.56
316.919	84.56
317.148	83.56
317.377	83.56
317.607	75.56
317.836	75.56
318.065	80.56
318.295	96.56
318.524	79.56
318.753	82.56
318.983	94.56
319.212	87.56
319.441	72.56
319.67	64.56
319.9	81.56
320.129	69.56
320.358	80.56
320.587	79.56
320.816	84.56
321.046	87.56
321.275	76.56
321.504	76.56
321.733	88.56
321.962	64.56
322.191	67.56
322.42	79.56
322.649	88.56
322.878	98.56
323.108	87.56
323.337	84.56
323.566	90.56
323.795	90.56
324.024	79.56
324.253	70.56
324.482	83.56
324.71	89.56
324.939	89.56
325.168	74.56
325.397	70.56
325.626	84.56
325.855	94.56
326.084	77.56
326.313	84.56
326.542	89.56
326.77	70.56
326.999	84.56
327.228	76.56
327.457	80.56
327.686	80.56
327.914	81.56
328.143	73.56
328.372	94.56
328.6	84.56
328.829	89.56
329.058	79.56
329.287	86.56
329.515	77.56
329.744	75.56
329.972	90.56
330.201	86.56
330.43	86.56
330.658	74.56
330.887	80.56
331.115	70.56
331.344	69.56
331.572	80.56
331.801	83.56
332.03	66.56
332.258	82.56
332.486	85.56
332.715	66.56
332.943	83.56
333.172	91.56
333.4	77.56
333.629	88.56
333.857	74.56
334.085	82.56
334.314	80.56
334.542	82.56
334.771	80.56
334.999	94.56
335.227	78.56
335.455	84.56
335.684	73.56
335.912	78.56
336.14	80.56
336.369	70.56
336.597	82.56
336.825	78.56
337.053	80.56
337.281	84.56
337.51	92.56
337.738	85.56
337.966	80.56
338.194	78.56
338.422	91.56
338.65	78.56
338.878	80.56
339.106	76.56
339.334	80.56
339.562	89.56
339.79	92.56
340.018	73.56
340.246	89.56
340.474	71.56
340.702	84.56
340.93	74.56
341.158	90.56
341.386	92.56
341.614	76.56
341.842	69.56
342.07	80.56
342.298	96.56
342.526	86.56
342.754	92.56
342.981	77.56
343.209	95.56
343.437	81.56
343.665	84.56
343.893	78.56
344.12	81.56
344.348	86.56
344.576	79.56
344.804	83.56
345.031	78.56
345.259	83.56
345.487	85.56
345.714	73.56
345.942	84.56
346.17	80.56
346.397	85.56
346.625	81.56
346.853	80.56
347.08	85.56
347.308	83.56
347.535	73.56
347.763	79.56
347.99	80.56
348.218	77.56
348.445	82.56
348.673	84.56
348.9	79.56
349.128	83.56
349.355	90.56
349.583	80.56
349.81	86.56
350.037	69.56
350.265	78.56
350.492	87.56
350.72	74.56
350.947	75.56
351.174	82.56
351.402	84.56
351.629	66.56
351.856	91.56
352.083	84.56
352.311	75.56
352.538	77.56
352.765	88.56
352.992	87.56
353.22	84.56
353.447	83.56
353.674	81.56
353.901	82.56
354.128	76.56
354.355	72.56
354.583	81.56
354.81	81.56
355.037	74.56
355.264	78.56
355.491	68.56
355.718	85.56
355.945	92.56
356.172	79.56
356.399	90.56
356.626	80.56
356.853	99.56
357.08	86.56
357.307	80.56
357.534	82.56
357.761	79.56
357.988	80.56
358.215	89.56
358.441	70.56
358.668	76.56
358.895	72.56
359.122	85.56
359.349	86.56
359.576	84.56
359.802	79.56
360.029	67.56
360.256	80.56
360.483	87.56
360.709	82.56
360.936	80.56
361.163	76.56
361.39	84.56
361.616	73.56
361.843	86.56
362.07	72.56
362.296	97.56
362.523	94.56
362.749	82.56
362.976	77.56
363.203	62.56
363.429	81.56
363.656	84.56
363.882	79.56
364.109	78.56
364.335	81.56
364.562	80.56
364.788	78.56
365.015	86.56
365.241	68.56
365.468	90.56
365.694	74.56
365.92	75.56
366.147	84.56
366.373	80.56
366.599	80.56
366.826	76.56
367.052	68.56
367.278	76.56
367.505	73.56
367.731	75.56
367.957	74.56
368.184	79.56
368.41	74.56
368.636	81.56
368.862	76.56
369.089	83.56
369.315	70.56
369.541	68.56
369.767	78.56
369.993	77.56
370.219	60.56
370.445	78.56
370.672	86.56
370.898	83.56
371.124	76.56
371.35	80.56
371.576	65.56
371.802	68.56
372.028	80.56
372.254	72.56
372.48	74.56
372.706	72.56
372.932	79.56
373.158	84.56
373.384	70.56
373.61	84.56
373.835	85.56
374.061	80.56
374.287	94.56
374.513	77.56
374.739	75.56
374.965	81.56
375.191	81.56
375.416	81.56
375.642	65.56
375.868	77.56
376.094	78.56
376.319	78.56
376.545	82.56
376.771	94.56
376.997	66.56
377.222	88.56
377.448	84.56
377.674	86.56
377.899	78.56
378.125	81.56
378.35	81.56
378.576	68.56
378.802	67.56
379.027	84.56
379.253	65.56
379.478	87.56
379.704	72.56
379.929	81.56
380.155	92.56
380.38	70.56
380.606	87.56
380.831	61.56
381.057	91.56
381.282	55.56
381.507	72.56
381.733	74.56
381.958	83.56
382.184	74.56
382.409	80.56
382.634	76.56
382.86	70.56
383.085	80.56
383.31	82.56
383.535	90.56
383.761	83.56
383.986	80.56
384.211	78.56
384.436	91.56
384.662	80.56
384.887	74.56
385.112	72.56
385.337	85.56
385.562	74.56
385.787	80.56
386.013	79.56
386.238	72.56
386.463	80.56
386.688	88.56
386.913	74.56
387.138	78.56
387.363	76.56
387.588	74.56
387.813	87.56
388.038	84.56
388.263	81.56
388.488	97.56
388.713	74.56
388.938	67.56
389.163	78.56
389.387	82.56
389.612	76.56
389.837	88.56
390.062	83.56
390.287	76.56
390.512	79.56
390.736	74.56
390.961	67.56
391.186	82.56
391.411	81.56
391.636	66.56
391.86	82.56
392.085	77.56
392.31	73.56
392.534	73.56
392.759	81.56
392.984	95.56
393.208	82.56
393.433	76.56
393.658	78.56
393.882	78.56
394.107	78.56
394.331	74.56
394.556	93.56
394.78	84.56
395.005	72.56
395.229	72.56
395.454	91.56
395.678	83.56
395.903	83.56
396.127	86.56
396.352	86.56
396.576	77.56
396.801	75.56
397.025	75.56
397.249	87.56
397.474	80.56
397.698	82.56
397.922	84.56
398.147	90.56
398.371	80.56
398.595	73.56
398.82	86.56
399.044	68.56
399.268	72.56
399.492	85.56
399.717	78.56
399.941	71.56
400.165	88.56
400.389	85.56
400.613	71.56
400.837	94.56
401.062	82.56
401.286	90.56
401.51	76.56
401.734	85.56
401.958	80.56
402.182	75.56
402.406	72.56
402.63	80.56
402.854	79.56
403.078	79.56
403.302	73.56
403.526	81.56
403.75	73.56
403.974	76.56
404.198	84.56
404.422	81.56
404.645	86.56
404.869	83.56
405.093	86.56
405.317	75.56
405.541	87.56
405.765	74.56
405.988	74.56
406.212	89.56
406.436	72.56
406.66	86.56
406.883	82.56
407.107	85.56
407.331	72.56
407.555	80.56
407.778	68.56
408.002	88.56
408.226	78.56
408.449	86.56
408.673	81.56
408.896	89.56
409.12	70.56
409.344	84.56
409.567	91.56
409.791	88.56
410.014	83.56
410.238	74.56
410.461	57.56
410.685	65.56
410.908	77.56
411.132	78.56
411.355	69.56
411.578	73.56
411.802	58.56
412.025	79.56
412.249	69.56
412.472	82.56
412.695	84.56
412.919	80.56
413.142	89.56
413.365	76.56
413.589	70.56
413.812	66.56
414.035	80.56
414.258	76.56
414.482	82.56
414.705	96.56
414.928	81.56
415.151	77.56
415.374	72.56
415.597	76.56
415.821	74.56
416.044	72.56
416.267	86.56
416.49	65.56
416.713	74.56
416.936	66.56
417.159	82.56
417.382	70.56
417.605	73.56
417.828	69.56
418.051	67.56
418.274	77.56
418.497	72.56
418.72	85.56
418.943	80.56
419.166	73.56
419.389	87.56
419.611	59.56
419.834	69.56
420.057	87.56
420.28	72.56
420.503	65.56
420.726	76.56
420.948	85.56
421.171	90.56
421.394	61.56
421.617	80.56
421.839	77.56
422.062	70.56
422.285	65.56
422.507	89.56
422.73	66.56
422.953	72.56
423.175	83.56
423.398	74.56
423.621	79.56
423.843	75.56
424.066	67.56
424.288	79.56
424.511	70.56
424.733	79.56
424.956	77.56
425.178	67.56
425.401	75.56
425.623	80.56
425.846	68.56
426.068	66.56
426.291	79.56
426.513	89.56
426.735	81.56
426.958	81.56
427.18	66.56
427.402	78.56
427.625	77.56
427.847	84.56
428.069	64.56
428.292	86.56
428.514	83.56
428.736	81.56
428.958	85.56
429.181	79.56
429.403	69.56
429.625	75.56
429.847	95.56
430.069	69.56
430.292	78.56
430.514	94.56
430.736	79.56
430.958	75.56
431.18	80.56
431.402	80.56
431.624	91.56
431.846	67.56
432.068	84.56
432.29	87.56
432.512	83.56
432.734	91.56
432.956	75.56
433.178	77.56
433.4	82.56
433.622	85.56
433.844	80.56
434.066	64.56
434.287	68.56
434.509	86.56
434.731	78.56
434.953	74.56
435.175	66.56
435.397	82.56
435.618	71.56
435.84	81.56
436.062	77.56
436.284	81.56
436.505	84.56
436.727	89.56
436.949	82.56
437.17	86.56
437.392	75.56
437.614	70.56
437.835	77.56
438.057	75.56
438.278	70.56
438.5	79.56
438.721	64.56
438.943	77.56
439.165	87.56
439.386	76.56
439.608	79.56
439.829	84.56
440.05	72.56
440.272	74.56
440.493	83.56
440.715	68.56
440.936	84.56
441.158	71.56
441.379	77.56
441.6	74.56
441.822	74.56
442.043	87.56
442.264	66.56
442.486	67.56
442.707	71.56
442.928	69.56
443.149	74.56
443.371	57.56
443.592	73.56
443.813	81.56
444.034	74.56
444.255	71.56
444.476	73.56
444.698	74.56
444.919	78.56
445.14	167.56
445.361	110.56
445.582	77.56
445.803	68.56
446.024	68.56
446.245	71.56
446.466	75.56
446.687	77.56
446.908	86.56
447.129	82.56
447.35	85.56
447.571	88.56
447.792	75.56
448.013	76.56
448.234	80.56
448.455	86.56
448.675	80.56
448.896	76.56
449.117	83.56
449.338	75.56
449.559	72.56
449.779	79.56
450	68.56
450.221	66.56
450.442	90.56
450.662	70.56
450.883	72.56
451.104	84.56
451.324	83.56
451.545	75.56
451.766	71.56
451.986	94.56
452.207	80.56
452.428	69.56
452.648	82.56
452.869	82.56
453.089	67.56
453.31	70.56
453.53	81.56
453.751	78.56
453.971	81.56
454.192	71.56
454.412	81.56
454.633	86.56
454.853	75.56
455.073	88.56
455.294	72.56
455.514	70.56
455.734	81.56
455.955	86.56
456.175	80.56
456.395	62.56
456.616	84.56
456.836	64.56
457.056	87.56
457.276	83.56
457.497	88.56
457.717	81.56
457.937	82.56
458.157	80.56
458.377	90.56
458.598	80.56
458.818	94.56
459.038	75.56
459.258	82.56
459.478	82.56
459.698	87.56
459.918	75.56
460.138	62.56
460.358	59.56
460.578	68.56
460.798	82.56
461.018	82.56
461.238	83.56
461.458	77.56
461.678	75.56
461.898	74.56
462.118	78.56
462.338	78.56
462.558	74.56
462.777	74.56
462.997	78.56
463.217	71.56
463.437	83.56
463.657	84.56
463.876	71.56
464.096	86.56
464.316	72.56
464.536	88.56
464.755	82.56
464.975	76.56
465.195	68.56
465.414	90.56
465.634	85.56
465.854	60.56
466.073	76.56
466.293	69.56
466.512	77.56
466.732	88.56
466.951	78.56
467.171	74.56
467.391	75.56
467.61	79.56
467.829	64.56
468.049	78.56
468.268	78.56
468.488	80.56
468.707	85.56
468.927	76.56
469.146	69.56
469.365	71.56
469.585	62.56
469.804	96.56
470.023	81.56
470.243	81.56
470.462	88.56
470.681	86.56
470.901	79.56
471.12	66.56
471.339	87.56
471.558	64.56
471.777	88.56
471.997	79.56
472.216	74.56
472.435	80.56
472.654	62.56
472.873	86.56
473.092	90.56
473.311	70.56
473.53	75.56
473.749	83.56
473.968	73.56
474.187	70.56
474.406	62.56
474.625	76.56
474.844	85.56
475.063	72.56
475.282	88.56
475.501	65.56
475.72	86.56
475.939	90.56
476.158	79.56
476.377	80.56
476.596	65.56
476.814	73.56
477.033	72.56
477.252	79.56
477.471	82.56
477.69	82.56
477.908	75.56
478.127	90.56
478.346	86.56
478.564	81.56
478.783	84.56
479.002	74.56
479.22	82.56
479.439	86.56
479.658	72.56
479.876	76.56
480.095	63.56
480.313	65.56
480.532	61.56
480.751	75.56
480.969	80.56
481.188	70.56
481.406	62.56
481.624	94.56
481.843	90.56
482.061	67.56
482.28	80.56
482.498	84.56
482.717	82.56
482.935	95.56
483.153	79.56
483.372	86.56
483.59	95.56
483.808	87.56
484.027	75.56
484.245	71.56
484.463	86.56
484.681	91.56
484.9	83.56
485.118	77.56
485.336	81.56
485.554	71.56
485.772	75.56
485.99	79.56
486.209	86.56
486.427	87.56
486.645	76.56
486.863	89.56
487.081	70.56
487.299	61.56
487.517	86.56
487.735	82.56
487.953	85.56
488.171	83.56
488.389	74.56
488.607	88.56
488.825	82.56
489.043	78.56
489.261	76.56
489.479	74.56
489.696	79.56
489.914	68.56
490.132	72.56
490.35	75.56
490.568	65.56
490.786	78.56
491.003	99.56
491.221	98.56
491.439	81.56
491.657	81.56
491.874	68.56
492.092	86.56
492.31	70.56
492.527	69.56
492.745	81.56
492.963	77.56
493.18	66.56
493.398	82.56
493.615	71.56
493.833	68.56
494.05	74.56
494.268	89.56
494.485	70.56
494.703	86.56
494.92	92.56
495.138	77.56
495.355	66.56
495.573	70.56
495.79	74.56
496.008	64.56
496.225	79.56
496.442	77.56
496.66	81.56
496.877	74.56
497.094	87.56
497.312	88.56
497.529	76.56
497.746	83.56
497.963	76.56
498.181	90.56
498.398	89.56
498.615	98.56
498.832	68.56
499.049	76.56
499.267	92.56
499.484	65.56
499.701	75.56
499.918	83.56
500.135	68.56
500.352	83.56
500.569	94.56
500.786	79.56
501.003	91.56
501.22	73.56
501.437	60.56
501.654	63.56
501.871	74.56
502.088	78.56
502.305	77.56
502.522	80.56
502.739	99.56
502.956	76.56
503.172	83.56
503.389	83.56
503.606	88.56
503.823	72.56
504.04	74.56
504.256	93.56
504.473	66.56
504.69	73.56
504.907	80.56
505.123	90.56
505.34	73.56
505.557	95.56
505.773	68.56
505.99	70.56
506.207	74.56
506.423	84.56
506.64	85.56
506.856	83.56
507.073	76.56
507.289	74.56
507.506	75.56
507.722	74.56
507.939	72.56
508.155	81.56
508.372	76.56
508.588	78.56
508.805	86.56
509.021	84.56
509.238	81.56
509.454	74.56
509.67	64.56
509.887	86.56
510.103	82.56
510.319	98.56
510.536	80.56
510.752	94.56
510.968	67.56
511.184	55.56
511.401	76.56
511.617	80.56
511.833	73.56
512.049	83.56
512.265	76.56
512.481	77.56
512.698	84.56
512.914	83.56
513.13	74.56
513.346	71.56
513.562	80.56
513.778	73.56
513.994	82.56
514.21	85.56
514.426	75.56
514.642	80.56
514.858	74.56
515.074	77.56
515.29	88.56
515.506	91.56
515.721	80.56
515.937	85.56
516.153	80.56
516.369	75.56
516.585	78.56
516.801	89.56
517.016	87.56
517.232	86.56
517.448	75.56
517.664	82.56
517.879	83.56
518.095	74.56
518.311	78.56
518.527	81.56
518.742	102.56
518.958	74.56
519.173	71.56
519.389	87.56
519.605	92.56
519.82	83.56
520.036	72.56
520.251	74.56
520.467	68.56
520.682	74.56
520.898	79.56
521.113	84.56
521.329	78.56
521.544	66.56
521.76	90.56
521.975	80.56
522.19	77.56
522.406	80.56
522.621	75.56
522.836	93.56
523.052	86.56
523.267	79.56
523.482	76.56
523.698	83.56
523.913	90.56
524.128	94.56
524.343	75.56
524.559	85.56
524.774	83.56
524.989	84.56
525.204	80.56
525.419	76.56
525.634	78.56
525.849	76.56
526.064	78.56
526.28	76.56
526.495	80.56
526.71	73.56
526.925	78.56
527.14	76.56
527.355	75.56
527.57	83.56
527.785	70.56
527.999	72.56
528.214	73.56
528.429	84.56
528.644	88.56
528.859	95.56
529.074	82.56
529.289	84.56
529.503	70.56
529.718	78.56
529.933	82.56
530.148	85.56
530.363	81.56
530.577	73.56
530.792	85.56
531.007	84.56
531.221	79.56
531.436	87.56
531.651	71.56
531.865	73.56
532.08	85.56
532.295	86.56
532.509	85.56
532.724	80.56
532.938	78.56
533.153	84.56
533.367	69.56
533.582	85.56
533.796	87.56
534.011	80.56
534.225	77.56
534.44	94.56
534.654	83.56
534.868	83.56
535.083	75.56
535.297	87.56
535.511	77.56
535.726	81.56
535.94	81.56
536.154	77.56
536.369	72.56
536.583	74.56
536.797	81.56
537.011	76.56
537.225	74.56
537.44	78.56
537.654	79.56
537.868	83.56
538.082	69.56
538.296	71.56
538.51	80.56
538.724	73.56
538.938	78.56
539.153	80.56
539.367	61.56
539.581	84.56
539.795	78.56
540.009	83.56
540.222	81.56
540.436	74.56
540.65	75.56
540.864	76.56
541.078	86.56
541.292	84.56
541.506	73.56
541.72	92.56
541.934	72.56
542.147	75.56
542.361	70.56
542.575	84.56
542.789	82.56
543.002	76.56
543.216	87.56
543.43	75.56
543.644	84.56
543.857	73.56
544.071	80.56
544.285	80.56
544.498	80.56
544.712	72.56
544.925	76.56
545.139	77.56
545.352	81.56
545.566	77.56
545.779	76.56
545.993	77.56
546.206	87.56
546.42	82.56
546.633	76.56
546.847	79.56
547.06	78.56
547.274	66.56
547.487	79.56
547.7	83.56
547.914	81.56
548.127	82.56
548.34	62.56
548.554	88.56
548.767	90.56
548.98	79.56
549.193	98.56
549.407	77.56
549.62	70.56
549.833	72.56
550.046	86.56
550.259	74.56
550.473	68.56
550.686	90.56
550.899	70.56
551.112	84.56
551.325	78.56
551.538	72.56
551.751	80.56
551.964	78.56
552.177	78.56
552.39	75.56
552.603	72.56
552.816	72.56
553.029	74.56
553.242	66.56
553.455	76.56
553.667	77.56
553.88	67.56
554.093	63.56
554.306	87.56
554.519	80.56
554.732	94.56
554.944	69.56
555.157	75.56
555.37	68.56
555.583	76.56
555.795	83.56
556.008	95.56
556.221	69.56
556.433	86.56
556.646	82.56
556.859	85.56
557.071	80.56
557.284	85.56
557.496	98.56
557.709	62.56
557.921	78.56
558.134	92.56
558.346	73.56
558.559	77.56
558.771	82.56
558.984	80.56
559.196	74.56
559.409	75.56
559.621	89.56
559.833	75.56
560.046	81.56
560.258	84.56
560.47	83.56
560.683	71.56
560.895	80.56
561.107	77.56
561.32	87.56
561.532	77.56
561.744	82.56
561.956	84.56
562.168	68.56
562.381	77.56
562.593	86.56
562.805	59.56
563.017	95.56
563.229	96.56
563.441	75.56
563.653	87.56
563.865	98.56
564.077	80.56
564.289	96.56
564.501	74.56
564.713	64.56
564.925	70.56
565.137	65.56
565.349	88.56
565.561	82.56
565.773	97.56
565.985	83.56
566.197	89.56
566.408	73.56
566.62	65.56
566.832	82.56
567.044	83.56
567.255	68.56
567.467	101.56
567.679	78.56
567.891	81.56
568.102	92.56
568.314	77.56
568.526	79.56
568.737	69.56
568.949	70.56
569.161	80.56
569.372	82.56
569.584	89.56
569.795	91.56
570.007	87.56
570.218	87.56
570.43	80.56
570.641	79.56
570.853	82.56
571.064	80.56
571.276	76.56
571.487	87.56
571.698	77.56
571.91	84.56
572.121	71.56
572.333	81.56
572.544	80.56
572.755	72.56
572.966	74.56
573.178	84.56
573.389	91.56
573.6	84.56
573.811	89.56
574.023	78.56
574.234	73.56
574.445	78.56
574.656	90.56
574.867	71.56
575.078	74.56
575.289	67.56
575.501	83.56
575.712	83.56
575.923	85.56
576.134	63.56
576.345	82.56
576.556	78.56
576.767	79.56
576.978	66.56
577.188	74.56
577.399	80.56
577.61	92.56
577.821	83.56
578.032	83.56
578.243	83.56
578.454	90.56
578.665	86.56
578.875	91.56
579.086	85.56
579.297	83.56
579.508	86.56
579.718	93.56
579.929	84.56
580.14	94.56
580.35	80.56
580.561	76.56
580.772	72.56
580.982	80.56
581.193	78.56
581.403	81.56
581.614	70.56
581.825	82.56
582.035	95.56
582.246	90.56
582.456	88.56
582.667	69.56
582.877	83.56
583.087	86.56
583.298	72.56
583.508	80.56
583.719	86.56
583.929	86.56
584.139	77.56
584.35	83.56
584.56	86.56
584.77	84.56
584.981	66.56
585.191	69.56
585.401	72.56
585.611	64.56
585.821	88.56
586.032	74.56
586.242	88.56
586.452	83.56
586.662	89.56
586.872	72.56
587.082	77.56
587.292	90.56
587.502	74.56
587.713	81.56
587.923	73.56
588.133	81.56
588.343	73.56
588.553	70.56
588.762	78.56
588.972	74.56
589.182	76.56
589.392	79.56
589.602	87.56
589.812	70.56
590.022	89.56
590.232	90.56
590.441	95.56
590.651	94.56
590.861	88.56
591.071	75.56
591.281	92.56
591.49	84.56
591.7	70.56
591.91	92.56
592.119	82.56
592.329	87.56
592.539	91.56
592.748	75.56
592.958	81.56
593.167	69.56
593.377	76.56
593.587	89.56
593.796	85.56
594.006	83.56
594.215	80.56
594.424	82.56
594.634	85.56
594.843	74.56
595.053	82.56
595.262	68.56
595.472	88.56
595.681	98.56
595.89	83.56
596.1	88.56
596.309	76.56
596.518	82.56
596.727	84.56
596.937	79.56
597.146	82.56
597.355	74.56
597.564	88.56
597.774	82.56
597.983	67.56
598.192	71.56
598.401	75.56
598.61	70.56
598.819	98.56
599.028	81.56
599.237	71.56
599.446	99.56
599.655	81.56
599.864	82.56
600.073	87.56
600.282	89.56
600.491	83.56
600.7	93.56
600.909	69.56
601.118	89.56
601.327	66.56
601.536	85.56
601.745	84.56
601.953	84.56
602.162	88.56
602.371	82.56
602.58	80.56
602.789	83.56
602.997	90.56
603.206	86.56
603.415	74.56
603.623	80.56
603.832	85.56
604.041	90.56
604.249	85.56
604.458	74.56
604.666	80.56
604.875	72.56
605.084	68.56
605.292	89.56
605.501	74.56
605.709	82.56
605.918	74.56
606.126	70.56
606.334	67.56
606.543	85.56
606.751	74.56
606.96	89.56
607.168	60.56
607.376	76.56
607.585	76.56
607.793	93.56
608.001	89.56
608.21	75.56
608.418	77.56
608.626	83.56
608.834	81.56
609.043	78.56
609.251	86.56
609.459	68.56
609.667	74.56
609.875	63.56
610.083	80.56
610.291	80.56
610.499	71.56
610.707	83.56
610.916	80.56
611.124	89.56
611.332	73.56
611.54	85.56
611.748	90.56
611.955	86.56
612.163	73.56
612.371	83.56
612.579	72.56
612.787	80.56
612.995	84.56
613.203	87.56
613.411	86.56
613.618	76.56
613.826	72.56
614.034	86.56
614.242	84.56
614.449	95.56
614.657	64.56
614.865	70.56
615.072	82.56
615.28	86.56
615.488	78.56
615.695	90.56
615.903	79.56
616.111	82.56
616.318	96.56
616.526	80.56
616.733	82.56
616.941	82.56
617.148	75.56
617.356	80.56
617.563	85.56
617.771	86.56
617.978	70.56
618.185	83.56
618.393	70.56
618.6	90.56
618.807	83.56
619.015	76.56
619.222	70.56
619.429	85.56
619.637	85.56
619.844	78.56
620.051	77.56
620.258	85.56
620.466	89.56
620.673	86.56
620.88	67.56
621.087	77.56
621.294	86.56
621.501	79.56
621.708	74.56
621.915	84.56
622.122	85.56
622.329	67.56
622.536	65.56
622.743	84.56
622.95	94.56
623.157	67.56
623.364	76.56
623.571	92.56
623.778	80.56
623.985	71.56
624.192	72.56
624.399	70.56
624.606	74.56
624.812	83.56
625.019	76.56
625.226	70.56
625.433	84.56
625.639	66.56
625.846	70.56
626.053	81.56
626.259	86.56
626.466	79.56
626.673	65.56
626.879	76.56
627.086	78.56
627.293	90.56
627.499	89.56
627.706	83.56
627.912	77.56
628.119	69.56
628.325	79.56
628.532	78.56
628.738	87.56
628.945	74.56
629.151	77.56
629.357	79.56
629.564	79.56
629.77	80.56
629.976	87.56
630.183	75.56
630.389	94.56
630.595	84.56
630.802	70.56
631.008	76.56
631.214	75.56
631.42	80.56
631.627	82.56
631.833	75.56
632.039	67.56
632.245	75.56
632.451	76.56
632.657	76.56
632.863	79.56
633.069	80.56
633.275	77.56
633.481	75.56
633.688	71.56
633.893	72.56
634.099	66.56
634.305	84.56
634.511	70.56
634.717	72.56
634.923	83.56
635.129	82.56
635.335	85.56
635.541	67.56
635.747	66.56
635.952	68.56
636.158	75.56
636.364	84.56
636.57	86.56
636.775	74.56
636.981	81.56
637.187	71.56
637.392	68.56
637.598	94.56
637.804	70.56
638.009	63.56
638.215	86.56
638.421	75.56
638.626	78.56
638.832	67.56
639.037	72.56
639.243	78.56
639.448	76.56
639.654	79.56
639.859	77.56
640.065	80.56
640.27	79.56
640.475	83.56
640.681	84.56
640.886	89.56
641.091	88.56
641.297	83.56
641.502	74.56
641.707	88.56
641.913	86.56
642.118	78.56
642.323	63.56
642.528	88.56
642.733	88.56
642.939	70.56
643.144	74.56
643.349	85.56
643.554	90.56
643.759	84.56
643.964	78.56
644.169	79.56
644.374	73.56
644.579	82.56
644.784	84.56
644.989	79.56
645.194	96.56
645.399	80.56
645.604	74.56
645.809	81.56
646.014	77.56
646.219	78.56
646.423	95.56
646.628	67.56
646.833	70.56
647.038	75.56
647.243	82.56
647.447	80.56
647.652	70.56
647.857	76.56
648.062	79.56
648.266	73.56
648.471	75.56
648.676	95.56
648.88	76.56
649.085	80.56
649.289	78.56
649.494	79.56
649.698	89.56
649.903	90.56
650.107	86.56
650.312	67.56
650.516	72.56
650.721	81.56
650.925	78.56
651.13	76.56
651.334	83.56
651.539	53.56
651.743	70.56
651.947	78.56
652.152	76.56
652.356	78.56
652.56	78.56
652.764	74.56
652.969	78.56
653.173	81.56
653.377	75.56
653.581	69.56
653.785	78.56
653.99	86.56
654.194	75.56
654.398	65.56
654.602	67.56
654.806	87.56
655.01	93.56
655.214	77.56
655.418	80.56
655.622	84.56
655.826	68.56
656.03	82.56
656.234	88.56
656.438	93.56
656.642	70.56
656.846	70.56
657.049	88.56
657.253	82.56
657.457	87.56
657.661	82.56
657.865	82.56
658.068	64.56
658.272	75.56
658.476	82.56
658.68	82.56
658.883	77.56
659.087	84.56
659.291	75.56
659.494	80.56
659.698	75.56
659.901	83.56
660.105	71.56
660.309	75.56
660.512	84.56
660.716	79.56
660.919	72.56
661.123	75.56
661.326	83.56
661.53	83.56
661.733	71.56
661.936	85.56
662.14	84.56
662.343	87.56
662.546	77.56
662.75	96.56
662.953	88.56
663.156	79.56
663.36	64.56
663.563	70.56
663.766	77.56
663.969	72.56
664.173	76.56
664.376	80.56
664.579	82.56
664.782	76.56
664.985	87.56
665.188	86.56
665.391	75.56
665.594	68.56
665.797	86.56
666	78.56
666.203	82.56
666.406	87.56
666.609	76.56
666.812	75.56
667.015	71.56
667.218	75.56
667.421	97.56
667.624	79.56
667.827	83.56
668.03	79.56
668.232	76.56
668.435	76.56
668.638	88.56
668.841	88.56
669.043	80.56
669.246	83.56
669.449	73.56
669.651	88.56
669.854	82.56
670.057	86.56
670.259	79.56
670.462	82.56
670.665	73.56
670.867	78.56
671.07	82.56
671.272	73.56
671.475	87.56
671.677	80.56
671.88	81.56
672.082	85.56
672.284	76.56
672.487	85.56
672.689	68.56
672.892	80.56
