Data from Circ_1989_H10_HRD10591_00041.txt Node
Date: Wed Jan 03 12:01:29 EST 2024
User: Yrep
Spectrometer: HR+D1059
Trigger mode: 1
Integration Time (sec): 1.000000E-1
Scans to average: 1
Electric dark correction enabled: true
Nonlinearity correction enabled: false
Boxcar width: 0
XAxis mode: Wavelengths
Number of Pixels in Spectrum: 2048
>>>>>Begin Spectral Data<<<<<
223.165	-18.62
223.4	-18.62
223.635	-18.62
223.869	-9.62
224.104	-29.62
224.338	-7.62
224.573	-21.62
224.808	-16.62
225.042	-11.62
225.277	-1.62
225.511	-1.62
225.746	2.38
225.98	19.38
226.215	0.38
226.449	12.38
226.683	4.38
226.918	40.38
227.152	39.38
227.387	20.38
227.621	40.38
227.856	42.38
228.09	52.38
228.324	61.38
228.559	60.38
228.793	59.38
229.027	76.38
229.262	72.38
229.496	73.38
229.73	73.38
229.964	82.38
230.199	76.38
230.433	93.38
230.667	87.38
230.901	68.38
231.136	83.38
231.37	77.38
231.604	81.38
231.838	77.38
232.072	74.38
232.306	76.38
232.541	91.38
232.775	61.38
233.009	83.38
233.243	82.38
233.477	71.38
233.711	80.38
233.945	94.38
234.179	85.38
234.413	76.38
234.647	81.38
234.881	76.38
235.115	80.38
235.349	78.38
235.583	89.38
235.817	67.38
236.051	81.38
236.285	87.38
236.519	94.38
236.753	92.38
236.987	78.38
237.221	88.38
237.455	84.38
237.689	93.38
237.922	70.38
238.156	64.38
238.39	76.38
238.624	78.38
238.858	81.38
239.091	72.38
239.325	80.38
239.559	80.38
239.793	72.38
240.027	81.38
240.26	72.38
240.494	86.38
240.728	71.38
240.961	68.38
241.195	88.38
241.429	69.38
241.662	53.38
241.896	62.38
242.13	70.38
242.363	86.38
242.597	92.38
242.83	77.38
243.064	85.38
243.298	77.38
243.531	90.38
243.765	77.38
243.998	70.38
244.232	90.38
244.465	92.38
244.699	72.38
244.932	67.38
245.166	79.38
245.399	76.38
245.633	87.38
245.866	86.38
246.099	73.38
246.333	69.38
246.566	79.38
246.8	73.38
247.033	84.38
247.266	82.38
247.5	74.38
247.733	77.38
247.966	74.38
248.2	93.38
248.433	78.38
248.666	93.38
248.899	92.38
249.133	61.38
249.366	85.38
249.599	106.38
249.832	95.38
250.066	74.38
250.299	81.38
250.532	80.38
250.765	90.38
250.998	85.38
251.231	84.38
251.465	79.38
251.698	98.38
251.931	88.38
252.164	67.38
252.397	97.38
252.63	88.38
252.863	76.38
253.096	73.38
253.329	92.38
253.562	86.38
253.795	81.38
254.028	78.38
254.261	84.38
254.494	85.38
254.727	68.38
254.96	79.38
255.193	82.38
255.426	90.38
255.659	74.38
255.892	93.38
256.124	82.38
256.357	91.38
256.59	77.38
256.823	77.38
257.056	71.38
257.289	79.38
257.521	69.38
257.754	76.38
257.987	80.38
258.22	70.38
258.452	82.38
258.685	80.38
258.918	79.38
259.151	85.38
259.383	92.38
259.616	82.38
259.849	73.38
260.081	89.38
260.314	76.38
260.547	88.38
260.779	78.38
261.012	85.38
261.244	105.38
261.477	85.38
261.71	86.38
261.942	106.38
262.175	99.38
262.407	86.38
262.64	85.38
262.872	96.38
263.105	76.38
263.337	79.38
263.57	74.38
263.802	92.38
264.035	85.38
264.267	71.38
264.499	92.38
264.732	78.38
264.964	83.38
265.197	83.38
265.429	83.38
265.661	81.38
265.894	92.38
266.126	73.38
266.358	75.38
266.591	71.38
266.823	81.38
267.055	78.38
267.287	107.38
267.52	92.38
267.752	90.38
267.984	93.38
268.216	91.38
268.448	92.38
268.681	74.38
268.913	84.38
269.145	92.38
269.377	81.38
269.609	84.38
269.841	80.38
270.073	95.38
270.306	98.38
270.538	83.38
270.77	77.38
271.002	96.38
271.234	93.38
271.466	91.38
271.698	77.38
271.93	88.38
272.162	84.38
272.394	94.38
272.626	77.38
272.858	88.38
273.09	80.38
273.322	93.38
273.553	91.38
273.785	94.38
274.017	95.38
274.249	83.38
274.481	85.38
274.713	74.38
274.945	92.38
275.176	72.38
275.408	87.38
275.64	100.38
275.872	103.38
276.104	99.38
276.335	88.38
276.567	100.38
276.799	106.38
277.031	117.38
277.262	117.38
277.494	113.38
277.726	90.38
277.957	89.38
278.189	102.38
278.421	83.38
278.652	84.38
278.884	90.38
279.115	76.38
279.347	73.38
279.579	91.38
279.81	109.38
280.042	105.38
280.273	135.38
280.505	104.38
280.736	92.38
280.968	75.38
281.199	80.38
281.431	82.38
281.662	92.38
281.894	82.38
282.125	97.38
282.356	113.38
282.588	124.38
282.819	92.38
283.051	103.38
283.282	92.38
283.513	96.38
283.745	74.38
283.976	76.38
284.207	80.38
284.439	93.38
284.67	95.38
284.901	86.38
285.132	84.38
285.364	84.38
285.595	88.38
285.826	86.38
286.057	92.38
286.288	97.38
286.52	82.38
286.751	87.38
286.982	86.38
287.213	75.38
287.444	84.38
287.675	81.38
287.906	98.38
288.138	87.38
288.369	95.38
288.6	82.38
288.831	85.38
289.062	84.38
289.293	82.38
289.524	78.38
289.755	93.38
289.986	87.38
290.217	92.38
290.448	93.38
290.679	78.38
290.91	98.38
291.141	87.38
291.371	84.38
291.602	92.38
291.833	92.38
292.064	78.38
292.295	73.38
292.526	83.38
292.757	97.38
292.987	58.38
293.218	87.38
293.449	95.38
293.68	83.38
293.91	92.38
294.141	90.38
294.372	81.38
294.603	74.38
294.833	78.38
295.064	84.38
295.295	95.38
295.525	88.38
295.756	98.38
295.987	101.38
296.217	119.38
296.448	122.38
296.679	95.38
296.909	81.38
297.14	96.38
297.37	89.38
297.601	78.38
297.831	74.38
298.062	98.38
298.292	86.38
298.523	85.38
298.753	83.38
298.984	85.38
299.214	85.38
299.445	99.38
299.675	92.38
299.905	93.38
300.136	83.38
300.366	90.38
300.597	79.38
300.827	92.38
301.057	102.38
301.288	96.38
301.518	68.38
301.748	90.38
301.979	98.38
302.209	100.38
302.439	84.38
302.669	92.38
302.9	90.38
303.13	94.38
303.36	90.38
303.59	114.38
303.82	108.38
304.051	100.38
304.281	96.38
304.511	98.38
304.741	80.38
304.971	81.38
305.201	84.38
305.431	95.38
305.661	87.38
305.891	94.38
306.121	106.38
306.352	94.38
306.582	109.38
306.812	89.38
307.042	105.38
307.272	105.38
307.502	110.38
307.731	130.38
307.961	114.38
308.191	102.38
308.421	102.38
308.651	93.38
308.881	98.38
309.111	85.38
309.341	87.38
309.571	82.38
309.8	91.38
310.03	97.38
310.26	100.38
310.49	102.38
310.72	115.38
310.949	97.38
311.179	108.38
311.409	91.38
311.639	91.38
311.868	105.38
312.098	97.38
312.328	101.38
312.557	101.38
312.787	100.38
313.017	108.38
313.246	97.38
313.476	87.38
313.706	103.38
313.935	91.38
314.165	95.38
314.394	110.38
314.624	106.38
314.853	98.38
315.083	91.38
315.312	94.38
315.542	95.38
315.771	104.38
316.001	89.38
316.23	84.38
316.46	96.38
316.689	103.38
316.919	98.38
317.148	100.38
317.377	105.38
317.607	100.38
317.836	87.38
318.065	88.38
318.295	88.38
318.524	94.38
318.753	101.38
318.983	83.38
319.212	110.38
319.441	110.38
319.67	109.38
319.9	93.38
320.129	87.38
320.358	96.38
320.587	110.38
320.816	103.38
321.046	102.38
321.275	89.38
321.504	96.38
321.733	105.38
321.962	105.38
322.191	84.38
322.42	99.38
322.649	104.38
322.878	106.38
323.108	115.38
323.337	127.38
323.566	128.38
323.795	119.38
324.024	190.38
324.253	360.38
324.482	701.38
324.71	1440.38
324.939	1923.38
325.168	730.38
325.397	211.38
325.626	145.38
325.855	142.38
326.084	120.38
326.313	135.38
326.542	147.38
326.77	209.38
326.999	391.38
327.228	834.38
327.457	1509.38
327.686	1216.38
327.914	377.38
328.143	286.38
328.372	288.38
328.6	191.38
328.829	135.38
329.058	138.38
329.287	130.38
329.515	120.38
329.744	145.38
329.972	254.38
330.201	419.38
330.43	583.38
330.658	287.38
330.887	177.38
331.115	123.38
331.344	102.38
331.572	107.38
331.801	118.38
332.03	104.38
332.258	93.38
332.486	96.38
332.715	95.38
332.943	101.38
333.172	93.38
333.4	103.38
333.629	108.38
333.857	154.38
334.085	229.38
334.314	436.38
334.542	754.38
334.771	646.38
334.999	230.38
335.227	125.38
335.455	114.38
335.684	99.38
335.912	91.38
336.14	93.38
336.369	101.38
336.597	96.38
336.825	106.38
337.053	90.38
337.281	110.38
337.51	91.38
337.738	92.38
337.966	94.38
338.194	98.38
338.422	88.38
338.65	97.38
338.878	84.38
339.106	90.38
339.334	88.38
339.562	94.38
339.79	89.38
340.018	95.38
340.246	102.38
340.474	90.38
340.702	110.38
340.93	98.38
341.158	69.38
341.386	88.38
341.614	102.38
341.842	88.38
342.07	81.38
342.298	99.38
342.526	103.38
342.754	92.38
342.981	86.38
343.209	85.38
343.437	88.38
343.665	85.38
343.893	94.38
344.12	92.38
344.348	102.38
344.576	101.38
344.804	98.38
345.031	98.38
345.259	100.38
345.487	112.38
345.714	106.38
345.942	99.38
346.17	105.38
346.397	105.38
346.625	88.38
346.853	89.38
347.08	96.38
347.308	96.38
347.535	100.38
347.763	100.38
347.99	80.38
348.218	98.38
348.445	92.38
348.673	85.38
348.9	92.38
349.128	89.38
349.355	82.38
349.583	94.38
349.81	88.38
350.037	86.38
350.265	96.38
350.492	96.38
350.72	99.38
350.947	91.38
351.174	85.38
351.402	95.38
351.629	95.38
351.856	104.38
352.083	93.38
352.311	97.38
352.538	98.38
352.765	97.38
352.992	108.38
353.22	113.38
353.447	98.38
353.674	105.38
353.901	90.38
354.128	95.38
354.355	94.38
354.583	93.38
354.81	98.38
355.037	89.38
355.264	93.38
355.491	86.38
355.718	100.38
355.945	97.38
356.172	108.38
356.399	103.38
356.626	109.38
356.853	83.38
357.08	93.38
357.307	101.38
357.534	94.38
357.761	101.38
357.988	91.38
358.215	95.38
358.441	92.38
358.668	99.38
358.895	102.38
359.122	78.38
359.349	91.38
359.576	92.38
359.802	104.38
360.029	110.38
360.256	110.38
360.483	98.38
360.709	84.38
360.936	84.38
361.163	76.38
361.39	103.38
361.616	94.38
361.843	83.38
362.07	94.38
362.296	94.38
362.523	86.38
362.749	93.38
362.976	89.38
363.203	88.38
363.429	89.38
363.656	90.38
363.882	82.38
364.109	92.38
364.335	72.38
364.562	98.38
364.788	105.38
365.015	97.38
365.241	109.38
365.468	104.38
365.694	88.38
365.92	99.38
366.147	91.38
366.373	101.38
366.599	102.38
366.826	89.38
367.052	95.38
367.278	84.38
367.505	77.38
367.731	94.38
367.957	92.38
368.184	92.38
368.41	101.38
368.636	107.38
368.862	113.38
369.089	93.38
369.315	87.38
369.541	96.38
369.767	89.38
369.993	86.38
370.219	84.38
370.445	76.38
370.672	80.38
370.898	84.38
371.124	76.38
371.35	89.38
371.576	80.38
371.802	84.38
372.028	90.38
372.254	86.38
372.48	88.38
372.706	84.38
372.932	87.38
373.158	93.38
373.384	71.38
373.61	84.38
373.835	97.38
374.061	97.38
374.287	85.38
374.513	99.38
374.739	77.38
374.965	90.38
375.191	96.38
375.416	84.38
375.642	92.38
375.868	101.38
376.094	76.38
376.319	81.38
376.545	93.38
376.771	88.38
376.997	92.38
377.222	97.38
377.448	93.38
377.674	100.38
377.899	87.38
378.125	95.38
378.35	106.38
378.576	89.38
378.802	91.38
379.027	99.38
379.253	102.38
379.478	95.38
379.704	93.38
379.929	98.38
380.155	93.38
380.38	95.38
380.606	81.38
380.831	90.38
381.057	112.38
381.282	85.38
381.507	92.38
381.733	82.38
381.958	88.38
382.184	98.38
382.409	97.38
382.634	95.38
382.86	99.38
383.085	105.38
383.31	105.38
383.535	92.38
383.761	99.38
383.986	107.38
384.211	77.38
384.436	93.38
384.662	96.38
384.887	101.38
385.112	96.38
385.337	95.38
385.562	103.38
385.787	92.38
386.013	124.38
386.238	113.38
386.463	110.38
386.688	117.38
386.913	104.38
387.138	93.38
387.363	107.38
387.588	102.38
387.813	105.38
388.038	103.38
388.263	127.38
388.488	106.38
388.713	85.38
388.938	103.38
389.163	103.38
389.387	106.38
389.612	86.38
389.837	90.38
390.062	105.38
390.287	89.38
390.512	95.38
390.736	81.38
390.961	99.38
391.186	67.38
391.411	104.38
391.636	90.38
391.86	93.38
392.085	96.38
392.31	98.38
392.534	89.38
392.759	82.38
392.984	82.38
393.208	95.38
393.433	95.38
393.658	109.38
393.882	84.38
394.107	89.38
394.331	91.38
394.556	102.38
394.78	83.38
395.005	88.38
395.229	85.38
395.454	83.38
395.678	93.38
395.903	105.38
396.127	95.38
396.352	92.38
396.576	93.38
396.801	93.38
397.025	92.38
397.249	85.38
397.474	91.38
397.698	80.38
397.922	84.38
398.147	81.38
398.371	85.38
398.595	98.38
398.82	90.38
399.044	98.38
399.268	88.38
399.492	84.38
399.717	82.38
399.941	97.38
400.165	106.38
400.389	93.38
400.613	84.38
400.837	84.38
401.062	95.38
401.286	97.38
401.51	90.38
401.734	91.38
401.958	103.38
402.182	112.38
402.406	144.38
402.63	99.38
402.854	74.38
403.078	98.38
403.302	89.38
403.526	84.38
403.75	96.38
403.974	87.38
404.198	86.38
404.422	87.38
404.645	84.38
404.869	94.38
405.093	105.38
405.317	116.38
405.541	104.38
405.765	96.38
405.988	102.38
406.212	142.38
406.436	191.38
406.66	140.38
406.883	103.38
407.107	86.38
407.331	93.38
407.555	108.38
407.778	104.38
408.002	84.38
408.226	89.38
408.449	96.38
408.673	102.38
408.896	75.38
409.12	91.38
409.344	101.38
409.567	92.38
409.791	93.38
410.014	99.38
410.238	99.38
410.461	83.38
410.685	87.38
410.908	89.38
411.132	97.38
411.355	86.38
411.578	98.38
411.802	80.38
412.025	88.38
412.249	113.38
412.472	99.38
412.695	110.38
412.919	94.38
413.142	89.38
413.365	87.38
413.589	89.38
413.812	80.38
414.035	93.38
414.258	94.38
414.482	89.38
414.705	104.38
414.928	89.38
415.151	98.38
415.374	82.38
415.597	87.38
415.821	85.38
416.044	84.38
416.267	88.38
416.49	92.38
416.713	87.38
416.936	87.38
417.159	85.38
417.382	79.38
417.605	97.38
417.828	102.38
418.051	96.38
418.274	85.38
418.497	79.38
418.72	73.38
418.943	86.38
419.166	94.38
419.389	84.38
419.611	95.38
419.834	84.38
420.057	103.38
420.28	90.38
420.503	84.38
420.726	94.38
420.948	101.38
421.171	100.38
421.394	80.38
421.617	89.38
421.839	95.38
422.062	99.38
422.285	78.38
422.507	100.38
422.73	98.38
422.953	82.38
423.175	81.38
423.398	88.38
423.621	103.38
423.843	88.38
424.066	89.38
424.288	82.38
424.511	94.38
424.733	96.38
424.956	112.38
425.178	92.38
425.401	89.38
425.623	105.38
425.846	90.38
426.068	90.38
426.291	94.38
426.513	96.38
426.735	101.38
426.958	92.38
427.18	101.38
427.402	119.38
427.625	160.38
427.847	132.38
428.069	144.38
428.292	106.38
428.514	86.38
428.736	88.38
428.958	82.38
429.181	89.38
429.403	79.38
429.625	95.38
429.847	112.38
430.069	102.38
430.292	97.38
430.514	81.38
430.736	78.38
430.958	88.38
431.18	98.38
431.402	92.38
431.624	90.38
431.846	93.38
432.068	86.38
432.29	80.38
432.512	96.38
432.734	102.38
432.956	93.38
433.178	102.38
433.4	80.38
433.622	82.38
433.844	81.38
434.066	96.38
434.287	92.38
434.509	81.38
434.731	93.38
434.953	85.38
435.175	97.38
435.397	89.38
435.618	92.38
435.84	102.38
436.062	115.38
436.284	117.38
436.505	107.38
436.727	90.38
436.949	86.38
437.17	95.38
437.392	96.38
437.614	85.38
437.835	89.38
438.057	118.38
438.278	105.38
438.5	83.38
438.721	92.38
438.943	93.38
439.165	86.38
439.386	84.38
439.608	89.38
439.829	97.38
440.05	131.38
440.272	119.38
440.493	105.38
440.715	80.38
440.936	81.38
441.158	82.38
441.379	74.38
441.6	92.38
441.822	93.38
442.043	93.38
442.264	95.38
442.486	102.38
442.707	80.38
442.928	105.38
443.149	125.38
443.371	121.38
443.592	104.38
443.813	117.38
444.034	102.38
444.255	94.38
444.476	80.38
444.698	76.38
444.919	96.38
445.14	140.38
445.361	110.38
445.582	110.38
445.803	124.38
446.024	129.38
446.245	121.38
446.466	113.38
446.687	82.38
446.908	88.38
447.129	90.38
447.35	85.38
447.571	89.38
447.792	89.38
448.013	81.38
448.234	103.38
448.455	95.38
448.675	102.38
448.896	106.38
449.117	103.38
449.338	94.38
449.559	116.38
449.779	138.38
450	99.38
450.221	86.38
450.442	98.38
450.662	105.38
450.883	88.38
451.104	103.38
451.324	89.38
451.545	100.38
451.766	86.38
451.986	93.38
452.207	105.38
452.428	105.38
452.648	104.38
452.869	102.38
453.089	115.38
453.31	105.38
453.53	99.38
453.751	102.38
453.971	110.38
454.192	106.38
454.412	87.38
454.633	86.38
454.853	91.38
455.073	83.38
455.294	96.38
455.514	103.38
455.734	96.38
455.955	99.38
456.175	69.38
456.395	79.38
456.616	80.38
456.836	96.38
457.056	89.38
457.276	90.38
457.497	96.38
457.717	86.38
457.937	81.38
458.157	90.38
458.377	88.38
458.598	101.38
458.818	132.38
459.038	144.38
459.258	117.38
459.478	78.38
459.698	80.38
459.918	73.38
460.138	90.38
460.358	100.38
460.578	91.38
460.798	92.38
461.018	100.38
461.238	93.38
461.458	84.38
461.678	90.38
461.898	84.38
462.118	89.38
462.338	90.38
462.558	84.38
462.777	80.38
462.997	101.38
463.217	80.38
463.437	84.38
463.657	92.38
463.876	72.38
464.096	97.38
464.316	90.38
464.536	86.38
464.755	107.38
464.975	109.38
465.195	141.38
465.414	121.38
465.634	91.38
465.854	78.38
466.073	96.38
466.293	85.38
466.512	82.38
466.732	80.38
466.951	75.38
467.171	92.38
467.391	93.38
467.61	112.38
467.829	125.38
468.049	272.38
468.268	373.38
468.488	128.38
468.707	104.38
468.927	89.38
469.146	93.38
469.365	88.38
469.585	89.38
469.804	99.38
470.023	101.38
470.243	81.38
470.462	115.38
470.681	105.38
470.901	100.38
471.12	104.38
471.339	92.38
471.558	111.38
471.777	106.38
471.997	171.38
472.216	516.38
472.435	1031.38
472.654	278.38
472.873	113.38
473.092	101.38
473.311	86.38
473.53	81.38
473.749	90.38
473.968	102.38
474.187	105.38
474.406	91.38
474.625	96.38
474.844	97.38
475.063	86.38
475.282	68.38
475.501	96.38
475.72	92.38
475.939	94.38
476.158	106.38
476.377	88.38
476.596	88.38
476.814	89.38
477.033	87.38
477.252	78.38
477.471	101.38
477.69	92.38
477.908	74.38
478.127	90.38
478.346	86.38
478.564	86.38
478.783	92.38
479.002	103.38
479.22	111.38
479.439	107.38
479.658	100.38
479.876	103.38
480.095	104.38
480.313	92.38
480.532	109.38
480.751	173.38
480.969	486.38
481.188	1866.38
481.406	1026.38
481.624	188.38
481.843	115.38
482.061	91.38
482.28	97.38
482.498	110.38
482.717	75.38
482.935	98.38
483.153	86.38
483.372	84.38
483.59	92.38
483.808	81.38
484.027	84.38
484.245	81.38
484.463	86.38
484.681	80.38
484.9	83.38
485.118	92.38
485.336	105.38
485.554	104.38
485.772	104.38
485.99	103.38
486.209	103.38
486.427	99.38
486.645	113.38
486.863	114.38
487.081	101.38
487.299	92.38
487.517	95.38
487.735	110.38
487.953	94.38
488.171	99.38
488.389	89.38
488.607	92.38
488.825	84.38
489.043	80.38
489.261	104.38
489.479	88.38
489.696	85.38
489.914	84.38
490.132	87.38
490.35	84.38
490.568	85.38
490.786	89.38
491.003	82.38
491.221	93.38
491.439	105.38
491.657	101.38
491.874	86.38
492.092	86.38
492.31	106.38
492.527	98.38
492.745	92.38
492.963	81.38
493.18	94.38
493.398	85.38
493.615	93.38
493.833	99.38
494.05	83.38
494.268	100.38
494.485	89.38
494.703	77.38
494.92	93.38
495.138	91.38
495.355	86.38
495.573	81.38
495.79	81.38
496.008	89.38
496.225	103.38
496.442	89.38
496.66	88.38
496.877	89.38
497.094	101.38
497.312	92.38
497.529	89.38
497.746	80.38
497.963	94.38
498.181	86.38
498.398	93.38
498.615	114.38
498.832	100.38
499.049	84.38
499.267	83.38
499.484	93.38
499.701	105.38
499.918	103.38
500.135	73.38
500.352	84.38
500.569	113.38
500.786	99.38
501.003	85.38
501.22	82.38
501.437	93.38
501.654	98.38
501.871	94.38
502.088	100.38
502.305	108.38
502.522	91.38
502.739	84.38
502.956	97.38
503.172	95.38
503.389	98.38
503.606	119.38
503.823	85.38
504.04	77.38
504.256	78.38
504.473	90.38
504.69	86.38
504.907	91.38
505.123	94.38
505.34	75.38
505.557	77.38
505.773	94.38
505.99	91.38
506.207	71.38
506.423	84.38
506.64	91.38
506.856	91.38
507.073	97.38
507.289	90.38
507.506	83.38
507.722	99.38
507.939	99.38
508.155	69.38
508.372	88.38
508.588	95.38
508.805	99.38
509.021	110.38
509.238	97.38
509.454	100.38
509.67	104.38
509.887	96.38
510.103	110.38
510.319	178.38
510.536	587.38
510.752	1791.38
510.968	520.38
511.184	150.38
511.401	104.38
511.617	99.38
511.833	94.38
512.049	95.38
512.265	84.38
512.481	82.38
512.698	92.38
512.914	79.38
513.13	93.38
513.346	106.38
513.562	88.38
513.778	82.38
513.994	89.38
514.21	114.38
514.426	125.38
514.642	105.38
514.858	101.38
515.074	125.38
515.29	384.38
515.506	1209.38
515.721	461.38
515.937	138.38
516.153	93.38
516.369	108.38
516.585	109.38
516.801	94.38
517.016	86.38
517.232	94.38
517.448	97.38
517.664	76.38
517.879	85.38
518.095	92.38
518.311	89.38
518.527	104.38
518.742	95.38
518.958	98.38
519.173	95.38
519.389	99.38
519.605	87.38
519.82	98.38
520.036	106.38
520.251	116.38
520.467	108.38
520.682	109.38
520.898	105.38
521.113	113.38
521.329	133.38
521.544	199.38
521.76	488.38
521.975	2001.38
522.19	1178.38
522.406	273.38
522.621	116.38
522.836	93.38
523.052	97.38
523.267	102.38
523.482	90.38
523.698	101.38
523.913	124.38
524.128	96.38
524.343	98.38
524.559	98.38
524.774	80.38
524.989	94.38
525.204	99.38
525.419	95.38
525.634	92.38
525.849	86.38
526.064	93.38
526.28	86.38
526.495	77.38
526.71	78.38
526.925	89.38
527.14	92.38
527.355	94.38
527.57	90.38
527.785	93.38
527.999	94.38
528.214	99.38
528.429	93.38
528.644	103.38
528.859	84.38
529.074	88.38
529.289	114.38
529.503	163.38
529.718	103.38
529.933	92.38
530.148	80.38
530.363	82.38
530.577	102.38
530.792	91.38
531.007	90.38
531.221	100.38
531.436	86.38
531.651	94.38
531.865	84.38
532.08	87.38
532.295	79.38
532.509	100.38
532.724	102.38
532.938	89.38
533.153	105.38
533.367	107.38
533.582	92.38
533.796	88.38
534.011	78.38
534.225	97.38
534.44	91.38
534.654	92.38
534.868	99.38
535.083	95.38
535.297	95.38
535.511	96.38
535.726	101.38
535.94	83.38
536.154	94.38
536.369	79.38
536.583	94.38
536.797	85.38
537.011	85.38
537.225	93.38
537.44	101.38
537.654	85.38
537.868	78.38
538.082	87.38
538.296	78.38
538.51	87.38
538.724	94.38
538.938	88.38
539.153	88.38
539.367	80.38
539.581	89.38
539.795	80.38
540.009	80.38
540.222	97.38
540.436	84.38
540.65	78.38
540.864	97.38
541.078	90.38
541.292	87.38
541.506	88.38
541.72	76.38
541.934	82.38
542.147	89.38
542.361	84.38
542.575	96.38
542.789	103.38
543.002	84.38
543.216	96.38
543.43	97.38
543.644	91.38
543.857	93.38
544.071	82.38
544.285	94.38
544.498	82.38
544.712	91.38
544.925	95.38
545.139	85.38
545.352	89.38
545.566	88.38
545.779	88.38
545.993	93.38
546.206	86.38
546.42	82.38
546.633	84.38
546.847	90.38
547.06	93.38
547.274	88.38
547.487	87.38
547.7	72.38
547.914	92.38
548.127	99.38
548.34	85.38
548.554	94.38
548.767	85.38
548.98	84.38
549.193	89.38
549.407	92.38
549.62	82.38
549.833	88.38
550.046	90.38
550.259	97.38
550.473	90.38
550.686	98.38
550.899	87.38
551.112	77.38
551.325	92.38
551.538	73.38
551.751	93.38
551.964	77.38
552.177	81.38
552.39	74.38
552.603	96.38
552.816	89.38
553.029	92.38
553.242	90.38
553.455	82.38
553.667	100.38
553.88	93.38
554.093	104.38
554.306	92.38
554.519	90.38
554.732	98.38
554.944	93.38
555.157	77.38
555.37	87.38
555.583	93.38
555.795	100.38
556.008	79.38
556.221	96.38
556.433	87.38
556.646	85.38
556.859	85.38
557.071	96.38
557.284	84.38
557.496	95.38
557.709	93.38
557.921	101.38
558.134	84.38
558.346	96.38
558.559	98.38
558.771	87.38
558.984	93.38
559.196	105.38
559.409	101.38
559.621	98.38
559.833	99.38
560.046	82.38
560.258	96.38
560.47	97.38
560.683	96.38
560.895	88.38
561.107	88.38
561.32	90.38
561.532	89.38
561.744	103.38
561.956	96.38
562.168	92.38
562.381	91.38
562.593	84.38
562.805	111.38
563.017	90.38
563.229	82.38
563.441	90.38
563.653	81.38
563.865	96.38
564.077	86.38
564.289	87.38
564.501	94.38
564.713	85.38
564.925	83.38
565.137	86.38
565.349	93.38
565.561	96.38
565.773	99.38
565.985	86.38
566.197	95.38
566.408	102.38
566.62	95.38
566.832	96.38
567.044	76.38
567.255	89.38
567.467	92.38
567.679	73.38
567.891	84.38
568.102	87.38
568.314	82.38
568.526	89.38
568.737	99.38
568.949	81.38
569.161	87.38
569.372	84.38
569.584	87.38
569.795	91.38
570.007	118.38
570.218	185.38
570.43	106.38
570.641	96.38
570.853	84.38
571.064	88.38
571.276	79.38
571.487	74.38
571.698	77.38
571.91	71.38
572.121	85.38
572.333	92.38
572.544	95.38
572.755	85.38
572.966	87.38
573.178	77.38
573.389	84.38
573.6	95.38
573.811	87.38
574.023	83.38
574.234	84.38
574.445	94.38
574.656	84.38
574.867	90.38
575.078	95.38
575.289	79.38
575.501	81.38
575.712	89.38
575.923	89.38
576.134	86.38
576.345	90.38
576.556	80.38
576.767	95.38
576.978	89.38
577.188	94.38
577.399	89.38
577.61	84.38
577.821	90.38
578.032	110.38
578.243	222.38
578.454	558.38
578.665	176.38
578.875	92.38
579.086	83.38
579.297	86.38
579.508	88.38
579.718	104.38
579.929	103.38
580.14	89.38
580.35	92.38
580.561	90.38
580.772	103.38
580.982	84.38
581.193	91.38
581.403	96.38
581.614	79.38
581.825	88.38
582.035	95.38
582.246	97.38
582.456	82.38
582.667	90.38
582.877	89.38
583.087	86.38
583.298	93.38
583.508	79.38
583.719	77.38
583.929	91.38
584.139	94.38
584.35	89.38
584.56	88.38
584.77	79.38
584.981	84.38
585.191	86.38
585.401	92.38
585.611	84.38
585.821	84.38
586.032	83.38
586.242	93.38
586.452	78.38
586.662	89.38
586.872	90.38
587.082	87.38
587.292	100.38
587.502	98.38
587.713	86.38
587.923	84.38
588.133	82.38
588.343	87.38
588.553	77.38
588.762	79.38
588.972	96.38
589.182	146.38
589.392	112.38
589.602	100.38
589.812	131.38
590.022	85.38
590.232	100.38
590.441	91.38
590.651	89.38
590.861	84.38
591.071	97.38
591.281	85.38
591.49	92.38
591.7	73.38
591.91	76.38
592.119	89.38
592.329	71.38
592.539	92.38
592.748	84.38
592.958	96.38
593.167	72.38
593.377	80.38
593.587	85.38
593.796	88.38
594.006	82.38
594.215	73.38
594.424	73.38
594.634	94.38
594.843	73.38
595.053	79.38
595.262	72.38
595.472	87.38
595.681	86.38
595.89	87.38
596.1	82.38
596.309	77.38
596.518	93.38
596.727	90.38
596.937	86.38
597.146	88.38
597.355	89.38
597.564	86.38
597.774	84.38
597.983	85.38
598.192	79.38
598.401	88.38
598.61	92.38
598.819	85.38
599.028	92.38
599.237	88.38
599.446	74.38
599.655	81.38
599.864	95.38
600.073	76.38
600.282	89.38
600.491	82.38
600.7	87.38
600.909	78.38
601.118	74.38
601.327	86.38
601.536	88.38
601.745	86.38
601.953	100.38
602.162	89.38
602.371	82.38
602.58	78.38
602.789	86.38
602.997	92.38
603.206	93.38
603.415	105.38
603.623	78.38
603.832	82.38
604.041	80.38
604.249	85.38
604.458	87.38
604.666	76.38
604.875	77.38
605.084	85.38
605.292	86.38
605.501	82.38
605.709	86.38
605.918	80.38
606.126	95.38
606.334	81.38
606.543	82.38
606.751	83.38
606.96	81.38
607.168	98.38
607.376	95.38
607.585	78.38
607.793	68.38
608.001	78.38
608.21	80.38
608.418	73.38
608.626	77.38
608.834	91.38
609.043	76.38
609.251	81.38
609.459	97.38
609.667	91.38
609.875	94.38
610.083	88.38
610.291	99.38
610.499	92.38
610.707	85.38
610.916	99.38
611.124	86.38
611.332	78.38
611.54	91.38
611.748	84.38
611.955	86.38
612.163	84.38
612.371	73.38
612.579	99.38
612.787	97.38
612.995	97.38
613.203	98.38
613.411	92.38
613.618	85.38
613.826	100.38
614.034	90.38
614.242	92.38
614.449	93.38
614.657	93.38
614.865	98.38
615.072	89.38
615.28	82.38
615.488	84.38
615.695	84.38
615.903	101.38
616.111	77.38
616.318	103.38
616.526	84.38
616.733	84.38
616.941	96.38
617.148	106.38
617.356	85.38
617.563	95.38
617.771	91.38
617.978	83.38
618.185	94.38
618.393	79.38
618.6	64.38
618.807	76.38
619.015	86.38
619.222	85.38
619.429	80.38
619.637	92.38
619.844	100.38
620.051	70.38
620.258	83.38
620.466	94.38
620.673	89.38
620.88	92.38
621.087	72.38
621.294	86.38
621.501	92.38
621.708	79.38
621.915	79.38
622.122	73.38
622.329	93.38
622.536	92.38
622.743	80.38
622.95	85.38
623.157	83.38
623.364	85.38
623.571	96.38
623.778	85.38
623.985	84.38
624.192	92.38
624.399	94.38
624.606	80.38
624.812	71.38
625.019	93.38
625.226	75.38
625.433	72.38
625.639	83.38
625.846	84.38
626.053	87.38
626.259	73.38
626.466	79.38
626.673	67.38
626.879	96.38
627.086	87.38
627.293	90.38
627.499	84.38
627.706	94.38
627.912	81.38
628.119	88.38
628.325	100.38
628.532	87.38
628.738	92.38
628.945	76.38
629.151	88.38
629.357	86.38
629.564	93.38
629.77	90.38
629.976	82.38
630.183	87.38
630.389	84.38
630.595	89.38
630.802	86.38
631.008	95.38
631.214	86.38
631.42	84.38
631.627	98.38
631.833	88.38
632.039	98.38
632.245	88.38
632.451	76.38
632.657	87.38
632.863	86.38
633.069	84.38
633.275	98.38
633.481	94.38
633.688	77.38
633.893	100.38
634.099	84.38
634.305	98.38
634.511	87.38
634.717	90.38
634.923	78.38
635.129	83.38
635.335	93.38
635.541	78.38
635.747	96.38
635.952	81.38
636.158	92.38
636.364	172.38
636.57	158.38
636.775	106.38
636.981	100.38
637.187	81.38
637.392	78.38
637.598	97.38
637.804	99.38
638.009	90.38
638.215	76.38
638.421	82.38
638.626	81.38
638.832	86.38
639.037	81.38
639.243	96.38
639.448	81.38
639.654	100.38
639.859	85.38
640.065	78.38
640.27	88.38
640.475	86.38
640.681	87.38
640.886	96.38
641.091	76.38
641.297	89.38
641.502	67.38
641.707	84.38
641.913	84.38
642.118	82.38
642.323	85.38
642.528	78.38
642.733	88.38
642.939	91.38
643.144	88.38
643.349	101.38
643.554	89.38
643.759	68.38
643.964	88.38
644.169	88.38
644.374	78.38
644.579	86.38
644.784	85.38
644.989	88.38
645.194	72.38
645.399	93.38
645.604	70.38
645.809	101.38
646.014	82.38
646.219	78.38
646.423	94.38
646.628	79.38
646.833	88.38
647.038	80.38
647.243	89.38
647.447	74.38
647.652	83.38
647.857	93.38
648.062	93.38
648.266	92.38
648.471	95.38
648.676	85.38
648.88	95.38
649.085	87.38
649.289	88.38
649.494	116.38
649.698	122.38
649.903	98.38
650.107	83.38
650.312	93.38
650.516	79.38
650.721	76.38
650.925	77.38
651.13	80.38
651.334	83.38
651.539	88.38
651.743	82.38
651.947	72.38
652.152	90.38
652.356	85.38
652.56	90.38
652.764	74.38
652.969	74.38
653.173	83.38
653.377	82.38
653.581	59.38
653.785	83.38
653.99	81.38
654.194	92.38
654.398	82.38
654.602	76.38
654.806	94.38
655.01	110.38
655.214	93.38
655.418	89.38
655.622	103.38
655.826	72.38
656.03	94.38
656.234	92.38
656.438	93.38
656.642	86.38
656.846	88.38
657.049	91.38
657.253	83.38
657.457	73.38
657.661	78.38
657.865	86.38
658.068	82.38
658.272	73.38
658.476	86.38
658.68	81.38
658.883	67.38
659.087	68.38
659.291	82.38
659.494	95.38
659.698	78.38
659.901	73.38
660.105	81.38
660.309	84.38
660.512	89.38
660.716	80.38
660.919	62.38
661.123	83.38
661.326	87.38
661.53	95.38
661.733	90.38
661.936	93.38
662.14	78.38
662.343	78.38
662.546	86.38
662.75	86.38
662.953	81.38
663.156	75.38
663.36	86.38
663.563	85.38
663.766	88.38
663.969	91.38
664.173	92.38
664.376	86.38
664.579	83.38
664.782	78.38
664.985	76.38
665.188	85.38
665.391	79.38
665.594	95.38
665.797	84.38
666	62.38
666.203	70.38
666.406	67.38
666.609	76.38
666.812	84.38
667.015	72.38
667.218	86.38
667.421	79.38
667.624	81.38
667.827	71.38
668.03	63.38
668.232	80.38
668.435	72.38
668.638	79.38
668.841	76.38
669.043	78.38
669.246	78.38
669.449	81.38
669.651	77.38
669.854	87.38
670.057	86.38
670.259	69.38
670.462	76.38
670.665	82.38
670.867	80.38
671.07	89.38
671.272	79.38
671.475	91.38
671.677	86.38
671.88	74.38
672.082	83.38
672.284	92.38
672.487	84.38
672.689	81.38
672.892	66.38
