Data from Circ_1989_H10_HRD10591_00097.txt Node
Date: Wed Jan 03 12:01:41 EST 2024
User: Yrep
Spectrometer: HR+D1059
Trigger mode: 1
Integration Time (sec): 1.000000E-1
Scans to average: 1
Electric dark correction enabled: true
Nonlinearity correction enabled: false
Boxcar width: 0
XAxis mode: Wavelengths
Number of Pixels in Spectrum: 2048
>>>>>Begin Spectral Data<<<<<
223.165	-24.69
223.4	-24.69
223.635	-24.69
223.869	-2.69
224.104	-0.69
224.338	-21.69
224.573	-8.69
224.808	-14.69
225.042	-25.69
225.277	-6.69
225.511	0.31
225.746	-1.69
225.98	-0.69
226.215	15.31
226.449	19.31
226.683	14.31
226.918	30.31
227.152	28.31
227.387	39.31
227.621	43.31
227.856	50.31
228.09	49.31
228.324	58.31
228.559	50.31
228.793	38.31
229.027	61.31
229.262	67.31
229.496	73.31
229.73	86.31
229.964	78.31
230.199	74.31
230.433	76.31
230.667	96.31
230.901	75.31
231.136	84.31
231.37	78.31
231.604	72.31
231.838	72.31
232.072	68.31
232.306	90.31
232.541	73.31
232.775	95.31
233.009	85.31
233.243	74.31
233.477	78.31
233.711	75.31
233.945	83.31
234.179	71.31
234.413	86.31
234.647	87.31
234.881	86.31
235.115	89.31
235.349	85.31
235.583	77.31
235.817	81.31
236.051	83.31
236.285	68.31
236.519	80.31
236.753	70.31
236.987	77.31
237.221	80.31
237.455	84.31
237.689	73.31
237.922	66.31
238.156	73.31
238.39	79.31
238.624	87.31
238.858	81.31
239.091	76.31
239.325	73.31
239.559	58.31
239.793	79.31
240.027	86.31
240.26	94.31
240.494	81.31
240.728	81.31
240.961	70.31
241.195	74.31
241.429	73.31
241.662	79.31
241.896	86.31
242.13	78.31
242.363	70.31
242.597	76.31
242.83	82.31
243.064	68.31
243.298	78.31
243.531	76.31
243.765	82.31
243.998	86.31
244.232	95.31
244.465	74.31
244.699	87.31
244.932	59.31
245.166	77.31
245.399	87.31
245.633	82.31
245.866	79.31
246.099	73.31
246.333	76.31
246.566	76.31
246.8	75.31
247.033	86.31
247.266	88.31
247.5	77.31
247.733	77.31
247.966	73.31
248.2	74.31
248.433	81.31
248.666	86.31
248.899	90.31
249.133	93.31
249.366	92.31
249.599	108.31
249.832	90.31
250.066	86.31
250.299	82.31
250.532	90.31
250.765	83.31
250.998	74.31
251.231	73.31
251.465	72.31
251.698	74.31
251.931	79.31
252.164	78.31
252.397	69.31
252.63	76.31
252.863	85.31
253.096	73.31
253.329	91.31
253.562	84.31
253.795	82.31
254.028	81.31
254.261	82.31
254.494	72.31
254.727	88.31
254.96	80.31
255.193	76.31
255.426	92.31
255.659	94.31
255.892	91.31
256.124	80.31
256.357	80.31
256.59	86.31
256.823	104.31
257.056	84.31
257.289	87.31
257.521	79.31
257.754	93.31
257.987	80.31
258.22	98.31
258.452	88.31
258.685	90.31
258.918	78.31
259.151	73.31
259.383	77.31
259.616	96.31
259.849	84.31
260.081	88.31
260.314	97.31
260.547	97.31
260.779	96.31
261.012	96.31
261.244	98.31
261.477	108.31
261.71	96.31
261.942	120.31
262.175	116.31
262.407	82.31
262.64	80.31
262.872	92.31
263.105	81.31
263.337	81.31
263.57	83.31
263.802	73.31
264.035	84.31
264.267	76.31
264.499	87.31
264.732	98.31
264.964	80.31
265.197	82.31
265.429	96.31
265.661	84.31
265.894	76.31
266.126	81.31
266.358	80.31
266.591	78.31
266.823	66.31
267.055	74.31
267.287	108.31
267.52	61.31
267.752	79.31
267.984	85.31
268.216	84.31
268.448	92.31
268.681	85.31
268.913	96.31
269.145	78.31
269.377	86.31
269.609	81.31
269.841	82.31
270.073	78.31
270.306	81.31
270.538	93.31
270.77	93.31
271.002	95.31
271.234	96.31
271.466	102.31
271.698	78.31
271.93	81.31
272.162	83.31
272.394	74.31
272.626	86.31
272.858	92.31
273.09	79.31
273.322	64.31
273.553	73.31
273.785	85.31
274.017	84.31
274.249	68.31
274.481	98.31
274.713	79.31
274.945	92.31
275.176	98.31
275.408	97.31
275.64	90.31
275.872	91.31
276.104	89.31
276.335	91.31
276.567	89.31
276.799	102.31
277.031	128.31
277.262	146.31
277.494	119.31
277.726	98.31
277.957	83.31
278.189	95.31
278.421	98.31
278.652	99.31
278.884	89.31
279.115	101.31
279.347	92.31
279.579	104.31
279.81	105.31
280.042	138.31
280.273	152.31
280.505	121.31
280.736	81.31
280.968	95.31
281.199	95.31
281.431	93.31
281.662	102.31
281.894	95.31
282.125	102.31
282.356	117.31
282.588	130.31
282.819	115.31
283.051	92.31
283.282	70.31
283.513	98.31
283.745	78.31
283.976	86.31
284.207	85.31
284.439	85.31
284.67	102.31
284.901	69.31
285.132	83.31
285.364	96.31
285.595	101.31
285.826	98.31
286.057	92.31
286.288	79.31
286.52	76.31
286.751	76.31
286.982	94.31
287.213	84.31
287.444	82.31
287.675	99.31
287.906	82.31
288.138	95.31
288.369	100.31
288.6	87.31
288.831	92.31
289.062	98.31
289.293	100.31
289.524	86.31
289.755	91.31
289.986	80.31
290.217	95.31
290.448	79.31
290.679	94.31
290.91	95.31
291.141	84.31
291.371	82.31
291.602	86.31
291.833	88.31
292.064	93.31
292.295	86.31
292.526	100.31
292.757	88.31
292.987	91.31
293.218	103.31
293.449	87.31
293.68	97.31
293.91	85.31
294.141	98.31
294.372	84.31
294.603	104.31
294.833	83.31
295.064	94.31
295.295	85.31
295.525	89.31
295.756	92.31
295.987	115.31
296.217	132.31
296.448	110.31
296.679	98.31
296.909	82.31
297.14	93.31
297.37	84.31
297.601	86.31
297.831	84.31
298.062	98.31
298.292	98.31
298.523	69.31
298.753	92.31
298.984	86.31
299.214	86.31
299.445	93.31
299.675	90.31
299.905	92.31
300.136	81.31
300.366	86.31
300.597	97.31
300.827	89.31
301.057	94.31
301.288	99.31
301.518	101.31
301.748	86.31
301.979	103.31
302.209	102.31
302.439	103.31
302.669	76.31
302.9	78.31
303.13	94.31
303.36	97.31
303.59	116.31
303.82	111.31
304.051	80.31
304.281	90.31
304.511	95.31
304.741	79.31
304.971	88.31
305.201	87.31
305.431	87.31
305.661	89.31
305.891	88.31
306.121	99.31
306.352	98.31
306.582	95.31
306.812	104.31
307.042	95.31
307.272	120.31
307.502	135.31
307.731	146.31
307.961	128.31
308.191	96.31
308.421	86.31
308.651	101.31
308.881	102.31
309.111	86.31
309.341	103.31
309.571	88.31
309.8	95.31
310.03	94.31
310.26	96.31
310.49	93.31
310.72	91.31
310.949	109.31
311.179	85.31
311.409	94.31
311.639	100.31
311.868	100.31
312.098	81.31
312.328	92.31
312.557	104.31
312.787	111.31
313.017	104.31
313.246	84.31
313.476	86.31
313.706	95.31
313.935	93.31
314.165	97.31
314.394	100.31
314.624	94.31
314.853	96.31
315.083	87.31
315.312	91.31
315.542	98.31
315.771	88.31
316.001	84.31
316.23	84.31
316.46	74.31
316.689	87.31
316.919	90.31
317.148	108.31
317.377	103.31
317.607	94.31
317.836	82.31
318.065	83.31
318.295	97.31
318.524	95.31
318.753	82.31
318.983	101.31
319.212	97.31
319.441	110.31
319.67	110.31
319.9	106.31
320.129	94.31
320.358	96.31
320.587	96.31
320.816	102.31
321.046	100.31
321.275	95.31
321.504	96.31
321.733	90.31
321.962	94.31
322.191	98.31
322.42	106.31
322.649	104.31
322.878	103.31
323.108	109.31
323.337	114.31
323.566	134.31
323.795	146.31
324.024	204.31
324.253	414.31
324.482	891.31
324.71	1853.31
324.939	2452.31
325.168	876.31
325.397	247.31
325.626	151.31
325.855	144.31
326.084	133.31
326.313	136.31
326.542	170.31
326.77	240.31
326.999	498.31
327.228	1015.31
327.457	1905.31
327.686	1551.31
327.914	470.31
328.143	377.31
328.372	441.31
328.6	239.31
328.829	147.31
329.058	145.31
329.287	143.31
329.515	136.31
329.744	193.31
329.972	318.31
330.201	609.31
330.43	868.31
330.658	397.31
330.887	198.31
331.115	151.31
331.344	124.31
331.572	113.31
331.801	126.31
332.03	99.31
332.258	108.31
332.486	94.31
332.715	103.31
332.943	101.31
333.172	103.31
333.4	116.31
333.629	135.31
333.857	159.31
334.085	294.31
334.314	594.31
334.542	1104.31
334.771	1032.31
334.999	302.31
335.227	133.31
335.455	119.31
335.684	117.31
335.912	98.31
336.14	102.31
336.369	106.31
336.597	114.31
336.825	115.31
337.053	93.31
337.281	89.31
337.51	94.31
337.738	110.31
337.966	98.31
338.194	98.31
338.422	84.31
338.65	103.31
338.878	87.31
339.106	97.31
339.334	99.31
339.562	98.31
339.79	91.31
340.018	86.31
340.246	100.31
340.474	82.31
340.702	96.31
340.93	88.31
341.158	91.31
341.386	90.31
341.614	79.31
341.842	105.31
342.07	92.31
342.298	98.31
342.526	90.31
342.754	87.31
342.981	97.31
343.209	86.31
343.437	106.31
343.665	96.31
343.893	100.31
344.12	93.31
344.348	87.31
344.576	85.31
344.804	102.31
345.031	108.31
345.259	96.31
345.487	97.31
345.714	103.31
345.942	92.31
346.17	95.31
346.397	106.31
346.625	93.31
346.853	97.31
347.08	83.31
347.308	82.31
347.535	102.31
347.763	103.31
347.99	102.31
348.218	108.31
348.445	101.31
348.673	96.31
348.9	83.31
349.128	81.31
349.355	89.31
349.583	102.31
349.81	90.31
350.037	92.31
350.265	106.31
350.492	82.31
350.72	95.31
350.947	96.31
351.174	101.31
351.402	113.31
351.629	103.31
351.856	98.31
352.083	115.31
352.311	113.31
352.538	108.31
352.765	103.31
352.992	113.31
353.22	104.31
353.447	100.31
353.674	90.31
353.901	87.31
354.128	95.31
354.355	101.31
354.583	102.31
354.81	105.31
355.037	91.31
355.264	82.31
355.491	80.31
355.718	91.31
355.945	86.31
356.172	92.31
356.399	98.31
356.626	88.31
356.853	95.31
357.08	94.31
357.307	90.31
357.534	90.31
357.761	90.31
357.988	93.31
358.215	99.31
358.441	112.31
358.668	98.31
358.895	98.31
359.122	87.31
359.349	103.31
359.576	96.31
359.802	104.31
360.029	108.31
360.256	112.31
360.483	91.31
360.709	88.31
360.936	100.31
361.163	99.31
361.39	86.31
361.616	104.31
361.843	90.31
362.07	105.31
362.296	80.31
362.523	92.31
362.749	89.31
362.976	70.31
363.203	82.31
363.429	93.31
363.656	105.31
363.882	78.31
364.109	96.31
364.335	89.31
364.562	88.31
364.788	104.31
365.015	92.31
365.241	88.31
365.468	120.31
365.694	103.31
365.92	103.31
366.147	105.31
366.373	104.31
366.599	88.31
366.826	110.31
367.052	106.31
367.278	90.31
367.505	98.31
367.731	90.31
367.957	68.31
368.184	93.31
368.41	90.31
368.636	112.31
368.862	101.31
369.089	96.31
369.315	86.31
369.541	88.31
369.767	94.31
369.993	96.31
370.219	86.31
370.445	87.31
370.672	79.31
370.898	86.31
371.124	78.31
371.35	98.31
371.576	90.31
371.802	84.31
372.028	87.31
372.254	87.31
372.48	101.31
372.706	94.31
372.932	85.31
373.158	92.31
373.384	87.31
373.61	93.31
373.835	100.31
374.061	96.31
374.287	89.31
374.513	99.31
374.739	80.31
374.965	93.31
375.191	81.31
375.416	84.31
375.642	81.31
375.868	90.31
376.094	78.31
376.319	99.31
376.545	87.31
376.771	92.31
376.997	92.31
377.222	83.31
377.448	94.31
377.674	100.31
377.899	82.31
378.125	100.31
378.35	96.31
378.576	77.31
378.802	84.31
379.027	96.31
379.253	92.31
379.478	89.31
379.704	90.31
379.929	86.31
380.155	84.31
380.38	78.31
380.606	107.31
380.831	93.31
381.057	92.31
381.282	103.31
381.507	112.31
381.733	105.31
381.958	80.31
382.184	104.31
382.409	94.31
382.634	97.31
382.86	95.31
383.085	84.31
383.31	85.31
383.535	94.31
383.761	93.31
383.986	82.31
384.211	110.31
384.436	98.31
384.662	95.31
384.887	100.31
385.112	103.31
385.337	99.31
385.562	100.31
385.787	112.31
386.013	113.31
386.238	115.31
386.463	109.31
386.688	100.31
386.913	96.31
387.138	89.31
387.363	93.31
387.588	99.31
387.813	80.31
388.038	92.31
388.263	93.31
388.488	106.31
388.713	83.31
388.938	85.31
389.163	94.31
389.387	89.31
389.612	109.31
389.837	97.31
390.062	87.31
390.287	105.31
390.512	94.31
390.736	84.31
390.961	81.31
391.186	105.31
391.411	99.31
391.636	83.31
391.86	101.31
392.085	98.31
392.31	82.31
392.534	74.31
392.759	100.31
392.984	77.31
393.208	94.31
393.433	100.31
393.658	96.31
393.882	84.31
394.107	87.31
394.331	84.31
394.556	70.31
394.78	97.31
395.005	93.31
395.229	95.31
395.454	97.31
395.678	84.31
395.903	86.31
396.127	85.31
396.352	92.31
396.576	89.31
396.801	73.31
397.025	87.31
397.249	84.31
397.474	98.31
397.698	70.31
397.922	81.31
398.147	72.31
398.371	86.31
398.595	85.31
398.82	97.31
399.044	84.31
399.268	81.31
399.492	88.31
399.717	101.31
399.941	92.31
400.165	102.31
400.389	96.31
400.613	93.31
400.837	84.31
401.062	88.31
401.286	79.31
401.51	85.31
401.734	84.31
401.958	102.31
402.182	120.31
402.406	153.31
402.63	127.31
402.854	91.31
403.078	90.31
403.302	72.31
403.526	71.31
403.75	86.31
403.974	89.31
404.198	85.31
404.422	87.31
404.645	90.31
404.869	98.31
405.093	117.31
405.317	134.31
405.541	136.31
405.765	100.31
405.988	105.31
406.212	160.31
406.436	224.31
406.66	135.31
406.883	110.31
407.107	83.31
407.331	92.31
407.555	113.31
407.778	88.31
408.002	101.31
408.226	90.31
408.449	82.31
408.673	82.31
408.896	89.31
409.12	92.31
409.344	96.31
409.567	74.31
409.791	97.31
410.014	103.31
410.238	85.31
410.461	92.31
410.685	109.31
410.908	93.31
411.132	90.31
411.355	96.31
411.578	86.31
411.802	102.31
412.025	94.31
412.249	86.31
412.472	118.31
412.695	122.31
412.919	116.31
413.142	92.31
413.365	87.31
413.589	74.31
413.812	98.31
414.035	96.31
414.258	86.31
414.482	99.31
414.705	100.31
414.928	96.31
415.151	97.31
415.374	98.31
415.597	76.31
415.821	71.31
416.044	92.31
416.267	86.31
416.49	98.31
416.713	93.31
416.936	81.31
417.159	73.31
417.382	94.31
417.605	87.31
417.828	92.31
418.051	93.31
418.274	81.31
418.497	87.31
418.72	88.31
418.943	82.31
419.166	90.31
419.389	96.31
419.611	87.31
419.834	85.31
420.057	99.31
420.28	93.31
420.503	84.31
420.726	96.31
420.948	103.31
421.171	96.31
421.394	94.31
421.617	96.31
421.839	91.31
422.062	86.31
422.285	84.31
422.507	95.31
422.73	89.31
422.953	95.31
423.175	88.31
423.398	84.31
423.621	99.31
423.843	71.31
424.066	74.31
424.288	84.31
424.511	98.31
424.733	86.31
424.956	113.31
425.178	83.31
425.401	108.31
425.623	96.31
425.846	97.31
426.068	96.31
426.291	89.31
426.513	88.31
426.735	79.31
426.958	101.31
427.18	111.31
427.402	150.31
427.625	210.31
427.847	190.31
428.069	195.31
428.292	114.31
428.514	97.31
428.736	87.31
428.958	90.31
429.181	76.31
429.403	77.31
429.625	87.31
429.847	93.31
430.069	117.31
430.292	88.31
430.514	80.31
430.736	96.31
430.958	90.31
431.18	83.31
431.402	88.31
431.624	88.31
431.846	79.31
432.068	78.31
432.29	83.31
432.512	97.31
432.734	89.31
432.956	108.31
433.178	96.31
433.4	107.31
433.622	95.31
433.844	89.31
434.066	89.31
434.287	96.31
434.509	86.31
434.731	74.31
434.953	89.31
435.175	88.31
435.397	87.31
435.618	96.31
435.84	105.31
436.062	124.31
436.284	113.31
436.505	107.31
436.727	114.31
436.949	99.31
437.17	84.31
437.392	77.31
437.614	82.31
437.835	114.31
438.057	106.31
438.278	113.31
438.5	98.31
438.721	112.31
438.943	119.31
439.165	93.31
439.386	102.31
439.608	84.31
439.829	106.31
440.05	132.31
440.272	163.31
440.493	107.31
440.715	102.31
440.936	92.31
441.158	100.31
441.379	92.31
441.6	92.31
441.822	104.31
442.043	90.31
442.264	99.31
442.486	105.31
442.707	97.31
442.928	102.31
443.149	146.31
443.371	134.31
443.592	116.31
443.813	117.31
444.034	115.31
444.255	94.31
444.476	104.31
444.698	76.31
444.919	85.31
445.14	118.31
445.361	118.31
445.582	134.31
445.803	165.31
446.024	157.31
446.245	151.31
446.466	126.31
446.687	94.31
446.908	81.31
447.129	91.31
447.35	91.31
447.571	89.31
447.792	81.31
448.013	86.31
448.234	109.31
448.455	105.31
448.675	119.31
448.896	133.31
449.117	99.31
449.338	101.31
449.559	143.31
449.779	140.31
450	112.31
450.221	92.31
450.442	89.31
450.662	93.31
450.883	117.31
451.104	107.31
451.324	89.31
451.545	78.31
451.766	96.31
451.986	93.31
452.207	88.31
452.428	90.31
452.648	105.31
452.869	113.31
453.089	124.31
453.31	120.31
453.53	97.31
453.751	92.31
453.971	109.31
454.192	117.31
454.412	106.31
454.633	96.31
454.853	88.31
455.073	89.31
455.294	86.31
455.514	95.31
455.734	87.31
455.955	70.31
456.175	73.31
456.395	84.31
456.616	83.31
456.836	76.31
457.056	80.31
457.276	79.31
457.497	99.31
457.717	86.31
457.937	73.31
458.157	91.31
458.377	81.31
458.598	116.31
458.818	152.31
459.038	197.31
459.258	133.31
459.478	91.31
459.698	100.31
459.918	95.31
460.138	92.31
460.358	80.31
460.578	101.31
460.798	91.31
461.018	72.31
461.238	82.31
461.458	84.31
461.678	90.31
461.898	81.31
462.118	91.31
462.338	104.31
462.558	87.31
462.777	79.31
462.997	86.31
463.217	100.31
463.437	92.31
463.657	103.31
463.876	101.31
464.096	88.31
464.316	92.31
464.536	101.31
464.755	88.31
464.975	93.31
465.195	182.31
465.414	152.31
465.634	100.31
465.854	95.31
466.073	101.31
466.293	77.31
466.512	81.31
466.732	93.31
466.951	82.31
467.171	95.31
467.391	102.31
467.61	121.31
467.829	174.31
468.049	350.31
468.268	537.31
468.488	145.31
468.707	86.31
468.927	100.31
469.146	80.31
469.365	93.31
469.585	101.31
469.804	115.31
470.023	94.31
470.243	96.31
470.462	114.31
470.681	106.31
470.901	92.31
471.12	102.31
471.339	94.31
471.558	90.31
471.777	131.31
471.997	207.31
472.216	720.31
472.435	1577.31
472.654	390.31
472.873	146.31
473.092	119.31
473.311	90.31
473.53	92.31
473.749	98.31
473.968	105.31
474.187	104.31
474.406	105.31
474.625	105.31
474.844	80.31
475.063	84.31
475.282	91.31
475.501	88.31
475.72	97.31
475.939	92.31
476.158	98.31
476.377	103.31
476.596	86.31
476.814	84.31
477.033	99.31
477.252	102.31
477.471	100.31
477.69	99.31
477.908	112.31
478.127	87.31
478.346	84.31
478.564	103.31
478.783	97.31
479.002	103.31
479.22	103.31
479.439	105.31
479.658	124.31
479.876	119.31
480.095	108.31
480.313	132.31
480.532	132.31
480.751	208.31
480.969	697.31
481.188	2800.31
481.406	1588.31
481.624	261.31
481.843	129.31
482.061	85.31
482.28	99.31
482.498	90.31
482.717	95.31
482.935	102.31
483.153	93.31
483.372	85.31
483.59	93.31
483.808	87.31
484.027	86.31
484.245	89.31
484.463	88.31
484.681	111.31
484.9	95.31
485.118	102.31
485.336	98.31
485.554	110.31
485.772	101.31
485.99	102.31
486.209	105.31
486.427	100.31
486.645	109.31
486.863	121.31
487.081	100.31
487.299	109.31
487.517	102.31
487.735	98.31
487.953	101.31
488.171	110.31
488.389	101.31
488.607	99.31
488.825	98.31
489.043	88.31
489.261	102.31
489.479	96.31
489.696	100.31
489.914	86.31
490.132	81.31
490.35	80.31
490.568	89.31
490.786	97.31
491.003	93.31
491.221	98.31
491.439	94.31
491.657	109.31
491.874	82.31
492.092	88.31
492.31	85.31
492.527	73.31
492.745	95.31
492.963	84.31
493.18	79.31
493.398	97.31
493.615	105.31
493.833	100.31
494.05	108.31
494.268	92.31
494.485	96.31
494.703	88.31
494.92	88.31
495.138	87.31
495.355	81.31
495.573	81.31
495.79	100.31
496.008	91.31
496.225	81.31
496.442	87.31
496.66	92.31
496.877	82.31
497.094	88.31
497.312	82.31
497.529	96.31
497.746	89.31
497.963	71.31
498.181	100.31
498.398	92.31
498.615	102.31
498.832	100.31
499.049	83.31
499.267	103.31
499.484	84.31
499.701	93.31
499.918	85.31
500.135	81.31
500.352	100.31
500.569	92.31
500.786	92.31
501.003	100.31
501.22	83.31
501.437	94.31
501.654	92.31
501.871	115.31
502.088	94.31
502.305	94.31
502.522	94.31
502.739	82.31
502.956	90.31
503.172	87.31
503.389	104.31
503.606	113.31
503.823	111.31
504.04	92.31
504.256	93.31
504.473	93.31
504.69	80.31
504.907	105.31
505.123	93.31
505.34	88.31
505.557	92.31
505.773	92.31
505.99	96.31
506.207	83.31
506.423	89.31
506.64	94.31
506.856	81.31
507.073	97.31
507.289	78.31
507.506	91.31
507.722	120.31
507.939	119.31
508.155	92.31
508.372	95.31
508.588	102.31
508.805	105.31
509.021	96.31
509.238	93.31
509.454	92.31
509.67	99.31
509.887	111.31
510.103	126.31
510.319	187.31
510.536	640.31
510.752	2071.31
510.968	590.31
511.184	148.31
511.401	112.31
511.617	85.31
511.833	85.31
512.049	92.31
512.265	83.31
512.481	98.31
512.698	98.31
512.914	101.31
513.13	93.31
513.346	96.31
513.562	105.31
513.778	90.31
513.994	104.31
514.21	92.31
514.426	121.31
514.642	132.31
514.858	120.31
515.074	154.31
515.29	452.31
515.506	1488.31
515.721	557.31
515.937	164.31
516.153	108.31
516.369	93.31
516.585	103.31
516.801	90.31
517.016	91.31
517.232	97.31
517.448	96.31
517.664	117.31
517.879	104.31
518.095	93.31
518.311	92.31
518.527	109.31
518.742	90.31
518.958	101.31
519.173	120.31
519.389	110.31
519.605	102.31
519.82	98.31
520.036	102.31
520.251	131.31
520.467	124.31
520.682	114.31
520.898	116.31
521.113	111.31
521.329	151.31
521.544	202.31
521.76	582.31
521.975	2500.31
522.19	1497.31
522.406	338.31
522.621	128.31
522.836	107.31
523.052	109.31
523.267	108.31
523.482	93.31
523.698	90.31
523.913	111.31
524.128	101.31
524.343	94.31
524.559	94.31
524.774	89.31
524.989	103.31
525.204	120.31
525.419	96.31
525.634	99.31
525.849	103.31
526.064	93.31
526.28	93.31
526.495	99.31
526.71	88.31
526.925	74.31
527.14	92.31
527.355	94.31
527.57	81.31
527.785	105.31
527.999	84.31
528.214	92.31
528.429	96.31
528.644	93.31
528.859	89.31
529.074	98.31
529.289	121.31
529.503	178.31
529.718	108.31
529.933	96.31
530.148	74.31
530.363	112.31
530.577	92.31
530.792	81.31
531.007	96.31
531.221	91.31
531.436	89.31
531.651	93.31
531.865	92.31
532.08	100.31
532.295	88.31
532.509	88.31
532.724	92.31
532.938	98.31
533.153	103.31
533.367	88.31
533.582	94.31
533.796	94.31
534.011	96.31
534.225	92.31
534.44	98.31
534.654	79.31
534.868	104.31
535.083	106.31
535.297	81.31
535.511	104.31
535.726	102.31
535.94	98.31
536.154	96.31
536.369	86.31
536.583	98.31
536.797	105.31
537.011	96.31
537.225	101.31
537.44	86.31
537.654	84.31
537.868	93.31
538.082	74.31
538.296	85.31
538.51	81.31
538.724	100.31
538.938	89.31
539.153	101.31
539.367	119.31
539.581	99.31
539.795	99.31
540.009	91.31
540.222	91.31
540.436	84.31
540.65	98.31
540.864	92.31
541.078	107.31
541.292	105.31
541.506	89.31
541.72	87.31
541.934	89.31
542.147	96.31
542.361	100.31
542.575	82.31
542.789	102.31
543.002	86.31
543.216	87.31
543.43	82.31
543.644	90.31
543.857	96.31
544.071	100.31
544.285	74.31
544.498	92.31
544.712	85.31
544.925	84.31
545.139	87.31
545.352	67.31
545.566	77.31
545.779	106.31
545.993	98.31
546.206	81.31
546.42	89.31
546.633	86.31
546.847	94.31
547.06	81.31
547.274	98.31
547.487	90.31
547.7	87.31
547.914	86.31
548.127	92.31
548.34	90.31
548.554	97.31
548.767	78.31
548.98	99.31
549.193	82.31
549.407	92.31
549.62	73.31
549.833	89.31
550.046	84.31
550.259	90.31
550.473	89.31
550.686	99.31
550.899	100.31
551.112	82.31
551.325	112.31
551.538	98.31
551.751	91.31
551.964	88.31
552.177	83.31
552.39	90.31
552.603	82.31
552.816	89.31
553.029	85.31
553.242	99.31
553.455	108.31
553.667	110.31
553.88	96.31
554.093	94.31
554.306	108.31
554.519	110.31
554.732	87.31
554.944	99.31
555.157	84.31
555.37	87.31
555.583	87.31
555.795	96.31
556.008	94.31
556.221	89.31
556.433	66.31
556.646	88.31
556.859	95.31
557.071	94.31
557.284	92.31
557.496	94.31
557.709	95.31
557.921	88.31
558.134	100.31
558.346	101.31
558.559	90.31
558.771	77.31
558.984	89.31
559.196	74.31
559.409	79.31
559.621	88.31
559.833	96.31
560.046	90.31
560.258	95.31
560.47	110.31
560.683	89.31
560.895	99.31
561.107	97.31
561.32	89.31
561.532	82.31
561.744	90.31
561.956	100.31
562.168	98.31
562.381	101.31
562.593	96.31
562.805	94.31
563.017	111.31
563.229	90.31
563.441	83.31
563.653	93.31
563.865	82.31
564.077	104.31
564.289	85.31
564.501	89.31
564.713	101.31
564.925	99.31
565.137	92.31
565.349	83.31
565.561	88.31
565.773	100.31
565.985	78.31
566.197	100.31
566.408	83.31
566.62	80.31
566.832	87.31
567.044	95.31
567.255	88.31
567.467	97.31
567.679	91.31
567.891	98.31
568.102	92.31
568.314	89.31
568.526	97.31
568.737	88.31
568.949	76.31
569.161	87.31
569.372	86.31
569.584	105.31
569.795	87.31
570.007	114.31
570.218	206.31
570.43	132.31
570.641	96.31
570.853	96.31
571.064	91.31
571.276	86.31
571.487	88.31
571.698	88.31
571.91	95.31
572.121	88.31
572.333	91.31
572.544	101.31
572.755	77.31
572.966	96.31
573.178	94.31
573.389	103.31
573.6	94.31
573.811	91.31
574.023	87.31
574.234	85.31
574.445	90.31
574.656	80.31
574.867	101.31
575.078	94.31
575.289	96.31
575.501	87.31
575.712	94.31
575.923	93.31
576.134	92.31
576.345	76.31
576.556	77.31
576.767	88.31
576.978	97.31
577.188	105.31
577.399	87.31
577.61	92.31
577.821	104.31
578.032	116.31
578.243	221.31
578.454	639.31
578.665	187.31
578.875	105.31
579.086	80.31
579.297	81.31
579.508	98.31
579.718	92.31
579.929	81.31
580.14	84.31
580.35	89.31
580.561	88.31
580.772	82.31
580.982	76.31
581.193	102.31
581.403	83.31
581.614	77.31
581.825	81.31
582.035	76.31
582.246	85.31
582.456	82.31
582.667	88.31
582.877	102.31
583.087	80.31
583.298	83.31
583.508	102.31
583.719	86.31
583.929	91.31
584.139	73.31
584.35	74.31
584.56	84.31
584.77	78.31
584.981	88.31
585.191	95.31
585.401	99.31
585.611	94.31
585.821	87.31
586.032	87.31
586.242	86.31
586.452	95.31
586.662	97.31
586.872	77.31
587.082	68.31
587.292	89.31
587.502	86.31
587.713	77.31
587.923	81.31
588.133	86.31
588.343	88.31
588.553	86.31
588.762	89.31
588.972	93.31
589.182	118.31
589.392	77.31
589.602	99.31
589.812	111.31
590.022	95.31
590.232	89.31
590.441	89.31
590.651	90.31
590.861	94.31
591.071	102.31
591.281	86.31
591.49	92.31
591.7	88.31
591.91	90.31
592.119	88.31
592.329	81.31
592.539	99.31
592.748	74.31
592.958	88.31
593.167	90.31
593.377	80.31
593.587	104.31
593.796	82.31
594.006	96.31
594.215	77.31
594.424	89.31
594.634	76.31
594.843	70.31
595.053	80.31
595.262	99.31
595.472	85.31
595.681	81.31
595.89	80.31
596.1	82.31
596.309	92.31
596.518	94.31
596.727	93.31
596.937	86.31
597.146	74.31
597.355	88.31
597.564	97.31
597.774	83.31
597.983	80.31
598.192	83.31
598.401	95.31
598.61	96.31
598.819	76.31
599.028	81.31
599.237	60.31
599.446	89.31
599.655	89.31
599.864	72.31
600.073	84.31
600.282	79.31
600.491	80.31
600.7	95.31
600.909	70.31
601.118	79.31
601.327	87.31
601.536	84.31
601.745	74.31
601.953	82.31
602.162	80.31
602.371	86.31
602.58	90.31
602.789	93.31
602.997	84.31
603.206	95.31
603.415	96.31
603.623	83.31
603.832	84.31
604.041	100.31
604.249	85.31
604.458	92.31
604.666	92.31
604.875	96.31
605.084	89.31
605.292	92.31
605.501	78.31
605.709	92.31
605.918	83.31
606.126	84.31
606.334	87.31
606.543	87.31
606.751	74.31
606.96	64.31
607.168	81.31
607.376	80.31
607.585	91.31
607.793	66.31
608.001	81.31
608.21	89.31
608.418	86.31
608.626	77.31
608.834	90.31
609.043	86.31
609.251	88.31
609.459	82.31
609.667	103.31
609.875	98.31
610.083	77.31
610.291	94.31
610.499	86.31
610.707	86.31
610.916	80.31
611.124	82.31
611.332	84.31
611.54	85.31
611.748	92.31
611.955	78.31
612.163	95.31
612.371	96.31
612.579	77.31
612.787	91.31
612.995	91.31
613.203	82.31
613.411	88.31
613.618	87.31
613.826	92.31
614.034	92.31
614.242	91.31
614.449	95.31
614.657	82.31
614.865	70.31
615.072	102.31
615.28	95.31
615.488	89.31
615.695	87.31
615.903	96.31
616.111	93.31
616.318	94.31
616.526	97.31
616.733	90.31
616.941	81.31
617.148	79.31
617.356	88.31
617.563	82.31
617.771	77.31
617.978	94.31
618.185	93.31
618.393	72.31
618.6	71.31
618.807	78.31
619.015	86.31
619.222	87.31
619.429	80.31
619.637	81.31
619.844	87.31
620.051	79.31
620.258	90.31
620.466	85.31
620.673	88.31
620.88	87.31
621.087	80.31
621.294	85.31
621.501	88.31
621.708	86.31
621.915	90.31
622.122	79.31
622.329	105.31
622.536	90.31
622.743	80.31
622.95	86.31
623.157	82.31
623.364	85.31
623.571	94.31
623.778	81.31
623.985	92.31
624.192	85.31
624.399	89.31
624.606	78.31
624.812	73.31
625.019	82.31
625.226	86.31
625.433	85.31
625.639	78.31
625.846	91.31
626.053	66.31
626.259	85.31
626.466	68.31
626.673	97.31
626.879	89.31
627.086	102.31
627.293	102.31
627.499	103.31
627.706	76.31
627.912	80.31
628.119	87.31
628.325	89.31
628.532	83.31
628.738	92.31
628.945	95.31
629.151	68.31
629.357	88.31
629.564	85.31
629.77	96.31
629.976	90.31
630.183	89.31
630.389	77.31
630.595	87.31
630.802	76.31
631.008	82.31
631.214	86.31
631.42	66.31
631.627	80.31
631.833	69.31
632.039	87.31
632.245	76.31
632.451	80.31
632.657	90.31
632.863	92.31
633.069	83.31
633.275	88.31
633.481	87.31
633.688	80.31
633.893	75.31
634.099	78.31
634.305	82.31
634.511	87.31
634.717	76.31
634.923	69.31
635.129	81.31
635.335	83.31
635.541	101.31
635.747	89.31
635.952	86.31
636.158	104.31
636.364	237.31
636.57	213.31
636.775	112.31
636.981	90.31
637.187	78.31
637.392	88.31
637.598	90.31
637.804	89.31
638.009	82.31
638.215	88.31
638.421	88.31
638.626	81.31
638.832	76.31
639.037	72.31
639.243	95.31
639.448	74.31
639.654	90.31
639.859	83.31
640.065	80.31
640.27	87.31
640.475	88.31
640.681	92.31
640.886	83.31
641.091	82.31
641.297	76.31
641.502	78.31
641.707	92.31
641.913	86.31
642.118	87.31
642.323	65.31
642.528	82.31
642.733	94.31
642.939	81.31
643.144	93.31
643.349	88.31
643.554	77.31
643.759	77.31
643.964	79.31
644.169	71.31
644.374	68.31
644.579	94.31
644.784	94.31
644.989	81.31
645.194	89.31
645.399	78.31
645.604	88.31
645.809	81.31
646.014	76.31
646.219	64.31
646.423	86.31
646.628	89.31
646.833	101.31
647.038	90.31
647.243	87.31
647.447	78.31
647.652	77.31
647.857	77.31
648.062	91.31
648.266	77.31
648.471	103.31
648.676	99.31
648.88	97.31
649.085	80.31
649.289	83.31
649.494	101.31
649.698	150.31
649.903	110.31
650.107	89.31
650.312	72.31
650.516	92.31
650.721	76.31
650.925	94.31
651.13	72.31
651.334	77.31
651.539	97.31
651.743	83.31
651.947	78.31
652.152	93.31
652.356	84.31
652.56	78.31
652.764	88.31
652.969	92.31
653.173	81.31
653.377	81.31
653.581	86.31
653.785	74.31
653.99	84.31
654.194	94.31
654.398	94.31
654.602	85.31
654.806	83.31
655.01	106.31
655.214	99.31
655.418	88.31
655.622	91.31
655.826	78.31
656.03	90.31
656.234	87.31
656.438	92.31
656.642	96.31
656.846	95.31
657.049	93.31
657.253	88.31
657.457	65.31
657.661	82.31
657.865	89.31
658.068	86.31
658.272	80.31
658.476	77.31
658.68	85.31
658.883	91.31
659.087	76.31
659.291	85.31
659.494	69.31
659.698	91.31
659.901	90.31
660.105	82.31
660.309	75.31
660.512	65.31
660.716	98.31
660.919	97.31
661.123	88.31
661.326	73.31
661.53	88.31
661.733	68.31
661.936	78.31
662.14	76.31
662.343	80.31
662.546	79.31
662.75	81.31
662.953	80.31
663.156	82.31
663.36	92.31
663.563	86.31
663.766	70.31
663.969	93.31
664.173	79.31
664.376	77.31
664.579	73.31
664.782	89.31
664.985	77.31
665.188	91.31
665.391	89.31
665.594	72.31
665.797	81.31
666	70.31
666.203	85.31
666.406	72.31
666.609	84.31
666.812	82.31
667.015	86.31
667.218	90.31
667.421	88.31
667.624	87.31
667.827	77.31
668.03	66.31
668.232	78.31
668.435	92.31
668.638	81.31
668.841	80.31
669.043	86.31
669.246	86.31
669.449	89.31
669.651	81.31
669.854	87.31
670.057	88.31
670.259	66.31
670.462	90.31
670.665	75.31
670.867	78.31
671.07	65.31
671.272	91.31
671.475	90.31
671.677	70.31
671.88	92.31
672.082	78.31
672.284	70.31
672.487	89.31
672.689	81.31
672.892	85.31
