Data from Circ_1989_H10_HRD10591_00089.txt Node
Date: Wed Jan 03 12:01:39 EST 2024
User: Yrep
Spectrometer: HR+D1059
Trigger mode: 1
Integration Time (sec): 1.000000E-1
Scans to average: 1
Electric dark correction enabled: true
Nonlinearity correction enabled: false
Boxcar width: 0
XAxis mode: Wavelengths
Number of Pixels in Spectrum: 2048
>>>>>Begin Spectral Data<<<<<
223.165	-27.69
223.4	-27.69
223.635	-27.69
223.869	-25.69
224.104	-9.69
224.338	-10.69
224.573	-18.69
224.808	-14.69
225.042	-7.69
225.277	1.31
225.511	11.31
225.746	0.31
225.98	12.31
226.215	12.31
226.449	18.31
226.683	12.31
226.918	31.31
227.152	15.31
227.387	30.31
227.621	31.31
227.856	41.31
228.09	39.31
228.324	50.31
228.559	51.31
228.793	54.31
229.027	78.31
229.262	60.31
229.496	63.31
229.73	74.31
229.964	78.31
230.199	52.31
230.433	69.31
230.667	74.31
230.901	74.31
231.136	78.31
231.37	82.31
231.604	75.31
231.838	72.31
232.072	68.31
232.306	72.31
232.541	71.31
232.775	91.31
233.009	74.31
233.243	93.31
233.477	88.31
233.711	76.31
233.945	80.31
234.179	85.31
234.413	74.31
234.647	82.31
234.881	74.31
235.115	90.31
235.349	86.31
235.583	70.31
235.817	74.31
236.051	85.31
236.285	71.31
236.519	86.31
236.753	76.31
236.987	65.31
237.221	78.31
237.455	77.31
237.689	79.31
237.922	78.31
238.156	78.31
238.39	90.31
238.624	71.31
238.858	76.31
239.091	74.31
239.325	76.31
239.559	85.31
239.793	88.31
240.027	77.31
240.26	78.31
240.494	70.31
240.728	68.31
240.961	79.31
241.195	69.31
241.429	76.31
241.662	67.31
241.896	69.31
242.13	67.31
242.363	79.31
242.597	88.31
242.83	68.31
243.064	78.31
243.298	76.31
243.531	71.31
243.765	76.31
243.998	76.31
244.232	88.31
244.465	83.31
244.699	79.31
244.932	82.31
245.166	62.31
245.399	79.31
245.633	75.31
245.866	76.31
246.099	74.31
246.333	75.31
246.566	78.31
246.8	79.31
247.033	82.31
247.266	82.31
247.5	75.31
247.733	83.31
247.966	79.31
248.2	82.31
248.433	70.31
248.666	75.31
248.899	66.31
249.133	87.31
249.366	90.31
249.599	80.31
249.832	80.31
250.066	78.31
250.299	72.31
250.532	80.31
250.765	82.31
250.998	82.31
251.231	67.31
251.465	90.31
251.698	68.31
251.931	87.31
252.164	77.31
252.397	81.31
252.63	72.31
252.863	74.31
253.096	87.31
253.329	74.31
253.562	90.31
253.795	72.31
254.028	63.31
254.261	62.31
254.494	67.31
254.727	77.31
254.96	77.31
255.193	78.31
255.426	86.31
255.659	59.31
255.892	87.31
256.124	81.31
256.357	80.31
256.59	91.31
256.823	72.31
257.056	78.31
257.289	79.31
257.521	78.31
257.754	90.31
257.987	90.31
258.22	78.31
258.452	91.31
258.685	82.31
258.918	79.31
259.151	75.31
259.383	76.31
259.616	84.31
259.849	70.31
260.081	74.31
260.314	87.31
260.547	72.31
260.779	83.31
261.012	84.31
261.244	91.31
261.477	102.31
261.71	90.31
261.942	102.31
262.175	100.31
262.407	84.31
262.64	87.31
262.872	89.31
263.105	92.31
263.337	90.31
263.57	74.31
263.802	82.31
264.035	86.31
264.267	68.31
264.499	84.31
264.732	78.31
264.964	84.31
265.197	65.31
265.429	84.31
265.661	81.31
265.894	68.31
266.126	77.31
266.358	68.31
266.591	78.31
266.823	98.31
267.055	80.31
267.287	86.31
267.52	95.31
267.752	76.31
267.984	87.31
268.216	83.31
268.448	82.31
268.681	86.31
268.913	78.31
269.145	81.31
269.377	76.31
269.609	76.31
269.841	86.31
270.073	80.31
270.306	88.31
270.538	96.31
270.77	90.31
271.002	79.31
271.234	87.31
271.466	89.31
271.698	87.31
271.93	95.31
272.162	75.31
272.394	87.31
272.626	82.31
272.858	82.31
273.09	80.31
273.322	99.31
273.553	87.31
273.785	86.31
274.017	87.31
274.249	79.31
274.481	83.31
274.713	70.31
274.945	92.31
275.176	74.31
275.408	111.31
275.64	85.31
275.872	101.31
276.104	88.31
276.335	84.31
276.567	94.31
276.799	100.31
277.031	115.31
277.262	124.31
277.494	87.31
277.726	100.31
277.957	87.31
278.189	78.31
278.421	83.31
278.652	72.31
278.884	78.31
279.115	71.31
279.347	101.31
279.579	96.31
279.81	102.31
280.042	108.31
280.273	130.31
280.505	104.31
280.736	90.31
280.968	95.31
281.199	76.31
281.431	90.31
281.662	85.31
281.894	97.31
282.125	94.31
282.356	106.31
282.588	129.31
282.819	102.31
283.051	88.31
283.282	79.31
283.513	79.31
283.745	82.31
283.976	86.31
284.207	86.31
284.439	87.31
284.67	82.31
284.901	70.31
285.132	90.31
285.364	72.31
285.595	87.31
285.826	79.31
286.057	79.31
286.288	79.31
286.52	85.31
286.751	84.31
286.982	86.31
287.213	92.31
287.444	94.31
287.675	86.31
287.906	104.31
288.138	105.31
288.369	96.31
288.6	91.31
288.831	79.31
289.062	90.31
289.293	86.31
289.524	82.31
289.755	67.31
289.986	86.31
290.217	86.31
290.448	70.31
290.679	86.31
290.91	74.31
291.141	82.31
291.371	87.31
291.602	76.31
291.833	88.31
292.064	92.31
292.295	88.31
292.526	88.31
292.757	89.31
292.987	90.31
293.218	94.31
293.449	77.31
293.68	90.31
293.91	95.31
294.141	88.31
294.372	92.31
294.603	74.31
294.833	86.31
295.064	77.31
295.295	84.31
295.525	86.31
295.756	94.31
295.987	95.31
296.217	109.31
296.448	109.31
296.679	72.31
296.909	92.31
297.14	86.31
297.37	94.31
297.601	81.31
297.831	80.31
298.062	85.31
298.292	78.31
298.523	90.31
298.753	87.31
298.984	86.31
299.214	85.31
299.445	85.31
299.675	95.31
299.905	83.31
300.136	102.31
300.366	78.31
300.597	84.31
300.827	93.31
301.057	104.31
301.288	104.31
301.518	94.31
301.748	96.31
301.979	88.31
302.209	98.31
302.439	83.31
302.669	94.31
302.9	92.31
303.13	88.31
303.36	87.31
303.59	95.31
303.82	101.31
304.051	92.31
304.281	96.31
304.511	93.31
304.741	80.31
304.971	93.31
305.201	106.31
305.431	92.31
305.661	99.31
305.891	100.31
306.121	95.31
306.352	83.31
306.582	106.31
306.812	98.31
307.042	94.31
307.272	118.31
307.502	127.31
307.731	118.31
307.961	119.31
308.191	97.31
308.421	101.31
308.651	90.31
308.881	95.31
309.111	84.31
309.341	86.31
309.571	101.31
309.8	95.31
310.03	101.31
310.26	91.31
310.49	91.31
310.72	100.31
310.949	91.31
311.179	93.31
311.409	92.31
311.639	87.31
311.868	96.31
312.098	84.31
312.328	100.31
312.557	100.31
312.787	100.31
313.017	91.31
313.246	90.31
313.476	99.31
313.706	103.31
313.935	86.31
314.165	85.31
314.394	94.31
314.624	87.31
314.853	82.31
315.083	97.31
315.312	94.31
315.542	82.31
315.771	79.31
316.001	74.31
316.23	86.31
316.46	99.31
316.689	98.31
316.919	104.31
317.148	99.31
317.377	107.31
317.607	102.31
317.836	94.31
318.065	94.31
318.295	85.31
318.524	78.31
318.753	91.31
318.983	84.31
319.212	102.31
319.441	97.31
319.67	93.31
319.9	92.31
320.129	99.31
320.358	91.31
320.587	96.31
320.816	86.31
321.046	99.31
321.275	88.31
321.504	85.31
321.733	90.31
321.962	88.31
322.191	93.31
322.42	97.31
322.649	99.31
322.878	109.31
323.108	101.31
323.337	107.31
323.566	141.31
323.795	140.31
324.024	180.31
324.253	324.31
324.482	661.31
324.71	1306.31
324.939	1802.31
325.168	672.31
325.397	210.31
325.626	135.31
325.855	113.31
326.084	117.31
326.313	112.31
326.542	137.31
326.77	192.31
326.999	389.31
327.228	754.31
327.457	1403.31
327.686	1133.31
327.914	362.31
328.143	273.31
328.372	268.31
328.6	179.31
328.829	112.31
329.058	126.31
329.287	113.31
329.515	119.31
329.744	150.31
329.972	223.31
330.201	396.31
330.43	513.31
330.658	268.31
330.887	151.31
331.115	116.31
331.344	94.31
331.572	96.31
331.801	106.31
332.03	108.31
332.258	96.31
332.486	90.31
332.715	90.31
332.943	80.31
333.172	102.31
333.4	101.31
333.629	120.31
333.857	154.31
334.085	224.31
334.314	384.31
334.542	677.31
334.771	629.31
334.999	203.31
335.227	113.31
335.455	91.31
335.684	92.31
335.912	94.31
336.14	94.31
336.369	99.31
336.597	93.31
336.825	95.31
337.053	69.31
337.281	116.31
337.51	89.31
337.738	88.31
337.966	91.31
338.194	87.31
338.422	90.31
338.65	90.31
338.878	88.31
339.106	99.31
339.334	92.31
339.562	86.31
339.79	83.31
340.018	83.31
340.246	89.31
340.474	79.31
340.702	88.31
340.93	85.31
341.158	79.31
341.386	83.31
341.614	72.31
341.842	97.31
342.07	78.31
342.298	96.31
342.526	90.31
342.754	81.31
342.981	99.31
343.209	82.31
343.437	109.31
343.665	99.31
343.893	88.31
344.12	91.31
344.348	87.31
344.576	91.31
344.804	84.31
345.031	88.31
345.259	86.31
345.487	86.31
345.714	96.31
345.942	98.31
346.17	88.31
346.397	96.31
346.625	92.31
346.853	85.31
347.08	94.31
347.308	95.31
347.535	80.31
347.763	100.31
347.99	96.31
348.218	104.31
348.445	91.31
348.673	78.31
348.9	92.31
349.128	103.31
349.355	82.31
349.583	79.31
349.81	102.31
350.037	100.31
350.265	99.31
350.492	99.31
350.72	95.31
350.947	96.31
351.174	100.31
351.402	88.31
351.629	88.31
351.856	83.31
352.083	95.31
352.311	106.31
352.538	111.31
352.765	99.31
352.992	115.31
353.22	117.31
353.447	106.31
353.674	93.31
353.901	95.31
354.128	95.31
354.355	92.31
354.583	96.31
354.81	95.31
355.037	97.31
355.264	107.31
355.491	100.31
355.718	87.31
355.945	94.31
356.172	98.31
356.399	100.31
356.626	86.31
356.853	92.31
357.08	90.31
357.307	98.31
357.534	93.31
357.761	91.31
357.988	91.31
358.215	81.31
358.441	95.31
358.668	86.31
358.895	104.31
359.122	82.31
359.349	79.31
359.576	76.31
359.802	94.31
360.029	103.31
360.256	115.31
360.483	84.31
360.709	84.31
360.936	109.31
361.163	96.31
361.39	89.31
361.616	92.31
361.843	99.31
362.07	97.31
362.296	78.31
362.523	96.31
362.749	85.31
362.976	95.31
363.203	75.31
363.429	89.31
363.656	79.31
363.882	97.31
364.109	111.31
364.335	82.31
364.562	86.31
364.788	78.31
365.015	89.31
365.241	71.31
365.468	95.31
365.694	90.31
365.92	85.31
366.147	87.31
366.373	88.31
366.599	93.31
366.826	96.31
367.052	87.31
367.278	92.31
367.505	93.31
367.731	93.31
367.957	84.31
368.184	94.31
368.41	91.31
368.636	94.31
368.862	102.31
369.089	103.31
369.315	82.31
369.541	87.31
369.767	95.31
369.993	92.31
370.219	92.31
370.445	85.31
370.672	86.31
370.898	81.31
371.124	98.31
371.35	91.31
371.576	83.31
371.802	93.31
372.028	87.31
372.254	83.31
372.48	88.31
372.706	85.31
372.932	88.31
373.158	73.31
373.384	94.31
373.61	92.31
373.835	96.31
374.061	76.31
374.287	77.31
374.513	77.31
374.739	69.31
374.965	78.31
375.191	84.31
375.416	89.31
375.642	92.31
375.868	91.31
376.094	92.31
376.319	103.31
376.545	83.31
376.771	93.31
376.997	72.31
377.222	78.31
377.448	93.31
377.674	94.31
377.899	89.31
378.125	85.31
378.35	88.31
378.576	87.31
378.802	81.31
379.027	92.31
379.253	93.31
379.478	76.31
379.704	97.31
379.929	78.31
380.155	91.31
380.38	84.31
380.606	92.31
380.831	85.31
381.057	78.31
381.282	86.31
381.507	91.31
381.733	94.31
381.958	90.31
382.184	86.31
382.409	100.31
382.634	102.31
382.86	98.31
383.085	88.31
383.31	82.31
383.535	95.31
383.761	99.31
383.986	88.31
384.211	94.31
384.436	101.31
384.662	93.31
384.887	100.31
385.112	102.31
385.337	98.31
385.562	95.31
385.787	108.31
386.013	103.31
386.238	111.31
386.463	97.31
386.688	104.31
386.913	92.31
387.138	106.31
387.363	106.31
387.588	92.31
387.813	95.31
388.038	98.31
388.263	104.31
388.488	105.31
388.713	100.31
388.938	104.31
389.163	90.31
389.387	87.31
389.612	87.31
389.837	92.31
390.062	94.31
390.287	92.31
390.512	90.31
390.736	71.31
390.961	79.31
391.186	92.31
391.411	95.31
391.636	83.31
391.86	91.31
392.085	86.31
392.31	81.31
392.534	83.31
392.759	97.31
392.984	102.31
393.208	78.31
393.433	74.31
393.658	84.31
393.882	78.31
394.107	84.31
394.331	95.31
394.556	90.31
394.78	86.31
395.005	86.31
395.229	89.31
395.454	76.31
395.678	92.31
395.903	82.31
396.127	99.31
396.352	93.31
396.576	91.31
396.801	84.31
397.025	93.31
397.249	99.31
397.474	75.31
397.698	76.31
397.922	94.31
398.147	78.31
398.371	94.31
398.595	81.31
398.82	94.31
399.044	86.31
399.268	75.31
399.492	74.31
399.717	91.31
399.941	91.31
400.165	99.31
400.389	86.31
400.613	81.31
400.837	83.31
401.062	82.31
401.286	80.31
401.51	83.31
401.734	93.31
401.958	93.31
402.182	106.31
402.406	130.31
402.63	108.31
402.854	74.31
403.078	94.31
403.302	85.31
403.526	79.31
403.75	96.31
403.974	89.31
404.198	98.31
404.422	82.31
404.645	82.31
404.869	99.31
405.093	98.31
405.317	118.31
405.541	95.31
405.765	84.31
405.988	113.31
406.212	151.31
406.436	178.31
406.66	124.31
406.883	98.31
407.107	99.31
407.331	91.31
407.555	99.31
407.778	102.31
408.002	86.31
408.226	94.31
408.449	83.31
408.673	79.31
408.896	96.31
409.12	87.31
409.344	70.31
409.567	75.31
409.791	99.31
410.014	95.31
410.238	90.31
410.461	77.31
410.685	88.31
410.908	90.31
411.132	91.31
411.355	95.31
411.578	87.31
411.802	87.31
412.025	81.31
412.249	91.31
412.472	69.31
412.695	98.31
412.919	96.31
413.142	91.31
413.365	106.31
413.589	91.31
413.812	96.31
414.035	84.31
414.258	90.31
414.482	92.31
414.705	91.31
414.928	93.31
415.151	87.31
415.374	109.31
415.597	88.31
415.821	92.31
416.044	86.31
416.267	98.31
416.49	107.31
416.713	98.31
416.936	95.31
417.159	87.31
417.382	89.31
417.605	97.31
417.828	87.31
418.051	88.31
418.274	69.31
418.497	78.31
418.72	79.31
418.943	80.31
419.166	86.31
419.389	94.31
419.611	76.31
419.834	86.31
420.057	96.31
420.28	74.31
420.503	91.31
420.726	86.31
420.948	78.31
421.171	91.31
421.394	105.31
421.617	92.31
421.839	87.31
422.062	78.31
422.285	95.31
422.507	88.31
422.73	91.31
422.953	90.31
423.175	87.31
423.398	76.31
423.621	85.31
423.843	77.31
424.066	85.31
424.288	86.31
424.511	91.31
424.733	78.31
424.956	95.31
425.178	107.31
425.401	93.31
425.623	90.31
425.846	87.31
426.068	74.31
426.291	93.31
426.513	90.31
426.735	86.31
426.958	80.31
427.18	101.31
427.402	124.31
427.625	152.31
427.847	137.31
428.069	149.31
428.292	109.31
428.514	96.31
428.736	82.31
428.958	83.31
429.181	94.31
429.403	78.31
429.625	85.31
429.847	100.31
430.069	80.31
430.292	84.31
430.514	78.31
430.736	77.31
430.958	84.31
431.18	90.31
431.402	78.31
431.624	74.31
431.846	79.31
432.068	85.31
432.29	99.31
432.512	75.31
432.734	84.31
432.956	91.31
433.178	99.31
433.4	97.31
433.622	96.31
433.844	74.31
434.066	84.31
434.287	99.31
434.509	84.31
434.731	90.31
434.953	96.31
435.175	82.31
435.397	96.31
435.618	102.31
435.84	95.31
436.062	116.31
436.284	110.31
436.505	98.31
436.727	106.31
436.949	93.31
437.17	81.31
437.392	83.31
437.614	79.31
437.835	97.31
438.057	97.31
438.278	94.31
438.5	91.31
438.721	101.31
438.943	104.31
439.165	90.31
439.386	93.31
439.608	84.31
439.829	100.31
440.05	127.31
440.272	118.31
440.493	88.31
440.715	93.31
440.936	86.31
441.158	74.31
441.379	92.31
441.6	94.31
441.822	88.31
442.043	82.31
442.264	91.31
442.486	104.31
442.707	81.31
442.928	104.31
443.149	110.31
443.371	120.31
443.592	90.31
443.813	95.31
444.034	110.31
444.255	80.31
444.476	91.31
444.698	88.31
444.919	93.31
445.14	125.31
445.361	115.31
445.582	111.31
445.803	116.31
446.024	131.31
446.245	129.31
446.466	115.31
446.687	79.31
446.908	104.31
447.129	99.31
447.35	97.31
447.571	84.31
447.792	86.31
448.013	98.31
448.234	91.31
448.455	88.31
448.675	98.31
448.896	110.31
449.117	107.31
449.338	90.31
449.559	111.31
449.779	121.31
450	99.31
450.221	92.31
450.442	95.31
450.662	102.31
450.883	94.31
451.104	109.31
451.324	88.31
451.545	78.31
451.766	80.31
451.986	83.31
452.207	83.31
452.428	79.31
452.648	93.31
452.869	89.31
453.089	115.31
453.31	109.31
453.53	90.31
453.751	86.31
453.971	98.31
454.192	109.31
454.412	102.31
454.633	80.31
454.853	85.31
455.073	94.31
455.294	104.31
455.514	95.31
455.734	92.31
455.955	72.31
456.175	87.31
456.395	82.31
456.616	89.31
456.836	77.31
457.056	87.31
457.276	82.31
457.497	80.31
457.717	78.31
457.937	87.31
458.157	75.31
458.377	82.31
458.598	109.31
458.818	124.31
459.038	127.31
459.258	109.31
459.478	90.31
459.698	83.31
459.918	82.31
460.138	85.31
460.358	90.31
460.578	82.31
460.798	87.31
461.018	65.31
461.238	68.31
461.458	90.31
461.678	90.31
461.898	99.31
462.118	85.31
462.338	93.31
462.558	89.31
462.777	94.31
462.997	88.31
463.217	85.31
463.437	86.31
463.657	69.31
463.876	90.31
464.096	86.31
464.316	95.31
464.536	105.31
464.755	102.31
464.975	95.31
465.195	131.31
465.414	122.31
465.634	91.31
465.854	93.31
466.073	92.31
466.293	100.31
466.512	85.31
466.732	81.31
466.951	85.31
467.171	93.31
467.391	95.31
467.61	104.31
467.829	135.31
468.049	261.31
468.268	356.31
468.488	131.31
468.707	100.31
468.927	87.31
469.146	104.31
469.365	80.31
469.585	84.31
469.804	92.31
470.023	86.31
470.243	87.31
470.462	94.31
470.681	103.31
470.901	88.31
471.12	99.31
471.339	86.31
471.558	87.31
471.777	89.31
471.997	166.31
472.216	492.31
472.435	987.31
472.654	252.31
472.873	111.31
473.092	79.31
473.311	76.31
473.53	90.31
473.749	80.31
473.968	88.31
474.187	96.31
474.406	93.31
474.625	82.31
474.844	87.31
475.063	81.31
475.282	90.31
475.501	86.31
475.72	86.31
475.939	85.31
476.158	78.31
476.377	80.31
476.596	86.31
476.814	81.31
477.033	78.31
477.252	83.31
477.471	91.31
477.69	94.31
477.908	85.31
478.127	99.31
478.346	87.31
478.564	83.31
478.783	92.31
479.002	90.31
479.22	90.31
479.439	94.31
479.658	107.31
479.876	97.31
480.095	101.31
480.313	89.31
480.532	116.31
480.751	183.31
480.969	458.31
481.188	1738.31
481.406	992.31
481.624	189.31
481.843	101.31
482.061	79.31
482.28	90.31
482.498	91.31
482.717	86.31
482.935	96.31
483.153	86.31
483.372	102.31
483.59	81.31
483.808	84.31
484.027	93.31
484.245	99.31
484.463	89.31
484.681	108.31
484.9	86.31
485.118	85.31
485.336	104.31
485.554	93.31
485.772	86.31
485.99	86.31
486.209	103.31
486.427	87.31
486.645	115.31
486.863	84.31
487.081	109.31
487.299	104.31
487.517	80.31
487.735	93.31
487.953	95.31
488.171	86.31
488.389	88.31
488.607	99.31
488.825	87.31
489.043	82.31
489.261	98.31
489.479	76.31
489.696	92.31
489.914	93.31
490.132	85.31
490.35	79.31
490.568	81.31
490.786	80.31
491.003	90.31
491.221	102.31
491.439	88.31
491.657	97.31
491.874	90.31
492.092	94.31
492.31	87.31
492.527	98.31
492.745	81.31
492.963	94.31
493.18	95.31
493.398	85.31
493.615	88.31
493.833	85.31
494.05	95.31
494.268	94.31
494.485	95.31
494.703	86.31
494.92	93.31
495.138	86.31
495.355	92.31
495.573	78.31
495.79	86.31
496.008	98.31
496.225	99.31
496.442	84.31
496.66	69.31
496.877	87.31
497.094	84.31
497.312	94.31
497.529	79.31
497.746	95.31
497.963	83.31
498.181	85.31
498.398	87.31
498.615	106.31
498.832	102.31
499.049	89.31
499.267	94.31
499.484	91.31
499.701	86.31
499.918	86.31
500.135	86.31
500.352	88.31
500.569	87.31
500.786	82.31
501.003	81.31
501.22	95.31
501.437	94.31
501.654	92.31
501.871	103.31
502.088	80.31
502.305	86.31
502.522	94.31
502.739	93.31
502.956	88.31
503.172	81.31
503.389	74.31
503.606	99.31
503.823	86.31
504.04	86.31
504.256	87.31
504.473	94.31
504.69	94.31
504.907	96.31
505.123	96.31
505.34	94.31
505.557	91.31
505.773	94.31
505.99	83.31
506.207	103.31
506.423	75.31
506.64	79.31
506.856	86.31
507.073	74.31
507.289	91.31
507.506	85.31
507.722	85.31
507.939	93.31
508.155	94.31
508.372	92.31
508.588	83.31
508.805	102.31
509.021	111.31
509.238	83.31
509.454	106.31
509.67	98.31
509.887	95.31
510.103	104.31
510.319	166.31
510.536	528.31
510.752	1555.31
510.968	450.31
511.184	132.31
511.401	88.31
511.617	101.31
511.833	80.31
512.049	87.31
512.265	87.31
512.481	94.31
512.698	80.31
512.914	83.31
513.13	70.31
513.346	96.31
513.562	90.31
513.778	82.31
513.994	94.31
514.21	95.31
514.426	119.31
514.642	113.31
514.858	97.31
515.074	143.31
515.29	305.31
515.506	982.31
515.721	366.31
515.937	133.31
516.153	106.31
516.369	92.31
516.585	92.31
516.801	79.31
517.016	81.31
517.232	87.31
517.448	92.31
517.664	88.31
517.879	90.31
518.095	95.31
518.311	109.31
518.527	86.31
518.742	82.31
518.958	90.31
519.173	86.31
519.389	91.31
519.605	101.31
519.82	98.31
520.036	86.31
520.251	97.31
520.467	84.31
520.682	84.31
520.898	89.31
521.113	92.31
521.329	116.31
521.544	180.31
521.76	410.31
521.975	1650.31
522.19	989.31
522.406	220.31
522.621	113.31
522.836	99.31
523.052	88.31
523.267	79.31
523.482	102.31
523.698	100.31
523.913	94.31
524.128	101.31
524.343	86.31
524.559	96.31
524.774	96.31
524.989	97.31
525.204	96.31
525.419	90.31
525.634	98.31
525.849	100.31
526.064	93.31
526.28	76.31
526.495	92.31
526.71	90.31
526.925	89.31
527.14	91.31
527.355	63.31
527.57	82.31
527.785	86.31
527.999	79.31
528.214	87.31
528.429	90.31
528.644	79.31
528.859	85.31
529.074	88.31
529.289	104.31
529.503	151.31
529.718	103.31
529.933	96.31
530.148	74.31
530.363	80.31
530.577	97.31
530.792	88.31
531.007	97.31
531.221	78.31
531.436	99.31
531.651	80.31
531.865	95.31
532.08	86.31
532.295	95.31
532.509	103.31
532.724	91.31
532.938	99.31
533.153	107.31
533.367	85.31
533.582	68.31
533.796	81.31
534.011	97.31
534.225	97.31
534.44	113.31
534.654	84.31
534.868	94.31
535.083	96.31
535.297	96.31
535.511	87.31
535.726	99.31
535.94	98.31
536.154	80.31
536.369	76.31
536.583	84.31
536.797	96.31
537.011	81.31
537.225	79.31
537.44	80.31
537.654	74.31
537.868	83.31
538.082	79.31
538.296	84.31
538.51	94.31
538.724	84.31
538.938	86.31
539.153	93.31
539.367	103.31
539.581	83.31
539.795	84.31
540.009	92.31
540.222	90.31
540.436	89.31
540.65	92.31
540.864	84.31
541.078	82.31
541.292	86.31
541.506	83.31
541.72	82.31
541.934	97.31
542.147	83.31
542.361	81.31
542.575	85.31
542.789	94.31
543.002	83.31
543.216	98.31
543.43	90.31
543.644	76.31
543.857	74.31
544.071	75.31
544.285	83.31
544.498	91.31
544.712	84.31
544.925	86.31
545.139	81.31
545.352	91.31
545.566	90.31
545.779	78.31
545.993	98.31
546.206	96.31
546.42	79.31
546.633	93.31
546.847	97.31
547.06	80.31
547.274	99.31
547.487	97.31
547.7	92.31
547.914	76.31
548.127	87.31
548.34	90.31
548.554	76.31
548.767	85.31
548.98	95.31
549.193	90.31
549.407	83.31
549.62	90.31
549.833	88.31
550.046	90.31
550.259	110.31
550.473	92.31
550.686	91.31
550.899	88.31
551.112	81.31
551.325	87.31
551.538	94.31
551.751	81.31
551.964	91.31
552.177	97.31
552.39	95.31
552.603	76.31
552.816	96.31
553.029	83.31
553.242	90.31
553.455	100.31
553.667	85.31
553.88	102.31
554.093	86.31
554.306	87.31
554.519	102.31
554.732	98.31
554.944	81.31
555.157	92.31
555.37	83.31
555.583	74.31
555.795	99.31
556.008	87.31
556.221	85.31
556.433	91.31
556.646	81.31
556.859	83.31
557.071	91.31
557.284	90.31
557.496	85.31
557.709	86.31
557.921	92.31
558.134	79.31
558.346	87.31
558.559	91.31
558.771	82.31
558.984	83.31
559.196	91.31
559.409	88.31
559.621	84.31
559.833	91.31
560.046	74.31
560.258	83.31
560.47	102.31
560.683	101.31
560.895	95.31
561.107	99.31
561.32	87.31
561.532	78.31
561.744	71.31
561.956	78.31
562.168	88.31
562.381	91.31
562.593	75.31
562.805	84.31
563.017	90.31
563.229	66.31
563.441	85.31
563.653	81.31
563.865	82.31
564.077	78.31
564.289	96.31
564.501	80.31
564.713	93.31
564.925	81.31
565.137	89.31
565.349	90.31
565.561	80.31
565.773	79.31
565.985	77.31
566.197	93.31
566.408	86.31
566.62	83.31
566.832	81.31
567.044	98.31
567.255	81.31
567.467	86.31
567.679	83.31
567.891	90.31
568.102	88.31
568.314	97.31
568.526	92.31
568.737	80.31
568.949	88.31
569.161	82.31
569.372	76.31
569.584	91.31
569.795	87.31
570.007	107.31
570.218	182.31
570.43	114.31
570.641	94.31
570.853	104.31
571.064	71.31
571.276	88.31
571.487	80.31
571.698	101.31
571.91	102.31
572.121	94.31
572.333	89.31
572.544	87.31
572.755	100.31
572.966	87.31
573.178	104.31
573.389	99.31
573.6	91.31
573.811	99.31
574.023	80.31
574.234	86.31
574.445	100.31
574.656	80.31
574.867	64.31
575.078	95.31
575.289	84.31
575.501	80.31
575.712	94.31
575.923	88.31
576.134	77.31
576.345	75.31
576.556	86.31
576.767	80.31
576.978	96.31
577.188	108.31
577.399	89.31
577.61	87.31
577.821	88.31
578.032	109.31
578.243	186.31
578.454	484.31
578.665	160.31
578.875	93.31
579.086	83.31
579.297	89.31
579.508	78.31
579.718	86.31
579.929	83.31
580.14	75.31
580.35	93.31
580.561	84.31
580.772	83.31
580.982	96.31
581.193	74.31
581.403	93.31
581.614	84.31
581.825	80.31
582.035	92.31
582.246	88.31
582.456	88.31
582.667	80.31
582.877	75.31
583.087	79.31
583.298	87.31
583.508	88.31
583.719	87.31
583.929	85.31
584.139	72.31
584.35	83.31
584.56	94.31
584.77	94.31
584.981	79.31
585.191	87.31
585.401	95.31
585.611	91.31
585.821	99.31
586.032	95.31
586.242	78.31
586.452	81.31
586.662	88.31
586.872	83.31
587.082	87.31
587.292	85.31
587.502	92.31
587.713	89.31
587.923	78.31
588.133	82.31
588.343	84.31
588.553	86.31
588.762	95.31
588.972	85.31
589.182	123.31
589.392	93.31
589.602	94.31
589.812	94.31
590.022	87.31
590.232	84.31
590.441	91.31
590.651	88.31
590.861	87.31
591.071	86.31
591.281	78.31
591.49	71.31
591.7	84.31
591.91	84.31
592.119	77.31
592.329	88.31
592.539	93.31
592.748	80.31
592.958	86.31
593.167	88.31
593.377	91.31
593.587	86.31
593.796	77.31
594.006	77.31
594.215	75.31
594.424	99.31
594.634	84.31
594.843	80.31
595.053	86.31
595.262	70.31
595.472	95.31
595.681	90.31
595.89	82.31
596.1	86.31
596.309	82.31
596.518	77.31
596.727	90.31
596.937	85.31
597.146	91.31
597.355	89.31
597.564	86.31
597.774	87.31
597.983	91.31
598.192	85.31
598.401	84.31
598.61	91.31
598.819	83.31
599.028	86.31
599.237	99.31
599.446	85.31
599.655	90.31
599.864	86.31
600.073	95.31
600.282	84.31
600.491	90.31
600.7	76.31
600.909	76.31
601.118	87.31
601.327	90.31
601.536	89.31
601.745	81.31
601.953	99.31
602.162	82.31
602.371	95.31
602.58	96.31
602.789	98.31
602.997	94.31
603.206	78.31
603.415	95.31
603.623	86.31
603.832	98.31
604.041	88.31
604.249	72.31
604.458	84.31
604.666	75.31
604.875	81.31
605.084	94.31
605.292	74.31
605.501	90.31
605.709	82.31
605.918	68.31
606.126	89.31
606.334	70.31
606.543	84.31
606.751	66.31
606.96	71.31
607.168	94.31
607.376	89.31
607.585	94.31
607.793	71.31
608.001	70.31
608.21	78.31
608.418	82.31
608.626	81.31
608.834	76.31
609.043	99.31
609.251	86.31
609.459	80.31
609.667	82.31
609.875	86.31
610.083	84.31
610.291	87.31
610.499	88.31
610.707	92.31
610.916	95.31
611.124	94.31
611.332	92.31
611.54	77.31
611.748	68.31
611.955	90.31
612.163	89.31
612.371	77.31
612.579	74.31
612.787	66.31
612.995	76.31
613.203	90.31
613.411	74.31
613.618	80.31
613.826	84.31
614.034	78.31
614.242	74.31
614.449	83.31
614.657	86.31
614.865	93.31
615.072	79.31
615.28	84.31
615.488	96.31
615.695	86.31
615.903	92.31
616.111	104.31
616.318	91.31
616.526	84.31
616.733	84.31
616.941	96.31
617.148	93.31
617.356	87.31
617.563	81.31
617.771	69.31
617.978	76.31
618.185	88.31
618.393	93.31
618.6	78.31
618.807	73.31
619.015	95.31
619.222	81.31
619.429	83.31
619.637	90.31
619.844	98.31
620.051	86.31
620.258	86.31
620.466	83.31
620.673	70.31
620.88	78.31
621.087	80.31
621.294	89.31
621.501	82.31
621.708	75.31
621.915	94.31
622.122	85.31
622.329	87.31
622.536	87.31
622.743	83.31
622.95	92.31
623.157	82.31
623.364	88.31
623.571	76.31
623.778	82.31
623.985	92.31
624.192	94.31
624.399	72.31
624.606	86.31
624.812	78.31
625.019	87.31
625.226	80.31
625.433	91.31
625.639	76.31
625.846	80.31
626.053	77.31
626.259	86.31
626.466	90.31
626.673	84.31
626.879	92.31
627.086	80.31
627.293	80.31
627.499	78.31
627.706	92.31
627.912	103.31
628.119	86.31
628.325	87.31
628.532	81.31
628.738	96.31
628.945	94.31
629.151	79.31
629.357	84.31
629.564	89.31
629.77	83.31
629.976	71.31
630.183	86.31
630.389	99.31
630.595	74.31
630.802	84.31
631.008	87.31
631.214	81.31
631.42	86.31
631.627	79.31
631.833	76.31
632.039	88.31
632.245	78.31
632.451	78.31
632.657	80.31
632.863	83.31
633.069	79.31
633.275	72.31
633.481	99.31
633.688	82.31
633.893	63.31
634.099	89.31
634.305	86.31
634.511	90.31
634.717	96.31
634.923	80.31
635.129	81.31
635.335	96.31
635.541	76.31
635.747	80.31
635.952	82.31
636.158	92.31
636.364	174.31
636.57	156.31
636.775	103.31
636.981	80.31
637.187	86.31
637.392	80.31
637.598	84.31
637.804	86.31
638.009	79.31
638.215	88.31
638.421	73.31
638.626	68.31
638.832	82.31
639.037	89.31
639.243	87.31
639.448	84.31
639.654	98.31
639.859	79.31
640.065	88.31
640.27	95.31
640.475	79.31
640.681	79.31
640.886	91.31
641.091	87.31
641.297	78.31
641.502	85.31
641.707	81.31
641.913	85.31
642.118	76.31
642.323	77.31
642.528	88.31
642.733	95.31
642.939	85.31
643.144	83.31
643.349	107.31
643.554	82.31
643.759	88.31
643.964	72.31
644.169	86.31
644.374	76.31
644.579	86.31
644.784	92.31
644.989	82.31
645.194	99.31
645.399	69.31
645.604	65.31
645.809	104.31
646.014	83.31
646.219	83.31
646.423	88.31
646.628	76.31
646.833	77.31
647.038	74.31
647.243	83.31
647.447	83.31
647.652	83.31
647.857	78.31
648.062	92.31
648.266	68.31
648.471	76.31
648.676	77.31
648.88	92.31
649.085	91.31
649.289	75.31
649.494	94.31
649.698	117.31
649.903	86.31
650.107	95.31
650.312	84.31
650.516	83.31
650.721	70.31
650.925	82.31
651.13	79.31
651.334	83.31
651.539	65.31
651.743	78.31
651.947	76.31
652.152	97.31
652.356	79.31
652.56	95.31
652.764	79.31
652.969	86.31
653.173	78.31
653.377	81.31
653.581	79.31
653.785	100.31
653.99	80.31
654.194	95.31
654.398	78.31
654.602	86.31
654.806	89.31
655.01	105.31
655.214	93.31
655.418	81.31
655.622	91.31
655.826	102.31
656.03	87.31
656.234	92.31
656.438	114.31
656.642	93.31
656.846	78.31
657.049	93.31
657.253	79.31
657.457	88.31
657.661	85.31
657.865	77.31
658.068	82.31
658.272	68.31
658.476	90.31
658.68	72.31
658.883	82.31
659.087	88.31
659.291	78.31
659.494	80.31
659.698	75.31
659.901	74.31
660.105	78.31
660.309	82.31
660.512	67.31
660.716	82.31
660.919	88.31
661.123	72.31
661.326	72.31
661.53	79.31
661.733	80.31
661.936	72.31
662.14	68.31
662.343	82.31
662.546	79.31
662.75	78.31
662.953	71.31
663.156	82.31
663.36	71.31
663.563	85.31
663.766	88.31
663.969	72.31
664.173	86.31
664.376	92.31
664.579	72.31
664.782	78.31
664.985	85.31
665.188	91.31
665.391	84.31
665.594	74.31
665.797	62.31
666	80.31
666.203	79.31
666.406	72.31
666.609	84.31
666.812	79.31
667.015	88.31
667.218	76.31
667.421	78.31
667.624	81.31
667.827	100.31
668.03	82.31
668.232	62.31
668.435	89.31
668.638	95.31
668.841	97.31
669.043	86.31
669.246	89.31
669.449	92.31
669.651	85.31
669.854	80.31
670.057	98.31
670.259	72.31
670.462	68.31
670.665	79.31
670.867	94.31
671.07	91.31
671.272	70.31
671.475	82.31
671.677	86.31
671.88	88.31
672.082	79.31
672.284	91.31
672.487	88.31
672.689	86.31
672.892	68.31
