Data from Circ_1989_H10_HRD10591_00038.txt Node
Date: Wed Jan 03 12:01:29 EST 2024
User: Yrep
Spectrometer: HR+D1059
Trigger mode: 1
Integration Time (sec): 1.000000E-1
Scans to average: 1
Electric dark correction enabled: true
Nonlinearity correction enabled: false
Boxcar width: 0
XAxis mode: Wavelengths
Number of Pixels in Spectrum: 2048
>>>>>Begin Spectral Data<<<<<
223.165	-23.06
223.4	-23.06
223.635	-23.06
223.869	-32.06
224.104	-21.06
224.338	-17.06
224.573	-19.06
224.808	-21.06
225.042	5.94
225.277	1.94
225.511	6.94
225.746	4.94
225.98	12.94
226.215	16.94
226.449	10.94
226.683	9.94
226.918	27.94
227.152	34.94
227.387	37.94
227.621	44.94
227.856	42.94
228.09	41.94
228.324	36.94
228.559	48.94
228.793	60.94
229.027	56.94
229.262	61.94
229.496	74.94
229.73	74.94
229.964	60.94
230.199	77.94
230.433	65.94
230.667	76.94
230.901	72.94
231.136	72.94
231.37	67.94
231.604	64.94
231.838	74.94
232.072	81.94
232.306	88.94
232.541	72.94
232.775	80.94
233.009	76.94
233.243	70.94
233.477	73.94
233.711	69.94
233.945	80.94
234.179	72.94
234.413	73.94
234.647	77.94
234.881	85.94
235.115	73.94
235.349	75.94
235.583	78.94
235.817	65.94
236.051	57.94
236.285	45.94
236.519	66.94
236.753	65.94
236.987	80.94
237.221	81.94
237.455	87.94
237.689	74.94
237.922	62.94
238.156	80.94
238.39	68.94
238.624	73.94
238.858	80.94
239.091	68.94
239.325	88.94
239.559	90.94
239.793	79.94
240.027	68.94
240.26	76.94
240.494	72.94
240.728	68.94
240.961	69.94
241.195	82.94
241.429	63.94
241.662	65.94
241.896	72.94
242.13	83.94
242.363	61.94
242.597	78.94
242.83	72.94
243.064	92.94
243.298	78.94
243.531	70.94
243.765	93.94
243.998	77.94
244.232	85.94
244.465	89.94
244.699	72.94
244.932	78.94
245.166	82.94
245.399	69.94
245.633	62.94
245.866	85.94
246.099	96.94
246.333	79.94
246.566	83.94
246.8	80.94
247.033	86.94
247.266	86.94
247.5	78.94
247.733	77.94
247.966	74.94
248.2	81.94
248.433	70.94
248.666	70.94
248.899	67.94
249.133	82.94
249.366	90.94
249.599	97.94
249.832	70.94
250.066	83.94
250.299	74.94
250.532	87.94
250.765	84.94
250.998	83.94
251.231	64.94
251.465	72.94
251.698	89.94
251.931	74.94
252.164	74.94
252.397	80.94
252.63	76.94
252.863	77.94
253.096	96.94
253.329	74.94
253.562	93.94
253.795	83.94
254.028	75.94
254.261	95.94
254.494	85.94
254.727	80.94
254.96	69.94
255.193	96.94
255.426	74.94
255.659	71.94
255.892	79.94
256.124	63.94
256.357	82.94
256.59	87.94
256.823	82.94
257.056	73.94
257.289	74.94
257.521	67.94
257.754	81.94
257.987	80.94
258.22	87.94
258.452	81.94
258.685	78.94
258.918	64.94
259.151	72.94
259.383	86.94
259.616	76.94
259.849	80.94
260.081	81.94
260.314	86.94
260.547	85.94
260.779	100.94
261.012	91.94
261.244	96.94
261.477	85.94
261.71	90.94
261.942	112.94
262.175	107.94
262.407	74.94
262.64	91.94
262.872	74.94
263.105	82.94
263.337	88.94
263.57	78.94
263.802	82.94
264.035	73.94
264.267	89.94
264.499	74.94
264.732	82.94
264.964	81.94
265.197	80.94
265.429	89.94
265.661	88.94
265.894	81.94
266.126	69.94
266.358	86.94
266.591	85.94
266.823	85.94
267.055	87.94
267.287	81.94
267.52	82.94
267.752	81.94
267.984	78.94
268.216	79.94
268.448	82.94
268.681	96.94
268.913	94.94
269.145	77.94
269.377	85.94
269.609	86.94
269.841	102.94
270.073	77.94
270.306	88.94
270.538	98.94
270.77	76.94
271.002	73.94
271.234	86.94
271.466	86.94
271.698	93.94
271.93	92.94
272.162	76.94
272.394	74.94
272.626	85.94
272.858	80.94
273.09	74.94
273.322	81.94
273.553	89.94
273.785	82.94
274.017	78.94
274.249	77.94
274.481	72.94
274.713	82.94
274.945	88.94
275.176	72.94
275.408	82.94
275.64	85.94
275.872	65.94
276.104	89.94
276.335	84.94
276.567	97.94
276.799	101.94
277.031	106.94
277.262	104.94
277.494	107.94
277.726	86.94
277.957	83.94
278.189	90.94
278.421	84.94
278.652	76.94
278.884	91.94
279.115	72.94
279.347	81.94
279.579	90.94
279.81	96.94
280.042	119.94
280.273	130.94
280.505	115.94
280.736	68.94
280.968	89.94
281.199	80.94
281.431	85.94
281.662	85.94
281.894	91.94
282.125	94.94
282.356	122.94
282.588	117.94
282.819	96.94
283.051	95.94
283.282	86.94
283.513	80.94
283.745	94.94
283.976	88.94
284.207	92.94
284.439	88.94
284.67	94.94
284.901	81.94
285.132	83.94
285.364	92.94
285.595	94.94
285.826	88.94
286.057	92.94
286.288	80.94
286.52	87.94
286.751	77.94
286.982	82.94
287.213	79.94
287.444	78.94
287.675	80.94
287.906	76.94
288.138	83.94
288.369	90.94
288.6	82.94
288.831	86.94
289.062	89.94
289.293	76.94
289.524	76.94
289.755	83.94
289.986	82.94
290.217	77.94
290.448	105.94
290.679	99.94
290.91	89.94
291.141	89.94
291.371	87.94
291.602	84.94
291.833	97.94
292.064	89.94
292.295	95.94
292.526	89.94
292.757	97.94
292.987	97.94
293.218	78.94
293.449	76.94
293.68	72.94
293.91	77.94
294.141	84.94
294.372	79.94
294.603	77.94
294.833	79.94
295.064	84.94
295.295	89.94
295.525	74.94
295.756	110.94
295.987	99.94
296.217	132.94
296.448	102.94
296.679	91.94
296.909	94.94
297.14	90.94
297.37	82.94
297.601	86.94
297.831	86.94
298.062	84.94
298.292	85.94
298.523	82.94
298.753	87.94
298.984	101.94
299.214	80.94
299.445	96.94
299.675	87.94
299.905	90.94
300.136	94.94
300.366	85.94
300.597	96.94
300.827	84.94
301.057	97.94
301.288	94.94
301.518	92.94
301.748	85.94
301.979	103.94
302.209	92.94
302.439	91.94
302.669	78.94
302.9	82.94
303.13	89.94
303.36	96.94
303.59	103.94
303.82	112.94
304.051	103.94
304.281	79.94
304.511	92.94
304.741	85.94
304.971	80.94
305.201	92.94
305.431	82.94
305.661	87.94
305.891	91.94
306.121	89.94
306.352	106.94
306.582	118.94
306.812	80.94
307.042	98.94
307.272	112.94
307.502	110.94
307.731	114.94
307.961	97.94
308.191	89.94
308.421	86.94
308.651	87.94
308.881	87.94
309.111	97.94
309.341	89.94
309.571	89.94
309.8	94.94
310.03	94.94
310.26	89.94
310.49	81.94
310.72	102.94
310.949	90.94
311.179	96.94
311.409	90.94
311.639	95.94
311.868	113.94
312.098	88.94
312.328	90.94
312.557	101.94
312.787	82.94
313.017	97.94
313.246	104.94
313.476	85.94
313.706	94.94
313.935	78.94
314.165	105.94
314.394	101.94
314.624	85.94
314.853	97.94
315.083	94.94
315.312	99.94
315.542	95.94
315.771	91.94
316.001	85.94
316.23	88.94
316.46	86.94
316.689	80.94
316.919	90.94
317.148	94.94
317.377	94.94
317.607	85.94
317.836	100.94
318.065	88.94
318.295	91.94
318.524	93.94
318.753	91.94
318.983	105.94
319.212	96.94
319.441	98.94
319.67	96.94
319.9	93.94
320.129	94.94
320.358	96.94
320.587	78.94
320.816	90.94
321.046	100.94
321.275	103.94
321.504	101.94
321.733	88.94
321.962	90.94
322.191	99.94
322.42	96.94
322.649	107.94
322.878	102.94
323.108	128.94
323.337	122.94
323.566	112.94
323.795	129.94
324.024	188.94
324.253	340.94
324.482	661.94
324.71	1420.94
324.939	1854.94
325.168	662.94
325.397	209.94
325.626	136.94
325.855	121.94
326.084	122.94
326.313	131.94
326.542	145.94
326.77	201.94
326.999	386.94
327.228	772.94
327.457	1385.94
327.686	1165.94
327.914	362.94
328.143	254.94
328.372	261.94
328.6	180.94
328.829	131.94
329.058	121.94
329.287	116.94
329.515	121.94
329.744	131.94
329.972	212.94
330.201	352.94
330.43	478.94
330.658	254.94
330.887	141.94
331.115	114.94
331.344	90.94
331.572	88.94
331.801	98.94
332.03	97.94
332.258	102.94
332.486	100.94
332.715	93.94
332.943	86.94
333.172	97.94
333.4	89.94
333.629	107.94
333.857	124.94
334.085	207.94
334.314	354.94
334.542	628.94
334.771	574.94
334.999	180.94
335.227	111.94
335.455	108.94
335.684	111.94
335.912	87.94
336.14	82.94
336.369	111.94
336.597	101.94
336.825	99.94
337.053	96.94
337.281	101.94
337.51	84.94
337.738	86.94
337.966	94.94
338.194	93.94
338.422	85.94
338.65	81.94
338.878	89.94
339.106	87.94
339.334	98.94
339.562	86.94
339.79	89.94
340.018	79.94
340.246	79.94
340.474	96.94
340.702	91.94
340.93	93.94
341.158	99.94
341.386	81.94
341.614	88.94
341.842	104.94
342.07	94.94
342.298	88.94
342.526	82.94
342.754	76.94
342.981	81.94
343.209	93.94
343.437	91.94
343.665	90.94
343.893	72.94
344.12	90.94
344.348	83.94
344.576	77.94
344.804	70.94
345.031	89.94
345.259	102.94
345.487	97.94
345.714	100.94
345.942	96.94
346.17	97.94
346.397	89.94
346.625	96.94
346.853	87.94
347.08	85.94
347.308	82.94
347.535	88.94
347.763	87.94
347.99	100.94
348.218	91.94
348.445	105.94
348.673	103.94
348.9	96.94
349.128	91.94
349.355	87.94
349.583	91.94
349.81	88.94
350.037	86.94
350.265	75.94
350.492	89.94
350.72	94.94
350.947	103.94
351.174	99.94
351.402	107.94
351.629	93.94
351.856	99.94
352.083	101.94
352.311	103.94
352.538	97.94
352.765	98.94
352.992	105.94
353.22	108.94
353.447	98.94
353.674	93.94
353.901	69.94
354.128	110.94
354.355	96.94
354.583	86.94
354.81	93.94
355.037	86.94
355.264	84.94
355.491	90.94
355.718	93.94
355.945	95.94
356.172	88.94
356.399	96.94
356.626	89.94
356.853	92.94
357.08	94.94
357.307	90.94
357.534	75.94
357.761	94.94
357.988	98.94
358.215	82.94
358.441	87.94
358.668	96.94
358.895	79.94
359.122	95.94
359.349	84.94
359.576	89.94
359.802	76.94
360.029	89.94
360.256	94.94
360.483	96.94
360.709	76.94
360.936	96.94
361.163	101.94
361.39	83.94
361.616	84.94
361.843	78.94
362.07	73.94
362.296	84.94
362.523	107.94
362.749	95.94
362.976	83.94
363.203	102.94
363.429	83.94
363.656	75.94
363.882	75.94
364.109	89.94
364.335	78.94
364.562	82.94
364.788	91.94
365.015	85.94
365.241	108.94
365.468	106.94
365.694	93.94
365.92	98.94
366.147	89.94
366.373	82.94
366.599	91.94
366.826	76.94
367.052	90.94
367.278	82.94
367.505	96.94
367.731	91.94
367.957	94.94
368.184	91.94
368.41	81.94
368.636	107.94
368.862	107.94
369.089	93.94
369.315	92.94
369.541	81.94
369.767	76.94
369.993	91.94
370.219	105.94
370.445	69.94
370.672	75.94
370.898	81.94
371.124	76.94
371.35	84.94
371.576	82.94
371.802	84.94
372.028	86.94
372.254	89.94
372.48	80.94
372.706	93.94
372.932	87.94
373.158	82.94
373.384	88.94
373.61	89.94
373.835	104.94
374.061	83.94
374.287	92.94
374.513	92.94
374.739	100.94
374.965	95.94
375.191	76.94
375.416	90.94
375.642	76.94
375.868	88.94
376.094	92.94
376.319	90.94
376.545	75.94
376.771	94.94
376.997	86.94
377.222	80.94
377.448	82.94
377.674	78.94
377.899	74.94
378.125	90.94
378.35	86.94
378.576	93.94
378.802	80.94
379.027	76.94
379.253	95.94
379.478	89.94
379.704	90.94
379.929	96.94
380.155	83.94
380.38	85.94
380.606	91.94
380.831	77.94
381.057	90.94
381.282	101.94
381.507	82.94
381.733	97.94
381.958	88.94
382.184	106.94
382.409	92.94
382.634	105.94
382.86	97.94
383.085	107.94
383.31	98.94
383.535	93.94
383.761	100.94
383.986	95.94
384.211	104.94
384.436	115.94
384.662	89.94
384.887	110.94
385.112	103.94
385.337	99.94
385.562	86.94
385.787	106.94
386.013	96.94
386.238	94.94
386.463	97.94
386.688	116.94
386.913	99.94
387.138	96.94
387.363	98.94
387.588	99.94
387.813	94.94
388.038	111.94
388.263	113.94
388.488	100.94
388.713	92.94
388.938	100.94
389.163	80.94
389.387	90.94
389.612	79.94
389.837	99.94
390.062	84.94
390.287	80.94
390.512	80.94
390.736	81.94
390.961	89.94
391.186	99.94
391.411	94.94
391.636	82.94
391.86	82.94
392.085	84.94
392.31	78.94
392.534	80.94
392.759	85.94
392.984	88.94
393.208	78.94
393.433	84.94
393.658	80.94
393.882	83.94
394.107	69.94
394.331	79.94
394.556	67.94
394.78	85.94
395.005	79.94
395.229	90.94
395.454	91.94
395.678	86.94
395.903	86.94
396.127	84.94
396.352	76.94
396.576	75.94
396.801	93.94
397.025	89.94
397.249	98.94
397.474	101.94
397.698	85.94
397.922	93.94
398.147	86.94
398.371	73.94
398.595	90.94
398.82	83.94
399.044	72.94
399.268	85.94
399.492	88.94
399.717	84.94
399.941	88.94
400.165	84.94
400.389	86.94
400.613	79.94
400.837	82.94
401.062	81.94
401.286	79.94
401.51	92.94
401.734	72.94
401.958	88.94
402.182	120.94
402.406	156.94
402.63	112.94
402.854	96.94
403.078	92.94
403.302	86.94
403.526	85.94
403.75	82.94
403.974	94.94
404.198	87.94
404.422	86.94
404.645	87.94
404.869	97.94
405.093	85.94
405.317	91.94
405.541	99.94
405.765	94.94
405.988	100.94
406.212	160.94
406.436	185.94
406.66	149.94
406.883	97.94
407.107	88.94
407.331	99.94
407.555	81.94
407.778	89.94
408.002	86.94
408.226	69.94
408.449	82.94
408.673	67.94
408.896	96.94
409.12	91.94
409.344	76.94
409.567	96.94
409.791	78.94
410.014	77.94
410.238	92.94
410.461	98.94
410.685	90.94
410.908	101.94
411.132	98.94
411.355	95.94
411.578	94.94
411.802	90.94
412.025	85.94
412.249	91.94
412.472	92.94
412.695	106.94
412.919	95.94
413.142	94.94
413.365	72.94
413.589	83.94
413.812	94.94
414.035	79.94
414.258	76.94
414.482	88.94
414.705	91.94
414.928	98.94
415.151	86.94
415.374	76.94
415.597	90.94
415.821	86.94
416.044	85.94
416.267	76.94
416.49	85.94
416.713	94.94
416.936	84.94
417.159	83.94
417.382	70.94
417.605	74.94
417.828	80.94
418.051	76.94
418.274	91.94
418.497	85.94
418.72	85.94
418.943	80.94
419.166	72.94
419.389	80.94
419.611	85.94
419.834	100.94
420.057	77.94
420.28	79.94
420.503	90.94
420.726	90.94
420.948	75.94
421.171	81.94
421.394	74.94
421.617	76.94
421.839	84.94
422.062	84.94
422.285	90.94
422.507	94.94
422.73	87.94
422.953	94.94
423.175	72.94
423.398	87.94
423.621	86.94
423.843	80.94
424.066	77.94
424.288	89.94
424.511	90.94
424.733	73.94
424.956	77.94
425.178	98.94
425.401	90.94
425.623	90.94
425.846	94.94
426.068	99.94
426.291	68.94
426.513	78.94
426.735	102.94
426.958	92.94
427.18	107.94
427.402	117.94
427.625	136.94
427.847	158.94
428.069	143.94
428.292	93.94
428.514	82.94
428.736	87.94
428.958	76.94
429.181	96.94
429.403	79.94
429.625	88.94
429.847	102.94
430.069	88.94
430.292	93.94
430.514	86.94
430.736	69.94
430.958	78.94
431.18	82.94
431.402	80.94
431.624	81.94
431.846	82.94
432.068	82.94
432.29	99.94
432.512	85.94
432.734	93.94
432.956	92.94
433.178	94.94
433.4	91.94
433.622	78.94
433.844	89.94
434.066	89.94
434.287	69.94
434.509	74.94
434.731	68.94
434.953	69.94
435.175	85.94
435.397	98.94
435.618	92.94
435.84	89.94
436.062	104.94
436.284	107.94
436.505	99.94
436.727	94.94
436.949	82.94
437.17	83.94
437.392	78.94
437.614	83.94
437.835	99.94
438.057	115.94
438.278	98.94
438.5	83.94
438.721	105.94
438.943	83.94
439.165	76.94
439.386	93.94
439.608	87.94
439.829	98.94
440.05	126.94
440.272	146.94
440.493	93.94
440.715	78.94
440.936	89.94
441.158	86.94
441.379	102.94
441.6	89.94
441.822	108.94
442.043	91.94
442.264	98.94
442.486	82.94
442.707	94.94
442.928	105.94
443.149	113.94
443.371	117.94
443.592	115.94
443.813	108.94
444.034	112.94
444.255	91.94
444.476	92.94
444.698	90.94
444.919	86.94
445.14	133.94
445.361	120.94
445.582	101.94
445.803	134.94
446.024	130.94
446.245	118.94
446.466	89.94
446.687	88.94
446.908	93.94
447.129	81.94
447.35	74.94
447.571	100.94
447.792	79.94
448.013	78.94
448.234	88.94
448.455	96.94
448.675	103.94
448.896	116.94
449.117	80.94
449.338	101.94
449.559	115.94
449.779	103.94
450	92.94
450.221	90.94
450.442	81.94
450.662	82.94
450.883	77.94
451.104	97.94
451.324	87.94
451.545	85.94
451.766	78.94
451.986	83.94
452.207	85.94
452.428	93.94
452.648	96.94
452.869	97.94
453.089	114.94
453.31	104.94
453.53	98.94
453.751	97.94
453.971	113.94
454.192	101.94
454.412	97.94
454.633	74.94
454.853	82.94
455.073	80.94
455.294	81.94
455.514	96.94
455.734	95.94
455.955	73.94
456.175	89.94
456.395	81.94
456.616	92.94
456.836	76.94
457.056	97.94
457.276	77.94
457.497	83.94
457.717	80.94
457.937	70.94
458.157	69.94
458.377	88.94
458.598	105.94
458.818	141.94
459.038	158.94
459.258	113.94
459.478	90.94
459.698	83.94
459.918	81.94
460.138	80.94
460.358	83.94
460.578	92.94
460.798	87.94
461.018	98.94
461.238	74.94
461.458	74.94
461.678	77.94
461.898	85.94
462.118	73.94
462.338	69.94
462.558	83.94
462.777	86.94
462.997	73.94
463.217	94.94
463.437	78.94
463.657	69.94
463.876	88.94
464.096	68.94
464.316	72.94
464.536	90.94
464.755	89.94
464.975	96.94
465.195	130.94
465.414	144.94
465.634	90.94
465.854	98.94
466.073	89.94
466.293	83.94
466.512	69.94
466.732	83.94
466.951	73.94
467.171	86.94
467.391	109.94
467.61	113.94
467.829	122.94
468.049	239.94
468.268	338.94
468.488	132.94
468.707	84.94
468.927	90.94
469.146	90.94
469.365	79.94
469.585	84.94
469.804	102.94
470.023	92.94
470.243	82.94
470.462	90.94
470.681	106.94
470.901	85.94
471.12	86.94
471.339	82.94
471.558	93.94
471.777	116.94
471.997	159.94
472.216	420.94
472.435	853.94
472.654	239.94
472.873	116.94
473.092	100.94
473.311	91.94
473.53	92.94
473.749	77.94
473.968	96.94
474.187	96.94
474.406	88.94
474.625	89.94
474.844	84.94
475.063	89.94
475.282	94.94
475.501	81.94
475.72	96.94
475.939	85.94
476.158	103.94
476.377	85.94
476.596	88.94
476.814	106.94
477.033	85.94
477.252	77.94
477.471	83.94
477.69	85.94
477.908	80.94
478.127	92.94
478.346	82.94
478.564	89.94
478.783	111.94
479.002	90.94
479.22	81.94
479.439	103.94
479.658	112.94
479.876	86.94
480.095	98.94
480.313	108.94
480.532	127.94
480.751	152.94
480.969	436.94
481.188	1501.94
481.406	867.94
481.624	162.94
481.843	106.94
482.061	84.94
482.28	91.94
482.498	92.94
482.717	86.94
482.935	94.94
483.153	80.94
483.372	84.94
483.59	86.94
483.808	90.94
484.027	81.94
484.245	76.94
484.463	90.94
484.681	88.94
484.9	102.94
485.118	69.94
485.336	100.94
485.554	100.94
485.772	89.94
485.99	100.94
486.209	89.94
486.427	88.94
486.645	114.94
486.863	106.94
487.081	86.94
487.299	94.94
487.517	102.94
487.735	85.94
487.953	88.94
488.171	105.94
488.389	102.94
488.607	86.94
488.825	96.94
489.043	90.94
489.261	78.94
489.479	77.94
489.696	92.94
489.914	81.94
490.132	85.94
490.35	82.94
490.568	76.94
490.786	88.94
491.003	69.94
491.221	89.94
491.439	104.94
491.657	80.94
491.874	91.94
492.092	86.94
492.31	78.94
492.527	78.94
492.745	80.94
492.963	85.94
493.18	88.94
493.398	84.94
493.615	90.94
493.833	86.94
494.05	89.94
494.268	91.94
494.485	83.94
494.703	94.94
494.92	101.94
495.138	87.94
495.355	92.94
495.573	85.94
495.79	77.94
496.008	89.94
496.225	98.94
496.442	93.94
496.66	88.94
496.877	97.94
497.094	94.94
497.312	84.94
497.529	85.94
497.746	89.94
497.963	88.94
498.181	86.94
498.398	86.94
498.615	91.94
498.832	93.94
499.049	77.94
499.267	79.94
499.484	97.94
499.701	95.94
499.918	79.94
500.135	88.94
500.352	82.94
500.569	95.94
500.786	91.94
501.003	84.94
501.22	89.94
501.437	89.94
501.654	94.94
501.871	81.94
502.088	86.94
502.305	89.94
502.522	94.94
502.739	86.94
502.956	75.94
503.172	83.94
503.389	88.94
503.606	100.94
503.823	97.94
504.04	98.94
504.256	88.94
504.473	81.94
504.69	85.94
504.907	97.94
505.123	74.94
505.34	91.94
505.557	82.94
505.773	83.94
505.99	85.94
506.207	91.94
506.423	82.94
506.64	68.94
506.856	86.94
507.073	85.94
507.289	103.94
507.506	93.94
507.722	96.94
507.939	94.94
508.155	99.94
508.372	75.94
508.588	88.94
508.805	101.94
509.021	99.94
509.238	87.94
509.454	88.94
509.67	92.94
509.887	113.94
510.103	116.94
510.319	179.94
510.536	652.94
510.752	2078.94
510.968	574.94
511.184	137.94
511.401	102.94
511.617	91.94
511.833	90.94
512.049	92.94
512.265	83.94
512.481	96.94
512.698	99.94
512.914	99.94
513.13	101.94
513.346	97.94
513.562	95.94
513.778	93.94
513.994	84.94
514.21	92.94
514.426	116.94
514.642	120.94
514.858	118.94
515.074	166.94
515.29	387.94
515.506	1307.94
515.721	499.94
515.937	132.94
516.153	107.94
516.369	96.94
516.585	96.94
516.801	79.94
517.016	88.94
517.232	103.94
517.448	93.94
517.664	89.94
517.879	91.94
518.095	81.94
518.311	78.94
518.527	82.94
518.742	89.94
518.958	80.94
519.173	94.94
519.389	75.94
519.605	91.94
519.82	98.94
520.036	99.94
520.251	104.94
520.467	83.94
520.682	85.94
520.898	99.94
521.113	120.94
521.329	120.94
521.544	192.94
521.76	490.94
521.975	2154.94
522.19	1285.94
522.406	278.94
522.621	114.94
522.836	96.94
523.052	114.94
523.267	88.94
523.482	84.94
523.698	95.94
523.913	121.94
524.128	98.94
524.343	95.94
524.559	106.94
524.774	82.94
524.989	89.94
525.204	89.94
525.419	86.94
525.634	98.94
525.849	90.94
526.064	92.94
526.28	76.94
526.495	93.94
526.71	89.94
526.925	96.94
527.14	88.94
527.355	91.94
527.57	98.94
527.785	84.94
527.999	89.94
528.214	88.94
528.429	89.94
528.644	93.94
528.859	89.94
529.074	95.94
529.289	107.94
529.503	164.94
529.718	102.94
529.933	75.94
530.148	91.94
530.363	92.94
530.577	93.94
530.792	82.94
531.007	76.94
531.221	89.94
531.436	88.94
531.651	76.94
531.865	94.94
532.08	90.94
532.295	80.94
532.509	97.94
532.724	84.94
532.938	85.94
533.153	91.94
533.367	78.94
533.582	71.94
533.796	89.94
534.011	92.94
534.225	84.94
534.44	79.94
534.654	85.94
534.868	76.94
535.083	84.94
535.297	89.94
535.511	97.94
535.726	107.94
535.94	99.94
536.154	83.94
536.369	86.94
536.583	91.94
536.797	80.94
537.011	87.94
537.225	98.94
537.44	91.94
537.654	97.94
537.868	81.94
538.082	89.94
538.296	95.94
538.51	94.94
538.724	76.94
538.938	73.94
539.153	102.94
539.367	97.94
539.581	96.94
539.795	93.94
540.009	85.94
540.222	69.94
540.436	74.94
540.65	86.94
540.864	89.94
541.078	84.94
541.292	92.94
541.506	79.94
541.72	93.94
541.934	79.94
542.147	93.94
542.361	76.94
542.575	88.94
542.789	78.94
543.002	81.94
543.216	82.94
543.43	100.94
543.644	92.94
543.857	82.94
544.071	77.94
544.285	90.94
544.498	85.94
544.712	86.94
544.925	102.94
545.139	88.94
545.352	76.94
545.566	74.94
545.779	96.94
545.993	80.94
546.206	80.94
546.42	84.94
546.633	89.94
546.847	86.94
547.06	103.94
547.274	88.94
547.487	107.94
547.7	89.94
547.914	80.94
548.127	91.94
548.34	69.94
548.554	92.94
548.767	94.94
548.98	94.94
549.193	64.94
549.407	76.94
549.62	78.94
549.833	69.94
550.046	87.94
550.259	85.94
550.473	84.94
550.686	85.94
550.899	78.94
551.112	94.94
551.325	97.94
551.538	92.94
551.751	99.94
551.964	85.94
552.177	90.94
552.39	94.94
552.603	81.94
552.816	85.94
553.029	78.94
553.242	86.94
553.455	88.94
553.667	100.94
553.88	84.94
554.093	90.94
554.306	87.94
554.519	93.94
554.732	85.94
554.944	76.94
555.157	90.94
555.37	82.94
555.583	84.94
555.795	94.94
556.008	80.94
556.221	94.94
556.433	87.94
556.646	91.94
556.859	76.94
557.071	81.94
557.284	85.94
557.496	88.94
557.709	90.94
557.921	90.94
558.134	71.94
558.346	92.94
558.559	98.94
558.771	86.94
558.984	84.94
559.196	75.94
559.409	94.94
559.621	84.94
559.833	74.94
560.046	88.94
560.258	84.94
560.47	100.94
560.683	83.94
560.895	74.94
561.107	90.94
561.32	72.94
561.532	82.94
561.744	87.94
561.956	94.94
562.168	82.94
562.381	70.94
562.593	91.94
562.805	78.94
563.017	92.94
563.229	93.94
563.441	90.94
563.653	84.94
563.865	88.94
564.077	84.94
564.289	75.94
564.501	75.94
564.713	83.94
564.925	93.94
565.137	90.94
565.349	88.94
565.561	78.94
565.773	93.94
565.985	84.94
566.197	83.94
566.408	89.94
566.62	92.94
566.832	92.94
567.044	89.94
567.255	78.94
567.467	74.94
567.679	93.94
567.891	97.94
568.102	74.94
568.314	84.94
568.526	93.94
568.737	85.94
568.949	96.94
569.161	74.94
569.372	77.94
569.584	96.94
569.795	85.94
570.007	100.94
570.218	233.94
570.43	124.94
570.641	75.94
570.853	95.94
571.064	83.94
571.276	76.94
571.487	86.94
571.698	74.94
571.91	78.94
572.121	77.94
572.333	77.94
572.544	82.94
572.755	85.94
572.966	83.94
573.178	91.94
573.389	81.94
573.6	86.94
573.811	69.94
574.023	75.94
574.234	95.94
574.445	81.94
574.656	82.94
574.867	89.94
575.078	80.94
575.289	84.94
575.501	88.94
575.712	89.94
575.923	92.94
576.134	77.94
576.345	95.94
576.556	85.94
576.767	87.94
576.978	89.94
577.188	81.94
577.399	92.94
577.61	83.94
577.821	90.94
578.032	108.94
578.243	226.94
578.454	633.94
578.665	180.94
578.875	105.94
579.086	90.94
579.297	92.94
579.508	81.94
579.718	83.94
579.929	91.94
580.14	82.94
580.35	93.94
580.561	92.94
580.772	86.94
580.982	77.94
581.193	80.94
581.403	75.94
581.614	85.94
581.825	85.94
582.035	77.94
582.246	86.94
582.456	82.94
582.667	82.94
582.877	97.94
583.087	77.94
583.298	62.94
583.508	83.94
583.719	78.94
583.929	88.94
584.139	90.94
584.35	80.94
584.56	74.94
584.77	84.94
584.981	90.94
585.191	96.94
585.401	77.94
585.611	101.94
585.821	84.94
586.032	88.94
586.242	79.94
586.452	69.94
586.662	82.94
586.872	69.94
587.082	81.94
587.292	98.94
587.502	92.94
587.713	83.94
587.923	81.94
588.133	76.94
588.343	68.94
588.553	72.94
588.762	99.94
588.972	106.94
589.182	169.94
589.392	116.94
589.602	100.94
589.812	135.94
590.022	100.94
590.232	72.94
590.441	83.94
590.651	86.94
590.861	85.94
591.071	76.94
591.281	89.94
591.49	86.94
591.7	84.94
591.91	88.94
592.119	73.94
592.329	93.94
592.539	102.94
592.748	78.94
592.958	84.94
593.167	78.94
593.377	83.94
593.587	100.94
593.796	87.94
594.006	92.94
594.215	66.94
594.424	72.94
594.634	76.94
594.843	80.94
595.053	86.94
595.262	82.94
595.472	83.94
595.681	81.94
595.89	71.94
596.1	84.94
596.309	79.94
596.518	78.94
596.727	80.94
596.937	84.94
597.146	95.94
597.355	81.94
597.564	70.94
597.774	85.94
597.983	80.94
598.192	87.94
598.401	84.94
598.61	78.94
598.819	75.94
599.028	86.94
599.237	97.94
599.446	85.94
599.655	90.94
599.864	72.94
600.073	96.94
600.282	85.94
600.491	76.94
600.7	81.94
600.909	82.94
601.118	77.94
601.327	86.94
601.536	91.94
601.745	78.94
601.953	81.94
602.162	86.94
602.371	85.94
602.58	94.94
602.789	94.94
602.997	85.94
603.206	72.94
603.415	82.94
603.623	87.94
603.832	101.94
604.041	82.94
604.249	84.94
604.458	82.94
604.666	88.94
604.875	71.94
605.084	67.94
605.292	70.94
605.501	80.94
605.709	87.94
605.918	97.94
606.126	89.94
606.334	80.94
606.543	89.94
606.751	72.94
606.96	76.94
607.168	73.94
607.376	76.94
607.585	67.94
607.793	81.94
608.001	78.94
608.21	92.94
608.418	85.94
608.626	80.94
608.834	76.94
609.043	87.94
609.251	85.94
609.459	94.94
609.667	84.94
609.875	89.94
610.083	82.94
610.291	89.94
610.499	90.94
610.707	84.94
610.916	95.94
611.124	87.94
611.332	99.94
611.54	92.94
611.748	82.94
611.955	89.94
612.163	70.94
612.371	72.94
612.579	71.94
612.787	81.94
612.995	80.94
613.203	89.94
613.411	81.94
613.618	76.94
613.826	90.94
614.034	78.94
614.242	88.94
614.449	86.94
614.657	90.94
614.865	85.94
615.072	72.94
615.28	78.94
615.488	95.94
615.695	94.94
615.903	100.94
616.111	81.94
616.318	92.94
616.526	85.94
616.733	85.94
616.941	94.94
617.148	79.94
617.356	65.94
617.563	82.94
617.771	97.94
617.978	72.94
618.185	76.94
618.393	90.94
618.6	91.94
618.807	86.94
619.015	82.94
619.222	83.94
619.429	81.94
619.637	90.94
619.844	72.94
620.051	90.94
620.258	72.94
620.466	90.94
620.673	84.94
620.88	56.94
621.087	88.94
621.294	80.94
621.501	84.94
621.708	76.94
621.915	85.94
622.122	80.94
622.329	98.94
622.536	80.94
622.743	89.94
622.95	84.94
623.157	72.94
623.364	74.94
623.571	67.94
623.778	84.94
623.985	93.94
624.192	85.94
624.399	75.94
624.606	85.94
624.812	77.94
625.019	77.94
625.226	89.94
625.433	88.94
625.639	99.94
625.846	73.94
626.053	74.94
626.259	92.94
626.466	84.94
626.673	79.94
626.879	90.94
627.086	88.94
627.293	88.94
627.499	82.94
627.706	86.94
627.912	72.94
628.119	74.94
628.325	75.94
628.532	80.94
628.738	73.94
628.945	78.94
629.151	89.94
629.357	69.94
629.564	78.94
629.77	89.94
629.976	83.94
630.183	72.94
630.389	80.94
630.595	69.94
630.802	82.94
631.008	64.94
631.214	94.94
631.42	78.94
631.627	89.94
631.833	80.94
632.039	74.94
632.245	88.94
632.451	77.94
632.657	84.94
632.863	77.94
633.069	87.94
633.275	80.94
633.481	86.94
633.688	90.94
633.893	99.94
634.099	77.94
634.305	99.94
634.511	98.94
634.717	76.94
634.923	67.94
635.129	62.94
635.335	73.94
635.541	76.94
635.747	75.94
635.952	88.94
636.158	107.94
636.364	152.94
636.57	139.94
636.775	90.94
636.981	70.94
637.187	70.94
637.392	90.94
637.598	95.94
637.804	76.94
638.009	66.94
638.215	69.94
638.421	72.94
638.626	85.94
638.832	81.94
639.037	79.94
639.243	89.94
639.448	83.94
639.654	86.94
639.859	89.94
640.065	88.94
640.27	96.94
640.475	88.94
640.681	89.94
640.886	68.94
641.091	81.94
641.297	80.94
641.502	94.94
641.707	95.94
641.913	86.94
642.118	83.94
642.323	85.94
642.528	87.94
642.733	93.94
642.939	91.94
643.144	81.94
643.349	66.94
643.554	82.94
643.759	79.94
643.964	91.94
644.169	90.94
644.374	97.94
644.579	83.94
644.784	77.94
644.989	84.94
645.194	76.94
645.399	78.94
645.604	81.94
645.809	94.94
646.014	76.94
646.219	90.94
646.423	90.94
646.628	74.94
646.833	66.94
647.038	80.94
647.243	76.94
647.447	79.94
647.652	90.94
647.857	86.94
648.062	95.94
648.266	72.94
648.471	75.94
648.676	84.94
648.88	90.94
649.085	97.94
649.289	93.94
649.494	85.94
649.698	114.94
649.903	103.94
650.107	82.94
650.312	77.94
650.516	84.94
650.721	77.94
650.925	77.94
651.13	85.94
651.334	75.94
651.539	73.94
651.743	82.94
651.947	86.94
652.152	73.94
652.356	78.94
652.56	62.94
652.764	97.94
652.969	85.94
653.173	86.94
653.377	75.94
653.581	85.94
653.785	79.94
653.99	69.94
654.194	80.94
654.398	84.94
654.602	77.94
654.806	89.94
655.01	90.94
655.214	91.94
655.418	72.94
655.622	66.94
655.826	78.94
656.03	79.94
656.234	99.94
656.438	79.94
656.642	94.94
656.846	97.94
657.049	77.94
657.253	86.94
657.457	88.94
657.661	73.94
657.865	96.94
658.068	77.94
658.272	65.94
658.476	63.94
658.68	92.94
658.883	74.94
659.087	76.94
659.291	82.94
659.494	63.94
659.698	80.94
659.901	76.94
660.105	84.94
660.309	72.94
660.512	64.94
660.716	76.94
660.919	86.94
661.123	77.94
661.326	78.94
661.53	71.94
661.733	97.94
661.936	80.94
662.14	78.94
662.343	64.94
662.546	76.94
662.75	82.94
662.953	83.94
663.156	62.94
663.36	84.94
663.563	81.94
663.766	79.94
663.969	92.94
664.173	82.94
664.376	86.94
664.579	76.94
664.782	73.94
664.985	84.94
665.188	72.94
665.391	81.94
665.594	81.94
665.797	89.94
666	72.94
666.203	78.94
666.406	79.94
666.609	74.94
666.812	95.94
667.015	85.94
667.218	80.94
667.421	80.94
667.624	80.94
667.827	76.94
668.03	80.94
668.232	72.94
668.435	88.94
668.638	76.94
668.841	66.94
669.043	76.94
669.246	80.94
669.449	74.94
669.651	80.94
669.854	79.94
670.057	75.94
670.259	76.94
670.462	63.94
670.665	76.94
670.867	96.94
671.07	82.94
671.272	76.94
671.475	83.94
671.677	87.94
671.88	61.94
672.082	68.94
672.284	67.94
672.487	82.94
672.689	74.94
672.892	70.94
