Data from Circ_1989_H10_HRD10591_00073.txt Node
Date: Wed Jan 03 12:01:36 EST 2024
User: Yrep
Spectrometer: HR+D1059
Trigger mode: 1
Integration Time (sec): 1.000000E-1
Scans to average: 1
Electric dark correction enabled: true
Nonlinearity correction enabled: false
Boxcar width: 0
XAxis mode: Wavelengths
Number of Pixels in Spectrum: 2048
>>>>>Begin Spectral Data<<<<<
223.165	-12.5
223.4	-12.5
223.635	-12.5
223.869	-12.5
224.104	-29.5
224.338	-14.5
224.573	-9.5
224.808	-21.5
225.042	6.5
225.277	-1.5
225.511	-4.5
225.746	7.5
225.98	-0.5
226.215	8.5
226.449	11.5
226.683	22.5
226.918	25.5
227.152	24.5
227.387	42.5
227.621	43.5
227.856	39.5
228.09	52.5
228.324	49.5
228.559	65.5
228.793	163.5
229.027	451.5
229.262	518.5
229.496	637.5
229.73	847.5
229.964	858.5
230.199	565.5
230.433	500.5
230.667	494.5
230.901	484.5
231.136	474.5
231.37	485.5
231.604	479.5
231.838	497.5
232.072	481.5
232.306	498.5
232.541	498.5
232.775	515.5
233.009	494.5
233.243	515.5
233.477	548.5
233.711	531.5
233.945	525.5
234.179	552.5
234.413	538.5
234.647	552.5
234.881	556.5
235.115	567.5
235.349	591.5
235.583	594.5
235.817	627.5
236.051	681.5
236.285	647.5
236.519	662.5
236.753	737.5
236.987	926.5
237.221	1437.5
237.455	1563.5
237.689	931.5
237.922	761.5
238.156	753.5
238.39	722.5
238.624	722.5
238.858	697.5
239.091	701.5
239.325	734.5
239.559	735.5
239.793	783.5
240.027	841.5
240.26	978.5
240.494	1026.5
240.728	999.5
240.961	963.5
241.195	881.5
241.429	873.5
241.662	845.5
241.896	834.5
242.13	845.5
242.363	897.5
242.597	931.5
242.83	905.5
243.064	900.5
243.298	934.5
243.531	934.5
243.765	940.5
243.998	954.5
244.232	952.5
244.465	987.5
244.699	986.5
244.932	1016.5
245.166	1001.5
245.399	1032.5
245.633	1005.5
245.866	1005.5
246.099	1019.5
246.333	1062.5
246.566	1079.5
246.8	1087.5
247.033	1141.5
247.266	1158.5
247.5	1224.5
247.733	1277.5
247.966	1233.5
248.2	1282.5
248.433	1285.5
248.666	1318.5
248.899	1521.5
249.133	1616.5
249.366	1650.5
249.599	1560.5
249.832	1528.5
250.066	1741.5
250.299	2267.5
250.532	2998.5
250.765	2871.5
250.998	2475.5
251.231	2077.5
251.465	1854.5
251.698	1675.5
251.931	1642.5
252.164	1627.5
252.397	1618.5
252.63	1619.5
252.863	1711.5
253.096	1817.5
253.329	1884.5
253.562	1747.5
253.795	1723.5
254.028	1741.5
254.261	1822.5
254.494	2038.5
254.727	2330.5
254.96	2506.5
255.193	2228.5
255.426	2349.5
255.659	2788.5
255.892	4078.5
256.124	5318.5
256.357	4495.5
256.59	3178.5
256.823	2575.5
257.056	2260.5
257.289	2151.5
257.521	2039.5
257.754	1957.5
257.987	1905.5
258.22	1885.5
258.452	1835.5
258.685	1847.5
258.918	1841.5
259.151	1898.5
259.383	1919.5
259.616	1899.5
259.849	2010.5
260.081	2121.5
260.314	2329.5
260.547	2147.5
260.779	2060.5
261.012	1984.5
261.244	1939.5
261.477	1878.5
261.71	1919.5
261.942	1973.5
262.175	2026.5
262.407	1900.5
262.64	1857.5
262.872	1856.5
263.105	1852.5
263.337	1845.5
263.57	1841.5
263.802	1881.5
264.035	1879.5
264.267	1880.5
264.499	1838.5
264.732	1844.5
264.964	1852.5
265.197	1898.5
265.429	1899.5
265.661	1897.5
265.894	1925.5
266.126	1946.5
266.358	1961.5
266.591	2006.5
266.823	2040.5
267.055	2078.5
267.287	2039.5
267.52	2052.5
267.752	2040.5
267.984	2072.5
268.216	2081.5
268.448	2127.5
268.681	2178.5
268.913	2353.5
269.145	2484.5
269.377	2556.5
269.609	2447.5
269.841	2425.5
270.073	2497.5
270.306	2788.5
270.538	2922.5
270.77	2788.5
271.002	2599.5
271.234	2582.5
271.466	2727.5
271.698	2901.5
271.93	2867.5
272.162	2852.5
272.394	2809.5
272.626	2615.5
272.858	2469.5
273.09	2509.5
273.322	2464.5
273.553	2479.5
273.785	2471.5
274.017	2461.5
274.249	2544.5
274.481	2513.5
274.713	2540.5
274.945	2621.5
275.176	2612.5
275.408	2643.5
275.64	2646.5
275.872	2690.5
276.104	2709.5
276.335	2703.5
276.567	2866.5
276.799	3073.5
277.031	3440.5
277.262	3613.5
277.494	3348.5
277.726	3113.5
277.957	2962.5
278.189	2903.5
278.421	2814.5
278.652	2769.5
278.884	2747.5
279.115	2784.5
279.347	2818.5
279.579	2836.5
279.81	2961.5
280.042	3189.5
280.273	3427.5
280.505	3261.5
280.736	3033.5
280.968	2959.5
281.199	2869.5
281.431	2890.5
281.662	2836.5
281.894	2856.5
282.125	2914.5
282.356	3080.5
282.588	3202.5
282.819	2998.5
283.051	2817.5
283.282	2826.5
283.513	2905.5
283.745	2894.5
283.976	2934.5
284.207	2919.5
284.439	2871.5
284.67	2894.5
284.901	2917.5
285.132	2901.5
285.364	2883.5
285.595	2929.5
285.826	2883.5
286.057	2963.5
286.288	2953.5
286.52	2950.5
286.751	2900.5
286.982	2973.5
287.213	2985.5
287.444	2988.5
287.675	3104.5
287.906	3168.5
288.138	3223.5
288.369	3197.5
288.6	3144.5
288.831	3126.5
289.062	3119.5
289.293	3101.5
289.524	3115.5
289.755	3139.5
289.986	3073.5
290.217	3058.5
290.448	3097.5
290.679	3051.5
290.91	3024.5
291.141	3032.5
291.371	3032.5
291.602	3007.5
291.833	2993.5
292.064	3021.5
292.295	3023.5
292.526	3017.5
292.757	3048.5
292.987	2996.5
293.218	2979.5
293.449	3058.5
293.68	3013.5
293.91	2991.5
294.141	3018.5
294.372	3034.5
294.603	3121.5
294.833	3101.5
295.064	3091.5
295.295	3130.5
295.525	3094.5
295.756	3178.5
295.987	3285.5
296.217	3461.5
296.448	3374.5
296.679	3158.5
296.909	3202.5
297.14	3182.5
297.37	3233.5
297.601	3260.5
297.831	3256.5
298.062	3291.5
298.292	3346.5
298.523	3362.5
298.753	3341.5
298.984	3292.5
299.214	3333.5
299.445	3311.5
299.675	3369.5
299.905	3413.5
300.136	3332.5
300.366	3317.5
300.597	3398.5
300.827	3487.5
301.057	3539.5
301.288	3651.5
301.518	3590.5
301.748	3586.5
301.979	3711.5
302.209	3652.5
302.439	3676.5
302.669	3574.5
302.9	3583.5
303.13	3511.5
303.36	3605.5
303.59	3778.5
303.82	3727.5
304.051	3656.5
304.281	3644.5
304.511	3544.5
304.741	3534.5
304.971	3544.5
305.201	3524.5
305.431	3549.5
305.661	3493.5
305.891	3473.5
306.121	3513.5
306.352	3575.5
306.582	3559.5
306.812	3506.5
307.042	3665.5
307.272	3735.5
307.502	3903.5
307.731	3834.5
307.961	3658.5
308.191	3578.5
308.421	3566.5
308.651	3601.5
308.881	3613.5
309.111	3648.5
309.341	3580.5
309.571	3747.5
309.8	3761.5
310.03	3865.5
310.26	3929.5
310.49	3880.5
310.72	4036.5
310.949	4120.5
311.179	4134.5
311.409	3938.5
311.639	3905.5
311.868	3994.5
312.098	3945.5
312.328	4055.5
312.557	4208.5
312.787	4345.5
313.017	4217.5
313.246	4040.5
313.476	3915.5
313.706	4022.5
313.935	4116.5
314.165	4280.5
314.394	4275.5
314.624	4193.5
314.853	4109.5
315.083	3997.5
315.312	4055.5
315.542	3943.5
315.771	3934.5
316.001	3946.5
316.23	3953.5
316.46	3948.5
316.689	4027.5
316.919	4009.5
317.148	4129.5
317.377	4051.5
317.607	4113.5
317.836	4098.5
318.065	4030.5
318.295	4053.5
318.524	3982.5
318.753	4011.5
318.983	3989.5
319.212	4009.5
319.441	4121.5
319.67	4068.5
319.9	3997.5
320.129	4040.5
320.358	4088.5
320.587	4057.5
320.816	4222.5
321.046	4255.5
321.275	4217.5
321.504	4189.5
321.733	4253.5
321.962	4343.5
322.191	4422.5
322.42	4546.5
322.649	4702.5
322.878	4705.5
323.108	4888.5
323.337	5140.5
323.566	5339.5
323.795	5693.5
324.024	6305.5
324.253	8372.5
324.482	12408.5
324.71	15627.5
324.939	15627.5
325.168	14105.5
325.397	7383.5
325.626	6012.5
325.855	5640.5
326.084	5603.5
326.313	5654.5
326.542	5850.5
326.77	6575.5
326.999	8257.5
327.228	11886.5
327.457	15595.5
327.686	15192.5
327.914	9955.5
328.143	9722.5
328.372	10339.5
328.6	8474.5
328.829	7384.5
329.058	7513.5
329.287	7615.5
329.515	7682.5
329.744	8565.5
329.972	10805.5
330.201	13702.5
330.43	14819.5
330.658	11637.5
330.887	9105.5
331.115	7666.5
331.344	6811.5
331.572	6496.5
331.801	6472.5
332.03	6440.5
332.258	6355.5
332.486	6353.5
332.715	6596.5
332.943	6924.5
333.172	7265.5
333.4	7766.5
333.629	8465.5
333.857	9804.5
334.085	12187.5
334.314	14834.5
334.542	15627.5
334.771	15627.5
334.999	11789.5
335.227	8499.5
335.455	7420.5
335.684	6820.5
335.912	6485.5
336.14	6200.5
336.369	5993.5
336.597	5942.5
336.825	5854.5
337.053	5599.5
337.281	5508.5
337.51	5371.5
337.738	5382.5
337.966	5319.5
338.194	5346.5
338.422	5211.5
338.65	5071.5
338.878	5058.5
339.106	4980.5
339.334	4953.5
339.562	4924.5
339.79	4853.5
340.018	4805.5
340.246	4814.5
340.474	4846.5
340.702	4774.5
340.93	4784.5
341.158	4722.5
341.386	4779.5
341.614	4729.5
341.842	4721.5
342.07	4739.5
342.298	4686.5
342.526	4618.5
342.754	4559.5
342.981	4581.5
343.209	4752.5
343.437	4884.5
343.665	5160.5
343.893	5359.5
344.12	5457.5
344.348	5199.5
344.576	5037.5
344.804	5044.5
345.031	4947.5
345.259	4959.5
345.487	4693.5
345.714	4613.5
345.942	4534.5
346.17	4501.5
346.397	4509.5
346.625	4483.5
346.853	4456.5
347.08	4427.5
347.308	4517.5
347.535	4586.5
347.763	4625.5
347.99	4571.5
348.218	4588.5
348.445	4678.5
348.673	4550.5
348.9	4490.5
349.128	4392.5
349.355	4364.5
349.583	4345.5
349.81	4301.5
350.037	4369.5
350.265	4292.5
350.492	4301.5
350.72	4353.5
350.947	4381.5
351.174	4505.5
351.402	4583.5
351.629	4501.5
351.856	4505.5
352.083	4565.5
352.311	4637.5
352.538	4607.5
352.765	4567.5
352.992	4504.5
353.22	4405.5
353.447	4382.5
353.674	4350.5
353.901	4238.5
354.128	4269.5
354.355	4191.5
354.583	4256.5
354.81	4218.5
355.037	4130.5
355.264	4163.5
355.491	4117.5
355.718	4195.5
355.945	4129.5
356.172	4166.5
356.399	4189.5
356.626	4183.5
356.853	4213.5
357.08	4152.5
357.307	4143.5
357.534	4147.5
357.761	4258.5
357.988	4197.5
358.215	4181.5
358.441	4198.5
358.668	4235.5
358.895	4275.5
359.122	4290.5
359.349	4356.5
359.576	4541.5
359.802	4765.5
360.029	4976.5
360.256	4906.5
360.483	4651.5
360.709	4480.5
360.936	4463.5
361.163	4473.5
361.39	4472.5
361.616	4544.5
361.843	4421.5
362.07	4499.5
362.296	4515.5
362.523	4374.5
362.749	4402.5
362.976	4452.5
363.203	4320.5
363.429	4334.5
363.656	4282.5
363.882	4256.5
364.109	4304.5
364.335	4307.5
364.562	4271.5
364.788	4252.5
365.015	4334.5
365.241	4316.5
365.468	4321.5
365.694	4347.5
365.92	4310.5
366.147	4248.5
366.373	4344.5
366.599	4244.5
366.826	4292.5
367.052	4231.5
367.278	4259.5
367.505	4330.5
367.731	4375.5
367.957	4353.5
368.184	4379.5
368.41	4432.5
368.636	4474.5
368.862	4487.5
369.089	4448.5
369.315	4487.5
369.541	4341.5
369.767	4469.5
369.993	4448.5
370.219	4413.5
370.445	4419.5
370.672	4416.5
370.898	4415.5
371.124	4436.5
371.35	4528.5
371.576	4498.5
371.802	4515.5
372.028	4490.5
372.254	4463.5
372.48	4520.5
372.706	4621.5
372.932	4652.5
373.158	4561.5
373.384	4569.5
373.61	4523.5
373.835	4544.5
374.061	4467.5
374.287	4592.5
374.513	4673.5
374.739	4831.5
374.965	4915.5
375.191	4854.5
375.416	4808.5
375.642	4674.5
375.868	4740.5
376.094	4613.5
376.319	4603.5
376.545	4572.5
376.771	4525.5
376.997	4515.5
377.222	4477.5
377.448	4465.5
377.674	4440.5
377.899	4429.5
378.125	4440.5
378.35	4452.5
378.576	4429.5
378.802	4395.5
379.027	4403.5
379.253	4451.5
379.478	4395.5
379.704	4406.5
379.929	4478.5
380.155	4460.5
380.38	4514.5
380.606	4532.5
380.831	4495.5
381.057	4501.5
381.282	4541.5
381.507	4500.5
381.733	4534.5
381.958	4557.5
382.184	4626.5
382.409	4696.5
382.634	4743.5
382.86	4697.5
383.085	4820.5
383.31	4856.5
383.535	4875.5
383.761	4973.5
383.986	5041.5
384.211	5105.5
384.436	5186.5
384.662	5319.5
384.887	5326.5
385.112	5274.5
385.337	5352.5
385.562	5390.5
385.787	5344.5
386.013	5475.5
386.238	5490.5
386.463	5454.5
386.688	5472.5
386.913	5324.5
387.138	5292.5
387.363	5390.5
387.588	5277.5
387.813	5269.5
388.038	5291.5
388.263	5371.5
388.488	5320.5
388.713	5315.5
388.938	5376.5
389.163	5294.5
389.387	5275.5
389.612	5245.5
389.837	5182.5
390.062	5180.5
390.287	5282.5
390.512	5272.5
390.736	5348.5
390.961	5371.5
391.186	5475.5
391.411	5633.5
391.636	5800.5
391.86	5890.5
392.085	5862.5
392.31	5811.5
392.534	5750.5
392.759	5632.5
392.984	5535.5
393.208	5606.5
393.433	5508.5
393.658	5492.5
393.882	5500.5
394.107	5565.5
394.331	5579.5
394.556	5596.5
394.78	5633.5
395.005	5706.5
395.229	5655.5
395.454	5925.5
395.678	6047.5
395.903	6040.5
396.127	6059.5
396.352	5928.5
396.576	5669.5
396.801	5616.5
397.025	5782.5
397.249	5892.5
397.474	5965.5
397.698	6007.5
397.922	6136.5
398.147	6298.5
398.371	6420.5
398.595	6502.5
398.82	6785.5
399.044	7236.5
399.268	7968.5
399.492	9120.5
399.717	9693.5
399.941	9524.5
400.165	8977.5
400.389	8304.5
400.613	7453.5
400.837	7108.5
401.062	6863.5
401.286	6767.5
401.51	6749.5
401.734	6721.5
401.958	6876.5
402.182	6963.5
402.406	7095.5
402.63	7209.5
402.854	7225.5
403.078	7404.5
403.302	7426.5
403.526	7641.5
403.75	7674.5
403.974	7762.5
404.198	7771.5
404.422	8063.5
404.645	8153.5
404.869	8339.5
405.093	9007.5
405.317	9647.5
405.541	9463.5
405.765	8513.5
405.988	8100.5
406.212	8035.5
406.436	8097.5
406.66	8212.5
406.883	8099.5
407.107	8728.5
407.331	9141.5
407.555	9673.5
407.778	9314.5
408.002	8521.5
408.226	8095.5
408.449	8097.5
408.673	7917.5
408.896	8135.5
409.12	8256.5
409.344	7804.5
409.567	7368.5
409.791	7490.5
410.014	7344.5
410.238	7234.5
410.461	7249.5
410.685	7349.5
410.908	7437.5
411.132	7770.5
411.355	7744.5
411.578	7402.5
411.802	7343.5
412.025	7525.5
412.249	8123.5
412.472	8817.5
412.695	9456.5
412.919	8668.5
413.142	8147.5
413.365	7756.5
413.589	7390.5
413.812	7138.5
414.035	6982.5
414.258	7044.5
414.482	7007.5
414.705	6897.5
414.928	6855.5
415.151	6845.5
415.374	6753.5
415.597	6736.5
415.821	6583.5
416.044	6678.5
416.267	6654.5
416.49	6474.5
416.713	6443.5
416.936	6630.5
417.159	6766.5
417.382	6915.5
417.605	7017.5
417.828	7232.5
418.051	7178.5
418.274	6847.5
418.497	6713.5
418.72	6897.5
418.943	6825.5
419.166	7273.5
419.389	7802.5
419.611	7711.5
419.834	7730.5
420.057	7978.5
420.28	8356.5
420.503	8029.5
420.726	7701.5
420.948	7597.5
421.171	7840.5
421.394	7501.5
421.617	6994.5
421.839	6948.5
422.062	7043.5
422.285	7186.5
422.507	7757.5
422.73	8218.5
422.953	7666.5
423.175	7170.5
423.398	7205.5
423.621	7259.5
423.843	7477.5
424.066	7396.5
424.288	7290.5
424.511	7531.5
424.733	8049.5
424.956	8575.5
425.178	7957.5
425.401	8264.5
425.623	8054.5
425.846	7057.5
426.068	6868.5
426.291	6800.5
426.513	6861.5
426.735	6888.5
426.958	7405.5
427.18	8392.5
427.402	9681.5
427.625	10152.5
427.847	9606.5
428.069	9372.5
428.292	7792.5
428.514	6779.5
428.736	6415.5
428.958	6335.5
429.181	6131.5
429.403	6074.5
429.625	6317.5
429.847	6701.5
430.069	7321.5
430.292	6671.5
430.514	6090.5
430.736	6063.5
430.958	5911.5
431.18	5931.5
431.402	5923.5
431.624	5875.5
431.846	5897.5
432.068	5935.5
432.29	6073.5
432.512	5941.5
432.734	5978.5
432.956	5958.5
433.178	6105.5
433.4	6093.5
433.622	5917.5
433.844	5980.5
434.066	5993.5
434.287	6062.5
434.509	6322.5
434.731	6578.5
434.953	6614.5
435.175	6797.5
435.397	6806.5
435.618	6754.5
435.84	7219.5
436.062	8229.5
436.284	8102.5
436.505	6820.5
436.727	6481.5
436.949	6205.5
437.17	6127.5
437.392	5973.5
437.614	6144.5
437.835	6567.5
438.057	7641.5
438.278	8337.5
438.5	8177.5
438.721	9132.5
438.943	7845.5
439.165	6608.5
439.386	6459.5
439.608	6479.5
439.829	6648.5
440.05	7101.5
440.272	7509.5
440.493	6715.5
440.715	6430.5
440.936	6300.5
441.158	6348.5
441.379	6455.5
441.6	6813.5
441.822	7073.5
442.043	7520.5
442.264	8355.5
442.486	8017.5
442.707	7050.5
442.928	7005.5
443.149	7232.5
443.371	7438.5
443.592	7925.5
443.813	9077.5
444.034	8828.5
444.255	7693.5
444.476	7496.5
444.698	7681.5
444.919	7689.5
445.14	7535.5
445.361	7479.5
445.582	7798.5
445.803	8625.5
446.024	9281.5
446.245	8790.5
446.466	7731.5
446.687	6659.5
446.908	6293.5
447.129	5989.5
447.35	5766.5
447.571	5743.5
447.792	5724.5
448.013	5807.5
448.234	6014.5
448.455	6754.5
448.675	8045.5
448.896	8554.5
449.117	6882.5
449.338	7200.5
449.559	8719.5
449.779	8816.5
450	6662.5
450.221	6033.5
450.442	5789.5
450.662	5628.5
450.883	5819.5
451.104	6041.5
451.324	5806.5
451.545	5585.5
451.766	5434.5
451.986	5254.5
452.207	5226.5
452.428	5215.5
452.648	5245.5
452.869	5305.5
453.089	5393.5
453.31	5424.5
453.53	5301.5
453.751	5187.5
453.971	5266.5
454.192	5409.5
454.412	5253.5
454.633	5169.5
454.853	5124.5
455.073	5199.5
455.294	5674.5
455.514	6175.5
455.734	5555.5
455.955	4992.5
456.175	4927.5
456.395	4820.5
456.616	4858.5
456.836	4895.5
457.056	4812.5
457.276	4821.5
457.497	5029.5
457.717	4922.5
457.937	5031.5
458.157	5115.5
458.377	5145.5
458.598	5618.5
458.818	6371.5
459.038	7239.5
459.258	7066.5
459.478	6121.5
459.698	6033.5
459.918	6125.5
460.138	6265.5
460.358	6557.5
460.578	6479.5
460.798	6620.5
461.018	6571.5
461.238	6391.5
461.458	6418.5
461.678	6355.5
461.898	6576.5
462.118	6662.5
462.338	6914.5
462.558	7011.5
462.777	7344.5
462.997	7928.5
463.217	8311.5
463.437	8086.5
463.657	7513.5
463.876	7505.5
464.096	7501.5
464.316	7422.5
464.536	7439.5
464.755	7333.5
464.975	7104.5
465.195	7534.5
465.414	7778.5
465.634	6639.5
465.854	6248.5
466.073	5960.5
466.293	5786.5
466.512	5658.5
466.732	5591.5
466.951	5543.5
467.171	5554.5
467.391	5736.5
467.61	5896.5
467.829	6180.5
468.049	7245.5
468.268	8499.5
468.488	6751.5
468.707	6021.5
468.927	5733.5
469.146	5610.5
469.365	5620.5
469.585	5554.5
469.804	5832.5
470.023	5969.5
470.243	5833.5
470.462	5955.5
470.681	6222.5
470.901	6077.5
471.12	5839.5
471.339	5893.5
471.558	5960.5
471.777	6131.5
471.997	6695.5
472.216	9513.5
472.435	14183.5
472.654	10631.5
472.873	7763.5
473.092	6869.5
473.311	6356.5
473.53	6184.5
473.749	6249.5
473.968	6580.5
474.187	7573.5
474.406	6926.5
474.625	5926.5
474.844	5661.5
475.063	5599.5
475.282	5624.5
475.501	5666.5
475.72	5632.5
475.939	5623.5
476.158	5664.5
476.377	5651.5
476.596	5657.5
476.814	5837.5
477.033	5922.5
477.252	5984.5
477.471	6083.5
477.69	6192.5
477.908	6259.5
478.127	6394.5
478.346	6482.5
478.564	6575.5
478.783	6663.5
479.002	6843.5
479.22	6903.5
479.439	7082.5
479.658	7229.5
479.876	7375.5
480.095	7597.5
480.313	8196.5
480.532	8364.5
480.751	8885.5
480.969	11635.5
481.188	15627.5
481.406	15627.5
481.624	13698.5
481.843	10215.5
482.061	8926.5
482.28	8221.5
482.498	7788.5
482.717	7415.5
482.935	7325.5
483.153	7120.5
483.372	7047.5
483.59	6944.5
483.808	6854.5
484.027	6788.5
484.245	6859.5
484.463	6827.5
484.681	6918.5
484.9	6832.5
485.118	6852.5
485.336	6960.5
485.554	7006.5
485.772	7013.5
485.99	6913.5
486.209	7064.5
486.427	7192.5
486.645	7223.5
486.863	7304.5
487.081	7237.5
487.299	7240.5
487.517	7138.5
487.735	7123.5
487.953	7148.5
488.171	7233.5
488.389	7129.5
488.607	7201.5
488.825	7205.5
489.043	7367.5
489.261	7306.5
489.479	7467.5
489.696	7583.5
489.914	7715.5
490.132	7992.5
490.35	7951.5
490.568	8143.5
490.786	8427.5
491.003	8664.5
491.221	9108.5
491.439	9566.5
491.657	9832.5
491.874	9806.5
492.092	9954.5
492.31	10057.5
492.527	10428.5
492.745	10753.5
492.963	10669.5
493.18	10462.5
493.398	10234.5
493.615	10120.5
493.833	9962.5
494.05	9799.5
494.268	9573.5
494.485	9319.5
494.703	9219.5
494.92	9226.5
495.138	9096.5
495.355	8999.5
495.573	8912.5
495.79	8757.5
496.008	8795.5
496.225	8788.5
496.442	8685.5
496.66	8737.5
496.877	8639.5
497.094	8624.5
497.312	8824.5
497.529	8992.5
497.746	9101.5
497.963	9263.5
498.181	9770.5
498.398	9936.5
498.615	10367.5
498.832	10816.5
499.049	11281.5
499.267	11705.5
499.484	12568.5
499.701	13223.5
499.918	13807.5
500.135	14551.5
500.352	15193.5
500.569	15392.5
500.786	15462.5
501.003	14962.5
501.22	14280.5
501.437	13641.5
501.654	12827.5
501.871	12180.5
502.088	11476.5
502.305	10738.5
502.522	10128.5
502.739	9876.5
502.956	9430.5
503.172	9075.5
503.389	8840.5
503.606	8761.5
503.823	8635.5
504.04	8411.5
504.256	8531.5
504.473	8733.5
504.69	8709.5
504.907	8462.5
505.123	8101.5
505.34	7855.5
505.557	7641.5
505.773	7559.5
505.99	7485.5
506.207	7417.5
506.423	7331.5
506.64	7139.5
506.856	7093.5
507.073	7083.5
507.289	6979.5
507.506	7025.5
507.722	7098.5
507.939	7197.5
508.155	6934.5
508.372	6697.5
508.588	6724.5
508.805	6708.5
509.021	6718.5
509.238	6989.5
509.454	6821.5
509.67	6735.5
509.887	6627.5
510.103	6609.5
510.319	6613.5
510.536	7866.5
510.752	11620.5
510.968	8038.5
511.184	6712.5
511.401	6767.5
511.617	7076.5
511.833	7857.5
512.049	8013.5
512.265	7441.5
512.481	7035.5
512.698	6738.5
512.914	6637.5
513.13	6487.5
513.346	6440.5
513.562	6489.5
513.778	6395.5
513.994	6460.5
514.21	6567.5
514.426	6906.5
514.642	7181.5
514.858	7306.5
515.074	7757.5
515.29	9205.5
515.506	12177.5
515.721	8938.5
515.937	7361.5
516.153	7199.5
516.369	7054.5
516.585	7079.5
516.801	7124.5
517.016	7320.5
517.232	7575.5
517.448	7737.5
517.664	7991.5
517.879	7816.5
518.095	7893.5
518.311	7693.5
518.527	7483.5
518.742	7176.5
518.958	6940.5
519.173	6721.5
519.389	6721.5
519.605	6561.5
519.82	6519.5
520.036	6741.5
520.251	6793.5
520.467	6884.5
520.682	6796.5
520.898	6747.5
521.113	6840.5
521.329	7329.5
521.544	8198.5
521.76	10344.5
521.975	14707.5
522.19	12083.5
522.406	7714.5
522.621	6577.5
522.836	6127.5
523.052	5953.5
523.267	5735.5
523.482	5610.5
523.698	5609.5
523.913	5608.5
524.128	5568.5
524.343	5471.5
524.559	5376.5
524.774	5332.5
524.989	5322.5
525.204	5375.5
525.419	5348.5
525.634	5322.5
525.849	5147.5
526.064	5131.5
526.28	5159.5
526.495	5084.5
526.71	5060.5
526.925	5009.5
527.14	5097.5
527.355	5053.5
527.57	4994.5
527.785	5007.5
527.999	5039.5
528.214	5047.5
528.429	5052.5
528.644	5000.5
528.859	5044.5
529.074	5059.5
529.289	5325.5
529.503	6071.5
529.718	5632.5
529.933	5199.5
530.148	5076.5
530.363	5079.5
530.577	5018.5
530.792	4916.5
531.007	4992.5
531.221	5025.5
531.436	5002.5
531.651	4977.5
531.865	4965.5
532.08	4882.5
532.295	4912.5
532.509	4897.5
532.724	4901.5
532.938	4930.5
533.153	4907.5
533.367	4853.5
533.582	4855.5
533.796	4831.5
534.011	4891.5
534.225	4879.5
534.44	4769.5
534.654	4753.5
534.868	4802.5
535.083	4781.5
535.297	4796.5
535.511	4817.5
535.726	4898.5
535.94	4847.5
536.154	4708.5
536.369	4721.5
536.583	4621.5
536.797	4576.5
537.011	4618.5
537.225	4554.5
537.44	4591.5
537.654	4580.5
537.868	4562.5
538.082	4557.5
538.296	4531.5
538.51	4547.5
538.724	4559.5
538.938	4542.5
539.153	4522.5
539.367	4603.5
539.581	4617.5
539.795	4509.5
540.009	4453.5
540.222	4409.5
540.436	4459.5
540.65	4541.5
540.864	4555.5
541.078	4542.5
541.292	4523.5
541.506	4408.5
541.72	4377.5
541.934	4335.5
542.147	4352.5
542.361	4331.5
542.575	4235.5
542.789	4330.5
543.002	4326.5
543.216	4376.5
543.43	4467.5
543.644	4353.5
543.857	4381.5
544.071	4362.5
544.285	4461.5
544.498	4421.5
544.712	4336.5
544.925	4377.5
545.139	4336.5
545.352	4419.5
545.566	4365.5
545.779	4362.5
545.993	4370.5
546.206	4397.5
546.42	4369.5
546.633	4380.5
546.847	4400.5
547.06	4263.5
547.274	4277.5
547.487	4294.5
547.7	4372.5
547.914	4301.5
548.127	4423.5
548.34	4366.5
548.554	4335.5
548.767	4365.5
548.98	4386.5
549.193	4406.5
549.407	4430.5
549.62	4413.5
549.833	4393.5
550.046	4393.5
550.259	4321.5
550.473	4261.5
550.686	4296.5
550.899	4214.5
551.112	4194.5
551.325	4267.5
551.538	4247.5
551.751	4237.5
551.964	4232.5
552.177	4355.5
552.39	4331.5
552.603	4473.5
552.816	4568.5
553.029	4582.5
553.242	4677.5
553.455	4731.5
553.667	4766.5
553.88	4793.5
554.093	4658.5
554.306	4550.5
554.519	4510.5
554.732	4381.5
554.944	4328.5
555.157	4177.5
555.37	4085.5
555.583	4117.5
555.795	4060.5
556.008	3897.5
556.221	3851.5
556.433	3776.5
556.646	3786.5
556.859	3782.5
557.071	3722.5
557.284	3725.5
557.496	3617.5
557.709	3650.5
557.921	3646.5
558.134	3588.5
558.346	3619.5
558.559	3592.5
558.771	3598.5
558.984	3584.5
559.196	3524.5
559.409	3539.5
559.621	3503.5
559.833	3563.5
560.046	3538.5
560.258	3571.5
560.47	3578.5
560.683	3519.5
560.895	3583.5
561.107	3528.5
561.32	3481.5
561.532	3454.5
561.744	3450.5
561.956	3483.5
562.168	3503.5
562.381	3494.5
562.593	3496.5
562.805	3528.5
563.017	3490.5
563.229	3521.5
563.441	3516.5
563.653	3555.5
563.865	3601.5
564.077	3571.5
564.289	3672.5
564.501	3635.5
564.713	3773.5
564.925	3802.5
565.137	3914.5
565.349	3954.5
565.561	4042.5
565.773	4146.5
565.985	4351.5
566.197	4553.5
566.408	4789.5
566.62	5241.5
566.832	5417.5
567.044	5526.5
567.255	5574.5
567.467	5751.5
567.679	5928.5
567.891	6274.5
568.102	6309.5
568.314	5833.5
568.526	5376.5
568.737	4989.5
568.949	4630.5
569.161	4310.5
569.372	4077.5
569.584	3879.5
569.795	3741.5
570.007	3728.5
570.218	3938.5
570.43	3658.5
570.641	3530.5
570.853	3480.5
571.064	3533.5
571.276	3470.5
571.487	3316.5
571.698	3252.5
571.91	3170.5
572.121	3105.5
572.333	3101.5
572.544	3028.5
572.755	2979.5
572.966	2977.5
573.178	2914.5
573.389	2837.5
573.6	2841.5
573.811	2786.5
574.023	2834.5
574.234	2800.5
574.445	2794.5
574.656	2788.5
574.867	2762.5
575.078	2791.5
575.289	2676.5
575.501	2640.5
575.712	2622.5
575.923	2670.5
576.134	2654.5
576.345	2627.5
576.556	2625.5
576.767	2603.5
576.978	2575.5
577.188	2565.5
577.399	2537.5
577.61	2500.5
577.821	2553.5
578.032	2493.5
578.243	2825.5
578.454	3917.5
578.665	2765.5
578.875	2488.5
579.086	2403.5
579.297	2462.5
579.508	2386.5
579.718	2358.5
579.929	2416.5
580.14	2358.5
580.35	2344.5
580.561	2347.5
580.772	2335.5
580.982	2329.5
581.193	2253.5
581.403	2295.5
581.614	2296.5
581.825	2328.5
582.035	2248.5
582.246	2250.5
582.456	2263.5
582.667	2270.5
582.877	2253.5
583.087	2243.5
583.298	2241.5
583.508	2227.5
583.719	2247.5
583.929	2237.5
584.139	2218.5
584.35	2213.5
584.56	2196.5
584.77	2183.5
584.981	2266.5
585.191	2195.5
585.401	2188.5
585.611	2194.5
585.821	2196.5
586.032	2208.5
586.242	2145.5
586.452	2161.5
586.662	2155.5
586.872	2131.5
587.082	2105.5
587.292	2177.5
587.502	2138.5
587.713	2166.5
587.923	2147.5
588.133	2141.5
588.343	2114.5
588.553	2137.5
588.762	2128.5
588.972	2161.5
589.182	2235.5
589.392	2228.5
589.602	2407.5
589.812	2355.5
590.022	2159.5
590.232	2150.5
590.441	2204.5
590.651	2205.5
590.861	2178.5
591.071	2206.5
591.281	2199.5
591.49	2234.5
591.7	2294.5
591.91	2288.5
592.119	2316.5
592.329	2410.5
592.539	2444.5
592.748	2513.5
592.958	2619.5
593.167	2653.5
593.377	2678.5
593.587	2632.5
593.796	2711.5
594.006	2727.5
594.215	2680.5
594.424	2685.5
594.634	2625.5
594.843	2520.5
595.053	2443.5
595.262	2366.5
595.472	2268.5
595.681	2243.5
595.89	2178.5
596.1	2104.5
596.309	2100.5
596.518	2093.5
596.727	2029.5
596.937	1950.5
597.146	1968.5
597.355	1940.5
597.564	1895.5
597.774	1867.5
597.983	1873.5
598.192	1875.5
598.401	1865.5
598.61	1860.5
598.819	1849.5
599.028	1823.5
599.237	1823.5
599.446	1831.5
599.655	1794.5
599.864	1778.5
600.073	1819.5
600.282	1782.5
600.491	1794.5
600.7	1792.5
600.909	1796.5
601.118	1785.5
601.327	1749.5
601.536	1752.5
601.745	1746.5
601.953	1757.5
602.162	1775.5
602.371	1769.5
602.58	1734.5
602.789	1749.5
602.997	1716.5
603.206	1729.5
603.415	1716.5
603.623	1707.5
603.832	1687.5
604.041	1651.5
604.249	1708.5
604.458	1656.5
604.666	1668.5
604.875	1636.5
605.084	1611.5
605.292	1644.5
605.501	1621.5
605.709	1637.5
605.918	1636.5
606.126	1634.5
606.334	1593.5
606.543	1612.5
606.751	1598.5
606.96	1628.5
607.168	1568.5
607.376	1545.5
607.585	1609.5
607.793	1617.5
608.001	1595.5
608.21	1619.5
608.418	1564.5
608.626	1604.5
608.834	1625.5
609.043	1578.5
609.251	1564.5
609.459	1597.5
609.667	1600.5
609.875	1576.5
610.083	1635.5
610.291	1635.5
610.499	1599.5
610.707	1613.5
610.916	1608.5
611.124	1634.5
611.332	1595.5
611.54	1562.5
611.748	1557.5
611.955	1533.5
612.163	1567.5
612.371	1526.5
612.579	1525.5
612.787	1508.5
612.995	1499.5
613.203	1531.5
613.411	1487.5
613.618	1489.5
613.826	1467.5
614.034	1505.5
614.242	1474.5
614.449	1471.5
614.657	1478.5
614.865	1461.5
615.072	1451.5
615.28	1482.5
615.488	1477.5
615.695	1459.5
615.903	1487.5
616.111	1464.5
616.318	1533.5
616.526	1449.5
616.733	1476.5
616.941	1497.5
617.148	1465.5
617.356	1443.5
617.563	1458.5
617.771	1434.5
617.978	1447.5
618.185	1407.5
618.393	1411.5
618.6	1395.5
618.807	1415.5
619.015	1426.5
619.222	1401.5
619.429	1371.5
619.637	1396.5
619.844	1402.5
620.051	1401.5
620.258	1390.5
620.466	1314.5
620.673	1280.5
620.88	1301.5
621.087	1282.5
621.294	1331.5
621.501	1324.5
621.708	1326.5
621.915	1331.5
622.122	1342.5
622.329	1310.5
622.536	1320.5
622.743	1289.5
622.95	1263.5
623.157	1229.5
623.364	1254.5
623.571	1238.5
623.778	1240.5
623.985	1244.5
624.192	1188.5
624.399	1202.5
624.606	1202.5
624.812	1213.5
625.019	1187.5
625.226	1209.5
625.433	1192.5
625.639	1193.5
625.846	1160.5
626.053	1176.5
626.259	1176.5
626.466	1160.5
626.673	1181.5
626.879	1159.5
627.086	1144.5
627.293	1120.5
627.499	1129.5
627.706	1126.5
627.912	1158.5
628.119	1146.5
628.325	1112.5
628.532	1107.5
628.738	1084.5
628.945	1118.5
629.151	1077.5
629.357	1090.5
629.564	1060.5
629.77	1083.5
629.976	1065.5
630.183	1056.5
630.389	1077.5
630.595	1042.5
630.802	1049.5
631.008	1053.5
631.214	1036.5
631.42	1003.5
631.627	1035.5
631.833	1031.5
632.039	1040.5
632.245	993.5
632.451	996.5
632.657	1005.5
632.863	1008.5
633.069	1006.5
633.275	997.5
633.481	968.5
633.688	991.5
633.893	981.5
634.099	970.5
634.305	992.5
634.511	974.5
634.717	986.5
634.923	989.5
635.129	992.5
635.335	1017.5
635.541	1019.5
635.747	1028.5
635.952	1060.5
636.158	1199.5
636.364	1642.5
636.57	1732.5
636.775	1362.5
636.981	1250.5
637.187	1154.5
637.392	1076.5
637.598	1079.5
637.804	1049.5
638.009	1047.5
638.215	1004.5
638.421	964.5
638.626	951.5
638.832	919.5
639.037	895.5
639.243	910.5
639.448	872.5
639.654	898.5
639.859	862.5
640.065	879.5
640.27	871.5
640.475	867.5
640.681	873.5
640.886	867.5
641.091	840.5
641.297	865.5
641.502	838.5
641.707	886.5
641.913	863.5
642.118	841.5
642.323	855.5
642.528	809.5
642.733	788.5
642.939	781.5
643.144	816.5
643.349	807.5
643.554	805.5
643.759	795.5
643.964	766.5
644.169	795.5
644.374	761.5
644.579	793.5
644.784	787.5
644.989	794.5
645.194	768.5
645.399	784.5
645.604	765.5
645.809	794.5
646.014	789.5
646.219	779.5
646.423	777.5
646.628	787.5
646.833	785.5
647.038	768.5
647.243	810.5
647.447	801.5
647.652	807.5
647.857	817.5
648.062	833.5
648.266	821.5
648.471	849.5
648.676	864.5
648.88	864.5
649.085	832.5
649.289	837.5
649.494	929.5
649.698	1093.5
649.903	922.5
650.107	782.5
650.312	769.5
650.516	719.5
650.721	698.5
650.925	691.5
651.13	669.5
651.334	647.5
651.539	639.5
651.743	627.5
651.947	624.5
652.152	579.5
652.356	591.5
652.56	597.5
652.764	575.5
652.969	559.5
653.173	525.5
653.377	554.5
653.581	535.5
653.785	533.5
653.99	562.5
654.194	535.5
654.398	493.5
654.602	517.5
654.806	530.5
655.01	593.5
655.214	523.5
655.418	504.5
655.622	483.5
655.826	481.5
656.03	491.5
656.234	510.5
656.438	509.5
656.642	522.5
656.846	474.5
657.049	442.5
657.253	420.5
657.457	368.5
657.661	345.5
657.865	342.5
658.068	327.5
658.272	308.5
658.476	269.5
658.68	273.5
658.883	253.5
659.087	252.5
659.291	234.5
659.494	241.5
659.698	217.5
659.901	210.5
660.105	185.5
660.309	191.5
660.512	181.5
660.716	175.5
660.919	184.5
661.123	152.5
661.326	149.5
661.53	156.5
661.733	140.5
661.936	118.5
662.14	118.5
662.343	128.5
662.546	114.5
662.75	106.5
662.953	106.5
663.156	106.5
663.36	108.5
663.563	101.5
663.766	99.5
663.969	96.5
664.173	85.5
664.376	93.5
664.579	94.5
664.782	86.5
664.985	94.5
665.188	89.5
665.391	86.5
665.594	93.5
665.797	93.5
666	93.5
666.203	93.5
666.406	75.5
666.609	83.5
666.812	111.5
667.015	100.5
667.218	99.5
667.421	88.5
667.624	77.5
667.827	89.5
668.03	72.5
668.232	78.5
668.435	95.5
668.638	87.5
668.841	82.5
669.043	92.5
669.246	85.5
669.449	85.5
669.651	90.5
669.854	74.5
670.057	80.5
670.259	84.5
670.462	83.5
670.665	80.5
670.867	82.5
671.07	79.5
671.272	90.5
671.475	79.5
671.677	86.5
671.88	77.5
672.082	85.5
672.284	69.5
672.487	94.5
672.689	79.5
672.892	75.5
