Data from Circ_1989_H10_HRD10591_00009.txt Node
Date: Wed Jan 03 12:01:23 EST 2024
User: Yrep
Spectrometer: HR+D1059
Trigger mode: 1
Integration Time (sec): 1.000000E-1
Scans to average: 1
Electric dark correction enabled: true
Nonlinearity correction enabled: false
Boxcar width: 0
XAxis mode: Wavelengths
Number of Pixels in Spectrum: 2048
>>>>>Begin Spectral Data<<<<<
223.165	-27.5
223.4	-27.5
223.635	-27.5
223.869	-9.5
224.104	-11.5
224.338	-17.5
224.573	-11.5
224.808	-17.5
225.042	-14.5
225.277	3.5
225.511	-6.5
225.746	6.5
225.98	16.5
226.215	-12.5
226.449	17.5
226.683	16.5
226.918	33.5
227.152	34.5
227.387	29.5
227.621	55.5
227.856	32.5
228.09	39.5
228.324	41.5
228.559	55.5
228.793	60.5
229.027	64.5
229.262	57.5
229.496	76.5
229.73	91.5
229.964	73.5
230.199	67.5
230.433	72.5
230.667	77.5
230.901	87.5
231.136	80.5
231.37	59.5
231.604	69.5
231.838	76.5
232.072	75.5
232.306	83.5
232.541	79.5
232.775	77.5
233.009	88.5
233.243	67.5
233.477	87.5
233.711	63.5
233.945	68.5
234.179	83.5
234.413	95.5
234.647	65.5
234.881	75.5
235.115	83.5
235.349	78.5
235.583	81.5
235.817	85.5
236.051	73.5
236.285	71.5
236.519	79.5
236.753	85.5
236.987	67.5
237.221	81.5
237.455	81.5
237.689	69.5
237.922	64.5
238.156	63.5
238.39	80.5
238.624	77.5
238.858	76.5
239.091	68.5
239.325	79.5
239.559	81.5
239.793	65.5
240.027	75.5
240.26	93.5
240.494	72.5
240.728	81.5
240.961	80.5
241.195	71.5
241.429	83.5
241.662	77.5
241.896	64.5
242.13	64.5
242.363	70.5
242.597	77.5
242.83	85.5
243.064	79.5
243.298	88.5
243.531	75.5
243.765	74.5
243.998	71.5
244.232	79.5
244.465	70.5
244.699	83.5
244.932	88.5
245.166	76.5
245.399	82.5
245.633	81.5
245.866	84.5
246.099	82.5
246.333	86.5
246.566	80.5
246.8	77.5
247.033	57.5
247.266	63.5
247.5	95.5
247.733	92.5
247.966	78.5
248.2	78.5
248.433	64.5
248.666	81.5
248.899	89.5
249.133	95.5
249.366	94.5
249.599	110.5
249.832	83.5
250.066	92.5
250.299	89.5
250.532	66.5
250.765	85.5
250.998	79.5
251.231	77.5
251.465	84.5
251.698	86.5
251.931	85.5
252.164	72.5
252.397	70.5
252.63	76.5
252.863	87.5
253.096	76.5
253.329	87.5
253.562	75.5
253.795	81.5
254.028	82.5
254.261	83.5
254.494	71.5
254.727	81.5
254.96	84.5
255.193	89.5
255.426	76.5
255.659	88.5
255.892	87.5
256.124	91.5
256.357	78.5
256.59	86.5
256.823	81.5
257.056	84.5
257.289	67.5
257.521	86.5
257.754	78.5
257.987	93.5
258.22	85.5
258.452	88.5
258.685	72.5
258.918	76.5
259.151	72.5
259.383	75.5
259.616	96.5
259.849	76.5
260.081	91.5
260.314	84.5
260.547	75.5
260.779	75.5
261.012	89.5
261.244	87.5
261.477	86.5
261.71	93.5
261.942	116.5
262.175	114.5
262.407	85.5
262.64	72.5
262.872	69.5
263.105	76.5
263.337	81.5
263.57	79.5
263.802	77.5
264.035	66.5
264.267	92.5
264.499	78.5
264.732	78.5
264.964	72.5
265.197	88.5
265.429	89.5
265.661	79.5
265.894	72.5
266.126	72.5
266.358	93.5
266.591	88.5
266.823	69.5
267.055	89.5
267.287	83.5
267.52	89.5
267.752	92.5
267.984	84.5
268.216	83.5
268.448	81.5
268.681	71.5
268.913	80.5
269.145	79.5
269.377	87.5
269.609	84.5
269.841	78.5
270.073	84.5
270.306	83.5
270.538	85.5
270.77	92.5
271.002	81.5
271.234	70.5
271.466	81.5
271.698	67.5
271.93	75.5
272.162	82.5
272.394	82.5
272.626	82.5
272.858	96.5
273.09	93.5
273.322	87.5
273.553	78.5
273.785	88.5
274.017	89.5
274.249	89.5
274.481	77.5
274.713	80.5
274.945	85.5
275.176	77.5
275.408	77.5
275.64	97.5
275.872	101.5
276.104	104.5
276.335	96.5
276.567	87.5
276.799	99.5
277.031	114.5
277.262	104.5
277.494	91.5
277.726	97.5
277.957	99.5
278.189	87.5
278.421	95.5
278.652	75.5
278.884	101.5
279.115	102.5
279.347	92.5
279.579	88.5
279.81	102.5
280.042	102.5
280.273	125.5
280.505	120.5
280.736	89.5
280.968	91.5
281.199	91.5
281.431	82.5
281.662	90.5
281.894	86.5
282.125	92.5
282.356	105.5
282.588	129.5
282.819	102.5
283.051	80.5
283.282	85.5
283.513	91.5
283.745	91.5
283.976	87.5
284.207	80.5
284.439	94.5
284.67	96.5
284.901	92.5
285.132	83.5
285.364	84.5
285.595	93.5
285.826	75.5
286.057	86.5
286.288	91.5
286.52	93.5
286.751	86.5
286.982	90.5
287.213	70.5
287.444	77.5
287.675	89.5
287.906	99.5
288.138	77.5
288.369	97.5
288.6	88.5
288.831	97.5
289.062	88.5
289.293	83.5
289.524	99.5
289.755	81.5
289.986	75.5
290.217	91.5
290.448	86.5
290.679	88.5
290.91	85.5
291.141	96.5
291.371	92.5
291.602	82.5
291.833	85.5
292.064	71.5
292.295	84.5
292.526	89.5
292.757	88.5
292.987	92.5
293.218	73.5
293.449	87.5
293.68	86.5
293.91	74.5
294.141	91.5
294.372	97.5
294.603	99.5
294.833	81.5
295.064	80.5
295.295	107.5
295.525	93.5
295.756	97.5
295.987	112.5
296.217	132.5
296.448	112.5
296.679	89.5
296.909	94.5
297.14	96.5
297.37	82.5
297.601	95.5
297.831	95.5
298.062	92.5
298.292	82.5
298.523	79.5
298.753	79.5
298.984	77.5
299.214	73.5
299.445	90.5
299.675	95.5
299.905	98.5
300.136	92.5
300.366	101.5
300.597	94.5
300.827	95.5
301.057	100.5
301.288	116.5
301.518	99.5
301.748	84.5
301.979	99.5
302.209	97.5
302.439	92.5
302.669	93.5
302.9	99.5
303.13	87.5
303.36	88.5
303.59	99.5
303.82	99.5
304.051	88.5
304.281	101.5
304.511	92.5
304.741	100.5
304.971	96.5
305.201	99.5
305.431	94.5
305.661	91.5
305.891	96.5
306.121	105.5
306.352	99.5
306.582	85.5
306.812	91.5
307.042	100.5
307.272	113.5
307.502	108.5
307.731	109.5
307.961	104.5
308.191	100.5
308.421	82.5
308.651	87.5
308.881	100.5
309.111	101.5
309.341	86.5
309.571	103.5
309.8	93.5
310.03	98.5
310.26	97.5
310.49	97.5
310.72	92.5
310.949	89.5
311.179	87.5
311.409	93.5
311.639	82.5
311.868	90.5
312.098	105.5
312.328	96.5
312.557	102.5
312.787	108.5
313.017	94.5
313.246	101.5
313.476	90.5
313.706	99.5
313.935	102.5
314.165	117.5
314.394	91.5
314.624	94.5
314.853	105.5
315.083	81.5
315.312	92.5
315.542	84.5
315.771	88.5
316.001	87.5
316.23	99.5
316.46	83.5
316.689	77.5
316.919	103.5
317.148	88.5
317.377	90.5
317.607	102.5
317.836	82.5
318.065	80.5
318.295	99.5
318.524	89.5
318.753	91.5
318.983	92.5
319.212	95.5
319.441	103.5
319.67	100.5
319.9	88.5
320.129	92.5
320.358	88.5
320.587	98.5
320.816	87.5
321.046	111.5
321.275	112.5
321.504	93.5
321.733	115.5
321.962	86.5
322.191	83.5
322.42	98.5
322.649	105.5
322.878	97.5
323.108	117.5
323.337	133.5
323.566	127.5
323.795	147.5
324.024	197.5
324.253	348.5
324.482	758.5
324.71	1593.5
324.939	2110.5
325.168	785.5
325.397	224.5
325.626	127.5
325.855	124.5
326.084	110.5
326.313	139.5
326.542	145.5
326.77	209.5
326.999	444.5
327.228	867.5
327.457	1613.5
327.686	1313.5
327.914	386.5
328.143	260.5
328.372	278.5
328.6	179.5
328.829	120.5
329.058	124.5
329.287	115.5
329.515	124.5
329.744	135.5
329.972	208.5
330.201	353.5
330.43	479.5
330.658	245.5
330.887	172.5
331.115	125.5
331.344	105.5
331.572	90.5
331.801	113.5
332.03	96.5
332.258	97.5
332.486	101.5
332.715	91.5
332.943	103.5
333.172	101.5
333.4	105.5
333.629	125.5
333.857	142.5
334.085	183.5
334.314	325.5
334.542	599.5
334.771	556.5
334.999	196.5
335.227	122.5
335.455	110.5
335.684	98.5
335.912	98.5
336.14	92.5
336.369	101.5
336.597	102.5
336.825	99.5
337.053	102.5
337.281	107.5
337.51	83.5
337.738	99.5
337.966	89.5
338.194	88.5
338.422	95.5
338.65	110.5
338.878	98.5
339.106	97.5
339.334	100.5
339.562	88.5
339.79	95.5
340.018	91.5
340.246	83.5
340.474	105.5
340.702	92.5
340.93	79.5
341.158	99.5
341.386	96.5
341.614	101.5
341.842	93.5
342.07	90.5
342.298	89.5
342.526	97.5
342.754	82.5
342.981	97.5
343.209	83.5
343.437	101.5
343.665	77.5
343.893	88.5
344.12	94.5
344.348	87.5
344.576	93.5
344.804	91.5
345.031	88.5
345.259	115.5
345.487	86.5
345.714	105.5
345.942	92.5
346.17	96.5
346.397	88.5
346.625	86.5
346.853	97.5
347.08	104.5
347.308	102.5
347.535	76.5
347.763	85.5
347.99	96.5
348.218	98.5
348.445	98.5
348.673	112.5
348.9	100.5
349.128	92.5
349.355	112.5
349.583	111.5
349.81	84.5
350.037	96.5
350.265	92.5
350.492	86.5
350.72	103.5
350.947	108.5
351.174	113.5
351.402	99.5
351.629	115.5
351.856	97.5
352.083	111.5
352.311	101.5
352.538	104.5
352.765	112.5
352.992	128.5
353.22	101.5
353.447	113.5
353.674	95.5
353.901	87.5
354.128	91.5
354.355	95.5
354.583	97.5
354.81	102.5
355.037	110.5
355.264	99.5
355.491	90.5
355.718	97.5
355.945	82.5
356.172	105.5
356.399	110.5
356.626	105.5
356.853	103.5
357.08	88.5
357.307	101.5
357.534	98.5
357.761	99.5
357.988	98.5
358.215	107.5
358.441	112.5
358.668	106.5
358.895	92.5
359.122	95.5
359.349	92.5
359.576	91.5
359.802	94.5
360.029	112.5
360.256	120.5
360.483	97.5
360.709	104.5
360.936	100.5
361.163	108.5
361.39	100.5
361.616	97.5
361.843	101.5
362.07	93.5
362.296	94.5
362.523	107.5
362.749	92.5
362.976	95.5
363.203	89.5
363.429	88.5
363.656	79.5
363.882	84.5
364.109	96.5
364.335	94.5
364.562	94.5
364.788	88.5
365.015	105.5
365.241	100.5
365.468	113.5
365.694	91.5
365.92	86.5
366.147	84.5
366.373	75.5
366.599	96.5
366.826	96.5
367.052	85.5
367.278	82.5
367.505	87.5
367.731	86.5
367.957	85.5
368.184	97.5
368.41	99.5
368.636	107.5
368.862	126.5
369.089	105.5
369.315	91.5
369.541	103.5
369.767	83.5
369.993	80.5
370.219	95.5
370.445	80.5
370.672	81.5
370.898	90.5
371.124	86.5
371.35	80.5
371.576	88.5
371.802	92.5
372.028	81.5
372.254	84.5
372.48	85.5
372.706	93.5
372.932	84.5
373.158	84.5
373.384	97.5
373.61	93.5
373.835	67.5
374.061	88.5
374.287	92.5
374.513	91.5
374.739	83.5
374.965	84.5
375.191	94.5
375.416	81.5
375.642	88.5
375.868	97.5
376.094	93.5
376.319	87.5
376.545	95.5
376.771	83.5
376.997	101.5
377.222	89.5
377.448	84.5
377.674	86.5
377.899	97.5
378.125	86.5
378.35	100.5
378.576	92.5
378.802	100.5
379.027	102.5
379.253	94.5
379.478	89.5
379.704	110.5
379.929	97.5
380.155	112.5
380.38	105.5
380.606	105.5
380.831	104.5
381.057	107.5
381.282	92.5
381.507	125.5
381.733	104.5
381.958	91.5
382.184	95.5
382.409	92.5
382.634	121.5
382.86	104.5
383.085	103.5
383.31	119.5
383.535	109.5
383.761	122.5
383.986	102.5
384.211	109.5
384.436	103.5
384.662	119.5
384.887	117.5
385.112	110.5
385.337	127.5
385.562	108.5
385.787	119.5
386.013	132.5
386.238	141.5
386.463	132.5
386.688	123.5
386.913	142.5
387.138	115.5
387.363	117.5
387.588	99.5
387.813	106.5
388.038	129.5
388.263	137.5
388.488	112.5
388.713	106.5
388.938	95.5
389.163	89.5
389.387	91.5
389.612	88.5
389.837	85.5
390.062	96.5
390.287	92.5
390.512	84.5
390.736	86.5
390.961	81.5
391.186	91.5
391.411	88.5
391.636	79.5
391.86	80.5
392.085	89.5
392.31	94.5
392.534	83.5
392.759	94.5
392.984	84.5
393.208	87.5
393.433	131.5
393.658	115.5
393.882	92.5
394.107	88.5
394.331	89.5
394.556	75.5
394.78	90.5
395.005	80.5
395.229	79.5
395.454	83.5
395.678	89.5
395.903	91.5
396.127	99.5
396.352	91.5
396.576	95.5
396.801	92.5
397.025	109.5
397.249	86.5
397.474	94.5
397.698	88.5
397.922	79.5
398.147	87.5
398.371	80.5
398.595	86.5
398.82	100.5
399.044	95.5
399.268	91.5
399.492	88.5
399.717	95.5
399.941	68.5
400.165	95.5
400.389	86.5
400.613	95.5
400.837	88.5
401.062	107.5
401.286	79.5
401.51	88.5
401.734	84.5
401.958	88.5
402.182	123.5
402.406	163.5
402.63	107.5
402.854	91.5
403.078	98.5
403.302	91.5
403.526	91.5
403.75	92.5
403.974	86.5
404.198	90.5
404.422	95.5
404.645	85.5
404.869	99.5
405.093	115.5
405.317	117.5
405.541	113.5
405.765	105.5
405.988	114.5
406.212	164.5
406.436	217.5
406.66	153.5
406.883	95.5
407.107	90.5
407.331	95.5
407.555	105.5
407.778	102.5
408.002	96.5
408.226	89.5
408.449	81.5
408.673	89.5
408.896	81.5
409.12	102.5
409.344	91.5
409.567	97.5
409.791	111.5
410.014	93.5
410.238	85.5
410.461	89.5
410.685	97.5
410.908	102.5
411.132	103.5
411.355	90.5
411.578	79.5
411.802	99.5
412.025	99.5
412.249	87.5
412.472	104.5
412.695	117.5
412.919	107.5
413.142	91.5
413.365	72.5
413.589	90.5
413.812	92.5
414.035	86.5
414.258	88.5
414.482	82.5
414.705	83.5
414.928	85.5
415.151	89.5
415.374	99.5
415.597	90.5
415.821	84.5
416.044	78.5
416.267	77.5
416.49	81.5
416.713	87.5
416.936	85.5
417.159	97.5
417.382	94.5
417.605	86.5
417.828	97.5
418.051	95.5
418.274	90.5
418.497	79.5
418.72	73.5
418.943	89.5
419.166	83.5
419.389	97.5
419.611	83.5
419.834	83.5
420.057	81.5
420.28	88.5
420.503	98.5
420.726	89.5
420.948	93.5
421.171	103.5
421.394	100.5
421.617	97.5
421.839	94.5
422.062	90.5
422.285	102.5
422.507	87.5
422.73	111.5
422.953	95.5
423.175	99.5
423.398	73.5
423.621	80.5
423.843	94.5
424.066	95.5
424.288	87.5
424.511	95.5
424.733	92.5
424.956	119.5
425.178	87.5
425.401	100.5
425.623	100.5
425.846	84.5
426.068	91.5
426.291	95.5
426.513	102.5
426.735	94.5
426.958	96.5
427.18	107.5
427.402	151.5
427.625	167.5
427.847	161.5
428.069	144.5
428.292	96.5
428.514	65.5
428.736	81.5
428.958	89.5
429.181	95.5
429.403	103.5
429.625	93.5
429.847	87.5
430.069	90.5
430.292	99.5
430.514	82.5
430.736	90.5
430.958	91.5
431.18	96.5
431.402	81.5
431.624	91.5
431.846	78.5
432.068	88.5
432.29	85.5
432.512	82.5
432.734	73.5
432.956	85.5
433.178	100.5
433.4	97.5
433.622	104.5
433.844	89.5
434.066	87.5
434.287	75.5
434.509	89.5
434.731	82.5
434.953	81.5
435.175	80.5
435.397	95.5
435.618	96.5
435.84	98.5
436.062	128.5
436.284	112.5
436.505	104.5
436.727	88.5
436.949	94.5
437.17	100.5
437.392	75.5
437.614	99.5
437.835	94.5
438.057	115.5
438.278	113.5
438.5	102.5
438.721	133.5
438.943	96.5
439.165	86.5
439.386	86.5
439.608	102.5
439.829	109.5
440.05	123.5
440.272	144.5
440.493	97.5
440.715	88.5
440.936	94.5
441.158	85.5
441.379	96.5
441.6	97.5
441.822	87.5
442.043	82.5
442.264	100.5
442.486	111.5
442.707	100.5
442.928	111.5
443.149	134.5
443.371	140.5
443.592	109.5
443.813	110.5
444.034	96.5
444.255	99.5
444.476	94.5
444.698	89.5
444.919	93.5
445.14	144.5
445.361	137.5
445.582	126.5
445.803	141.5
446.024	128.5
446.245	135.5
446.466	114.5
446.687	87.5
446.908	95.5
447.129	101.5
447.35	84.5
447.571	80.5
447.792	70.5
448.013	90.5
448.234	103.5
448.455	96.5
448.675	115.5
448.896	125.5
449.117	89.5
449.338	87.5
449.559	139.5
449.779	140.5
450	96.5
450.221	77.5
450.442	79.5
450.662	98.5
450.883	104.5
451.104	109.5
451.324	77.5
451.545	83.5
451.766	85.5
451.986	92.5
452.207	95.5
452.428	90.5
452.648	95.5
452.869	107.5
453.089	111.5
453.31	121.5
453.53	88.5
453.751	100.5
453.971	102.5
454.192	108.5
454.412	86.5
454.633	93.5
454.853	95.5
455.073	86.5
455.294	94.5
455.514	98.5
455.734	89.5
455.955	67.5
456.175	102.5
456.395	77.5
456.616	79.5
456.836	91.5
457.056	93.5
457.276	80.5
457.497	89.5
457.717	87.5
457.937	80.5
458.157	81.5
458.377	76.5
458.598	103.5
458.818	146.5
459.038	169.5
459.258	105.5
459.478	106.5
459.698	73.5
459.918	92.5
460.138	99.5
460.358	83.5
460.578	95.5
460.798	84.5
461.018	103.5
461.238	85.5
461.458	83.5
461.678	99.5
461.898	83.5
462.118	94.5
462.338	95.5
462.558	83.5
462.777	77.5
462.997	101.5
463.217	81.5
463.437	80.5
463.657	79.5
463.876	95.5
464.096	82.5
464.316	90.5
464.536	91.5
464.755	78.5
464.975	108.5
465.195	175.5
465.414	155.5
465.634	95.5
465.854	84.5
466.073	83.5
466.293	94.5
466.512	94.5
466.732	96.5
466.951	85.5
467.171	89.5
467.391	75.5
467.61	97.5
467.829	114.5
468.049	217.5
468.268	279.5
468.488	116.5
468.707	101.5
468.927	93.5
469.146	87.5
469.365	80.5
469.585	88.5
469.804	103.5
470.023	87.5
470.243	99.5
470.462	107.5
470.681	112.5
470.901	106.5
471.12	85.5
471.339	80.5
471.558	93.5
471.777	103.5
471.997	143.5
472.216	391.5
472.435	775.5
472.654	231.5
472.873	113.5
473.092	80.5
473.311	81.5
473.53	95.5
473.749	99.5
473.968	104.5
474.187	98.5
474.406	99.5
474.625	96.5
474.844	88.5
475.063	94.5
475.282	103.5
475.501	94.5
475.72	80.5
475.939	87.5
476.158	91.5
476.377	97.5
476.596	110.5
476.814	87.5
477.033	93.5
477.252	87.5
477.471	90.5
477.69	92.5
477.908	110.5
478.127	85.5
478.346	97.5
478.564	90.5
478.783	99.5
479.002	88.5
479.22	100.5
479.439	97.5
479.658	109.5
479.876	99.5
480.095	96.5
480.313	109.5
480.532	112.5
480.751	142.5
480.969	376.5
481.188	1361.5
481.406	795.5
481.624	172.5
481.843	87.5
482.061	87.5
482.28	93.5
482.498	112.5
482.717	85.5
482.935	102.5
483.153	84.5
483.372	93.5
483.59	87.5
483.808	88.5
484.027	76.5
484.245	94.5
484.463	101.5
484.681	102.5
484.9	92.5
485.118	83.5
485.336	99.5
485.554	109.5
485.772	103.5
485.99	96.5
486.209	110.5
486.427	99.5
486.645	110.5
486.863	112.5
487.081	101.5
487.299	92.5
487.517	100.5
487.735	103.5
487.953	82.5
488.171	102.5
488.389	104.5
488.607	102.5
488.825	91.5
489.043	93.5
489.261	89.5
489.479	87.5
489.696	85.5
489.914	77.5
490.132	81.5
490.35	82.5
490.568	73.5
490.786	81.5
491.003	79.5
491.221	90.5
491.439	90.5
491.657	84.5
491.874	85.5
492.092	87.5
492.31	91.5
492.527	85.5
492.745	92.5
492.963	82.5
493.18	102.5
493.398	80.5
493.615	84.5
493.833	83.5
494.05	83.5
494.268	91.5
494.485	88.5
494.703	77.5
494.92	82.5
495.138	84.5
495.355	83.5
495.573	95.5
495.79	80.5
496.008	93.5
496.225	87.5
496.442	95.5
496.66	92.5
496.877	92.5
497.094	100.5
497.312	83.5
497.529	105.5
497.746	87.5
497.963	90.5
498.181	93.5
498.398	94.5
498.615	113.5
498.832	99.5
499.049	101.5
499.267	84.5
499.484	97.5
499.701	87.5
499.918	102.5
500.135	87.5
500.352	88.5
500.569	102.5
500.786	91.5
501.003	95.5
501.22	75.5
501.437	93.5
501.654	99.5
501.871	106.5
502.088	99.5
502.305	98.5
502.522	96.5
502.739	87.5
502.956	100.5
503.172	100.5
503.389	101.5
503.606	108.5
503.823	87.5
504.04	81.5
504.256	87.5
504.473	76.5
504.69	77.5
504.907	103.5
505.123	92.5
505.34	95.5
505.557	91.5
505.773	86.5
505.99	94.5
506.207	97.5
506.423	83.5
506.64	94.5
506.856	83.5
507.073	77.5
507.289	89.5
507.506	101.5
507.722	110.5
507.939	113.5
508.155	96.5
508.372	104.5
508.588	86.5
508.805	91.5
509.021	94.5
509.238	94.5
509.454	99.5
509.67	98.5
509.887	110.5
510.103	120.5
510.319	194.5
510.536	643.5
510.752	2113.5
510.968	599.5
511.184	145.5
511.401	108.5
511.617	106.5
511.833	104.5
512.049	85.5
512.265	84.5
512.481	92.5
512.698	83.5
512.914	99.5
513.13	94.5
513.346	99.5
513.562	106.5
513.778	94.5
513.994	83.5
514.21	101.5
514.426	99.5
514.642	134.5
514.858	127.5
515.074	155.5
515.29	446.5
515.506	1420.5
515.721	550.5
515.937	162.5
516.153	103.5
516.369	99.5
516.585	94.5
516.801	89.5
517.016	95.5
517.232	100.5
517.448	95.5
517.664	107.5
517.879	114.5
518.095	72.5
518.311	99.5
518.527	93.5
518.742	98.5
518.958	86.5
519.173	89.5
519.389	92.5
519.605	87.5
519.82	96.5
520.036	100.5
520.251	113.5
520.467	114.5
520.682	101.5
520.898	102.5
521.113	108.5
521.329	139.5
521.544	192.5
521.76	549.5
521.975	2389.5
522.19	1449.5
522.406	325.5
522.621	139.5
522.836	89.5
523.052	103.5
523.267	85.5
523.482	106.5
523.698	117.5
523.913	125.5
524.128	111.5
524.343	80.5
524.559	99.5
524.774	92.5
524.989	100.5
525.204	96.5
525.419	96.5
525.634	91.5
525.849	94.5
526.064	85.5
526.28	92.5
526.495	95.5
526.71	96.5
526.925	81.5
527.14	87.5
527.355	99.5
527.57	83.5
527.785	95.5
527.999	81.5
528.214	98.5
528.429	96.5
528.644	63.5
528.859	81.5
529.074	98.5
529.289	126.5
529.503	192.5
529.718	90.5
529.933	87.5
530.148	80.5
530.363	95.5
530.577	90.5
530.792	76.5
531.007	92.5
531.221	85.5
531.436	93.5
531.651	85.5
531.865	90.5
532.08	98.5
532.295	94.5
532.509	92.5
532.724	95.5
532.938	100.5
533.153	99.5
533.367	101.5
533.582	97.5
533.796	95.5
534.011	86.5
534.225	107.5
534.44	90.5
534.654	92.5
534.868	86.5
535.083	75.5
535.297	100.5
535.511	103.5
535.726	106.5
535.94	79.5
536.154	91.5
536.369	68.5
536.583	85.5
536.797	86.5
537.011	86.5
537.225	105.5
537.44	103.5
537.654	88.5
537.868	90.5
538.082	93.5
538.296	71.5
538.51	94.5
538.724	76.5
538.938	87.5
539.153	99.5
539.367	109.5
539.581	98.5
539.795	104.5
540.009	88.5
540.222	91.5
540.436	83.5
540.65	111.5
540.864	93.5
541.078	84.5
541.292	76.5
541.506	93.5
541.72	89.5
541.934	89.5
542.147	89.5
542.361	86.5
542.575	76.5
542.789	91.5
543.002	84.5
543.216	106.5
543.43	99.5
543.644	85.5
543.857	86.5
544.071	96.5
544.285	93.5
544.498	94.5
544.712	97.5
544.925	96.5
545.139	90.5
545.352	98.5
545.566	91.5
545.779	91.5
545.993	89.5
546.206	95.5
546.42	76.5
546.633	99.5
546.847	87.5
547.06	69.5
547.274	87.5
547.487	84.5
547.7	86.5
547.914	94.5
548.127	84.5
548.34	89.5
548.554	84.5
548.767	86.5
548.98	85.5
549.193	80.5
549.407	90.5
549.62	89.5
549.833	89.5
550.046	78.5
550.259	96.5
550.473	87.5
550.686	88.5
550.899	82.5
551.112	87.5
551.325	95.5
551.538	103.5
551.751	89.5
551.964	96.5
552.177	94.5
552.39	93.5
552.603	89.5
552.816	66.5
553.029	83.5
553.242	92.5
553.455	93.5
553.667	98.5
553.88	100.5
554.093	90.5
554.306	100.5
554.519	81.5
554.732	91.5
554.944	77.5
555.157	72.5
555.37	96.5
555.583	90.5
555.795	100.5
556.008	87.5
556.221	83.5
556.433	79.5
556.646	97.5
556.859	92.5
557.071	98.5
557.284	77.5
557.496	77.5
557.709	85.5
557.921	93.5
558.134	83.5
558.346	78.5
558.559	92.5
558.771	92.5
558.984	89.5
559.196	81.5
559.409	77.5
559.621	82.5
559.833	78.5
560.046	77.5
560.258	100.5
560.47	96.5
560.683	91.5
560.895	92.5
561.107	108.5
561.32	88.5
561.532	85.5
561.744	81.5
561.956	80.5
562.168	88.5
562.381	84.5
562.593	87.5
562.805	102.5
563.017	86.5
563.229	97.5
563.441	101.5
563.653	83.5
563.865	92.5
564.077	86.5
564.289	90.5
564.501	88.5
564.713	90.5
564.925	112.5
565.137	101.5
565.349	105.5
565.561	92.5
565.773	83.5
565.985	94.5
566.197	77.5
566.408	75.5
566.62	95.5
566.832	88.5
567.044	77.5
567.255	99.5
567.467	85.5
567.679	86.5
567.891	93.5
568.102	92.5
568.314	80.5
568.526	88.5
568.737	74.5
568.949	96.5
569.161	76.5
569.372	82.5
569.584	90.5
569.795	82.5
570.007	123.5
570.218	221.5
570.43	121.5
570.641	100.5
570.853	79.5
571.064	97.5
571.276	93.5
571.487	88.5
571.698	86.5
571.91	76.5
572.121	72.5
572.333	84.5
572.544	98.5
572.755	82.5
572.966	77.5
573.178	81.5
573.389	100.5
573.6	79.5
573.811	98.5
574.023	81.5
574.234	87.5
574.445	101.5
574.656	98.5
574.867	76.5
575.078	85.5
575.289	92.5
575.501	96.5
575.712	84.5
575.923	82.5
576.134	80.5
576.345	88.5
576.556	89.5
576.767	99.5
576.978	86.5
577.188	90.5
577.399	94.5
577.61	95.5
577.821	89.5
578.032	100.5
578.243	240.5
578.454	665.5
578.665	178.5
578.875	98.5
579.086	96.5
579.297	93.5
579.508	97.5
579.718	95.5
579.929	91.5
580.14	94.5
580.35	85.5
580.561	90.5
580.772	76.5
580.982	87.5
581.193	83.5
581.403	102.5
581.614	89.5
581.825	81.5
582.035	80.5
582.246	80.5
582.456	93.5
582.667	94.5
582.877	73.5
583.087	84.5
583.298	89.5
583.508	72.5
583.719	78.5
583.929	95.5
584.139	85.5
584.35	77.5
584.56	87.5
584.77	91.5
584.981	88.5
585.191	84.5
585.401	99.5
585.611	84.5
585.821	105.5
586.032	84.5
586.242	71.5
586.452	85.5
586.662	85.5
586.872	88.5
587.082	83.5
587.292	84.5
587.502	73.5
587.713	90.5
587.923	75.5
588.133	81.5
588.343	78.5
588.553	91.5
588.762	103.5
588.972	117.5
589.182	259.5
589.392	138.5
589.602	117.5
589.812	212.5
590.022	130.5
590.232	96.5
590.441	83.5
590.651	86.5
590.861	85.5
591.071	78.5
591.281	79.5
591.49	81.5
591.7	86.5
591.91	89.5
592.119	81.5
592.329	94.5
592.539	92.5
592.748	77.5
592.958	80.5
593.167	87.5
593.377	89.5
593.587	88.5
593.796	75.5
594.006	82.5
594.215	79.5
594.424	83.5
594.634	77.5
594.843	76.5
595.053	88.5
595.262	64.5
595.472	95.5
595.681	77.5
595.89	86.5
596.1	100.5
596.309	76.5
596.518	84.5
596.727	83.5
596.937	87.5
597.146	80.5
597.355	96.5
597.564	92.5
597.774	101.5
597.983	105.5
598.192	70.5
598.401	92.5
598.61	82.5
598.819	90.5
599.028	83.5
599.237	84.5
599.446	91.5
599.655	76.5
599.864	83.5
600.073	75.5
600.282	78.5
600.491	87.5
600.7	86.5
600.909	87.5
601.118	75.5
601.327	96.5
601.536	96.5
601.745	95.5
601.953	84.5
602.162	102.5
602.371	83.5
602.58	87.5
602.789	70.5
602.997	88.5
603.206	96.5
603.415	82.5
603.623	96.5
603.832	86.5
604.041	98.5
604.249	86.5
604.458	87.5
604.666	76.5
604.875	80.5
605.084	75.5
605.292	83.5
605.501	80.5
605.709	77.5
605.918	94.5
606.126	83.5
606.334	87.5
606.543	70.5
606.751	77.5
606.96	75.5
607.168	87.5
607.376	92.5
607.585	98.5
607.793	67.5
608.001	92.5
608.21	84.5
608.418	88.5
608.626	80.5
608.834	76.5
609.043	87.5
609.251	93.5
609.459	85.5
609.667	97.5
609.875	81.5
610.083	84.5
610.291	89.5
610.499	78.5
610.707	73.5
610.916	75.5
611.124	79.5
611.332	95.5
611.54	78.5
611.748	62.5
611.955	87.5
612.163	87.5
612.371	87.5
612.579	87.5
612.787	79.5
612.995	85.5
613.203	84.5
613.411	80.5
613.618	80.5
613.826	82.5
614.034	96.5
614.242	67.5
614.449	94.5
614.657	89.5
614.865	70.5
615.072	87.5
615.28	93.5
615.488	88.5
615.695	70.5
615.903	92.5
616.111	92.5
616.318	93.5
616.526	85.5
616.733	92.5
616.941	96.5
617.148	97.5
617.356	94.5
617.563	94.5
617.771	87.5
617.978	91.5
618.185	84.5
618.393	72.5
618.6	80.5
618.807	77.5
619.015	82.5
619.222	79.5
619.429	99.5
619.637	97.5
619.844	88.5
620.051	81.5
620.258	87.5
620.466	90.5
620.673	70.5
620.88	76.5
621.087	93.5
621.294	93.5
621.501	78.5
621.708	91.5
621.915	75.5
622.122	89.5
622.329	80.5
622.536	87.5
622.743	80.5
622.95	67.5
623.157	72.5
623.364	91.5
623.571	91.5
623.778	96.5
623.985	79.5
624.192	73.5
624.399	77.5
624.606	87.5
624.812	67.5
625.019	84.5
625.226	96.5
625.433	85.5
625.639	102.5
625.846	82.5
626.053	85.5
626.259	95.5
626.466	91.5
626.673	74.5
626.879	88.5
627.086	76.5
627.293	82.5
627.499	93.5
627.706	88.5
627.912	83.5
628.119	89.5
628.325	91.5
628.532	95.5
628.738	78.5
628.945	73.5
629.151	84.5
629.357	84.5
629.564	101.5
629.77	72.5
629.976	95.5
630.183	72.5
630.389	87.5
630.595	81.5
630.802	78.5
631.008	81.5
631.214	83.5
631.42	78.5
631.627	87.5
631.833	65.5
632.039	83.5
632.245	85.5
632.451	86.5
632.657	80.5
632.863	74.5
633.069	75.5
633.275	81.5
633.481	60.5
633.688	81.5
633.893	87.5
634.099	87.5
634.305	92.5
634.511	82.5
634.717	88.5
634.923	81.5
635.129	91.5
635.335	84.5
635.541	75.5
635.747	88.5
635.952	78.5
636.158	86.5
636.364	170.5
636.57	143.5
636.775	87.5
636.981	88.5
637.187	83.5
637.392	78.5
637.598	86.5
637.804	88.5
638.009	79.5
638.215	84.5
638.421	84.5
638.626	78.5
638.832	68.5
639.037	89.5
639.243	75.5
639.448	81.5
639.654	78.5
639.859	71.5
640.065	68.5
640.27	84.5
640.475	86.5
640.681	83.5
640.886	83.5
641.091	84.5
641.297	90.5
641.502	88.5
641.707	86.5
641.913	91.5
642.118	84.5
642.323	88.5
642.528	82.5
642.733	97.5
642.939	71.5
643.144	63.5
643.349	67.5
643.554	83.5
643.759	89.5
643.964	85.5
644.169	83.5
644.374	73.5
644.579	80.5
644.784	94.5
644.989	83.5
645.194	75.5
645.399	78.5
645.604	80.5
645.809	101.5
646.014	95.5
646.219	96.5
646.423	80.5
646.628	80.5
646.833	86.5
647.038	85.5
647.243	85.5
647.447	84.5
647.652	81.5
647.857	86.5
648.062	74.5
648.266	88.5
648.471	77.5
648.676	89.5
648.88	87.5
649.085	86.5
649.289	82.5
649.494	99.5
649.698	128.5
649.903	97.5
650.107	81.5
650.312	82.5
650.516	79.5
650.721	72.5
650.925	86.5
651.13	77.5
651.334	87.5
651.539	86.5
651.743	92.5
651.947	91.5
652.152	79.5
652.356	79.5
652.56	80.5
652.764	83.5
652.969	88.5
653.173	83.5
653.377	82.5
653.581	85.5
653.785	79.5
653.99	84.5
654.194	83.5
654.398	89.5
654.602	100.5
654.806	89.5
655.01	111.5
655.214	98.5
655.418	66.5
655.622	99.5
655.826	95.5
656.03	82.5
656.234	97.5
656.438	95.5
656.642	96.5
656.846	91.5
657.049	84.5
657.253	78.5
657.457	81.5
657.661	87.5
657.865	81.5
658.068	90.5
658.272	83.5
658.476	79.5
658.68	73.5
658.883	91.5
659.087	83.5
659.291	68.5
659.494	72.5
659.698	88.5
659.901	89.5
660.105	85.5
660.309	77.5
660.512	81.5
660.716	92.5
660.919	85.5
661.123	78.5
661.326	83.5
661.53	81.5
661.733	83.5
661.936	87.5
662.14	83.5
662.343	80.5
662.546	85.5
662.75	65.5
662.953	87.5
663.156	79.5
663.36	96.5
663.563	81.5
663.766	93.5
663.969	85.5
664.173	81.5
664.376	79.5
664.579	81.5
664.782	73.5
664.985	86.5
665.188	81.5
665.391	92.5
665.594	79.5
665.797	81.5
666	87.5
666.203	81.5
666.406	84.5
666.609	80.5
666.812	84.5
667.015	81.5
667.218	97.5
667.421	88.5
667.624	84.5
667.827	85.5
668.03	78.5
668.232	77.5
668.435	75.5
668.638	64.5
668.841	59.5
669.043	77.5
669.246	69.5
669.449	92.5
669.651	65.5
669.854	67.5
670.057	78.5
670.259	83.5
670.462	87.5
670.665	84.5
670.867	93.5
671.07	82.5
671.272	91.5
671.475	76.5
671.677	82.5
671.88	79.5
672.082	92.5
672.284	75.5
672.487	97.5
672.689	81.5
672.892	79.5
