Data from Circ_1989_H10_HRD10591_00033.txt Node
Date: Wed Jan 03 12:01:28 EST 2024
User: Yrep
Spectrometer: HR+D1059
Trigger mode: 1
Integration Time (sec): 1.000000E-1
Scans to average: 1
Electric dark correction enabled: true
Nonlinearity correction enabled: false
Boxcar width: 0
XAxis mode: Wavelengths
Number of Pixels in Spectrum: 2048
>>>>>Begin Spectral Data<<<<<
223.165	-23.12
223.4	-23.12
223.635	-23.12
223.869	-25.12
224.104	-9.12
224.338	-22.12
224.573	-19.12
224.808	-14.12
225.042	-9.12
225.277	2.88
225.511	-13.12
225.746	0.88
225.98	-6.12
226.215	28.88
226.449	39.88
226.683	24.88
226.918	16.88
227.152	26.88
227.387	46.88
227.621	53.88
227.856	43.88
228.09	34.88
228.324	44.88
228.559	73.88
228.793	52.88
229.027	62.88
229.262	66.88
229.496	60.88
229.73	80.88
229.964	77.88
230.199	78.88
230.433	86.88
230.667	72.88
230.901	77.88
231.136	78.88
231.37	71.88
231.604	82.88
231.838	92.88
232.072	76.88
232.306	78.88
232.541	67.88
232.775	90.88
233.009	71.88
233.243	83.88
233.477	89.88
233.711	83.88
233.945	78.88
234.179	81.88
234.413	78.88
234.647	84.88
234.881	90.88
235.115	86.88
235.349	89.88
235.583	84.88
235.817	82.88
236.051	85.88
236.285	69.88
236.519	82.88
236.753	91.88
236.987	88.88
237.221	98.88
237.455	76.88
237.689	65.88
237.922	77.88
238.156	73.88
238.39	74.88
238.624	89.88
238.858	66.88
239.091	89.88
239.325	79.88
239.559	82.88
239.793	76.88
240.027	79.88
240.26	80.88
240.494	80.88
240.728	87.88
240.961	75.88
241.195	90.88
241.429	92.88
241.662	75.88
241.896	86.88
242.13	68.88
242.363	60.88
242.597	82.88
242.83	86.88
243.064	74.88
243.298	80.88
243.531	86.88
243.765	79.88
243.998	79.88
244.232	81.88
244.465	75.88
244.699	86.88
244.932	82.88
245.166	76.88
245.399	75.88
245.633	80.88
245.866	79.88
246.099	84.88
246.333	76.88
246.566	80.88
246.8	89.88
247.033	91.88
247.266	82.88
247.5	71.88
247.733	86.88
247.966	89.88
248.2	94.88
248.433	86.88
248.666	82.88
248.899	94.88
249.133	80.88
249.366	98.88
249.599	106.88
249.832	93.88
250.066	76.88
250.299	80.88
250.532	81.88
250.765	101.88
250.998	86.88
251.231	83.88
251.465	77.88
251.698	80.88
251.931	86.88
252.164	80.88
252.397	82.88
252.63	86.88
252.863	82.88
253.096	80.88
253.329	82.88
253.562	71.88
253.795	87.88
254.028	84.88
254.261	74.88
254.494	78.88
254.727	101.88
254.96	85.88
255.193	85.88
255.426	77.88
255.659	84.88
255.892	88.88
256.124	78.88
256.357	86.88
256.59	86.88
256.823	79.88
257.056	88.88
257.289	85.88
257.521	81.88
257.754	72.88
257.987	66.88
258.22	89.88
258.452	75.88
258.685	94.88
258.918	90.88
259.151	91.88
259.383	101.88
259.616	101.88
259.849	93.88
260.081	82.88
260.314	79.88
260.547	90.88
260.779	75.88
261.012	73.88
261.244	102.88
261.477	89.88
261.71	88.88
261.942	97.88
262.175	96.88
262.407	82.88
262.64	74.88
262.872	71.88
263.105	101.88
263.337	92.88
263.57	97.88
263.802	83.88
264.035	76.88
264.267	73.88
264.499	95.88
264.732	76.88
264.964	101.88
265.197	88.88
265.429	74.88
265.661	73.88
265.894	88.88
266.126	84.88
266.358	95.88
266.591	75.88
266.823	92.88
267.055	84.88
267.287	90.88
267.52	90.88
267.752	83.88
267.984	79.88
268.216	89.88
268.448	95.88
268.681	87.88
268.913	97.88
269.145	90.88
269.377	85.88
269.609	78.88
269.841	87.88
270.073	90.88
270.306	82.88
270.538	84.88
270.77	91.88
271.002	96.88
271.234	76.88
271.466	91.88
271.698	79.88
271.93	81.88
272.162	84.88
272.394	98.88
272.626	63.88
272.858	87.88
273.09	93.88
273.322	95.88
273.553	75.88
273.785	103.88
274.017	83.88
274.249	86.88
274.481	81.88
274.713	80.88
274.945	96.88
275.176	98.88
275.408	98.88
275.64	94.88
275.872	86.88
276.104	94.88
276.335	78.88
276.567	112.88
276.799	112.88
277.031	110.88
277.262	106.88
277.494	97.88
277.726	87.88
277.957	99.88
278.189	89.88
278.421	92.88
278.652	80.88
278.884	72.88
279.115	84.88
279.347	84.88
279.579	96.88
279.81	92.88
280.042	104.88
280.273	120.88
280.505	91.88
280.736	91.88
280.968	91.88
281.199	85.88
281.431	84.88
281.662	102.88
281.894	93.88
282.125	91.88
282.356	101.88
282.588	114.88
282.819	91.88
283.051	74.88
283.282	94.88
283.513	106.88
283.745	86.88
283.976	80.88
284.207	102.88
284.439	82.88
284.67	86.88
284.901	82.88
285.132	84.88
285.364	88.88
285.595	88.88
285.826	97.88
286.057	93.88
286.288	93.88
286.52	88.88
286.751	94.88
286.982	100.88
287.213	105.88
287.444	97.88
287.675	81.88
287.906	92.88
288.138	79.88
288.369	101.88
288.6	83.88
288.831	105.88
289.062	96.88
289.293	74.88
289.524	84.88
289.755	88.88
289.986	90.88
290.217	82.88
290.448	75.88
290.679	90.88
290.91	71.88
291.141	82.88
291.371	90.88
291.602	83.88
291.833	113.88
292.064	92.88
292.295	77.88
292.526	84.88
292.757	82.88
292.987	88.88
293.218	93.88
293.449	103.88
293.68	97.88
293.91	83.88
294.141	93.88
294.372	105.88
294.603	101.88
294.833	89.88
295.064	89.88
295.295	99.88
295.525	89.88
295.756	107.88
295.987	91.88
296.217	113.88
296.448	127.88
296.679	88.88
296.909	96.88
297.14	100.88
297.37	102.88
297.601	100.88
297.831	93.88
298.062	75.88
298.292	96.88
298.523	102.88
298.753	84.88
298.984	85.88
299.214	89.88
299.445	82.88
299.675	86.88
299.905	96.88
300.136	102.88
300.366	85.88
300.597	72.88
300.827	79.88
301.057	102.88
301.288	102.88
301.518	84.88
301.748	93.88
301.979	101.88
302.209	97.88
302.439	81.88
302.669	87.88
302.9	94.88
303.13	94.88
303.36	89.88
303.59	99.88
303.82	99.88
304.051	89.88
304.281	96.88
304.511	73.88
304.741	88.88
304.971	94.88
305.201	89.88
305.431	90.88
305.661	100.88
305.891	80.88
306.121	103.88
306.352	93.88
306.582	109.88
306.812	99.88
307.042	95.88
307.272	95.88
307.502	117.88
307.731	114.88
307.961	104.88
308.191	102.88
308.421	101.88
308.651	103.88
308.881	96.88
309.111	81.88
309.341	96.88
309.571	105.88
309.8	113.88
310.03	83.88
310.26	85.88
310.49	90.88
310.72	95.88
310.949	104.88
311.179	98.88
311.409	82.88
311.639	98.88
311.868	93.88
312.098	90.88
312.328	95.88
312.557	104.88
312.787	87.88
313.017	101.88
313.246	101.88
313.476	95.88
313.706	93.88
313.935	98.88
314.165	99.88
314.394	94.88
314.624	105.88
314.853	95.88
315.083	95.88
315.312	96.88
315.542	91.88
315.771	95.88
316.001	101.88
316.23	92.88
316.46	101.88
316.689	110.88
316.919	84.88
317.148	99.88
317.377	85.88
317.607	88.88
317.836	81.88
318.065	85.88
318.295	91.88
318.524	94.88
318.753	97.88
318.983	91.88
319.212	109.88
319.441	95.88
319.67	96.88
319.9	98.88
320.129	89.88
320.358	93.88
320.587	91.88
320.816	96.88
321.046	93.88
321.275	98.88
321.504	92.88
321.733	90.88
321.962	110.88
322.191	103.88
322.42	101.88
322.649	109.88
322.878	107.88
323.108	101.88
323.337	104.88
323.566	124.88
323.795	124.88
324.024	176.88
324.253	314.88
324.482	620.88
324.71	1268.88
324.939	1656.88
325.168	635.88
325.397	210.88
325.626	146.88
325.855	113.88
326.084	119.88
326.313	108.88
326.542	151.88
326.77	203.88
326.999	352.88
327.228	714.88
327.457	1281.88
327.686	1050.88
327.914	334.88
328.143	232.88
328.372	265.88
328.6	172.88
328.829	125.88
329.058	116.88
329.287	125.88
329.515	113.88
329.744	144.88
329.972	198.88
330.201	328.88
330.43	445.88
330.658	246.88
330.887	170.88
331.115	118.88
331.344	95.88
331.572	90.88
331.801	100.88
332.03	104.88
332.258	94.88
332.486	95.88
332.715	73.88
332.943	97.88
333.172	114.88
333.4	109.88
333.629	113.88
333.857	125.88
334.085	183.88
334.314	311.88
334.542	526.88
334.771	495.88
334.999	178.88
335.227	106.88
335.455	92.88
335.684	89.88
335.912	95.88
336.14	107.88
336.369	106.88
336.597	101.88
336.825	102.88
337.053	93.88
337.281	100.88
337.51	79.88
337.738	99.88
337.966	96.88
338.194	99.88
338.422	98.88
338.65	90.88
338.878	95.88
339.106	95.88
339.334	95.88
339.562	95.88
339.79	87.88
340.018	89.88
340.246	98.88
340.474	104.88
340.702	94.88
340.93	87.88
341.158	90.88
341.386	97.88
341.614	97.88
341.842	92.88
342.07	80.88
342.298	78.88
342.526	87.88
342.754	90.88
342.981	72.88
343.209	87.88
343.437	108.88
343.665	103.88
343.893	98.88
344.12	93.88
344.348	88.88
344.576	96.88
344.804	90.88
345.031	105.88
345.259	88.88
345.487	105.88
345.714	92.88
345.942	87.88
346.17	94.88
346.397	94.88
346.625	104.88
346.853	89.88
347.08	91.88
347.308	84.88
347.535	94.88
347.763	95.88
347.99	99.88
348.218	98.88
348.445	95.88
348.673	99.88
348.9	88.88
349.128	102.88
349.355	83.88
349.583	95.88
349.81	102.88
350.037	85.88
350.265	106.88
350.492	101.88
350.72	96.88
350.947	100.88
351.174	108.88
351.402	98.88
351.629	96.88
351.856	100.88
352.083	92.88
352.311	98.88
352.538	97.88
352.765	107.88
352.992	111.88
353.22	113.88
353.447	96.88
353.674	103.88
353.901	84.88
354.128	94.88
354.355	95.88
354.583	101.88
354.81	103.88
355.037	92.88
355.264	94.88
355.491	89.88
355.718	89.88
355.945	101.88
356.172	110.88
356.399	107.88
356.626	98.88
356.853	89.88
357.08	100.88
357.307	92.88
357.534	89.88
357.761	96.88
357.988	97.88
358.215	99.88
358.441	119.88
358.668	116.88
358.895	92.88
359.122	91.88
359.349	100.88
359.576	98.88
359.802	100.88
360.029	90.88
360.256	94.88
360.483	99.88
360.709	81.88
360.936	94.88
361.163	91.88
361.39	107.88
361.616	94.88
361.843	80.88
362.07	108.88
362.296	99.88
362.523	82.88
362.749	82.88
362.976	85.88
363.203	94.88
363.429	94.88
363.656	95.88
363.882	106.88
364.109	101.88
364.335	92.88
364.562	79.88
364.788	91.88
365.015	99.88
365.241	103.88
365.468	96.88
365.694	98.88
365.92	93.88
366.147	86.88
366.373	91.88
366.599	86.88
366.826	98.88
367.052	86.88
367.278	76.88
367.505	97.88
367.731	81.88
367.957	90.88
368.184	99.88
368.41	106.88
368.636	91.88
368.862	128.88
369.089	113.88
369.315	95.88
369.541	85.88
369.767	102.88
369.993	98.88
370.219	99.88
370.445	83.88
370.672	95.88
370.898	91.88
371.124	83.88
371.35	93.88
371.576	94.88
371.802	74.88
372.028	99.88
372.254	104.88
372.48	107.88
372.706	92.88
372.932	85.88
373.158	92.88
373.384	93.88
373.61	88.88
373.835	74.88
374.061	76.88
374.287	102.88
374.513	93.88
374.739	78.88
374.965	77.88
375.191	109.88
375.416	99.88
375.642	98.88
375.868	90.88
376.094	100.88
376.319	80.88
376.545	94.88
376.771	82.88
376.997	86.88
377.222	86.88
377.448	78.88
377.674	84.88
377.899	75.88
378.125	78.88
378.35	91.88
378.576	98.88
378.802	82.88
379.027	91.88
379.253	92.88
379.478	103.88
379.704	89.88
379.929	106.88
380.155	108.88
380.38	95.88
380.606	111.88
380.831	96.88
381.057	90.88
381.282	84.88
381.507	106.88
381.733	105.88
381.958	88.88
382.184	87.88
382.409	99.88
382.634	99.88
382.86	95.88
383.085	108.88
383.31	110.88
383.535	117.88
383.761	108.88
383.986	111.88
384.211	107.88
384.436	98.88
384.662	92.88
384.887	97.88
385.112	104.88
385.337	114.88
385.562	111.88
385.787	105.88
386.013	108.88
386.238	105.88
386.463	102.88
386.688	122.88
386.913	114.88
387.138	126.88
387.363	99.88
387.588	101.88
387.813	118.88
388.038	103.88
388.263	115.88
388.488	126.88
388.713	109.88
388.938	97.88
389.163	85.88
389.387	106.88
389.612	91.88
389.837	104.88
390.062	98.88
390.287	100.88
390.512	97.88
390.736	95.88
390.961	91.88
391.186	96.88
391.411	87.88
391.636	81.88
391.86	98.88
392.085	74.88
392.31	94.88
392.534	91.88
392.759	96.88
392.984	98.88
393.208	73.88
393.433	106.88
393.658	99.88
393.882	99.88
394.107	84.88
394.331	99.88
394.556	90.88
394.78	89.88
395.005	75.88
395.229	80.88
395.454	86.88
395.678	91.88
395.903	82.88
396.127	86.88
396.352	98.88
396.576	97.88
396.801	77.88
397.025	84.88
397.249	91.88
397.474	91.88
397.698	95.88
397.922	86.88
398.147	89.88
398.371	91.88
398.595	96.88
398.82	88.88
399.044	92.88
399.268	90.88
399.492	86.88
399.717	89.88
399.941	85.88
400.165	90.88
400.389	92.88
400.613	83.88
400.837	92.88
401.062	83.88
401.286	96.88
401.51	101.88
401.734	94.88
401.958	89.88
402.182	114.88
402.406	140.88
402.63	124.88
402.854	95.88
403.078	84.88
403.302	88.88
403.526	94.88
403.75	104.88
403.974	95.88
404.198	83.88
404.422	80.88
404.645	98.88
404.869	87.88
405.093	88.88
405.317	112.88
405.541	114.88
405.765	95.88
405.988	114.88
406.212	158.88
406.436	187.88
406.66	130.88
406.883	113.88
407.107	99.88
407.331	91.88
407.555	99.88
407.778	94.88
408.002	99.88
408.226	88.88
408.449	98.88
408.673	97.88
408.896	90.88
409.12	103.88
409.344	78.88
409.567	103.88
409.791	95.88
410.014	97.88
410.238	95.88
410.461	75.88
410.685	99.88
410.908	101.88
411.132	100.88
411.355	106.88
411.578	101.88
411.802	89.88
412.025	103.88
412.249	94.88
412.472	98.88
412.695	94.88
412.919	103.88
413.142	92.88
413.365	88.88
413.589	89.88
413.812	84.88
414.035	95.88
414.258	89.88
414.482	104.88
414.705	98.88
414.928	100.88
415.151	86.88
415.374	105.88
415.597	87.88
415.821	88.88
416.044	94.88
416.267	101.88
416.49	81.88
416.713	102.88
416.936	88.88
417.159	94.88
417.382	90.88
417.605	102.88
417.828	98.88
418.051	81.88
418.274	79.88
418.497	90.88
418.72	102.88
418.943	84.88
419.166	92.88
419.389	95.88
419.611	94.88
419.834	103.88
420.057	94.88
420.28	86.88
420.503	84.88
420.726	85.88
420.948	90.88
421.171	88.88
421.394	99.88
421.617	86.88
421.839	88.88
422.062	89.88
422.285	92.88
422.507	91.88
422.73	90.88
422.953	84.88
423.175	76.88
423.398	84.88
423.621	80.88
423.843	89.88
424.066	84.88
424.288	94.88
424.511	93.88
424.733	90.88
424.956	91.88
425.178	106.88
425.401	98.88
425.623	103.88
425.846	83.88
426.068	96.88
426.291	108.88
426.513	96.88
426.735	106.88
426.958	101.88
427.18	103.88
427.402	129.88
427.625	149.88
427.847	128.88
428.069	140.88
428.292	100.88
428.514	94.88
428.736	92.88
428.958	91.88
429.181	86.88
429.403	90.88
429.625	95.88
429.847	100.88
430.069	100.88
430.292	90.88
430.514	88.88
430.736	89.88
430.958	89.88
431.18	92.88
431.402	94.88
431.624	92.88
431.846	81.88
432.068	92.88
432.29	81.88
432.512	83.88
432.734	84.88
432.956	94.88
433.178	95.88
433.4	100.88
433.622	94.88
433.844	103.88
434.066	95.88
434.287	90.88
434.509	87.88
434.731	95.88
434.953	96.88
435.175	95.88
435.397	96.88
435.618	88.88
435.84	90.88
436.062	119.88
436.284	122.88
436.505	98.88
436.727	90.88
436.949	95.88
437.17	97.88
437.392	104.88
437.614	102.88
437.835	100.88
438.057	98.88
438.278	103.88
438.5	106.88
438.721	118.88
438.943	95.88
439.165	84.88
439.386	74.88
439.608	105.88
439.829	87.88
440.05	91.88
440.272	121.88
440.493	97.88
440.715	98.88
440.936	96.88
441.158	94.88
441.379	87.88
441.6	82.88
441.822	82.88
442.043	78.88
442.264	95.88
442.486	98.88
442.707	93.88
442.928	88.88
443.149	120.88
443.371	126.88
443.592	95.88
443.813	121.88
444.034	98.88
444.255	100.88
444.476	97.88
444.698	80.88
444.919	100.88
445.14	127.88
445.361	120.88
445.582	102.88
445.803	121.88
446.024	118.88
446.245	130.88
446.466	112.88
446.687	86.88
446.908	102.88
447.129	103.88
447.35	108.88
447.571	84.88
447.792	102.88
448.013	90.88
448.234	99.88
448.455	92.88
448.675	96.88
448.896	108.88
449.117	100.88
449.338	115.88
449.559	109.88
449.779	120.88
450	85.88
450.221	87.88
450.442	85.88
450.662	95.88
450.883	103.88
451.104	106.88
451.324	100.88
451.545	84.88
451.766	86.88
451.986	90.88
452.207	102.88
452.428	87.88
452.648	98.88
452.869	98.88
453.089	113.88
453.31	98.88
453.53	89.88
453.751	91.88
453.971	110.88
454.192	118.88
454.412	97.88
454.633	88.88
454.853	88.88
455.073	98.88
455.294	88.88
455.514	95.88
455.734	91.88
455.955	82.88
456.175	80.88
456.395	88.88
456.616	83.88
456.836	82.88
457.056	92.88
457.276	87.88
457.497	87.88
457.717	77.88
457.937	90.88
458.157	99.88
458.377	105.88
458.598	103.88
458.818	123.88
459.038	131.88
459.258	109.88
459.478	92.88
459.698	93.88
459.918	86.88
460.138	95.88
460.358	99.88
460.578	93.88
460.798	87.88
461.018	84.88
461.238	85.88
461.458	78.88
461.678	84.88
461.898	92.88
462.118	88.88
462.338	103.88
462.558	89.88
462.777	81.88
462.997	92.88
463.217	99.88
463.437	79.88
463.657	90.88
463.876	85.88
464.096	94.88
464.316	97.88
464.536	107.88
464.755	100.88
464.975	94.88
465.195	138.88
465.414	146.88
465.634	86.88
465.854	66.88
466.073	80.88
466.293	89.88
466.512	96.88
466.732	92.88
466.951	91.88
467.171	94.88
467.391	108.88
467.61	101.88
467.829	129.88
468.049	210.88
468.268	286.88
468.488	108.88
468.707	97.88
468.927	79.88
469.146	100.88
469.365	89.88
469.585	99.88
469.804	80.88
470.023	105.88
470.243	97.88
470.462	95.88
470.681	119.88
470.901	100.88
471.12	82.88
471.339	86.88
471.558	90.88
471.777	109.88
471.997	147.88
472.216	396.88
472.435	749.88
472.654	206.88
472.873	112.88
473.092	88.88
473.311	82.88
473.53	97.88
473.749	104.88
473.968	93.88
474.187	92.88
474.406	80.88
474.625	96.88
474.844	85.88
475.063	90.88
475.282	80.88
475.501	96.88
475.72	85.88
475.939	90.88
476.158	81.88
476.377	84.88
476.596	94.88
476.814	92.88
477.033	102.88
477.252	84.88
477.471	86.88
477.69	100.88
477.908	91.88
478.127	94.88
478.346	104.88
478.564	86.88
478.783	104.88
479.002	91.88
479.22	103.88
479.439	99.88
479.658	91.88
479.876	94.88
480.095	105.88
480.313	97.88
480.532	104.88
480.751	143.88
480.969	386.88
481.188	1342.88
481.406	752.88
481.624	176.88
481.843	102.88
482.061	98.88
482.28	89.88
482.498	95.88
482.717	82.88
482.935	96.88
483.153	91.88
483.372	92.88
483.59	80.88
483.808	81.88
484.027	98.88
484.245	95.88
484.463	103.88
484.681	109.88
484.9	78.88
485.118	103.88
485.336	96.88
485.554	91.88
485.772	97.88
485.99	114.88
486.209	104.88
486.427	105.88
486.645	110.88
486.863	115.88
487.081	103.88
487.299	98.88
487.517	96.88
487.735	91.88
487.953	95.88
488.171	95.88
488.389	94.88
488.607	96.88
488.825	91.88
489.043	100.88
489.261	78.88
489.479	104.88
489.696	89.88
489.914	95.88
490.132	100.88
490.35	115.88
490.568	87.88
490.786	74.88
491.003	90.88
491.221	92.88
491.439	98.88
491.657	88.88
491.874	104.88
492.092	83.88
492.31	101.88
492.527	91.88
492.745	83.88
492.963	90.88
493.18	93.88
493.398	98.88
493.615	109.88
493.833	106.88
494.05	93.88
494.268	95.88
494.485	87.88
494.703	85.88
494.92	96.88
495.138	94.88
495.355	102.88
495.573	103.88
495.79	90.88
496.008	89.88
496.225	83.88
496.442	92.88
496.66	78.88
496.877	98.88
497.094	82.88
497.312	93.88
497.529	83.88
497.746	85.88
497.963	90.88
498.181	90.88
498.398	95.88
498.615	119.88
498.832	88.88
499.049	95.88
499.267	89.88
499.484	93.88
499.701	89.88
499.918	112.88
500.135	82.88
500.352	101.88
500.569	97.88
500.786	103.88
501.003	98.88
501.22	101.88
501.437	86.88
501.654	84.88
501.871	78.88
502.088	85.88
502.305	86.88
502.522	96.88
502.739	95.88
502.956	100.88
503.172	90.88
503.389	99.88
503.606	87.88
503.823	94.88
504.04	88.88
504.256	92.88
504.473	86.88
504.69	99.88
504.907	94.88
505.123	100.88
505.34	83.88
505.557	90.88
505.773	98.88
505.99	91.88
506.207	91.88
506.423	95.88
506.64	90.88
506.856	87.88
507.073	84.88
507.289	94.88
507.506	101.88
507.722	104.88
507.939	106.88
508.155	96.88
508.372	88.88
508.588	94.88
508.805	90.88
509.021	98.88
509.238	84.88
509.454	93.88
509.67	91.88
509.887	95.88
510.103	119.88
510.319	182.88
510.536	547.88
510.752	1720.88
510.968	495.88
511.184	132.88
511.401	99.88
511.617	108.88
511.833	78.88
512.049	86.88
512.265	91.88
512.481	91.88
512.698	95.88
512.914	102.88
513.13	92.88
513.346	93.88
513.562	88.88
513.778	98.88
513.994	98.88
514.21	107.88
514.426	106.88
514.642	117.88
514.858	115.88
515.074	144.88
515.29	353.88
515.506	1052.88
515.721	414.88
515.937	137.88
516.153	104.88
516.369	117.88
516.585	113.88
516.801	98.88
517.016	92.88
517.232	99.88
517.448	86.88
517.664	90.88
517.879	91.88
518.095	97.88
518.311	98.88
518.527	105.88
518.742	99.88
518.958	86.88
519.173	102.88
519.389	95.88
519.605	103.88
519.82	112.88
520.036	109.88
520.251	128.88
520.467	99.88
520.682	113.88
520.898	106.88
521.113	103.88
521.329	116.88
521.544	166.88
521.76	406.88
521.975	1741.88
522.19	1052.88
522.406	259.88
522.621	104.88
522.836	106.88
523.052	98.88
523.267	102.88
523.482	94.88
523.698	101.88
523.913	116.88
524.128	89.88
524.343	92.88
524.559	103.88
524.774	98.88
524.989	94.88
525.204	109.88
525.419	104.88
525.634	90.88
525.849	92.88
526.064	81.88
526.28	96.88
526.495	97.88
526.71	83.88
526.925	98.88
527.14	91.88
527.355	96.88
527.57	73.88
527.785	97.88
527.999	90.88
528.214	83.88
528.429	95.88
528.644	102.88
528.859	103.88
529.074	96.88
529.289	114.88
529.503	160.88
529.718	107.88
529.933	96.88
530.148	84.88
530.363	112.88
530.577	98.88
530.792	95.88
531.007	92.88
531.221	103.88
531.436	93.88
531.651	97.88
531.865	98.88
532.08	92.88
532.295	100.88
532.509	105.88
532.724	88.88
532.938	94.88
533.153	95.88
533.367	95.88
533.582	90.88
533.796	91.88
534.011	113.88
534.225	80.88
534.44	80.88
534.654	98.88
534.868	95.88
535.083	93.88
535.297	96.88
535.511	95.88
535.726	110.88
535.94	88.88
536.154	90.88
536.369	87.88
536.583	80.88
536.797	98.88
537.011	85.88
537.225	96.88
537.44	95.88
537.654	95.88
537.868	76.88
538.082	95.88
538.296	81.88
538.51	95.88
538.724	97.88
538.938	103.88
539.153	84.88
539.367	92.88
539.581	92.88
539.795	95.88
540.009	88.88
540.222	76.88
540.436	85.88
540.65	98.88
540.864	97.88
541.078	91.88
541.292	99.88
541.506	83.88
541.72	103.88
541.934	78.88
542.147	94.88
542.361	91.88
542.575	81.88
542.789	86.88
543.002	88.88
543.216	88.88
543.43	106.88
543.644	83.88
543.857	78.88
544.071	98.88
544.285	101.88
544.498	90.88
544.712	109.88
544.925	89.88
545.139	78.88
545.352	86.88
545.566	75.88
545.779	90.88
545.993	74.88
546.206	98.88
546.42	92.88
546.633	90.88
546.847	88.88
547.06	96.88
547.274	84.88
547.487	106.88
547.7	90.88
547.914	84.88
548.127	87.88
548.34	104.88
548.554	99.88
548.767	90.88
548.98	93.88
549.193	84.88
549.407	78.88
549.62	89.88
549.833	103.88
550.046	97.88
550.259	93.88
550.473	108.88
550.686	98.88
550.899	84.88
551.112	90.88
551.325	92.88
551.538	89.88
551.751	105.88
551.964	93.88
552.177	103.88
552.39	87.88
552.603	76.88
552.816	97.88
553.029	86.88
553.242	90.88
553.455	91.88
553.667	99.88
553.88	104.88
554.093	96.88
554.306	90.88
554.519	102.88
554.732	95.88
554.944	107.88
555.157	88.88
555.37	86.88
555.583	88.88
555.795	108.88
556.008	86.88
556.221	83.88
556.433	93.88
556.646	113.88
556.859	104.88
557.071	95.88
557.284	88.88
557.496	98.88
557.709	90.88
557.921	87.88
558.134	90.88
558.346	95.88
558.559	98.88
558.771	96.88
558.984	89.88
559.196	82.88
559.409	88.88
559.621	99.88
559.833	86.88
560.046	94.88
560.258	99.88
560.47	87.88
560.683	80.88
560.895	82.88
561.107	85.88
561.32	84.88
561.532	88.88
561.744	100.88
561.956	106.88
562.168	105.88
562.381	98.88
562.593	94.88
562.805	89.88
563.017	86.88
563.229	91.88
563.441	84.88
563.653	90.88
563.865	78.88
564.077	80.88
564.289	96.88
564.501	79.88
564.713	82.88
564.925	87.88
565.137	107.88
565.349	104.88
565.561	84.88
565.773	87.88
565.985	88.88
566.197	82.88
566.408	86.88
566.62	79.88
566.832	83.88
567.044	88.88
567.255	95.88
567.467	85.88
567.679	78.88
567.891	92.88
568.102	110.88
568.314	91.88
568.526	83.88
568.737	95.88
568.949	93.88
569.161	83.88
569.372	82.88
569.584	91.88
569.795	86.88
570.007	112.88
570.218	199.88
570.43	129.88
570.641	98.88
570.853	84.88
571.064	88.88
571.276	91.88
571.487	96.88
571.698	91.88
571.91	90.88
572.121	83.88
572.333	88.88
572.544	90.88
572.755	92.88
572.966	95.88
573.178	96.88
573.389	88.88
573.6	80.88
573.811	98.88
574.023	88.88
574.234	98.88
574.445	92.88
574.656	98.88
574.867	94.88
575.078	90.88
575.289	87.88
575.501	94.88
575.712	88.88
575.923	84.88
576.134	103.88
576.345	98.88
576.556	98.88
576.767	92.88
576.978	94.88
577.188	106.88
577.399	80.88
577.61	99.88
577.821	81.88
578.032	96.88
578.243	209.88
578.454	536.88
578.665	176.88
578.875	102.88
579.086	78.88
579.297	89.88
579.508	96.88
579.718	83.88
579.929	82.88
580.14	92.88
580.35	99.88
580.561	98.88
580.772	97.88
580.982	85.88
581.193	91.88
581.403	75.88
581.614	83.88
581.825	92.88
582.035	85.88
582.246	94.88
582.456	94.88
582.667	90.88
582.877	89.88
583.087	80.88
583.298	87.88
583.508	84.88
583.719	94.88
583.929	102.88
584.139	92.88
584.35	87.88
584.56	107.88
584.77	86.88
584.981	89.88
585.191	84.88
585.401	87.88
585.611	98.88
585.821	88.88
586.032	79.88
586.242	95.88
586.452	91.88
586.662	81.88
586.872	82.88
587.082	95.88
587.292	99.88
587.502	83.88
587.713	97.88
587.923	95.88
588.133	91.88
588.343	92.88
588.553	85.88
588.762	92.88
588.972	97.88
589.182	170.88
589.392	116.88
589.602	109.88
589.812	139.88
590.022	104.88
590.232	96.88
590.441	93.88
590.651	84.88
590.861	87.88
591.071	104.88
591.281	83.88
591.49	69.88
591.7	80.88
591.91	76.88
592.119	92.88
592.329	106.88
592.539	91.88
592.748	86.88
592.958	91.88
593.167	80.88
593.377	81.88
593.587	98.88
593.796	81.88
594.006	89.88
594.215	80.88
594.424	90.88
594.634	81.88
594.843	80.88
595.053	73.88
595.262	89.88
595.472	72.88
595.681	94.88
595.89	102.88
596.1	87.88
596.309	94.88
596.518	88.88
596.727	95.88
596.937	98.88
597.146	72.88
597.355	91.88
597.564	78.88
597.774	78.88
597.983	97.88
598.192	95.88
598.401	95.88
598.61	96.88
598.819	79.88
599.028	82.88
599.237	89.88
599.446	90.88
599.655	100.88
599.864	90.88
600.073	91.88
600.282	80.88
600.491	102.88
600.7	89.88
600.909	81.88
601.118	90.88
601.327	85.88
601.536	94.88
601.745	96.88
601.953	95.88
602.162	97.88
602.371	94.88
602.58	80.88
602.789	72.88
602.997	102.88
603.206	103.88
603.415	90.88
603.623	88.88
603.832	94.88
604.041	84.88
604.249	98.88
604.458	92.88
604.666	81.88
604.875	93.88
605.084	100.88
605.292	100.88
605.501	84.88
605.709	74.88
605.918	88.88
606.126	104.88
606.334	95.88
606.543	84.88
606.751	89.88
606.96	84.88
607.168	79.88
607.376	85.88
607.585	89.88
607.793	81.88
608.001	96.88
608.21	79.88
608.418	73.88
608.626	78.88
608.834	85.88
609.043	96.88
609.251	99.88
609.459	85.88
609.667	84.88
609.875	80.88
610.083	93.88
610.291	90.88
610.499	82.88
610.707	87.88
610.916	78.88
611.124	86.88
611.332	87.88
611.54	74.88
611.748	87.88
611.955	82.88
612.163	78.88
612.371	90.88
612.579	95.88
612.787	88.88
612.995	92.88
613.203	108.88
613.411	75.88
613.618	86.88
613.826	96.88
614.034	90.88
614.242	95.88
614.449	97.88
614.657	87.88
614.865	84.88
615.072	95.88
615.28	96.88
615.488	71.88
615.695	89.88
615.903	100.88
616.111	99.88
616.318	96.88
616.526	90.88
616.733	88.88
616.941	94.88
617.148	91.88
617.356	105.88
617.563	101.88
617.771	85.88
617.978	80.88
618.185	88.88
618.393	96.88
618.6	90.88
618.807	84.88
619.015	78.88
619.222	84.88
619.429	90.88
619.637	84.88
619.844	74.88
620.051	94.88
620.258	89.88
620.466	86.88
620.673	82.88
620.88	87.88
621.087	85.88
621.294	80.88
621.501	90.88
621.708	92.88
621.915	89.88
622.122	99.88
622.329	88.88
622.536	97.88
622.743	83.88
622.95	79.88
623.157	86.88
623.364	83.88
623.571	90.88
623.778	80.88
623.985	89.88
624.192	82.88
624.399	100.88
624.606	78.88
624.812	94.88
625.019	83.88
625.226	87.88
625.433	89.88
625.639	92.88
625.846	90.88
626.053	76.88
626.259	92.88
626.466	93.88
626.673	82.88
626.879	81.88
627.086	75.88
627.293	81.88
627.499	81.88
627.706	87.88
627.912	78.88
628.119	94.88
628.325	73.88
628.532	80.88
628.738	101.88
628.945	98.88
629.151	82.88
629.357	89.88
629.564	93.88
629.77	92.88
629.976	89.88
630.183	74.88
630.389	76.88
630.595	91.88
630.802	92.88
631.008	96.88
631.214	88.88
631.42	88.88
631.627	96.88
631.833	84.88
632.039	79.88
632.245	92.88
632.451	87.88
632.657	84.88
632.863	91.88
633.069	79.88
633.275	86.88
633.481	95.88
633.688	78.88
633.893	91.88
634.099	91.88
634.305	78.88
634.511	82.88
634.717	83.88
634.923	84.88
635.129	86.88
635.335	86.88
635.541	91.88
635.747	82.88
635.952	83.88
636.158	79.88
636.364	162.88
636.57	130.88
636.775	96.88
636.981	98.88
637.187	75.88
637.392	89.88
637.598	85.88
637.804	90.88
638.009	86.88
638.215	85.88
638.421	98.88
638.626	85.88
638.832	70.88
639.037	86.88
639.243	88.88
639.448	72.88
639.654	94.88
639.859	74.88
640.065	86.88
640.27	107.88
640.475	86.88
640.681	84.88
640.886	86.88
641.091	86.88
641.297	102.88
641.502	83.88
641.707	80.88
641.913	86.88
642.118	92.88
642.323	91.88
642.528	79.88
642.733	98.88
642.939	76.88
643.144	71.88
643.349	94.88
643.554	90.88
643.759	89.88
643.964	89.88
644.169	90.88
644.374	78.88
644.579	88.88
644.784	91.88
644.989	83.88
645.194	88.88
645.399	85.88
645.604	81.88
645.809	84.88
646.014	96.88
646.219	89.88
646.423	86.88
646.628	86.88
646.833	96.88
647.038	96.88
647.243	98.88
647.447	74.88
647.652	88.88
647.857	89.88
648.062	88.88
648.266	84.88
648.471	84.88
648.676	92.88
648.88	89.88
649.085	78.88
649.289	93.88
649.494	119.88
649.698	132.88
649.903	110.88
650.107	101.88
650.312	81.88
650.516	103.88
650.721	94.88
650.925	88.88
651.13	86.88
651.334	94.88
651.539	100.88
651.743	76.88
651.947	88.88
652.152	90.88
652.356	87.88
652.56	97.88
652.764	94.88
652.969	92.88
653.173	80.88
653.377	89.88
653.581	95.88
653.785	87.88
653.99	88.88
654.194	83.88
654.398	100.88
654.602	86.88
654.806	80.88
655.01	108.88
655.214	86.88
655.418	84.88
655.622	100.88
655.826	97.88
656.03	99.88
656.234	98.88
656.438	111.88
656.642	98.88
656.846	104.88
657.049	103.88
657.253	84.88
657.457	94.88
657.661	99.88
657.865	91.88
658.068	82.88
658.272	86.88
658.476	76.88
658.68	80.88
658.883	75.88
659.087	78.88
659.291	100.88
659.494	89.88
659.698	92.88
659.901	87.88
660.105	89.88
660.309	91.88
660.512	70.88
660.716	74.88
660.919	94.88
661.123	87.88
661.326	70.88
661.53	75.88
661.733	84.88
661.936	90.88
662.14	83.88
662.343	75.88
662.546	90.88
662.75	83.88
662.953	97.88
663.156	69.88
663.36	91.88
663.563	108.88
663.766	69.88
663.969	86.88
664.173	98.88
664.376	72.88
664.579	83.88
664.782	77.88
664.985	82.88
665.188	81.88
665.391	74.88
665.594	88.88
665.797	95.88
666	72.88
666.203	81.88
666.406	83.88
666.609	90.88
666.812	97.88
667.015	81.88
667.218	86.88
667.421	80.88
667.624	71.88
667.827	89.88
668.03	63.88
668.232	74.88
668.435	86.88
668.638	81.88
668.841	98.88
669.043	57.88
669.246	86.88
669.449	83.88
669.651	92.88
669.854	84.88
670.057	70.88
670.259	84.88
670.462	73.88
670.665	98.88
670.867	74.88
671.07	87.88
671.272	84.88
671.475	86.88
671.677	81.88
671.88	80.88
672.082	86.88
672.284	90.88
672.487	87.88
672.689	86.88
672.892	97.88
