Data from Lead_5_2_HRD10591_00053.txt Node
Date: Fri Feb 20 11:10:20 EST 2026
User: Yrep
Spectrometer: HR+D1059
Trigger mode: 1
Integration Time (sec): 1.000000E-1
Scans to average: 1
Electric dark correction enabled: true
Nonlinearity correction enabled: false
Boxcar width: 0
XAxis mode: Wavelengths
Number of Pixels in Spectrum: 2048
>>>>>Begin Spectral Data<<<<<
223.165	-22.06
223.4	-22.06
223.635	-22.06
223.869	-17.06
224.104	-15.06
224.338	-23.06
224.573	-14.06
224.808	-15.06
225.042	-2.06
225.277	-1.06
225.511	-2.06
225.746	-3.06
225.98	2.94
226.215	1.94
226.449	8.94
226.683	30.94
226.918	38.94
227.152	30.94
227.387	20.94
227.621	23.94
227.856	40.94
228.09	40.94
228.324	66.94
228.559	64.94
228.793	66.94
229.027	74.94
229.262	73.94
229.496	71.94
229.73	53.94
229.964	80.94
230.199	71.94
230.433	68.94
230.667	79.94
230.901	82.94
231.136	70.94
231.37	84.94
231.604	71.94
231.838	81.94
232.072	72.94
232.306	84.94
232.541	90.94
232.775	84.94
233.009	81.94
233.243	79.94
233.477	91.94
233.711	70.94
233.945	90.94
234.179	86.94
234.413	83.94
234.647	82.94
234.881	96.94
235.115	84.94
235.349	82.94
235.583	58.94
235.817	62.94
236.051	80.94
236.285	69.94
236.519	67.94
236.753	90.94
236.987	76.94
237.221	76.94
237.455	67.94
237.689	75.94
237.922	86.94
238.156	74.94
238.39	82.94
238.624	66.94
238.858	70.94
239.091	82.94
239.325	70.94
239.559	73.94
239.793	80.94
240.027	73.94
240.26	68.94
240.494	85.94
240.728	74.94
240.961	72.94
241.195	68.94
241.429	72.94
241.662	75.94
241.896	77.94
242.13	81.94
242.363	69.94
242.597	76.94
242.83	81.94
243.064	80.94
243.298	64.94
243.531	86.94
243.765	84.94
243.998	67.94
244.232	74.94
244.465	96.94
244.699	73.94
244.932	78.94
245.166	84.94
245.399	61.94
245.633	68.94
245.866	73.94
246.099	78.94
246.333	79.94
246.566	83.94
246.8	67.94
247.033	82.94
247.266	87.94
247.5	77.94
247.733	88.94
247.966	78.94
248.2	79.94
248.433	76.94
248.666	80.94
248.899	84.94
249.133	89.94
249.366	86.94
249.599	80.94
249.832	75.94
250.066	90.94
250.299	70.94
250.532	63.94
250.765	75.94
250.998	70.94
251.231	80.94
251.465	86.94
251.698	78.94
251.931	84.94
252.164	77.94
252.397	77.94
252.63	74.94
252.863	80.94
253.096	82.94
253.329	87.94
253.562	96.94
253.795	72.94
254.028	80.94
254.261	65.94
254.494	78.94
254.727	86.94
254.96	84.94
255.193	80.94
255.426	77.94
255.659	85.94
255.892	76.94
256.124	91.94
256.357	95.94
256.59	73.94
256.823	81.94
257.056	76.94
257.289	70.94
257.521	87.94
257.754	87.94
257.987	79.94
258.22	71.94
258.452	78.94
258.685	88.94
258.918	76.94
259.151	86.94
259.383	67.94
259.616	80.94
259.849	69.94
260.081	86.94
260.314	86.94
260.547	77.94
260.779	74.94
261.012	81.94
261.244	72.94
261.477	76.94
261.71	75.94
261.942	77.94
262.175	71.94
262.407	66.94
262.64	76.94
262.872	82.94
263.105	82.94
263.337	90.94
263.57	74.94
263.802	82.94
264.035	72.94
264.267	80.94
264.499	85.94
264.732	82.94
264.964	83.94
265.197	86.94
265.429	90.94
265.661	83.94
265.894	89.94
266.126	77.94
266.358	88.94
266.591	70.94
266.823	75.94
267.055	85.94
267.287	74.94
267.52	78.94
267.752	64.94
267.984	74.94
268.216	86.94
268.448	88.94
268.681	82.94
268.913	71.94
269.145	76.94
269.377	74.94
269.609	72.94
269.841	80.94
270.073	93.94
270.306	84.94
270.538	82.94
270.77	72.94
271.002	84.94
271.234	89.94
271.466	84.94
271.698	86.94
271.93	95.94
272.162	76.94
272.394	80.94
272.626	84.94
272.858	90.94
273.09	82.94
273.322	78.94
273.553	83.94
273.785	98.94
274.017	82.94
274.249	72.94
274.481	87.94
274.713	84.94
274.945	87.94
275.176	88.94
275.408	77.94
275.64	73.94
275.872	73.94
276.104	73.94
276.335	81.94
276.567	79.94
276.799	82.94
277.031	103.94
277.262	87.94
277.494	96.94
277.726	82.94
277.957	84.94
278.189	91.94
278.421	93.94
278.652	79.94
278.884	80.94
279.115	85.94
279.347	86.94
279.579	90.94
279.81	89.94
280.042	91.94
280.273	94.94
280.505	76.94
280.736	91.94
280.968	88.94
281.199	97.94
281.431	76.94
281.662	81.94
281.894	84.94
282.125	74.94
282.356	68.94
282.588	90.94
282.819	76.94
283.051	82.94
283.282	85.94
283.513	95.94
283.745	88.94
283.976	79.94
284.207	75.94
284.439	70.94
284.67	89.94
284.901	91.94
285.132	86.94
285.364	95.94
285.595	93.94
285.826	87.94
286.057	75.94
286.288	78.94
286.52	80.94
286.751	77.94
286.982	87.94
287.213	77.94
287.444	88.94
287.675	76.94
287.906	81.94
288.138	75.94
288.369	75.94
288.6	75.94
288.831	81.94
289.062	82.94
289.293	83.94
289.524	83.94
289.755	79.94
289.986	82.94
290.217	85.94
290.448	86.94
290.679	102.94
290.91	98.94
291.141	75.94
291.371	93.94
291.602	85.94
291.833	81.94
292.064	88.94
292.295	86.94
292.526	85.94
292.757	86.94
292.987	70.94
293.218	73.94
293.449	84.94
293.68	104.94
293.91	91.94
294.141	80.94
294.372	70.94
294.603	86.94
294.833	86.94
295.064	81.94
295.295	80.94
295.525	82.94
295.756	94.94
295.987	74.94
296.217	84.94
296.448	91.94
296.679	91.94
296.909	98.94
297.14	80.94
297.37	82.94
297.601	80.94
297.831	90.94
298.062	80.94
298.292	86.94
298.523	92.94
298.753	94.94
298.984	75.94
299.214	91.94
299.445	104.94
299.675	93.94
299.905	80.94
300.136	80.94
300.366	75.94
300.597	81.94
300.827	89.94
301.057	77.94
301.288	80.94
301.518	84.94
301.748	70.94
301.979	83.94
302.209	98.94
302.439	90.94
302.669	81.94
302.9	84.94
303.13	90.94
303.36	70.94
303.59	79.94
303.82	75.94
304.051	80.94
304.281	85.94
304.511	86.94
304.741	76.94
304.971	70.94
305.201	96.94
305.431	92.94
305.661	88.94
305.891	99.94
306.121	95.94
306.352	84.94
306.582	94.94
306.812	93.94
307.042	89.94
307.272	98.94
307.502	86.94
307.731	89.94
307.961	96.94
308.191	81.94
308.421	84.94
308.651	74.94
308.881	94.94
309.111	75.94
309.341	83.94
309.571	71.94
309.8	84.94
310.03	95.94
310.26	90.94
310.49	89.94
310.72	94.94
310.949	94.94
311.179	98.94
311.409	88.94
311.639	80.94
311.868	80.94
312.098	87.94
312.328	91.94
312.557	75.94
312.787	72.94
313.017	86.94
313.246	94.94
313.476	81.94
313.706	81.94
313.935	85.94
314.165	88.94
314.394	82.94
314.624	92.94
314.853	87.94
315.083	90.94
315.312	78.94
315.542	79.94
315.771	90.94
316.001	94.94
316.23	82.94
316.46	88.94
316.689	84.94
316.919	80.94
317.148	84.94
317.377	80.94
317.607	86.94
317.836	85.94
318.065	75.94
318.295	70.94
318.524	74.94
318.753	85.94
318.983	86.94
319.212	96.94
319.441	72.94
319.67	83.94
319.9	80.94
320.129	83.94
320.358	87.94
320.587	90.94
320.816	72.94
321.046	94.94
321.275	98.94
321.504	87.94
321.733	106.94
321.962	99.94
322.191	85.94
322.42	79.94
322.649	70.94
322.878	83.94
323.108	84.94
323.337	89.94
323.566	84.94
323.795	81.94
324.024	80.94
324.253	78.94
324.482	79.94
324.71	84.94
324.939	100.94
325.168	91.94
325.397	74.94
325.626	95.94
325.855	85.94
326.084	86.94
326.313	79.94
326.542	71.94
326.77	87.94
326.999	84.94
327.228	86.94
327.457	87.94
327.686	86.94
327.914	94.94
328.143	82.94
328.372	87.94
328.6	88.94
328.829	95.94
329.058	77.94
329.287	72.94
329.515	88.94
329.744	89.94
329.972	90.94
330.201	91.94
330.43	96.94
330.658	88.94
330.887	85.94
331.115	90.94
331.344	72.94
331.572	80.94
331.801	98.94
332.03	98.94
332.258	81.94
332.486	76.94
332.715	80.94
332.943	91.94
333.172	101.94
333.4	86.94
333.629	73.94
333.857	86.94
334.085	89.94
334.314	86.94
334.542	95.94
334.771	84.94
334.999	76.94
335.227	91.94
335.455	66.94
335.684	84.94
335.912	101.94
336.14	82.94
336.369	86.94
336.597	97.94
336.825	81.94
337.053	70.94
337.281	94.94
337.51	80.94
337.738	72.94
337.966	75.94
338.194	97.94
338.422	75.94
338.65	89.94
338.878	99.94
339.106	94.94
339.334	78.94
339.562	75.94
339.79	86.94
340.018	82.94
340.246	90.94
340.474	82.94
340.702	77.94
340.93	94.94
341.158	89.94
341.386	84.94
341.614	95.94
341.842	96.94
342.07	74.94
342.298	78.94
342.526	81.94
342.754	71.94
342.981	69.94
343.209	77.94
343.437	92.94
343.665	98.94
343.893	76.94
344.12	90.94
344.348	84.94
344.576	87.94
344.804	94.94
345.031	76.94
345.259	103.94
345.487	74.94
345.714	82.94
345.942	98.94
346.17	77.94
346.397	87.94
346.625	70.94
346.853	84.94
347.08	87.94
347.308	89.94
347.535	84.94
347.763	84.94
347.99	91.94
348.218	88.94
348.445	74.94
348.673	80.94
348.9	83.94
349.128	85.94
349.355	80.94
349.583	90.94
349.81	82.94
350.037	74.94
350.265	82.94
350.492	82.94
350.72	88.94
350.947	80.94
351.174	97.94
351.402	99.94
351.629	75.94
351.856	84.94
352.083	80.94
352.311	83.94
352.538	82.94
352.765	91.94
352.992	86.94
353.22	91.94
353.447	75.94
353.674	72.94
353.901	84.94
354.128	84.94
354.355	76.94
354.583	83.94
354.81	94.94
355.037	94.94
355.264	70.94
355.491	80.94
355.718	90.94
355.945	72.94
356.172	69.94
356.399	74.94
356.626	80.94
356.853	70.94
357.08	62.94
357.307	86.94
357.534	88.94
357.761	94.94
357.988	85.94
358.215	87.94
358.441	87.94
358.668	92.94
358.895	73.94
359.122	81.94
359.349	83.94
359.576	87.94
359.802	83.94
360.029	82.94
360.256	83.94
360.483	75.94
360.709	66.94
360.936	91.94
361.163	86.94
361.39	76.94
361.616	80.94
361.843	74.94
362.07	92.94
362.296	90.94
362.523	76.94
362.749	74.94
362.976	77.94
363.203	84.94
363.429	72.94
363.656	84.94
363.882	92.94
364.109	90.94
364.335	70.94
364.562	86.94
364.788	71.94
365.015	75.94
365.241	94.94
365.468	90.94
365.694	81.94
365.92	82.94
366.147	82.94
366.373	88.94
366.599	67.94
366.826	93.94
367.052	99.94
367.278	90.94
367.505	86.94
367.731	81.94
367.957	89.94
368.184	77.94
368.41	90.94
368.636	84.94
368.862	81.94
369.089	70.94
369.315	78.94
369.541	82.94
369.767	75.94
369.993	73.94
370.219	83.94
370.445	85.94
370.672	86.94
370.898	83.94
371.124	86.94
371.35	80.94
371.576	86.94
371.802	79.94
372.028	76.94
372.254	82.94
372.48	99.94
372.706	62.94
372.932	98.94
373.158	90.94
373.384	85.94
373.61	80.94
373.835	86.94
374.061	73.94
374.287	92.94
374.513	102.94
374.739	75.94
374.965	81.94
375.191	82.94
375.416	84.94
375.642	67.94
375.868	76.94
376.094	85.94
376.319	87.94
376.545	79.94
376.771	69.94
376.997	96.94
377.222	83.94
377.448	80.94
377.674	76.94
377.899	87.94
378.125	77.94
378.35	84.94
378.576	84.94
378.802	78.94
379.027	81.94
379.253	87.94
379.478	76.94
379.704	68.94
379.929	84.94
380.155	84.94
380.38	73.94
380.606	76.94
380.831	69.94
381.057	91.94
381.282	64.94
381.507	80.94
381.733	94.94
381.958	74.94
382.184	66.94
382.409	76.94
382.634	77.94
382.86	88.94
383.085	80.94
383.31	71.94
383.535	80.94
383.761	102.94
383.986	70.94
384.211	71.94
384.436	81.94
384.662	91.94
384.887	76.94
385.112	87.94
385.337	88.94
385.562	86.94
385.787	80.94
386.013	78.94
386.238	81.94
386.463	98.94
386.688	93.94
386.913	81.94
387.138	83.94
387.363	75.94
387.588	75.94
387.813	96.94
388.038	95.94
388.263	92.94
388.488	83.94
388.713	77.94
388.938	77.94
389.163	80.94
389.387	79.94
389.612	82.94
389.837	82.94
390.062	80.94
390.287	72.94
390.512	74.94
390.736	90.94
390.961	81.94
391.186	95.94
391.411	86.94
391.636	79.94
391.86	72.94
392.085	84.94
392.31	78.94
392.534	91.94
392.759	75.94
392.984	88.94
393.208	77.94
393.433	76.94
393.658	91.94
393.882	83.94
394.107	74.94
394.331	80.94
394.556	82.94
394.78	77.94
395.005	87.94
395.229	82.94
395.454	67.94
395.678	90.94
395.903	103.94
396.127	83.94
396.352	87.94
396.576	90.94
396.801	69.94
397.025	81.94
397.249	78.94
397.474	87.94
397.698	80.94
397.922	94.94
398.147	87.94
398.371	97.94
398.595	87.94
398.82	79.94
399.044	77.94
399.268	86.94
399.492	69.94
399.717	68.94
399.941	86.94
400.165	61.94
400.389	78.94
400.613	84.94
400.837	76.94
401.062	72.94
401.286	82.94
401.51	94.94
401.734	75.94
401.958	78.94
402.182	67.94
402.406	86.94
402.63	87.94
402.854	93.94
403.078	73.94
403.302	84.94
403.526	72.94
403.75	80.94
403.974	78.94
404.198	70.94
404.422	82.94
404.645	79.94
404.869	84.94
405.093	77.94
405.317	78.94
405.541	70.94
405.765	100.94
405.988	90.94
406.212	74.94
406.436	86.94
406.66	77.94
406.883	84.94
407.107	87.94
407.331	90.94
407.555	75.94
407.778	72.94
408.002	72.94
408.226	82.94
408.449	76.94
408.673	76.94
408.896	88.94
409.12	74.94
409.344	80.94
409.567	84.94
409.791	87.94
410.014	94.94
410.238	78.94
410.461	78.94
410.685	75.94
410.908	95.94
411.132	84.94
411.355	80.94
411.578	81.94
411.802	76.94
412.025	79.94
412.249	78.94
412.472	77.94
412.695	76.94
412.919	78.94
413.142	76.94
413.365	76.94
413.589	86.94
413.812	80.94
414.035	83.94
414.258	73.94
414.482	70.94
414.705	83.94
414.928	92.94
415.151	83.94
415.374	89.94
415.597	90.94
415.821	74.94
416.044	83.94
416.267	85.94
416.49	92.94
416.713	86.94
416.936	91.94
417.159	95.94
417.382	79.94
417.605	84.94
417.828	87.94
418.051	87.94
418.274	92.94
418.497	82.94
418.72	86.94
418.943	91.94
419.166	77.94
419.389	85.94
419.611	75.94
419.834	86.94
420.057	86.94
420.28	86.94
420.503	85.94
420.726	76.94
420.948	94.94
421.171	80.94
421.394	75.94
421.617	76.94
421.839	88.94
422.062	72.94
422.285	92.94
422.507	84.94
422.73	77.94
422.953	83.94
423.175	89.94
423.398	86.94
423.621	78.94
423.843	90.94
424.066	84.94
424.288	73.94
424.511	88.94
424.733	75.94
424.956	89.94
425.178	83.94
425.401	84.94
425.623	85.94
425.846	76.94
426.068	62.94
426.291	76.94
426.513	86.94
426.735	82.94
426.958	82.94
427.18	83.94
427.402	89.94
427.625	86.94
427.847	77.94
428.069	77.94
428.292	82.94
428.514	80.94
428.736	89.94
428.958	91.94
429.181	94.94
429.403	72.94
429.625	74.94
429.847	90.94
430.069	91.94
430.292	86.94
430.514	63.94
430.736	83.94
430.958	80.94
431.18	86.94
431.402	88.94
431.624	76.94
431.846	83.94
432.068	88.94
432.29	96.94
432.512	76.94
432.734	72.94
432.956	91.94
433.178	90.94
433.4	74.94
433.622	85.94
433.844	82.94
434.066	84.94
434.287	91.94
434.509	74.94
434.731	80.94
434.953	86.94
435.175	83.94
435.397	86.94
435.618	92.94
435.84	79.94
436.062	84.94
436.284	79.94
436.505	80.94
436.727	78.94
436.949	92.94
437.17	83.94
437.392	62.94
437.614	80.94
437.835	69.94
438.057	80.94
438.278	79.94
438.5	67.94
438.721	88.94
438.943	87.94
439.165	71.94
439.386	71.94
439.608	85.94
439.829	69.94
440.05	85.94
440.272	86.94
440.493	84.94
440.715	91.94
440.936	77.94
441.158	85.94
441.379	83.94
441.6	82.94
441.822	75.94
442.043	95.94
442.264	78.94
442.486	66.94
442.707	84.94
442.928	82.94
443.149	94.94
443.371	86.94
443.592	81.94
443.813	76.94
444.034	93.94
444.255	95.94
444.476	87.94
444.698	92.94
444.919	74.94
445.14	140.94
445.361	115.94
445.582	87.94
445.803	90.94
446.024	78.94
446.245	76.94
446.466	88.94
446.687	75.94
446.908	90.94
447.129	84.94
447.35	95.94
447.571	91.94
447.792	84.94
448.013	77.94
448.234	80.94
448.455	71.94
448.675	71.94
448.896	80.94
449.117	82.94
449.338	88.94
449.559	86.94
449.779	82.94
450	83.94
450.221	84.94
450.442	82.94
450.662	82.94
450.883	82.94
451.104	82.94
451.324	85.94
451.545	80.94
451.766	87.94
451.986	75.94
452.207	71.94
452.428	74.94
452.648	83.94
452.869	81.94
453.089	91.94
453.31	75.94
453.53	89.94
453.751	86.94
453.971	84.94
454.192	64.94
454.412	70.94
454.633	74.94
454.853	92.94
455.073	72.94
455.294	80.94
455.514	99.94
455.734	92.94
455.955	95.94
456.175	77.94
456.395	82.94
456.616	75.94
456.836	84.94
457.056	87.94
457.276	79.94
457.497	78.94
457.717	94.94
457.937	77.94
458.157	68.94
458.377	84.94
458.598	68.94
458.818	66.94
459.038	84.94
459.258	96.94
459.478	78.94
459.698	86.94
459.918	91.94
460.138	86.94
460.358	68.94
460.578	74.94
460.798	77.94
461.018	84.94
461.238	72.94
461.458	81.94
461.678	81.94
461.898	76.94
462.118	76.94
462.338	78.94
462.558	78.94
462.777	69.94
462.997	62.94
463.217	82.94
463.437	86.94
463.657	82.94
463.876	87.94
464.096	76.94
464.316	76.94
464.536	76.94
464.755	85.94
464.975	90.94
465.195	73.94
465.414	89.94
465.634	89.94
465.854	90.94
466.073	68.94
466.293	78.94
466.512	98.94
466.732	95.94
466.951	78.94
467.171	64.94
467.391	81.94
467.61	71.94
467.829	92.94
468.049	88.94
468.268	96.94
468.488	74.94
468.707	90.94
468.927	88.94
469.146	75.94
469.365	70.94
469.585	63.94
469.804	67.94
470.023	76.94
470.243	82.94
470.462	89.94
470.681	77.94
470.901	83.94
471.12	77.94
471.339	79.94
471.558	86.94
471.777	83.94
471.997	71.94
472.216	79.94
472.435	76.94
472.654	73.94
472.873	87.94
473.092	87.94
473.311	79.94
473.53	74.94
473.749	78.94
473.968	92.94
474.187	86.94
474.406	73.94
474.625	70.94
474.844	83.94
475.063	70.94
475.282	70.94
475.501	86.94
475.72	79.94
475.939	85.94
476.158	80.94
476.377	95.94
476.596	82.94
476.814	82.94
477.033	75.94
477.252	82.94
477.471	92.94
477.69	83.94
477.908	96.94
478.127	99.94
478.346	87.94
478.564	81.94
478.783	83.94
479.002	90.94
479.22	83.94
479.439	104.94
479.658	75.94
479.876	97.94
480.095	91.94
480.313	62.94
480.532	74.94
480.751	83.94
480.969	75.94
481.188	91.94
481.406	93.94
481.624	87.94
481.843	86.94
482.061	85.94
482.28	84.94
482.498	82.94
482.717	71.94
482.935	78.94
483.153	82.94
483.372	75.94
483.59	82.94
483.808	80.94
484.027	84.94
484.245	74.94
484.463	76.94
484.681	71.94
484.9	80.94
485.118	79.94
485.336	82.94
485.554	74.94
485.772	83.94
485.99	91.94
486.209	75.94
486.427	79.94
486.645	84.94
486.863	90.94
487.081	85.94
487.299	90.94
487.517	82.94
487.735	86.94
487.953	74.94
488.171	87.94
488.389	88.94
488.607	82.94
488.825	75.94
489.043	76.94
489.261	89.94
489.479	84.94
489.696	88.94
489.914	99.94
490.132	75.94
490.35	77.94
490.568	83.94
490.786	76.94
491.003	91.94
491.221	97.94
491.439	86.94
491.657	80.94
491.874	94.94
492.092	100.94
492.31	96.94
492.527	74.94
492.745	82.94
492.963	91.94
493.18	102.94
493.398	84.94
493.615	91.94
493.833	91.94
494.05	76.94
494.268	83.94
494.485	97.94
494.703	84.94
494.92	90.94
495.138	77.94
495.355	77.94
495.573	70.94
495.79	84.94
496.008	95.94
496.225	90.94
496.442	82.94
496.66	83.94
496.877	90.94
497.094	84.94
497.312	91.94
497.529	75.94
497.746	89.94
497.963	89.94
498.181	74.94
498.398	87.94
498.615	95.94
498.832	82.94
499.049	84.94
499.267	82.94
499.484	94.94
499.701	81.94
499.918	79.94
500.135	92.94
500.352	80.94
500.569	76.94
500.786	88.94
501.003	76.94
501.22	80.94
501.437	88.94
501.654	91.94
501.871	84.94
502.088	80.94
502.305	82.94
502.522	82.94
502.739	86.94
502.956	96.94
503.172	82.94
503.389	84.94
503.606	91.94
503.823	106.94
504.04	78.94
504.256	82.94
504.473	82.94
504.69	89.94
504.907	84.94
505.123	97.94
505.34	88.94
505.557	80.94
505.773	95.94
505.99	68.94
506.207	84.94
506.423	70.94
506.64	80.94
506.856	86.94
507.073	83.94
507.289	71.94
507.506	82.94
507.722	84.94
507.939	82.94
508.155	67.94
508.372	76.94
508.588	94.94
508.805	87.94
509.021	86.94
509.238	91.94
509.454	78.94
509.67	80.94
509.887	91.94
510.103	94.94
510.319	80.94
510.536	75.94
510.752	73.94
510.968	76.94
511.184	80.94
511.401	90.94
511.617	87.94
511.833	79.94
512.049	79.94
512.265	87.94
512.481	84.94
512.698	76.94
512.914	79.94
513.13	87.94
513.346	84.94
513.562	76.94
513.778	79.94
513.994	83.94
514.21	85.94
514.426	89.94
514.642	89.94
514.858	75.94
515.074	64.94
515.29	77.94
515.506	86.94
515.721	82.94
515.937	89.94
516.153	90.94
516.369	83.94
516.585	77.94
516.801	73.94
517.016	67.94
517.232	92.94
517.448	97.94
517.664	92.94
517.879	74.94
518.095	96.94
518.311	96.94
518.527	83.94
518.742	89.94
518.958	72.94
519.173	88.94
519.389	90.94
519.605	82.94
519.82	83.94
520.036	97.94
520.251	102.94
520.467	87.94
520.682	90.94
520.898	103.94
521.113	85.94
521.329	83.94
521.544	90.94
521.76	76.94
521.975	76.94
522.19	80.94
522.406	86.94
522.621	82.94
522.836	83.94
523.052	88.94
523.267	74.94
523.482	87.94
523.698	95.94
523.913	82.94
524.128	81.94
524.343	91.94
524.559	93.94
524.774	70.94
524.989	70.94
525.204	71.94
525.419	86.94
525.634	71.94
525.849	96.94
526.064	95.94
526.28	66.94
526.495	70.94
526.71	78.94
526.925	90.94
527.14	87.94
527.355	96.94
527.57	71.94
527.785	83.94
527.999	93.94
528.214	81.94
528.429	98.94
528.644	101.94
528.859	83.94
529.074	78.94
529.289	93.94
529.503	76.94
529.718	96.94
529.933	86.94
530.148	73.94
530.363	76.94
530.577	89.94
530.792	101.94
531.007	77.94
531.221	75.94
531.436	73.94
531.651	92.94
531.865	77.94
532.08	97.94
532.295	88.94
532.509	74.94
532.724	78.94
532.938	100.94
533.153	85.94
533.367	82.94
533.582	93.94
533.796	94.94
534.011	72.94
534.225	86.94
534.44	86.94
534.654	91.94
534.868	99.94
535.083	95.94
535.297	83.94
535.511	82.94
535.726	82.94
535.94	87.94
536.154	86.94
536.369	83.94
536.583	70.94
536.797	94.94
537.011	90.94
537.225	83.94
537.44	72.94
537.654	91.94
537.868	74.94
538.082	68.94
538.296	76.94
538.51	85.94
538.724	84.94
538.938	84.94
539.153	79.94
539.367	70.94
539.581	76.94
539.795	82.94
540.009	96.94
540.222	82.94
540.436	87.94
540.65	86.94
540.864	86.94
541.078	96.94
541.292	98.94
541.506	90.94
541.72	88.94
541.934	75.94
542.147	85.94
542.361	94.94
542.575	91.94
542.789	93.94
543.002	92.94
543.216	86.94
543.43	80.94
543.644	101.94
543.857	86.94
544.071	68.94
544.285	80.94
544.498	92.94
544.712	83.94
544.925	99.94
545.139	87.94
545.352	85.94
545.566	89.94
545.779	87.94
545.993	95.94
546.206	84.94
546.42	82.94
546.633	73.94
546.847	82.94
547.06	84.94
547.274	84.94
547.487	89.94
547.7	91.94
547.914	80.94
548.127	94.94
548.34	81.94
548.554	93.94
548.767	99.94
548.98	95.94
549.193	86.94
549.407	71.94
549.62	86.94
549.833	84.94
550.046	84.94
550.259	67.94
550.473	79.94
550.686	78.94
550.899	83.94
551.112	103.94
551.325	80.94
551.538	91.94
551.751	82.94
551.964	76.94
552.177	86.94
552.39	82.94
552.603	82.94
552.816	80.94
553.029	83.94
553.242	83.94
553.455	92.94
553.667	90.94
553.88	85.94
554.093	90.94
554.306	97.94
554.519	77.94
554.732	92.94
554.944	77.94
555.157	82.94
555.37	84.94
555.583	62.94
555.795	91.94
556.008	82.94
556.221	86.94
556.433	77.94
556.646	88.94
556.859	80.94
557.071	83.94
557.284	71.94
557.496	84.94
557.709	78.94
557.921	88.94
558.134	74.94
558.346	78.94
558.559	81.94
558.771	81.94
558.984	89.94
559.196	80.94
559.409	95.94
559.621	85.94
559.833	85.94
560.046	74.94
560.258	90.94
560.47	84.94
560.683	78.94
560.895	84.94
561.107	86.94
561.32	75.94
561.532	85.94
561.744	86.94
561.956	70.94
562.168	87.94
562.381	91.94
562.593	70.94
562.805	78.94
563.017	68.94
563.229	75.94
563.441	91.94
563.653	82.94
563.865	77.94
564.077	71.94
564.289	91.94
564.501	95.94
564.713	83.94
564.925	89.94
565.137	93.94
565.349	90.94
565.561	88.94
565.773	78.94
565.985	82.94
566.197	89.94
566.408	82.94
566.62	99.94
566.832	94.94
567.044	71.94
567.255	76.94
567.467	80.94
567.679	80.94
567.891	83.94
568.102	78.94
568.314	69.94
568.526	85.94
568.737	92.94
568.949	91.94
569.161	86.94
569.372	91.94
569.584	88.94
569.795	81.94
570.007	93.94
570.218	83.94
570.43	84.94
570.641	80.94
570.853	84.94
571.064	87.94
571.276	71.94
571.487	72.94
571.698	77.94
571.91	90.94
572.121	81.94
572.333	96.94
572.544	82.94
572.755	87.94
572.966	70.94
573.178	78.94
573.389	80.94
573.6	83.94
573.811	92.94
574.023	92.94
574.234	93.94
574.445	84.94
574.656	79.94
574.867	83.94
575.078	86.94
575.289	80.94
575.501	100.94
575.712	82.94
575.923	75.94
576.134	82.94
576.345	77.94
576.556	94.94
576.767	101.94
576.978	72.94
577.188	66.94
577.399	75.94
577.61	82.94
577.821	92.94
578.032	68.94
578.243	94.94
578.454	86.94
578.665	92.94
578.875	87.94
579.086	87.94
579.297	85.94
579.508	80.94
579.718	79.94
579.929	91.94
580.14	93.94
580.35	103.94
580.561	92.94
580.772	80.94
580.982	82.94
581.193	81.94
581.403	100.94
581.614	90.94
581.825	75.94
582.035	73.94
582.246	88.94
582.456	72.94
582.667	81.94
582.877	90.94
583.087	92.94
583.298	77.94
583.508	112.94
583.719	84.94
583.929	86.94
584.139	84.94
584.35	75.94
584.56	83.94
584.77	81.94
584.981	98.94
585.191	90.94
585.401	82.94
585.611	87.94
585.821	82.94
586.032	93.94
586.242	71.94
586.452	76.94
586.662	82.94
586.872	82.94
587.082	86.94
587.292	90.94
587.502	92.94
587.713	79.94
587.923	92.94
588.133	90.94
588.343	83.94
588.553	90.94
588.762	90.94
588.972	95.94
589.182	81.94
589.392	82.94
589.602	79.94
589.812	66.94
590.022	87.94
590.232	91.94
590.441	90.94
590.651	60.94
590.861	68.94
591.071	66.94
591.281	91.94
591.49	95.94
591.7	95.94
591.91	93.94
592.119	78.94
592.329	83.94
592.539	90.94
592.748	97.94
592.958	83.94
593.167	83.94
593.377	90.94
593.587	103.94
593.796	88.94
594.006	78.94
594.215	92.94
594.424	78.94
594.634	88.94
594.843	74.94
595.053	92.94
595.262	71.94
595.472	82.94
595.681	68.94
595.89	86.94
596.1	90.94
596.309	83.94
596.518	82.94
596.727	86.94
596.937	85.94
597.146	73.94
597.355	91.94
597.564	96.94
597.774	91.94
597.983	82.94
598.192	77.94
598.401	68.94
598.61	90.94
598.819	83.94
599.028	99.94
599.237	83.94
599.446	85.94
599.655	88.94
599.864	80.94
600.073	88.94
600.282	83.94
600.491	84.94
600.7	78.94
600.909	89.94
601.118	85.94
601.327	83.94
601.536	76.94
601.745	81.94
601.953	72.94
602.162	86.94
602.371	92.94
602.58	83.94
602.789	82.94
602.997	96.94
603.206	82.94
603.415	90.94
603.623	87.94
603.832	80.94
604.041	97.94
604.249	85.94
604.458	84.94
604.666	85.94
604.875	78.94
605.084	89.94
605.292	82.94
605.501	91.94
605.709	71.94
605.918	90.94
606.126	82.94
606.334	88.94
606.543	97.94
606.751	93.94
606.96	84.94
607.168	99.94
607.376	92.94
607.585	76.94
607.793	94.94
608.001	90.94
608.21	81.94
608.418	90.94
608.626	90.94
608.834	90.94
609.043	68.94
609.251	68.94
609.459	83.94
609.667	90.94
609.875	66.94
610.083	78.94
610.291	87.94
610.499	78.94
610.707	77.94
610.916	78.94
611.124	87.94
611.332	80.94
611.54	91.94
611.748	96.94
611.955	84.94
612.163	90.94
612.371	81.94
612.579	77.94
612.787	92.94
612.995	83.94
613.203	94.94
613.411	76.94
613.618	74.94
613.826	94.94
614.034	74.94
614.242	75.94
614.449	78.94
614.657	98.94
614.865	95.94
615.072	80.94
615.28	81.94
615.488	87.94
615.695	76.94
615.903	85.94
616.111	88.94
616.318	82.94
616.526	72.94
616.733	75.94
616.941	86.94
617.148	76.94
617.356	60.94
617.563	82.94
617.771	83.94
617.978	89.94
618.185	89.94
618.393	80.94
618.6	72.94
618.807	79.94
619.015	84.94
619.222	85.94
619.429	84.94
619.637	90.94
619.844	86.94
620.051	80.94
620.258	90.94
620.466	90.94
620.673	85.94
620.88	86.94
621.087	81.94
621.294	83.94
621.501	85.94
621.708	91.94
621.915	89.94
622.122	90.94
622.329	83.94
622.536	87.94
622.743	78.94
622.95	79.94
623.157	73.94
623.364	85.94
623.571	96.94
623.778	85.94
623.985	88.94
624.192	83.94
624.399	77.94
624.606	93.94
624.812	71.94
625.019	84.94
625.226	82.94
625.433	82.94
625.639	87.94
625.846	81.94
626.053	80.94
626.259	96.94
626.466	82.94
626.673	61.94
626.879	87.94
627.086	80.94
627.293	74.94
627.499	82.94
627.706	73.94
627.912	80.94
628.119	76.94
628.325	94.94
628.532	80.94
628.738	68.94
628.945	83.94
629.151	88.94
629.357	81.94
629.564	82.94
629.77	96.94
629.976	92.94
630.183	89.94
630.389	85.94
630.595	70.94
630.802	82.94
631.008	72.94
631.214	70.94
631.42	98.94
631.627	85.94
631.833	93.94
632.039	80.94
632.245	85.94
632.451	82.94
632.657	84.94
632.863	90.94
633.069	69.94
633.275	82.94
633.481	76.94
633.688	75.94
633.893	90.94
634.099	90.94
634.305	108.94
634.511	82.94
634.717	86.94
634.923	74.94
635.129	86.94
635.335	94.94
635.541	70.94
635.747	80.94
635.952	86.94
636.158	84.94
636.364	79.94
636.57	77.94
636.775	77.94
636.981	75.94
637.187	79.94
637.392	86.94
637.598	89.94
637.804	79.94
638.009	84.94
638.215	82.94
638.421	92.94
638.626	95.94
638.832	98.94
639.037	83.94
639.243	86.94
639.448	79.94
639.654	82.94
639.859	89.94
640.065	99.94
640.27	94.94
640.475	81.94
640.681	80.94
640.886	99.94
641.091	83.94
641.297	92.94
641.502	62.94
641.707	74.94
641.913	82.94
642.118	84.94
642.323	82.94
642.528	85.94
642.733	88.94
642.939	92.94
643.144	88.94
643.349	85.94
643.554	98.94
643.759	87.94
643.964	82.94
644.169	83.94
644.374	85.94
644.579	83.94
644.784	80.94
644.989	81.94
645.194	83.94
645.399	87.94
645.604	97.94
645.809	78.94
646.014	92.94
646.219	90.94
646.423	83.94
646.628	74.94
646.833	87.94
647.038	80.94
647.243	80.94
647.447	81.94
647.652	75.94
647.857	84.94
648.062	72.94
648.266	91.94
648.471	74.94
648.676	87.94
648.88	96.94
649.085	74.94
649.289	71.94
649.494	80.94
649.698	77.94
649.903	98.94
650.107	80.94
650.312	92.94
650.516	86.94
650.721	82.94
650.925	82.94
651.13	88.94
651.334	72.94
651.539	94.94
651.743	73.94
651.947	98.94
652.152	76.94
652.356	74.94
652.56	91.94
652.764	90.94
652.969	74.94
653.173	92.94
653.377	73.94
653.581	78.94
653.785	80.94
653.99	71.94
654.194	88.94
654.398	83.94
654.602	89.94
654.806	96.94
655.01	87.94
655.214	70.94
655.418	83.94
655.622	81.94
655.826	84.94
656.03	83.94
656.234	87.94
656.438	87.94
656.642	80.94
656.846	82.94
657.049	99.94
657.253	70.94
657.457	76.94
657.661	79.94
657.865	88.94
658.068	82.94
658.272	90.94
658.476	87.94
658.68	73.94
658.883	87.94
659.087	74.94
659.291	83.94
659.494	87.94
659.698	90.94
659.901	82.94
660.105	82.94
660.309	78.94
660.512	75.94
660.716	101.94
660.919	84.94
661.123	94.94
661.326	74.94
661.53	77.94
661.733	82.94
661.936	90.94
662.14	84.94
662.343	62.94
662.546	74.94
662.75	80.94
662.953	86.94
663.156	90.94
663.36	69.94
663.563	85.94
663.766	85.94
663.969	63.94
664.173	88.94
664.376	87.94
664.579	100.94
664.782	89.94
664.985	76.94
665.188	80.94
665.391	88.94
665.594	81.94
665.797	74.94
666	88.94
666.203	55.94
666.406	84.94
666.609	81.94
666.812	83.94
667.015	85.94
667.218	84.94
667.421	91.94
667.624	84.94
667.827	92.94
668.03	76.94
668.232	72.94
668.435	81.94
668.638	76.94
668.841	73.94
669.043	86.94
669.246	76.94
669.449	69.94
669.651	72.94
669.854	90.94
670.057	85.94
670.259	75.94
670.462	86.94
670.665	80.94
670.867	87.94
671.07	83.94
671.272	91.94
671.475	90.94
671.677	87.94
671.88	84.94
672.082	95.94
672.284	76.94
672.487	78.94
672.689	88.94
672.892	76.94
