Data from Lead_5_2_HRD10591_00096.txt Node
Date: Fri Feb 20 11:10:34 EST 2026
User: Yrep
Spectrometer: HR+D1059
Trigger mode: 1
Integration Time (sec): 1.000000E-1
Scans to average: 1
Electric dark correction enabled: true
Nonlinearity correction enabled: false
Boxcar width: 0
XAxis mode: Wavelengths
Number of Pixels in Spectrum: 2048
>>>>>Begin Spectral Data<<<<<
223.165	-26.12
223.4	-26.12
223.635	-26.12
223.869	-13.12
224.104	-19.12
224.338	-23.12
224.573	-8.12
224.808	-7.12
225.042	-8.12
225.277	-9.12
225.511	-8.12
225.746	-7.12
225.98	15.88
226.215	12.88
226.449	4.88
226.683	29.88
226.918	35.88
227.152	29.88
227.387	25.88
227.621	31.88
227.856	48.88
228.09	41.88
228.324	41.88
228.559	47.88
228.793	66.88
229.027	59.88
229.262	58.88
229.496	54.88
229.73	71.88
229.964	66.88
230.199	84.88
230.433	75.88
230.667	71.88
230.901	77.88
231.136	84.88
231.37	77.88
231.604	79.88
231.838	81.88
232.072	67.88
232.306	80.88
232.541	71.88
232.775	76.88
233.009	75.88
233.243	80.88
233.477	77.88
233.711	78.88
233.945	86.88
234.179	75.88
234.413	87.88
234.647	70.88
234.881	73.88
235.115	81.88
235.349	83.88
235.583	65.88
235.817	73.88
236.051	82.88
236.285	79.88
236.519	68.88
236.753	64.88
236.987	59.88
237.221	89.88
237.455	70.88
237.689	77.88
237.922	58.88
238.156	68.88
238.39	77.88
238.624	78.88
238.858	81.88
239.091	65.88
239.325	86.88
239.559	66.88
239.793	89.88
240.027	76.88
240.26	69.88
240.494	97.88
240.728	68.88
240.961	70.88
241.195	76.88
241.429	68.88
241.662	67.88
241.896	67.88
242.13	79.88
242.363	74.88
242.597	67.88
242.83	71.88
243.064	81.88
243.298	63.88
243.531	74.88
243.765	80.88
243.998	62.88
244.232	70.88
244.465	88.88
244.699	75.88
244.932	74.88
245.166	86.88
245.399	74.88
245.633	84.88
245.866	71.88
246.099	76.88
246.333	82.88
246.566	75.88
246.8	75.88
247.033	72.88
247.266	62.88
247.5	62.88
247.733	83.88
247.966	76.88
248.2	79.88
248.433	67.88
248.666	80.88
248.899	86.88
249.133	67.88
249.366	71.88
249.599	65.88
249.832	65.88
250.066	73.88
250.299	82.88
250.532	86.88
250.765	66.88
250.998	73.88
251.231	70.88
251.465	71.88
251.698	81.88
251.931	77.88
252.164	63.88
252.397	74.88
252.63	82.88
252.863	88.88
253.096	82.88
253.329	77.88
253.562	67.88
253.795	74.88
254.028	77.88
254.261	79.88
254.494	69.88
254.727	86.88
254.96	80.88
255.193	74.88
255.426	75.88
255.659	70.88
255.892	91.88
256.124	94.88
256.357	69.88
256.59	68.88
256.823	75.88
257.056	97.88
257.289	89.88
257.521	82.88
257.754	78.88
257.987	89.88
258.22	89.88
258.452	74.88
258.685	70.88
258.918	74.88
259.151	85.88
259.383	86.88
259.616	82.88
259.849	94.88
260.081	87.88
260.314	90.88
260.547	82.88
260.779	63.88
261.012	84.88
261.244	97.88
261.477	85.88
261.71	73.88
261.942	94.88
262.175	82.88
262.407	80.88
262.64	77.88
262.872	72.88
263.105	77.88
263.337	88.88
263.57	81.88
263.802	80.88
264.035	84.88
264.267	75.88
264.499	83.88
264.732	89.88
264.964	77.88
265.197	72.88
265.429	78.88
265.661	86.88
265.894	75.88
266.126	96.88
266.358	99.88
266.591	88.88
266.823	77.88
267.055	71.88
267.287	88.88
267.52	82.88
267.752	87.88
267.984	80.88
268.216	87.88
268.448	80.88
268.681	87.88
268.913	81.88
269.145	75.88
269.377	77.88
269.609	88.88
269.841	80.88
270.073	72.88
270.306	76.88
270.538	74.88
270.77	76.88
271.002	75.88
271.234	87.88
271.466	80.88
271.698	66.88
271.93	85.88
272.162	76.88
272.394	91.88
272.626	83.88
272.858	86.88
273.09	88.88
273.322	78.88
273.553	87.88
273.785	84.88
274.017	76.88
274.249	77.88
274.481	62.88
274.713	86.88
274.945	84.88
275.176	70.88
275.408	79.88
275.64	73.88
275.872	66.88
276.104	83.88
276.335	69.88
276.567	80.88
276.799	84.88
277.031	79.88
277.262	82.88
277.494	79.88
277.726	78.88
277.957	82.88
278.189	91.88
278.421	78.88
278.652	85.88
278.884	87.88
279.115	70.88
279.347	89.88
279.579	71.88
279.81	86.88
280.042	76.88
280.273	68.88
280.505	73.88
280.736	68.88
280.968	84.88
281.199	83.88
281.431	81.88
281.662	91.88
281.894	78.88
282.125	78.88
282.356	75.88
282.588	78.88
282.819	78.88
283.051	86.88
283.282	83.88
283.513	86.88
283.745	96.88
283.976	77.88
284.207	82.88
284.439	80.88
284.67	70.88
284.901	89.88
285.132	83.88
285.364	83.88
285.595	63.88
285.826	80.88
286.057	88.88
286.288	75.88
286.52	92.88
286.751	79.88
286.982	96.88
287.213	79.88
287.444	92.88
287.675	74.88
287.906	74.88
288.138	74.88
288.369	88.88
288.6	92.88
288.831	83.88
289.062	77.88
289.293	74.88
289.524	84.88
289.755	89.88
289.986	75.88
290.217	80.88
290.448	77.88
290.679	80.88
290.91	86.88
291.141	78.88
291.371	71.88
291.602	86.88
291.833	80.88
292.064	83.88
292.295	80.88
292.526	87.88
292.757	70.88
292.987	76.88
293.218	73.88
293.449	92.88
293.68	86.88
293.91	90.88
294.141	83.88
294.372	75.88
294.603	87.88
294.833	71.88
295.064	71.88
295.295	71.88
295.525	75.88
295.756	81.88
295.987	90.88
296.217	77.88
296.448	82.88
296.679	90.88
296.909	90.88
297.14	90.88
297.37	88.88
297.601	77.88
297.831	86.88
298.062	94.88
298.292	92.88
298.523	81.88
298.753	84.88
298.984	72.88
299.214	86.88
299.445	69.88
299.675	91.88
299.905	87.88
300.136	108.88
300.366	78.88
300.597	91.88
300.827	77.88
301.057	77.88
301.288	100.88
301.518	83.88
301.748	76.88
301.979	113.88
302.209	86.88
302.439	93.88
302.669	79.88
302.9	87.88
303.13	83.88
303.36	81.88
303.59	80.88
303.82	75.88
304.051	86.88
304.281	91.88
304.511	97.88
304.741	64.88
304.971	72.88
305.201	82.88
305.431	76.88
305.661	78.88
305.891	74.88
306.121	78.88
306.352	90.88
306.582	90.88
306.812	83.88
307.042	89.88
307.272	80.88
307.502	84.88
307.731	75.88
307.961	71.88
308.191	87.88
308.421	88.88
308.651	89.88
308.881	80.88
309.111	68.88
309.341	76.88
309.571	80.88
309.8	93.88
310.03	74.88
310.26	75.88
310.49	86.88
310.72	86.88
310.949	64.88
311.179	83.88
311.409	68.88
311.639	72.88
311.868	87.88
312.098	84.88
312.328	91.88
312.557	100.88
312.787	80.88
313.017	83.88
313.246	88.88
313.476	79.88
313.706	88.88
313.935	79.88
314.165	71.88
314.394	82.88
314.624	86.88
314.853	89.88
315.083	76.88
315.312	74.88
315.542	90.88
315.771	84.88
316.001	73.88
316.23	98.88
316.46	81.88
316.689	86.88
316.919	79.88
317.148	91.88
317.377	93.88
317.607	82.88
317.836	86.88
318.065	90.88
318.295	86.88
318.524	87.88
318.753	83.88
318.983	82.88
319.212	76.88
319.441	85.88
319.67	69.88
319.9	89.88
320.129	80.88
320.358	88.88
320.587	90.88
320.816	81.88
321.046	85.88
321.275	82.88
321.504	78.88
321.733	76.88
321.962	77.88
322.191	80.88
322.42	76.88
322.649	74.88
322.878	81.88
323.108	90.88
323.337	81.88
323.566	84.88
323.795	88.88
324.024	96.88
324.253	94.88
324.482	92.88
324.71	80.88
324.939	88.88
325.168	82.88
325.397	84.88
325.626	91.88
325.855	86.88
326.084	94.88
326.313	82.88
326.542	83.88
326.77	86.88
326.999	77.88
327.228	81.88
327.457	76.88
327.686	81.88
327.914	74.88
328.143	84.88
328.372	85.88
328.6	82.88
328.829	96.88
329.058	70.88
329.287	76.88
329.515	87.88
329.744	76.88
329.972	76.88
330.201	74.88
330.43	75.88
330.658	85.88
330.887	81.88
331.115	90.88
331.344	88.88
331.572	94.88
331.801	78.88
332.03	82.88
332.258	81.88
332.486	80.88
332.715	82.88
332.943	73.88
333.172	86.88
333.4	74.88
333.629	83.88
333.857	82.88
334.085	75.88
334.314	75.88
334.542	70.88
334.771	87.88
334.999	78.88
335.227	66.88
335.455	86.88
335.684	94.88
335.912	86.88
336.14	74.88
336.369	88.88
336.597	78.88
336.825	78.88
337.053	76.88
337.281	73.88
337.51	63.88
337.738	86.88
337.966	76.88
338.194	80.88
338.422	84.88
338.65	83.88
338.878	74.88
339.106	84.88
339.334	84.88
339.562	86.88
339.79	91.88
340.018	69.88
340.246	80.88
340.474	75.88
340.702	86.88
340.93	102.88
341.158	72.88
341.386	70.88
341.614	84.88
341.842	76.88
342.07	87.88
342.298	90.88
342.526	82.88
342.754	84.88
342.981	72.88
343.209	73.88
343.437	95.88
343.665	97.88
343.893	79.88
344.12	90.88
344.348	62.88
344.576	79.88
344.804	77.88
345.031	74.88
345.259	80.88
345.487	72.88
345.714	91.88
345.942	81.88
346.17	97.88
346.397	99.88
346.625	72.88
346.853	79.88
347.08	85.88
347.308	82.88
347.535	75.88
347.763	98.88
347.99	84.88
348.218	78.88
348.445	91.88
348.673	89.88
348.9	79.88
349.128	80.88
349.355	90.88
349.583	79.88
349.81	94.88
350.037	68.88
350.265	75.88
350.492	78.88
350.72	84.88
350.947	76.88
351.174	84.88
351.402	79.88
351.629	76.88
351.856	85.88
352.083	69.88
352.311	91.88
352.538	84.88
352.765	76.88
352.992	90.88
353.22	74.88
353.447	75.88
353.674	72.88
353.901	83.88
354.128	93.88
354.355	92.88
354.583	76.88
354.81	81.88
355.037	82.88
355.264	69.88
355.491	82.88
355.718	78.88
355.945	73.88
356.172	88.88
356.399	91.88
356.626	87.88
356.853	81.88
357.08	70.88
357.307	89.88
357.534	81.88
357.761	67.88
357.988	83.88
358.215	83.88
358.441	88.88
358.668	91.88
358.895	70.88
359.122	73.88
359.349	71.88
359.576	88.88
359.802	76.88
360.029	83.88
360.256	82.88
360.483	77.88
360.709	66.88
360.936	82.88
361.163	81.88
361.39	74.88
361.616	75.88
361.843	81.88
362.07	81.88
362.296	81.88
362.523	87.88
362.749	77.88
362.976	86.88
363.203	83.88
363.429	79.88
363.656	77.88
363.882	72.88
364.109	76.88
364.335	70.88
364.562	68.88
364.788	98.88
365.015	84.88
365.241	86.88
365.468	77.88
365.694	73.88
365.92	70.88
366.147	86.88
366.373	69.88
366.599	72.88
366.826	83.88
367.052	76.88
367.278	90.88
367.505	83.88
367.731	91.88
367.957	83.88
368.184	72.88
368.41	67.88
368.636	83.88
368.862	79.88
369.089	96.88
369.315	73.88
369.541	75.88
369.767	56.88
369.993	74.88
370.219	78.88
370.445	72.88
370.672	76.88
370.898	76.88
371.124	75.88
371.35	71.88
371.576	63.88
371.802	79.88
372.028	82.88
372.254	80.88
372.48	87.88
372.706	89.88
372.932	79.88
373.158	81.88
373.384	74.88
373.61	74.88
373.835	86.88
374.061	67.88
374.287	72.88
374.513	81.88
374.739	76.88
374.965	82.88
375.191	83.88
375.416	81.88
375.642	84.88
375.868	78.88
376.094	64.88
376.319	86.88
376.545	80.88
376.771	77.88
376.997	81.88
377.222	85.88
377.448	83.88
377.674	86.88
377.899	76.88
378.125	70.88
378.35	75.88
378.576	78.88
378.802	73.88
379.027	75.88
379.253	64.88
379.478	98.88
379.704	68.88
379.929	71.88
380.155	79.88
380.38	82.88
380.606	84.88
380.831	62.88
381.057	97.88
381.282	74.88
381.507	84.88
381.733	82.88
381.958	70.88
382.184	66.88
382.409	82.88
382.634	70.88
382.86	61.88
383.085	81.88
383.31	76.88
383.535	91.88
383.761	86.88
383.986	91.88
384.211	82.88
384.436	81.88
384.662	89.88
384.887	77.88
385.112	76.88
385.337	87.88
385.562	85.88
385.787	75.88
386.013	86.88
386.238	85.88
386.463	73.88
386.688	96.88
386.913	88.88
387.138	81.88
387.363	71.88
387.588	74.88
387.813	83.88
388.038	82.88
388.263	89.88
388.488	85.88
388.713	75.88
388.938	86.88
389.163	99.88
389.387	62.88
389.612	70.88
389.837	90.88
390.062	74.88
390.287	78.88
390.512	88.88
390.736	78.88
390.961	77.88
391.186	87.88
391.411	80.88
391.636	83.88
391.86	67.88
392.085	78.88
392.31	73.88
392.534	73.88
392.759	76.88
392.984	74.88
393.208	76.88
393.433	83.88
393.658	85.88
393.882	85.88
394.107	75.88
394.331	76.88
394.556	69.88
394.78	90.88
395.005	84.88
395.229	81.88
395.454	76.88
395.678	72.88
395.903	79.88
396.127	73.88
396.352	74.88
396.576	75.88
396.801	65.88
397.025	88.88
397.249	69.88
397.474	84.88
397.698	82.88
397.922	88.88
398.147	90.88
398.371	77.88
398.595	70.88
398.82	64.88
399.044	72.88
399.268	72.88
399.492	95.88
399.717	86.88
399.941	91.88
400.165	78.88
400.389	89.88
400.613	76.88
400.837	88.88
401.062	68.88
401.286	65.88
401.51	87.88
401.734	74.88
401.958	83.88
402.182	84.88
402.406	85.88
402.63	85.88
402.854	82.88
403.078	76.88
403.302	82.88
403.526	80.88
403.75	69.88
403.974	85.88
404.198	92.88
404.422	67.88
404.645	74.88
404.869	101.88
405.093	75.88
405.317	90.88
405.541	89.88
405.765	83.88
405.988	79.88
406.212	84.88
406.436	95.88
406.66	69.88
406.883	74.88
407.107	85.88
407.331	72.88
407.555	72.88
407.778	86.88
408.002	74.88
408.226	76.88
408.449	78.88
408.673	84.88
408.896	90.88
409.12	78.88
409.344	73.88
409.567	78.88
409.791	78.88
410.014	70.88
410.238	81.88
410.461	84.88
410.685	81.88
410.908	76.88
411.132	69.88
411.355	78.88
411.578	84.88
411.802	87.88
412.025	61.88
412.249	84.88
412.472	84.88
412.695	71.88
412.919	71.88
413.142	85.88
413.365	75.88
413.589	78.88
413.812	75.88
414.035	80.88
414.258	74.88
414.482	82.88
414.705	74.88
414.928	67.88
415.151	82.88
415.374	81.88
415.597	90.88
415.821	81.88
416.044	86.88
416.267	81.88
416.49	74.88
416.713	87.88
416.936	82.88
417.159	88.88
417.382	81.88
417.605	80.88
417.828	87.88
418.051	62.88
418.274	74.88
418.497	78.88
418.72	70.88
418.943	75.88
419.166	74.88
419.389	78.88
419.611	86.88
419.834	70.88
420.057	79.88
420.28	74.88
420.503	82.88
420.726	70.88
420.948	80.88
421.171	74.88
421.394	97.88
421.617	73.88
421.839	89.88
422.062	70.88
422.285	86.88
422.507	77.88
422.73	81.88
422.953	69.88
423.175	60.88
423.398	83.88
423.621	84.88
423.843	66.88
424.066	80.88
424.288	73.88
424.511	84.88
424.733	81.88
424.956	76.88
425.178	99.88
425.401	83.88
425.623	87.88
425.846	76.88
426.068	85.88
426.291	80.88
426.513	82.88
426.735	82.88
426.958	73.88
427.18	89.88
427.402	79.88
427.625	81.88
427.847	90.88
428.069	72.88
428.292	85.88
428.514	85.88
428.736	84.88
428.958	62.88
429.181	72.88
429.403	87.88
429.625	92.88
429.847	79.88
430.069	85.88
430.292	83.88
430.514	76.88
430.736	88.88
430.958	75.88
431.18	68.88
431.402	64.88
431.624	80.88
431.846	87.88
432.068	81.88
432.29	66.88
432.512	74.88
432.734	76.88
432.956	73.88
433.178	82.88
433.4	83.88
433.622	89.88
433.844	77.88
434.066	64.88
434.287	73.88
434.509	72.88
434.731	73.88
434.953	66.88
435.175	83.88
435.397	86.88
435.618	66.88
435.84	88.88
436.062	68.88
436.284	89.88
436.505	83.88
436.727	72.88
436.949	73.88
437.17	90.88
437.392	72.88
437.614	74.88
437.835	98.88
438.057	71.88
438.278	84.88
438.5	83.88
438.721	86.88
438.943	66.88
439.165	82.88
439.386	84.88
439.608	67.88
439.829	87.88
440.05	55.88
440.272	74.88
440.493	74.88
440.715	85.88
440.936	80.88
441.158	76.88
441.379	92.88
441.6	82.88
441.822	82.88
442.043	70.88
442.264	58.88
442.486	82.88
442.707	79.88
442.928	80.88
443.149	73.88
443.371	76.88
443.592	74.88
443.813	98.88
444.034	79.88
444.255	75.88
444.476	82.88
444.698	77.88
444.919	86.88
445.14	156.88
445.361	123.88
445.582	77.88
445.803	80.88
446.024	68.88
446.245	92.88
446.466	97.88
446.687	80.88
446.908	80.88
447.129	87.88
447.35	90.88
447.571	84.88
447.792	78.88
448.013	74.88
448.234	79.88
448.455	77.88
448.675	76.88
448.896	77.88
449.117	93.88
449.338	76.88
449.559	86.88
449.779	68.88
450	74.88
450.221	81.88
450.442	77.88
450.662	90.88
450.883	83.88
451.104	88.88
451.324	77.88
451.545	81.88
451.766	95.88
451.986	85.88
452.207	74.88
452.428	89.88
452.648	99.88
452.869	75.88
453.089	72.88
453.31	85.88
453.53	80.88
453.751	92.88
453.971	79.88
454.192	76.88
454.412	78.88
454.633	72.88
454.853	78.88
455.073	88.88
455.294	92.88
455.514	69.88
455.734	67.88
455.955	80.88
456.175	74.88
456.395	83.88
456.616	90.88
456.836	70.88
457.056	96.88
457.276	82.88
457.497	83.88
457.717	81.88
457.937	86.88
458.157	64.88
458.377	88.88
458.598	77.88
458.818	88.88
459.038	66.88
459.258	79.88
459.478	73.88
459.698	84.88
459.918	88.88
460.138	81.88
460.358	66.88
460.578	90.88
460.798	95.88
461.018	77.88
461.238	75.88
461.458	76.88
461.678	70.88
461.898	74.88
462.118	64.88
462.338	79.88
462.558	86.88
462.777	88.88
462.997	72.88
463.217	89.88
463.437	82.88
463.657	72.88
463.876	82.88
464.096	80.88
464.316	96.88
464.536	95.88
464.755	80.88
464.975	80.88
465.195	78.88
465.414	79.88
465.634	75.88
465.854	80.88
466.073	82.88
466.293	77.88
466.512	81.88
466.732	80.88
466.951	70.88
467.171	68.88
467.391	77.88
467.61	83.88
467.829	71.88
468.049	75.88
468.268	75.88
468.488	88.88
468.707	79.88
468.927	80.88
469.146	80.88
469.365	81.88
469.585	78.88
469.804	91.88
470.023	89.88
470.243	69.88
470.462	88.88
470.681	68.88
470.901	74.88
471.12	75.88
471.339	83.88
471.558	88.88
471.777	71.88
471.997	80.88
472.216	77.88
472.435	73.88
472.654	75.88
472.873	91.88
473.092	80.88
473.311	84.88
473.53	70.88
473.749	90.88
473.968	83.88
474.187	83.88
474.406	67.88
474.625	79.88
474.844	82.88
475.063	75.88
475.282	88.88
475.501	96.88
475.72	72.88
475.939	91.88
476.158	83.88
476.377	96.88
476.596	79.88
476.814	88.88
477.033	80.88
477.252	79.88
477.471	86.88
477.69	73.88
477.908	79.88
478.127	70.88
478.346	84.88
478.564	86.88
478.783	86.88
479.002	77.88
479.22	81.88
479.439	83.88
479.658	74.88
479.876	84.88
480.095	80.88
480.313	70.88
480.532	84.88
480.751	86.88
480.969	79.88
481.188	66.88
481.406	71.88
481.624	86.88
481.843	84.88
482.061	103.88
482.28	95.88
482.498	86.88
482.717	76.88
482.935	88.88
483.153	92.88
483.372	92.88
483.59	72.88
483.808	78.88
484.027	94.88
484.245	91.88
484.463	66.88
484.681	76.88
484.9	72.88
485.118	85.88
485.336	71.88
485.554	76.88
485.772	86.88
485.99	82.88
486.209	80.88
486.427	72.88
486.645	86.88
486.863	79.88
487.081	84.88
487.299	78.88
487.517	76.88
487.735	85.88
487.953	80.88
488.171	90.88
488.389	74.88
488.607	70.88
488.825	68.88
489.043	74.88
489.261	80.88
489.479	80.88
489.696	73.88
489.914	70.88
490.132	74.88
490.35	86.88
490.568	76.88
490.786	74.88
491.003	76.88
491.221	87.88
491.439	84.88
491.657	80.88
491.874	84.88
492.092	77.88
492.31	90.88
492.527	94.88
492.745	69.88
492.963	78.88
493.18	84.88
493.398	71.88
493.615	87.88
493.833	76.88
494.05	76.88
494.268	88.88
494.485	75.88
494.703	93.88
494.92	87.88
495.138	91.88
495.355	94.88
495.573	88.88
495.79	79.88
496.008	81.88
496.225	84.88
496.442	80.88
496.66	96.88
496.877	100.88
497.094	90.88
497.312	75.88
497.529	82.88
497.746	70.88
497.963	78.88
498.181	77.88
498.398	72.88
498.615	82.88
498.832	81.88
499.049	91.88
499.267	88.88
499.484	79.88
499.701	81.88
499.918	73.88
500.135	86.88
500.352	87.88
500.569	62.88
500.786	79.88
501.003	87.88
501.22	76.88
501.437	83.88
501.654	68.88
501.871	78.88
502.088	73.88
502.305	87.88
502.522	86.88
502.739	84.88
502.956	93.88
503.172	77.88
503.389	71.88
503.606	66.88
503.823	78.88
504.04	83.88
504.256	66.88
504.473	59.88
504.69	80.88
504.907	84.88
505.123	97.88
505.34	76.88
505.557	75.88
505.773	86.88
505.99	75.88
506.207	79.88
506.423	84.88
506.64	104.88
506.856	88.88
507.073	71.88
507.289	83.88
507.506	83.88
507.722	87.88
507.939	80.88
508.155	79.88
508.372	74.88
508.588	75.88
508.805	79.88
509.021	95.88
509.238	67.88
509.454	90.88
509.67	75.88
509.887	77.88
510.103	79.88
510.319	81.88
510.536	81.88
510.752	76.88
510.968	81.88
511.184	88.88
511.401	72.88
511.617	83.88
511.833	75.88
512.049	84.88
512.265	58.88
512.481	84.88
512.698	90.88
512.914	77.88
513.13	82.88
513.346	79.88
513.562	96.88
513.778	74.88
513.994	82.88
514.21	91.88
514.426	76.88
514.642	84.88
514.858	86.88
515.074	76.88
515.29	76.88
515.506	96.88
515.721	88.88
515.937	72.88
516.153	78.88
516.369	82.88
516.585	70.88
516.801	89.88
517.016	89.88
517.232	82.88
517.448	87.88
517.664	73.88
517.879	70.88
518.095	94.88
518.311	85.88
518.527	70.88
518.742	81.88
518.958	61.88
519.173	96.88
519.389	105.88
519.605	92.88
519.82	84.88
520.036	82.88
520.251	72.88
520.467	84.88
520.682	88.88
520.898	89.88
521.113	73.88
521.329	62.88
521.544	80.88
521.76	88.88
521.975	96.88
522.19	87.88
522.406	81.88
522.621	84.88
522.836	80.88
523.052	89.88
523.267	86.88
523.482	80.88
523.698	81.88
523.913	74.88
524.128	72.88
524.343	74.88
524.559	79.88
524.774	80.88
524.989	96.88
525.204	87.88
525.419	88.88
525.634	97.88
525.849	82.88
526.064	76.88
526.28	100.88
526.495	80.88
526.71	76.88
526.925	70.88
527.14	76.88
527.355	69.88
527.57	78.88
527.785	78.88
527.999	67.88
528.214	79.88
528.429	74.88
528.644	74.88
528.859	71.88
529.074	81.88
529.289	89.88
529.503	66.88
529.718	76.88
529.933	89.88
530.148	81.88
530.363	84.88
530.577	72.88
530.792	83.88
531.007	98.88
531.221	72.88
531.436	83.88
531.651	91.88
531.865	69.88
532.08	82.88
532.295	92.88
532.509	77.88
532.724	97.88
532.938	68.88
533.153	68.88
533.367	76.88
533.582	80.88
533.796	71.88
534.011	90.88
534.225	88.88
534.44	66.88
534.654	75.88
534.868	76.88
535.083	81.88
535.297	88.88
535.511	88.88
535.726	74.88
535.94	74.88
536.154	68.88
536.369	84.88
536.583	86.88
536.797	91.88
537.011	79.88
537.225	73.88
537.44	82.88
537.654	95.88
537.868	84.88
538.082	82.88
538.296	98.88
538.51	89.88
538.724	86.88
538.938	90.88
539.153	88.88
539.367	89.88
539.581	80.88
539.795	75.88
540.009	91.88
540.222	87.88
540.436	79.88
540.65	70.88
540.864	75.88
541.078	76.88
541.292	81.88
541.506	91.88
541.72	76.88
541.934	91.88
542.147	105.88
542.361	80.88
542.575	76.88
542.789	81.88
543.002	79.88
543.216	87.88
543.43	82.88
543.644	84.88
543.857	80.88
544.071	80.88
544.285	90.88
544.498	89.88
544.712	73.88
544.925	84.88
545.139	80.88
545.352	76.88
545.566	84.88
545.779	79.88
545.993	91.88
546.206	71.88
546.42	73.88
546.633	95.88
546.847	78.88
547.06	82.88
547.274	72.88
547.487	83.88
547.7	82.88
547.914	93.88
548.127	85.88
548.34	99.88
548.554	69.88
548.767	89.88
548.98	97.88
549.193	70.88
549.407	80.88
549.62	91.88
549.833	85.88
550.046	90.88
550.259	75.88
550.473	82.88
550.686	80.88
550.899	89.88
551.112	97.88
551.325	84.88
551.538	80.88
551.751	98.88
551.964	76.88
552.177	88.88
552.39	84.88
552.603	81.88
552.816	79.88
553.029	76.88
553.242	84.88
553.455	87.88
553.667	86.88
553.88	82.88
554.093	71.88
554.306	86.88
554.519	84.88
554.732	87.88
554.944	80.88
555.157	80.88
555.37	92.88
555.583	87.88
555.795	87.88
556.008	85.88
556.221	83.88
556.433	87.88
556.646	80.88
556.859	75.88
557.071	75.88
557.284	96.88
557.496	80.88
557.709	85.88
557.921	94.88
558.134	80.88
558.346	71.88
558.559	79.88
558.771	70.88
558.984	62.88
559.196	76.88
559.409	87.88
559.621	88.88
559.833	92.88
560.046	82.88
560.258	70.88
560.47	62.88
560.683	64.88
560.895	78.88
561.107	93.88
561.32	93.88
561.532	84.88
561.744	81.88
561.956	96.88
562.168	90.88
562.381	94.88
562.593	88.88
562.805	79.88
563.017	80.88
563.229	95.88
563.441	81.88
563.653	81.88
563.865	87.88
564.077	69.88
564.289	86.88
564.501	80.88
564.713	66.88
564.925	84.88
565.137	71.88
565.349	77.88
565.561	91.88
565.773	80.88
565.985	85.88
566.197	88.88
566.408	87.88
566.62	80.88
566.832	85.88
567.044	84.88
567.255	86.88
567.467	94.88
567.679	96.88
567.891	73.88
568.102	83.88
568.314	83.88
568.526	88.88
568.737	85.88
568.949	78.88
569.161	89.88
569.372	88.88
569.584	80.88
569.795	74.88
570.007	88.88
570.218	91.88
570.43	72.88
570.641	83.88
570.853	83.88
571.064	75.88
571.276	81.88
571.487	93.88
571.698	70.88
571.91	82.88
572.121	87.88
572.333	70.88
572.544	81.88
572.755	94.88
572.966	74.88
573.178	70.88
573.389	88.88
573.6	65.88
573.811	86.88
574.023	78.88
574.234	78.88
574.445	77.88
574.656	83.88
574.867	72.88
575.078	72.88
575.289	80.88
575.501	78.88
575.712	88.88
575.923	79.88
576.134	79.88
576.345	84.88
576.556	89.88
576.767	92.88
576.978	81.88
577.188	76.88
577.399	89.88
577.61	88.88
577.821	73.88
578.032	65.88
578.243	74.88
578.454	85.88
578.665	89.88
578.875	69.88
579.086	84.88
579.297	65.88
579.508	84.88
579.718	76.88
579.929	87.88
580.14	82.88
580.35	90.88
580.561	79.88
580.772	78.88
580.982	79.88
581.193	91.88
581.403	92.88
581.614	102.88
581.825	82.88
582.035	82.88
582.246	71.88
582.456	86.88
582.667	80.88
582.877	95.88
583.087	71.88
583.298	90.88
583.508	79.88
583.719	84.88
583.929	86.88
584.139	80.88
584.35	74.88
584.56	79.88
584.77	88.88
584.981	80.88
585.191	77.88
585.401	80.88
585.611	82.88
585.821	74.88
586.032	79.88
586.242	73.88
586.452	81.88
586.662	96.88
586.872	80.88
587.082	87.88
587.292	85.88
587.502	79.88
587.713	82.88
587.923	91.88
588.133	86.88
588.343	90.88
588.553	87.88
588.762	94.88
588.972	97.88
589.182	78.88
589.392	82.88
589.602	75.88
589.812	86.88
590.022	88.88
590.232	96.88
590.441	81.88
590.651	80.88
590.861	78.88
591.071	77.88
591.281	83.88
591.49	67.88
591.7	79.88
591.91	73.88
592.119	74.88
592.329	73.88
592.539	87.88
592.748	87.88
592.958	82.88
593.167	74.88
593.377	65.88
593.587	92.88
593.796	91.88
594.006	84.88
594.215	68.88
594.424	83.88
594.634	86.88
594.843	90.88
595.053	75.88
595.262	82.88
595.472	77.88
595.681	82.88
595.89	64.88
596.1	86.88
596.309	91.88
596.518	94.88
596.727	92.88
596.937	60.88
597.146	64.88
597.355	84.88
597.564	103.88
597.774	77.88
597.983	76.88
598.192	94.88
598.401	81.88
598.61	76.88
598.819	90.88
599.028	91.88
599.237	73.88
599.446	80.88
599.655	84.88
599.864	86.88
600.073	90.88
600.282	101.88
600.491	83.88
600.7	90.88
600.909	79.88
601.118	70.88
601.327	87.88
601.536	83.88
601.745	77.88
601.953	86.88
602.162	75.88
602.371	82.88
602.58	77.88
602.789	74.88
602.997	92.88
603.206	84.88
603.415	82.88
603.623	83.88
603.832	76.88
604.041	75.88
604.249	64.88
604.458	90.88
604.666	86.88
604.875	77.88
605.084	76.88
605.292	76.88
605.501	76.88
605.709	86.88
605.918	88.88
606.126	80.88
606.334	92.88
606.543	94.88
606.751	71.88
606.96	72.88
607.168	70.88
607.376	79.88
607.585	90.88
607.793	66.88
608.001	92.88
608.21	77.88
608.418	72.88
608.626	78.88
608.834	96.88
609.043	85.88
609.251	89.88
609.459	77.88
609.667	83.88
609.875	77.88
610.083	75.88
610.291	73.88
610.499	87.88
610.707	98.88
610.916	82.88
611.124	98.88
611.332	79.88
611.54	82.88
611.748	81.88
611.955	86.88
612.163	76.88
612.371	86.88
612.579	96.88
612.787	84.88
612.995	88.88
613.203	99.88
613.411	79.88
613.618	92.88
613.826	91.88
614.034	88.88
614.242	81.88
614.449	90.88
614.657	77.88
614.865	78.88
615.072	93.88
615.28	75.88
615.488	72.88
615.695	69.88
615.903	80.88
616.111	88.88
616.318	86.88
616.526	81.88
616.733	90.88
616.941	86.88
617.148	89.88
617.356	79.88
617.563	78.88
617.771	75.88
617.978	78.88
618.185	94.88
618.393	76.88
618.6	86.88
618.807	94.88
619.015	78.88
619.222	72.88
619.429	94.88
619.637	83.88
619.844	87.88
620.051	62.88
620.258	71.88
620.466	85.88
620.673	81.88
620.88	77.88
621.087	83.88
621.294	86.88
621.501	78.88
621.708	76.88
621.915	73.88
622.122	76.88
622.329	77.88
622.536	95.88
622.743	74.88
622.95	80.88
623.157	86.88
623.364	84.88
623.571	87.88
623.778	78.88
623.985	93.88
624.192	76.88
624.399	82.88
624.606	88.88
624.812	63.88
625.019	90.88
625.226	83.88
625.433	87.88
625.639	76.88
625.846	87.88
626.053	82.88
626.259	74.88
626.466	74.88
626.673	82.88
626.879	84.88
627.086	90.88
627.293	83.88
627.499	93.88
627.706	76.88
627.912	84.88
628.119	83.88
628.325	88.88
628.532	77.88
628.738	72.88
628.945	80.88
629.151	86.88
629.357	90.88
629.564	81.88
629.77	84.88
629.976	87.88
630.183	90.88
630.389	84.88
630.595	82.88
630.802	67.88
631.008	75.88
631.214	78.88
631.42	88.88
631.627	71.88
631.833	71.88
632.039	88.88
632.245	80.88
632.451	91.88
632.657	79.88
632.863	74.88
633.069	84.88
633.275	99.88
633.481	74.88
633.688	80.88
633.893	87.88
634.099	97.88
634.305	82.88
634.511	71.88
634.717	88.88
634.923	76.88
635.129	76.88
635.335	80.88
635.541	73.88
635.747	80.88
635.952	82.88
636.158	83.88
636.364	85.88
636.57	87.88
636.775	83.88
636.981	83.88
637.187	102.88
637.392	76.88
637.598	84.88
637.804	90.88
638.009	75.88
638.215	81.88
638.421	76.88
638.626	71.88
638.832	80.88
639.037	77.88
639.243	77.88
639.448	84.88
639.654	89.88
639.859	89.88
640.065	67.88
640.27	92.88
640.475	90.88
640.681	62.88
640.886	83.88
641.091	70.88
641.297	90.88
641.502	82.88
641.707	87.88
641.913	74.88
642.118	70.88
642.323	94.88
642.528	88.88
642.733	81.88
642.939	77.88
643.144	96.88
643.349	69.88
643.554	87.88
643.759	67.88
643.964	94.88
644.169	79.88
644.374	84.88
644.579	77.88
644.784	70.88
644.989	91.88
645.194	74.88
645.399	85.88
645.604	77.88
645.809	76.88
646.014	68.88
646.219	80.88
646.423	81.88
646.628	84.88
646.833	87.88
647.038	86.88
647.243	67.88
647.447	82.88
647.652	99.88
647.857	76.88
648.062	86.88
648.266	73.88
648.471	76.88
648.676	90.88
648.88	78.88
649.085	77.88
649.289	77.88
649.494	70.88
649.698	82.88
649.903	74.88
650.107	86.88
650.312	72.88
650.516	80.88
650.721	97.88
650.925	82.88
651.13	85.88
651.334	77.88
651.539	84.88
651.743	68.88
651.947	86.88
652.152	75.88
652.356	78.88
652.56	80.88
652.764	73.88
652.969	88.88
653.173	97.88
653.377	83.88
653.581	90.88
653.785	82.88
653.99	80.88
654.194	78.88
654.398	77.88
654.602	87.88
654.806	75.88
655.01	91.88
655.214	78.88
655.418	83.88
655.622	81.88
655.826	80.88
656.03	78.88
656.234	73.88
656.438	78.88
656.642	74.88
656.846	75.88
657.049	69.88
657.253	80.88
657.457	75.88
657.661	84.88
657.865	76.88
658.068	72.88
658.272	86.88
658.476	88.88
658.68	81.88
658.883	82.88
659.087	75.88
659.291	84.88
659.494	88.88
659.698	79.88
659.901	76.88
660.105	86.88
660.309	84.88
660.512	66.88
660.716	87.88
660.919	82.88
661.123	80.88
661.326	76.88
661.53	84.88
661.733	84.88
661.936	90.88
662.14	84.88
662.343	79.88
662.546	75.88
662.75	88.88
662.953	73.88
663.156	78.88
663.36	70.88
663.563	85.88
663.766	88.88
663.969	80.88
664.173	79.88
664.376	80.88
664.579	66.88
664.782	74.88
664.985	85.88
665.188	83.88
665.391	70.88
665.594	68.88
665.797	83.88
666	79.88
666.203	80.88
666.406	85.88
666.609	92.88
666.812	82.88
667.015	79.88
667.218	84.88
667.421	83.88
667.624	80.88
667.827	90.88
668.03	78.88
668.232	79.88
668.435	75.88
668.638	76.88
668.841	73.88
669.043	67.88
669.246	60.88
669.449	71.88
669.651	71.88
669.854	86.88
670.057	68.88
670.259	69.88
670.462	82.88
670.665	72.88
670.867	77.88
671.07	85.88
671.272	82.88
671.475	72.88
671.677	75.88
671.88	88.88
672.082	74.88
672.284	91.88
672.487	84.88
672.689	82.88
672.892	72.88
