Data from Lead_5_2_HRD10591_00030.txt Node
Date: Fri Feb 20 11:10:12 EST 2026
User: Yrep
Spectrometer: HR+D1059
Trigger mode: 1
Integration Time (sec): 1.000000E-1
Scans to average: 1
Electric dark correction enabled: true
Nonlinearity correction enabled: false
Boxcar width: 0
XAxis mode: Wavelengths
Number of Pixels in Spectrum: 2048
>>>>>Begin Spectral Data<<<<<
223.165	-1.81
223.4	-1.81
223.635	-1.81
223.869	-24.81
224.104	-18.81
224.338	-5.81
224.573	-19.81
224.808	-22.81
225.042	-1.81
225.277	-13.81
225.511	4.19
225.746	3.19
225.98	-1.81
226.215	3.19
226.449	13.19
226.683	22.19
226.918	30.19
227.152	35.19
227.387	26.19
227.621	27.19
227.856	46.19
228.09	49.19
228.324	44.19
228.559	52.19
228.793	46.19
229.027	64.19
229.262	46.19
229.496	73.19
229.73	60.19
229.964	72.19
230.199	64.19
230.433	68.19
230.667	79.19
230.901	77.19
231.136	68.19
231.37	68.19
231.604	77.19
231.838	74.19
232.072	99.19
232.306	70.19
232.541	75.19
232.775	97.19
233.009	92.19
233.243	77.19
233.477	69.19
233.711	79.19
233.945	77.19
234.179	83.19
234.413	72.19
234.647	65.19
234.881	74.19
235.115	71.19
235.349	65.19
235.583	77.19
235.817	79.19
236.051	88.19
236.285	80.19
236.519	64.19
236.753	72.19
236.987	69.19
237.221	69.19
237.455	85.19
237.689	76.19
237.922	71.19
238.156	83.19
238.39	67.19
238.624	87.19
238.858	79.19
239.091	88.19
239.325	69.19
239.559	73.19
239.793	72.19
240.027	77.19
240.26	81.19
240.494	76.19
240.728	71.19
240.961	70.19
241.195	77.19
241.429	69.19
241.662	61.19
241.896	81.19
242.13	79.19
242.363	74.19
242.597	82.19
242.83	74.19
243.064	73.19
243.298	85.19
243.531	68.19
243.765	57.19
243.998	83.19
244.232	83.19
244.465	61.19
244.699	68.19
244.932	76.19
245.166	50.19
245.399	81.19
245.633	73.19
245.866	77.19
246.099	64.19
246.333	86.19
246.566	69.19
246.8	63.19
247.033	75.19
247.266	72.19
247.5	82.19
247.733	68.19
247.966	89.19
248.2	61.19
248.433	74.19
248.666	75.19
248.899	79.19
249.133	77.19
249.366	87.19
249.599	76.19
249.832	81.19
250.066	87.19
250.299	67.19
250.532	73.19
250.765	89.19
250.998	79.19
251.231	81.19
251.465	76.19
251.698	84.19
251.931	73.19
252.164	77.19
252.397	83.19
252.63	64.19
252.863	90.19
253.096	76.19
253.329	76.19
253.562	79.19
253.795	66.19
254.028	72.19
254.261	91.19
254.494	83.19
254.727	69.19
254.96	73.19
255.193	67.19
255.426	63.19
255.659	81.19
255.892	93.19
256.124	76.19
256.357	80.19
256.59	77.19
256.823	65.19
257.056	74.19
257.289	77.19
257.521	89.19
257.754	88.19
257.987	65.19
258.22	63.19
258.452	74.19
258.685	73.19
258.918	73.19
259.151	75.19
259.383	74.19
259.616	68.19
259.849	79.19
260.081	80.19
260.314	82.19
260.547	62.19
260.779	86.19
261.012	75.19
261.244	77.19
261.477	88.19
261.71	86.19
261.942	74.19
262.175	65.19
262.407	75.19
262.64	87.19
262.872	74.19
263.105	93.19
263.337	89.19
263.57	78.19
263.802	72.19
264.035	79.19
264.267	84.19
264.499	89.19
264.732	74.19
264.964	77.19
265.197	69.19
265.429	71.19
265.661	84.19
265.894	85.19
266.126	80.19
266.358	79.19
266.591	84.19
266.823	87.19
267.055	67.19
267.287	75.19
267.52	89.19
267.752	73.19
267.984	83.19
268.216	88.19
268.448	93.19
268.681	83.19
268.913	75.19
269.145	73.19
269.377	87.19
269.609	82.19
269.841	82.19
270.073	87.19
270.306	79.19
270.538	85.19
270.77	83.19
271.002	84.19
271.234	73.19
271.466	81.19
271.698	81.19
271.93	69.19
272.162	88.19
272.394	78.19
272.626	64.19
272.858	79.19
273.09	83.19
273.322	66.19
273.553	72.19
273.785	85.19
274.017	85.19
274.249	89.19
274.481	85.19
274.713	65.19
274.945	75.19
275.176	72.19
275.408	91.19
275.64	89.19
275.872	81.19
276.104	87.19
276.335	79.19
276.567	68.19
276.799	96.19
277.031	93.19
277.262	88.19
277.494	73.19
277.726	86.19
277.957	75.19
278.189	87.19
278.421	84.19
278.652	87.19
278.884	84.19
279.115	73.19
279.347	81.19
279.579	75.19
279.81	84.19
280.042	71.19
280.273	72.19
280.505	94.19
280.736	84.19
280.968	78.19
281.199	80.19
281.431	83.19
281.662	84.19
281.894	80.19
282.125	77.19
282.356	81.19
282.588	78.19
282.819	73.19
283.051	89.19
283.282	86.19
283.513	85.19
283.745	81.19
283.976	83.19
284.207	88.19
284.439	77.19
284.67	78.19
284.901	85.19
285.132	91.19
285.364	84.19
285.595	82.19
285.826	60.19
286.057	71.19
286.288	63.19
286.52	76.19
286.751	71.19
286.982	70.19
287.213	78.19
287.444	97.19
287.675	80.19
287.906	71.19
288.138	76.19
288.369	95.19
288.6	80.19
288.831	71.19
289.062	86.19
289.293	91.19
289.524	79.19
289.755	77.19
289.986	84.19
290.217	82.19
290.448	90.19
290.679	85.19
290.91	92.19
291.141	75.19
291.371	72.19
291.602	63.19
291.833	74.19
292.064	80.19
292.295	71.19
292.526	75.19
292.757	90.19
292.987	86.19
293.218	89.19
293.449	95.19
293.68	87.19
293.91	71.19
294.141	87.19
294.372	74.19
294.603	88.19
294.833	88.19
295.064	84.19
295.295	91.19
295.525	83.19
295.756	76.19
295.987	92.19
296.217	89.19
296.448	77.19
296.679	74.19
296.909	80.19
297.14	73.19
297.37	81.19
297.601	82.19
297.831	83.19
298.062	79.19
298.292	93.19
298.523	88.19
298.753	81.19
298.984	84.19
299.214	87.19
299.445	84.19
299.675	82.19
299.905	98.19
300.136	81.19
300.366	95.19
300.597	98.19
300.827	76.19
301.057	80.19
301.288	87.19
301.518	83.19
301.748	79.19
301.979	95.19
302.209	86.19
302.439	83.19
302.669	88.19
302.9	66.19
303.13	75.19
303.36	75.19
303.59	72.19
303.82	97.19
304.051	89.19
304.281	86.19
304.511	84.19
304.741	90.19
304.971	86.19
305.201	71.19
305.431	87.19
305.661	85.19
305.891	78.19
306.121	86.19
306.352	74.19
306.582	80.19
306.812	71.19
307.042	63.19
307.272	79.19
307.502	82.19
307.731	78.19
307.961	80.19
308.191	91.19
308.421	78.19
308.651	73.19
308.881	83.19
309.111	81.19
309.341	81.19
309.571	91.19
309.8	77.19
310.03	75.19
310.26	77.19
310.49	82.19
310.72	103.19
310.949	81.19
311.179	85.19
311.409	68.19
311.639	71.19
311.868	83.19
312.098	87.19
312.328	71.19
312.557	85.19
312.787	71.19
313.017	75.19
313.246	76.19
313.476	83.19
313.706	82.19
313.935	82.19
314.165	77.19
314.394	81.19
314.624	86.19
314.853	92.19
315.083	83.19
315.312	76.19
315.542	84.19
315.771	83.19
316.001	88.19
316.23	79.19
316.46	85.19
316.689	83.19
316.919	86.19
317.148	75.19
317.377	80.19
317.607	79.19
317.836	76.19
318.065	91.19
318.295	95.19
318.524	73.19
318.753	83.19
318.983	89.19
319.212	80.19
319.441	78.19
319.67	73.19
319.9	87.19
320.129	89.19
320.358	76.19
320.587	83.19
320.816	65.19
321.046	85.19
321.275	70.19
321.504	89.19
321.733	81.19
321.962	61.19
322.191	72.19
322.42	88.19
322.649	86.19
322.878	96.19
323.108	88.19
323.337	88.19
323.566	64.19
323.795	59.19
324.024	80.19
324.253	75.19
324.482	91.19
324.71	86.19
324.939	71.19
325.168	98.19
325.397	94.19
325.626	77.19
325.855	83.19
326.084	79.19
326.313	88.19
326.542	70.19
326.77	74.19
326.999	85.19
327.228	69.19
327.457	93.19
327.686	88.19
327.914	81.19
328.143	82.19
328.372	91.19
328.6	74.19
328.829	78.19
329.058	66.19
329.287	89.19
329.515	68.19
329.744	90.19
329.972	83.19
330.201	91.19
330.43	91.19
330.658	102.19
330.887	79.19
331.115	80.19
331.344	89.19
331.572	86.19
331.801	78.19
332.03	84.19
332.258	95.19
332.486	87.19
332.715	83.19
332.943	86.19
333.172	78.19
333.4	81.19
333.629	79.19
333.857	88.19
334.085	78.19
334.314	70.19
334.542	85.19
334.771	74.19
334.999	77.19
335.227	81.19
335.455	78.19
335.684	73.19
335.912	76.19
336.14	72.19
336.369	83.19
336.597	81.19
336.825	87.19
337.053	73.19
337.281	84.19
337.51	89.19
337.738	81.19
337.966	83.19
338.194	77.19
338.422	77.19
338.65	79.19
338.878	83.19
339.106	86.19
339.334	81.19
339.562	85.19
339.79	74.19
340.018	67.19
340.246	85.19
340.474	72.19
340.702	87.19
340.93	75.19
341.158	72.19
341.386	91.19
341.614	85.19
341.842	79.19
342.07	89.19
342.298	85.19
342.526	90.19
342.754	78.19
342.981	70.19
343.209	83.19
343.437	87.19
343.665	87.19
343.893	83.19
344.12	77.19
344.348	84.19
344.576	78.19
344.804	79.19
345.031	77.19
345.259	72.19
345.487	79.19
345.714	65.19
345.942	64.19
346.17	80.19
346.397	84.19
346.625	93.19
346.853	83.19
347.08	72.19
347.308	89.19
347.535	66.19
347.763	82.19
347.99	73.19
348.218	76.19
348.445	80.19
348.673	65.19
348.9	81.19
349.128	90.19
349.355	85.19
349.583	79.19
349.81	64.19
350.037	62.19
350.265	89.19
350.492	77.19
350.72	81.19
350.947	79.19
351.174	72.19
351.402	65.19
351.629	81.19
351.856	76.19
352.083	88.19
352.311	85.19
352.538	87.19
352.765	73.19
352.992	74.19
353.22	81.19
353.447	96.19
353.674	77.19
353.901	67.19
354.128	94.19
354.355	82.19
354.583	78.19
354.81	79.19
355.037	80.19
355.264	75.19
355.491	76.19
355.718	71.19
355.945	69.19
356.172	79.19
356.399	83.19
356.626	69.19
356.853	91.19
357.08	95.19
357.307	72.19
357.534	88.19
357.761	85.19
357.988	70.19
358.215	75.19
358.441	75.19
358.668	88.19
358.895	93.19
359.122	80.19
359.349	78.19
359.576	92.19
359.802	71.19
360.029	91.19
360.256	80.19
360.483	71.19
360.709	75.19
360.936	79.19
361.163	67.19
361.39	83.19
361.616	77.19
361.843	81.19
362.07	72.19
362.296	98.19
362.523	73.19
362.749	82.19
362.976	81.19
363.203	85.19
363.429	69.19
363.656	78.19
363.882	74.19
364.109	83.19
364.335	92.19
364.562	91.19
364.788	86.19
365.015	79.19
365.241	89.19
365.468	97.19
365.694	81.19
365.92	73.19
366.147	84.19
366.373	83.19
366.599	88.19
366.826	75.19
367.052	64.19
367.278	81.19
367.505	65.19
367.731	85.19
367.957	90.19
368.184	74.19
368.41	79.19
368.636	83.19
368.862	77.19
369.089	92.19
369.315	96.19
369.541	86.19
369.767	95.19
369.993	76.19
370.219	83.19
370.445	78.19
370.672	72.19
370.898	91.19
371.124	97.19
371.35	67.19
371.576	79.19
371.802	82.19
372.028	79.19
372.254	83.19
372.48	82.19
372.706	84.19
372.932	84.19
373.158	74.19
373.384	74.19
373.61	87.19
373.835	81.19
374.061	74.19
374.287	74.19
374.513	84.19
374.739	69.19
374.965	66.19
375.191	78.19
375.416	83.19
375.642	79.19
375.868	86.19
376.094	79.19
376.319	77.19
376.545	80.19
376.771	81.19
376.997	63.19
377.222	71.19
377.448	81.19
377.674	82.19
377.899	83.19
378.125	85.19
378.35	88.19
378.576	89.19
378.802	85.19
379.027	79.19
379.253	76.19
379.478	79.19
379.704	89.19
379.929	71.19
380.155	91.19
380.38	86.19
380.606	83.19
380.831	77.19
381.057	82.19
381.282	78.19
381.507	77.19
381.733	83.19
381.958	80.19
382.184	69.19
382.409	83.19
382.634	80.19
382.86	72.19
383.085	75.19
383.31	85.19
383.535	80.19
383.761	84.19
383.986	87.19
384.211	56.19
384.436	75.19
384.662	87.19
384.887	85.19
385.112	72.19
385.337	100.19
385.562	80.19
385.787	75.19
386.013	91.19
386.238	81.19
386.463	75.19
386.688	87.19
386.913	90.19
387.138	79.19
387.363	69.19
387.588	70.19
387.813	79.19
388.038	85.19
388.263	88.19
388.488	71.19
388.713	67.19
388.938	74.19
389.163	74.19
389.387	73.19
389.612	83.19
389.837	69.19
390.062	81.19
390.287	69.19
390.512	91.19
390.736	74.19
390.961	83.19
391.186	81.19
391.411	83.19
391.636	87.19
391.86	78.19
392.085	78.19
392.31	76.19
392.534	80.19
392.759	77.19
392.984	74.19
393.208	83.19
393.433	76.19
393.658	101.19
393.882	83.19
394.107	64.19
394.331	70.19
394.556	73.19
394.78	91.19
395.005	79.19
395.229	85.19
395.454	79.19
395.678	60.19
395.903	95.19
396.127	73.19
396.352	70.19
396.576	81.19
396.801	90.19
397.025	88.19
397.249	71.19
397.474	80.19
397.698	69.19
397.922	73.19
398.147	69.19
398.371	86.19
398.595	100.19
398.82	74.19
399.044	83.19
399.268	92.19
399.492	81.19
399.717	78.19
399.941	79.19
400.165	68.19
400.389	92.19
400.613	66.19
400.837	79.19
401.062	75.19
401.286	80.19
401.51	85.19
401.734	75.19
401.958	75.19
402.182	78.19
402.406	88.19
402.63	72.19
402.854	80.19
403.078	68.19
403.302	79.19
403.526	91.19
403.75	73.19
403.974	75.19
404.198	77.19
404.422	73.19
404.645	91.19
404.869	81.19
405.093	78.19
405.317	85.19
405.541	89.19
405.765	90.19
405.988	73.19
406.212	83.19
406.436	71.19
406.66	86.19
406.883	77.19
407.107	61.19
407.331	72.19
407.555	81.19
407.778	78.19
408.002	80.19
408.226	71.19
408.449	82.19
408.673	79.19
408.896	72.19
409.12	70.19
409.344	79.19
409.567	75.19
409.791	72.19
410.014	70.19
410.238	73.19
410.461	78.19
410.685	74.19
410.908	84.19
411.132	77.19
411.355	93.19
411.578	81.19
411.802	82.19
412.025	94.19
412.249	73.19
412.472	79.19
412.695	68.19
412.919	62.19
413.142	79.19
413.365	86.19
413.589	86.19
413.812	86.19
414.035	92.19
414.258	69.19
414.482	79.19
414.705	86.19
414.928	75.19
415.151	89.19
415.374	77.19
415.597	71.19
415.821	91.19
416.044	80.19
416.267	75.19
416.49	85.19
416.713	83.19
416.936	87.19
417.159	79.19
417.382	81.19
417.605	72.19
417.828	76.19
418.051	69.19
418.274	72.19
418.497	79.19
418.72	77.19
418.943	79.19
419.166	77.19
419.389	69.19
419.611	80.19
419.834	81.19
420.057	93.19
420.28	87.19
420.503	77.19
420.726	77.19
420.948	68.19
421.171	82.19
421.394	75.19
421.617	74.19
421.839	65.19
422.062	73.19
422.285	69.19
422.507	71.19
422.73	81.19
422.953	66.19
423.175	79.19
423.398	73.19
423.621	66.19
423.843	74.19
424.066	83.19
424.288	77.19
424.511	74.19
424.733	79.19
424.956	81.19
425.178	85.19
425.401	77.19
425.623	73.19
425.846	64.19
426.068	77.19
426.291	73.19
426.513	87.19
426.735	84.19
426.958	74.19
427.18	78.19
427.402	76.19
427.625	80.19
427.847	88.19
428.069	84.19
428.292	79.19
428.514	82.19
428.736	81.19
428.958	61.19
429.181	83.19
429.403	84.19
429.625	81.19
429.847	85.19
430.069	81.19
430.292	85.19
430.514	82.19
430.736	80.19
430.958	84.19
431.18	98.19
431.402	92.19
431.624	72.19
431.846	71.19
432.068	71.19
432.29	85.19
432.512	83.19
432.734	82.19
432.956	81.19
433.178	86.19
433.4	68.19
433.622	68.19
433.844	83.19
434.066	81.19
434.287	73.19
434.509	86.19
434.731	71.19
434.953	88.19
435.175	83.19
435.397	72.19
435.618	86.19
435.84	66.19
436.062	71.19
436.284	70.19
436.505	76.19
436.727	75.19
436.949	79.19
437.17	64.19
437.392	71.19
437.614	83.19
437.835	79.19
438.057	70.19
438.278	81.19
438.5	79.19
438.721	70.19
438.943	79.19
439.165	87.19
439.386	78.19
439.608	79.19
439.829	84.19
440.05	80.19
440.272	80.19
440.493	74.19
440.715	75.19
440.936	71.19
441.158	85.19
441.379	73.19
441.6	76.19
441.822	77.19
442.043	74.19
442.264	92.19
442.486	68.19
442.707	85.19
442.928	60.19
443.149	80.19
443.371	90.19
443.592	84.19
443.813	91.19
444.034	79.19
444.255	86.19
444.476	83.19
444.698	61.19
444.919	79.19
445.14	159.19
445.361	127.19
445.582	69.19
445.803	82.19
446.024	87.19
446.245	89.19
446.466	78.19
446.687	74.19
446.908	81.19
447.129	67.19
447.35	74.19
447.571	71.19
447.792	88.19
448.013	91.19
448.234	73.19
448.455	86.19
448.675	75.19
448.896	74.19
449.117	74.19
449.338	67.19
449.559	90.19
449.779	69.19
450	69.19
450.221	69.19
450.442	76.19
450.662	91.19
450.883	83.19
451.104	87.19
451.324	63.19
451.545	72.19
451.766	78.19
451.986	69.19
452.207	87.19
452.428	85.19
452.648	77.19
452.869	84.19
453.089	72.19
453.31	75.19
453.53	65.19
453.751	74.19
453.971	74.19
454.192	75.19
454.412	81.19
454.633	78.19
454.853	95.19
455.073	67.19
455.294	84.19
455.514	71.19
455.734	83.19
455.955	86.19
456.175	76.19
456.395	78.19
456.616	77.19
456.836	67.19
457.056	73.19
457.276	88.19
457.497	61.19
457.717	73.19
457.937	81.19
458.157	85.19
458.377	82.19
458.598	69.19
458.818	86.19
459.038	74.19
459.258	71.19
459.478	71.19
459.698	76.19
459.918	71.19
460.138	78.19
460.358	89.19
460.578	71.19
460.798	74.19
461.018	79.19
461.238	76.19
461.458	87.19
461.678	77.19
461.898	67.19
462.118	79.19
462.338	78.19
462.558	72.19
462.777	69.19
462.997	71.19
463.217	70.19
463.437	72.19
463.657	74.19
463.876	69.19
464.096	79.19
464.316	77.19
464.536	79.19
464.755	84.19
464.975	85.19
465.195	67.19
465.414	89.19
465.634	82.19
465.854	85.19
466.073	67.19
466.293	89.19
466.512	73.19
466.732	84.19
466.951	79.19
467.171	69.19
467.391	73.19
467.61	89.19
467.829	85.19
468.049	84.19
468.268	62.19
468.488	85.19
468.707	84.19
468.927	83.19
469.146	80.19
469.365	81.19
469.585	67.19
469.804	83.19
470.023	73.19
470.243	79.19
470.462	93.19
470.681	86.19
470.901	79.19
471.12	94.19
471.339	73.19
471.558	77.19
471.777	76.19
471.997	76.19
472.216	77.19
472.435	81.19
472.654	62.19
472.873	76.19
473.092	85.19
473.311	83.19
473.53	76.19
473.749	73.19
473.968	75.19
474.187	77.19
474.406	81.19
474.625	79.19
474.844	69.19
475.063	72.19
475.282	78.19
475.501	70.19
475.72	81.19
475.939	83.19
476.158	81.19
476.377	75.19
476.596	79.19
476.814	79.19
477.033	67.19
477.252	69.19
477.471	79.19
477.69	82.19
477.908	81.19
478.127	81.19
478.346	72.19
478.564	80.19
478.783	81.19
479.002	83.19
479.22	85.19
479.439	95.19
479.658	78.19
479.876	80.19
480.095	81.19
480.313	77.19
480.532	65.19
480.751	88.19
480.969	67.19
481.188	73.19
481.406	83.19
481.624	81.19
481.843	74.19
482.061	75.19
482.28	79.19
482.498	77.19
482.717	72.19
482.935	75.19
483.153	72.19
483.372	80.19
483.59	73.19
483.808	67.19
484.027	85.19
484.245	65.19
484.463	80.19
484.681	84.19
484.9	78.19
485.118	74.19
485.336	74.19
485.554	63.19
485.772	83.19
485.99	81.19
486.209	96.19
486.427	86.19
486.645	62.19
486.863	68.19
487.081	77.19
487.299	79.19
487.517	81.19
487.735	63.19
487.953	77.19
488.171	69.19
488.389	75.19
488.607	75.19
488.825	76.19
489.043	76.19
489.261	81.19
489.479	83.19
489.696	80.19
489.914	87.19
490.132	76.19
490.35	71.19
490.568	80.19
490.786	71.19
491.003	83.19
491.221	90.19
491.439	62.19
491.657	79.19
491.874	96.19
492.092	77.19
492.31	82.19
492.527	78.19
492.745	86.19
492.963	84.19
493.18	80.19
493.398	67.19
493.615	73.19
493.833	76.19
494.05	69.19
494.268	87.19
494.485	81.19
494.703	76.19
494.92	71.19
495.138	77.19
495.355	88.19
495.573	74.19
495.79	81.19
496.008	75.19
496.225	79.19
496.442	72.19
496.66	79.19
496.877	76.19
497.094	77.19
497.312	72.19
497.529	76.19
497.746	64.19
497.963	83.19
498.181	59.19
498.398	80.19
498.615	73.19
498.832	87.19
499.049	83.19
499.267	75.19
499.484	88.19
499.701	67.19
499.918	70.19
500.135	73.19
500.352	83.19
500.569	81.19
500.786	72.19
501.003	89.19
501.22	77.19
501.437	68.19
501.654	77.19
501.871	77.19
502.088	78.19
502.305	74.19
502.522	81.19
502.739	74.19
502.956	81.19
503.172	68.19
503.389	73.19
503.606	85.19
503.823	65.19
504.04	72.19
504.256	83.19
504.473	84.19
504.69	97.19
504.907	87.19
505.123	69.19
505.34	86.19
505.557	68.19
505.773	72.19
505.99	96.19
506.207	86.19
506.423	72.19
506.64	83.19
506.856	80.19
507.073	72.19
507.289	84.19
507.506	72.19
507.722	73.19
507.939	76.19
508.155	78.19
508.372	69.19
508.588	75.19
508.805	78.19
509.021	84.19
509.238	78.19
509.454	80.19
509.67	62.19
509.887	69.19
510.103	84.19
510.319	77.19
510.536	81.19
510.752	74.19
510.968	77.19
511.184	99.19
511.401	70.19
511.617	76.19
511.833	84.19
512.049	83.19
512.265	75.19
512.481	78.19
512.698	87.19
512.914	83.19
513.13	66.19
513.346	74.19
513.562	72.19
513.778	83.19
513.994	77.19
514.21	70.19
514.426	96.19
514.642	83.19
514.858	85.19
515.074	80.19
515.29	81.19
515.506	72.19
515.721	71.19
515.937	79.19
516.153	70.19
516.369	89.19
516.585	77.19
516.801	95.19
517.016	85.19
517.232	73.19
517.448	82.19
517.664	71.19
517.879	83.19
518.095	79.19
518.311	62.19
518.527	80.19
518.742	89.19
518.958	82.19
519.173	92.19
519.389	86.19
519.605	80.19
519.82	84.19
520.036	75.19
520.251	88.19
520.467	77.19
520.682	80.19
520.898	97.19
521.113	83.19
521.329	78.19
521.544	79.19
521.76	86.19
521.975	90.19
522.19	69.19
522.406	71.19
522.621	70.19
522.836	86.19
523.052	76.19
523.267	74.19
523.482	71.19
523.698	85.19
523.913	78.19
524.128	69.19
524.343	89.19
524.559	79.19
524.774	83.19
524.989	79.19
525.204	72.19
525.419	81.19
525.634	68.19
525.849	95.19
526.064	64.19
526.28	92.19
526.495	93.19
526.71	89.19
526.925	73.19
527.14	85.19
527.355	78.19
527.57	86.19
527.785	64.19
527.999	83.19
528.214	77.19
528.429	62.19
528.644	84.19
528.859	83.19
529.074	70.19
529.289	71.19
529.503	77.19
529.718	80.19
529.933	88.19
530.148	71.19
530.363	81.19
530.577	70.19
530.792	88.19
531.007	71.19
531.221	69.19
531.436	75.19
531.651	64.19
531.865	91.19
532.08	77.19
532.295	71.19
532.509	77.19
532.724	81.19
532.938	90.19
533.153	80.19
533.367	71.19
533.582	89.19
533.796	71.19
534.011	79.19
534.225	80.19
534.44	76.19
534.654	77.19
534.868	74.19
535.083	69.19
535.297	81.19
535.511	91.19
535.726	72.19
535.94	79.19
536.154	83.19
536.369	81.19
536.583	85.19
536.797	98.19
537.011	68.19
537.225	79.19
537.44	70.19
537.654	79.19
537.868	81.19
538.082	79.19
538.296	85.19
538.51	81.19
538.724	98.19
538.938	81.19
539.153	63.19
539.367	79.19
539.581	81.19
539.795	86.19
540.009	85.19
540.222	80.19
540.436	80.19
540.65	81.19
540.864	84.19
541.078	95.19
541.292	75.19
541.506	72.19
541.72	66.19
541.934	84.19
542.147	88.19
542.361	81.19
542.575	79.19
542.789	71.19
543.002	80.19
543.216	97.19
543.43	67.19
543.644	84.19
543.857	74.19
544.071	78.19
544.285	82.19
544.498	76.19
544.712	84.19
544.925	72.19
545.139	91.19
545.352	84.19
545.566	77.19
545.779	89.19
545.993	64.19
546.206	79.19
546.42	87.19
546.633	84.19
546.847	82.19
547.06	86.19
547.274	79.19
547.487	75.19
547.7	81.19
547.914	92.19
548.127	81.19
548.34	91.19
548.554	78.19
548.767	75.19
548.98	91.19
549.193	81.19
549.407	83.19
549.62	70.19
549.833	75.19
550.046	94.19
550.259	95.19
550.473	96.19
550.686	86.19
550.899	69.19
551.112	70.19
551.325	89.19
551.538	86.19
551.751	84.19
551.964	87.19
552.177	91.19
552.39	84.19
552.603	79.19
552.816	81.19
553.029	74.19
553.242	78.19
553.455	88.19
553.667	75.19
553.88	79.19
554.093	79.19
554.306	76.19
554.519	84.19
554.732	83.19
554.944	81.19
555.157	83.19
555.37	69.19
555.583	81.19
555.795	69.19
556.008	78.19
556.221	88.19
556.433	101.19
556.646	86.19
556.859	76.19
557.071	78.19
557.284	68.19
557.496	79.19
557.709	69.19
557.921	85.19
558.134	69.19
558.346	91.19
558.559	104.19
558.771	81.19
558.984	83.19
559.196	68.19
559.409	72.19
559.621	67.19
559.833	82.19
560.046	79.19
560.258	79.19
560.47	86.19
560.683	69.19
560.895	77.19
561.107	86.19
561.32	80.19
561.532	81.19
561.744	79.19
561.956	90.19
562.168	73.19
562.381	83.19
562.593	86.19
562.805	86.19
563.017	82.19
563.229	91.19
563.441	89.19
563.653	82.19
563.865	80.19
564.077	69.19
564.289	93.19
564.501	78.19
564.713	74.19
564.925	76.19
565.137	84.19
565.349	78.19
565.561	71.19
565.773	93.19
565.985	79.19
566.197	89.19
566.408	95.19
566.62	83.19
566.832	71.19
567.044	66.19
567.255	84.19
567.467	93.19
567.679	85.19
567.891	85.19
568.102	79.19
568.314	94.19
568.526	83.19
568.737	87.19
568.949	76.19
569.161	83.19
569.372	71.19
569.584	91.19
569.795	94.19
570.007	79.19
570.218	79.19
570.43	80.19
570.641	84.19
570.853	82.19
571.064	100.19
571.276	84.19
571.487	77.19
571.698	78.19
571.91	85.19
572.121	77.19
572.333	83.19
572.544	71.19
572.755	72.19
572.966	77.19
573.178	67.19
573.389	81.19
573.6	79.19
573.811	76.19
574.023	81.19
574.234	81.19
574.445	79.19
574.656	78.19
574.867	93.19
575.078	81.19
575.289	73.19
575.501	87.19
575.712	83.19
575.923	75.19
576.134	79.19
576.345	68.19
576.556	83.19
576.767	83.19
576.978	84.19
577.188	65.19
577.399	81.19
577.61	89.19
577.821	79.19
578.032	79.19
578.243	80.19
578.454	83.19
578.665	84.19
578.875	86.19
579.086	77.19
579.297	81.19
579.508	73.19
579.718	81.19
579.929	80.19
580.14	87.19
580.35	82.19
580.561	91.19
580.772	69.19
580.982	87.19
581.193	76.19
581.403	87.19
581.614	77.19
581.825	92.19
582.035	79.19
582.246	79.19
582.456	80.19
582.667	81.19
582.877	62.19
583.087	90.19
583.298	77.19
583.508	90.19
583.719	91.19
583.929	100.19
584.139	82.19
584.35	84.19
584.56	71.19
584.77	81.19
584.981	65.19
585.191	83.19
585.401	79.19
585.611	85.19
585.821	86.19
586.032	86.19
586.242	74.19
586.452	76.19
586.662	84.19
586.872	82.19
587.082	81.19
587.292	67.19
587.502	65.19
587.713	71.19
587.923	86.19
588.133	95.19
588.343	77.19
588.553	75.19
588.762	76.19
588.972	86.19
589.182	84.19
589.392	72.19
589.602	71.19
589.812	80.19
590.022	92.19
590.232	80.19
590.441	87.19
590.651	69.19
590.861	77.19
591.071	79.19
591.281	97.19
591.49	78.19
591.7	68.19
591.91	95.19
592.119	72.19
592.329	85.19
592.539	87.19
592.748	86.19
592.958	81.19
593.167	90.19
593.377	65.19
593.587	83.19
593.796	89.19
594.006	68.19
594.215	81.19
594.424	80.19
594.634	82.19
594.843	71.19
595.053	73.19
595.262	75.19
595.472	95.19
595.681	82.19
595.89	71.19
596.1	95.19
596.309	87.19
596.518	78.19
596.727	83.19
596.937	75.19
597.146	79.19
597.355	79.19
597.564	82.19
597.774	74.19
597.983	91.19
598.192	84.19
598.401	76.19
598.61	94.19
598.819	85.19
599.028	94.19
599.237	80.19
599.446	94.19
599.655	86.19
599.864	85.19
600.073	81.19
600.282	78.19
600.491	87.19
600.7	84.19
600.909	80.19
601.118	69.19
601.327	86.19
601.536	78.19
601.745	72.19
601.953	93.19
602.162	79.19
602.371	88.19
602.58	68.19
602.789	82.19
602.997	78.19
603.206	77.19
603.415	74.19
603.623	79.19
603.832	79.19
604.041	67.19
604.249	86.19
604.458	73.19
604.666	94.19
604.875	83.19
605.084	73.19
605.292	84.19
605.501	73.19
605.709	73.19
605.918	84.19
606.126	89.19
606.334	84.19
606.543	88.19
606.751	79.19
606.96	75.19
607.168	70.19
607.376	67.19
607.585	88.19
607.793	91.19
608.001	84.19
608.21	86.19
608.418	89.19
608.626	72.19
608.834	73.19
609.043	87.19
609.251	86.19
609.459	93.19
609.667	79.19
609.875	75.19
610.083	78.19
610.291	92.19
610.499	81.19
610.707	96.19
610.916	91.19
611.124	81.19
611.332	81.19
611.54	73.19
611.748	85.19
611.955	82.19
612.163	79.19
612.371	83.19
612.579	74.19
612.787	82.19
612.995	79.19
613.203	85.19
613.411	87.19
613.618	79.19
613.826	97.19
614.034	75.19
614.242	87.19
614.449	59.19
614.657	102.19
614.865	84.19
615.072	74.19
615.28	82.19
615.488	94.19
615.695	78.19
615.903	73.19
616.111	88.19
616.318	88.19
616.526	78.19
616.733	79.19
616.941	82.19
617.148	81.19
617.356	77.19
617.563	79.19
617.771	83.19
617.978	76.19
618.185	90.19
618.393	85.19
618.6	79.19
618.807	85.19
619.015	88.19
619.222	81.19
619.429	81.19
619.637	87.19
619.844	95.19
620.051	73.19
620.258	86.19
620.466	83.19
620.673	80.19
620.88	79.19
621.087	86.19
621.294	81.19
621.501	74.19
621.708	89.19
621.915	82.19
622.122	81.19
622.329	76.19
622.536	85.19
622.743	93.19
622.95	85.19
623.157	79.19
623.364	85.19
623.571	89.19
623.778	80.19
623.985	82.19
624.192	83.19
624.399	86.19
624.606	84.19
624.812	76.19
625.019	76.19
625.226	78.19
625.433	86.19
625.639	78.19
625.846	79.19
626.053	85.19
626.259	81.19
626.466	83.19
626.673	84.19
626.879	85.19
627.086	74.19
627.293	74.19
627.499	86.19
627.706	81.19
627.912	67.19
628.119	71.19
628.325	90.19
628.532	92.19
628.738	85.19
628.945	76.19
629.151	95.19
629.357	67.19
629.564	79.19
629.77	84.19
629.976	81.19
630.183	98.19
630.389	81.19
630.595	83.19
630.802	99.19
631.008	87.19
631.214	79.19
631.42	88.19
631.627	85.19
631.833	77.19
632.039	77.19
632.245	85.19
632.451	92.19
632.657	88.19
632.863	69.19
633.069	87.19
633.275	70.19
633.481	80.19
633.688	79.19
633.893	85.19
634.099	80.19
634.305	81.19
634.511	82.19
634.717	72.19
634.923	85.19
635.129	81.19
635.335	91.19
635.541	78.19
635.747	76.19
635.952	63.19
636.158	81.19
636.364	81.19
636.57	72.19
636.775	81.19
636.981	70.19
637.187	96.19
637.392	76.19
637.598	82.19
637.804	73.19
638.009	70.19
638.215	85.19
638.421	73.19
638.626	83.19
638.832	84.19
639.037	73.19
639.243	77.19
639.448	80.19
639.654	87.19
639.859	77.19
640.065	84.19
640.27	81.19
640.475	69.19
640.681	79.19
640.886	77.19
641.091	75.19
641.297	90.19
641.502	68.19
641.707	78.19
641.913	81.19
642.118	79.19
642.323	65.19
642.528	81.19
642.733	74.19
642.939	87.19
643.144	77.19
643.349	76.19
643.554	91.19
643.759	82.19
643.964	91.19
644.169	81.19
644.374	76.19
644.579	91.19
644.784	73.19
644.989	80.19
645.194	77.19
645.399	83.19
645.604	83.19
645.809	82.19
646.014	73.19
646.219	82.19
646.423	75.19
646.628	71.19
646.833	82.19
647.038	88.19
647.243	82.19
647.447	93.19
647.652	87.19
647.857	87.19
648.062	70.19
648.266	70.19
648.471	76.19
648.676	87.19
648.88	83.19
649.085	81.19
649.289	79.19
649.494	78.19
649.698	87.19
649.903	79.19
650.107	86.19
650.312	79.19
650.516	86.19
650.721	78.19
650.925	78.19
651.13	78.19
651.334	76.19
651.539	78.19
651.743	71.19
651.947	80.19
652.152	84.19
652.356	85.19
652.56	70.19
652.764	87.19
652.969	88.19
653.173	88.19
653.377	87.19
653.581	78.19
653.785	85.19
653.99	71.19
654.194	78.19
654.398	71.19
654.602	83.19
654.806	70.19
655.01	85.19
655.214	75.19
655.418	80.19
655.622	71.19
655.826	87.19
656.03	78.19
656.234	81.19
656.438	73.19
656.642	74.19
656.846	83.19
657.049	87.19
657.253	80.19
657.457	73.19
657.661	71.19
657.865	65.19
658.068	96.19
658.272	78.19
658.476	75.19
658.68	85.19
658.883	93.19
659.087	75.19
659.291	71.19
659.494	69.19
659.698	54.19
659.901	73.19
660.105	71.19
660.309	82.19
660.512	86.19
660.716	86.19
660.919	68.19
661.123	66.19
661.326	69.19
661.53	67.19
661.733	74.19
661.936	78.19
662.14	83.19
662.343	92.19
662.546	83.19
662.75	89.19
662.953	79.19
663.156	73.19
663.36	77.19
663.563	91.19
663.766	72.19
663.969	87.19
664.173	85.19
664.376	78.19
664.579	74.19
664.782	85.19
664.985	78.19
665.188	81.19
665.391	58.19
665.594	72.19
665.797	80.19
666	78.19
666.203	85.19
666.406	62.19
666.609	81.19
666.812	79.19
667.015	67.19
667.218	95.19
667.421	69.19
667.624	76.19
667.827	79.19
668.03	83.19
668.232	73.19
668.435	77.19
668.638	71.19
668.841	80.19
669.043	83.19
669.246	72.19
669.449	82.19
669.651	91.19
669.854	70.19
670.057	73.19
670.259	88.19
670.462	78.19
670.665	68.19
670.867	83.19
671.07	87.19
671.272	80.19
671.475	72.19
671.677	72.19
671.88	78.19
672.082	75.19
672.284	77.19
672.487	87.19
672.689	85.19
672.892	73.19
