Data from Lead_5_2_HRD10591_00063.txt Node
Date: Fri Feb 20 11:10:23 EST 2026
User: Yrep
Spectrometer: HR+D1059
Trigger mode: 1
Integration Time (sec): 1.000000E-1
Scans to average: 1
Electric dark correction enabled: true
Nonlinearity correction enabled: false
Boxcar width: 0
XAxis mode: Wavelengths
Number of Pixels in Spectrum: 2048
>>>>>Begin Spectral Data<<<<<
223.165	-14.06
223.4	-14.06
223.635	-14.06
223.869	-18.06
224.104	-17.06
224.338	-14.06
224.573	-21.06
224.808	-24.06
225.042	-2.06
225.277	1.94
225.511	11.94
225.746	-13.06
225.98	2.94
226.215	14.94
226.449	12.94
226.683	23.94
226.918	20.94
227.152	33.94
227.387	32.94
227.621	32.94
227.856	45.94
228.09	41.94
228.324	51.94
228.559	29.94
228.793	56.94
229.027	57.94
229.262	49.94
229.496	54.94
229.73	60.94
229.964	85.94
230.199	73.94
230.433	79.94
230.667	73.94
230.901	83.94
231.136	81.94
231.37	76.94
231.604	71.94
231.838	81.94
232.072	80.94
232.306	70.94
232.541	65.94
232.775	69.94
233.009	81.94
233.243	81.94
233.477	89.94
233.711	79.94
233.945	79.94
234.179	65.94
234.413	84.94
234.647	67.94
234.881	79.94
235.115	87.94
235.349	81.94
235.583	74.94
235.817	65.94
236.051	81.94
236.285	76.94
236.519	81.94
236.753	66.94
236.987	72.94
237.221	65.94
237.455	88.94
237.689	85.94
237.922	89.94
238.156	66.94
238.39	85.94
238.624	58.94
238.858	79.94
239.091	64.94
239.325	71.94
239.559	77.94
239.793	89.94
240.027	74.94
240.26	90.94
240.494	86.94
240.728	84.94
240.961	82.94
241.195	65.94
241.429	77.94
241.662	63.94
241.896	69.94
242.13	70.94
242.363	89.94
242.597	75.94
242.83	66.94
243.064	65.94
243.298	64.94
243.531	61.94
243.765	71.94
243.998	90.94
244.232	75.94
244.465	90.94
244.699	88.94
244.932	72.94
245.166	88.94
245.399	71.94
245.633	79.94
245.866	86.94
246.099	78.94
246.333	74.94
246.566	84.94
246.8	87.94
247.033	85.94
247.266	83.94
247.5	77.94
247.733	73.94
247.966	69.94
248.2	85.94
248.433	78.94
248.666	82.94
248.899	81.94
249.133	67.94
249.366	79.94
249.599	65.94
249.832	72.94
250.066	90.94
250.299	73.94
250.532	69.94
250.765	68.94
250.998	68.94
251.231	64.94
251.465	85.94
251.698	83.94
251.931	58.94
252.164	78.94
252.397	76.94
252.63	66.94
252.863	78.94
253.096	90.94
253.329	81.94
253.562	85.94
253.795	86.94
254.028	81.94
254.261	72.94
254.494	74.94
254.727	74.94
254.96	75.94
255.193	82.94
255.426	79.94
255.659	81.94
255.892	84.94
256.124	74.94
256.357	74.94
256.59	77.94
256.823	77.94
257.056	88.94
257.289	79.94
257.521	80.94
257.754	75.94
257.987	79.94
258.22	78.94
258.452	81.94
258.685	80.94
258.918	93.94
259.151	82.94
259.383	75.94
259.616	81.94
259.849	77.94
260.081	73.94
260.314	89.94
260.547	85.94
260.779	65.94
261.012	79.94
261.244	78.94
261.477	75.94
261.71	89.94
261.942	59.94
262.175	79.94
262.407	81.94
262.64	71.94
262.872	63.94
263.105	89.94
263.337	66.94
263.57	79.94
263.802	81.94
264.035	74.94
264.267	79.94
264.499	82.94
264.732	89.94
264.964	86.94
265.197	85.94
265.429	68.94
265.661	80.94
265.894	70.94
266.126	55.94
266.358	65.94
266.591	91.94
266.823	79.94
267.055	61.94
267.287	80.94
267.52	76.94
267.752	82.94
267.984	94.94
268.216	71.94
268.448	73.94
268.681	97.94
268.913	83.94
269.145	69.94
269.377	81.94
269.609	73.94
269.841	77.94
270.073	67.94
270.306	86.94
270.538	89.94
270.77	90.94
271.002	73.94
271.234	56.94
271.466	81.94
271.698	76.94
271.93	74.94
272.162	83.94
272.394	87.94
272.626	78.94
272.858	87.94
273.09	74.94
273.322	73.94
273.553	79.94
273.785	91.94
274.017	84.94
274.249	86.94
274.481	73.94
274.713	81.94
274.945	85.94
275.176	70.94
275.408	80.94
275.64	69.94
275.872	73.94
276.104	76.94
276.335	79.94
276.567	86.94
276.799	78.94
277.031	80.94
277.262	80.94
277.494	79.94
277.726	91.94
277.957	69.94
278.189	74.94
278.421	73.94
278.652	85.94
278.884	93.94
279.115	91.94
279.347	77.94
279.579	73.94
279.81	82.94
280.042	76.94
280.273	81.94
280.505	82.94
280.736	78.94
280.968	85.94
281.199	80.94
281.431	87.94
281.662	67.94
281.894	72.94
282.125	82.94
282.356	81.94
282.588	77.94
282.819	75.94
283.051	79.94
283.282	76.94
283.513	90.94
283.745	81.94
283.976	79.94
284.207	89.94
284.439	79.94
284.67	87.94
284.901	73.94
285.132	74.94
285.364	82.94
285.595	88.94
285.826	74.94
286.057	80.94
286.288	102.94
286.52	83.94
286.751	76.94
286.982	79.94
287.213	79.94
287.444	91.94
287.675	73.94
287.906	74.94
288.138	82.94
288.369	74.94
288.6	85.94
288.831	74.94
289.062	90.94
289.293	94.94
289.524	76.94
289.755	86.94
289.986	94.94
290.217	102.94
290.448	77.94
290.679	77.94
290.91	75.94
291.141	83.94
291.371	94.94
291.602	81.94
291.833	81.94
292.064	86.94
292.295	75.94
292.526	77.94
292.757	71.94
292.987	89.94
293.218	80.94
293.449	66.94
293.68	91.94
293.91	87.94
294.141	78.94
294.372	84.94
294.603	74.94
294.833	74.94
295.064	78.94
295.295	80.94
295.525	77.94
295.756	84.94
295.987	95.94
296.217	82.94
296.448	81.94
296.679	79.94
296.909	79.94
297.14	80.94
297.37	80.94
297.601	80.94
297.831	84.94
298.062	85.94
298.292	98.94
298.523	68.94
298.753	83.94
298.984	78.94
299.214	85.94
299.445	82.94
299.675	82.94
299.905	70.94
300.136	73.94
300.366	85.94
300.597	85.94
300.827	82.94
301.057	89.94
301.288	67.94
301.518	83.94
301.748	94.94
301.979	85.94
302.209	100.94
302.439	92.94
302.669	87.94
302.9	86.94
303.13	84.94
303.36	97.94
303.59	94.94
303.82	85.94
304.051	66.94
304.281	69.94
304.511	93.94
304.741	87.94
304.971	97.94
305.201	93.94
305.431	98.94
305.661	81.94
305.891	66.94
306.121	70.94
306.352	81.94
306.582	85.94
306.812	93.94
307.042	76.94
307.272	81.94
307.502	81.94
307.731	82.94
307.961	85.94
308.191	78.94
308.421	86.94
308.651	85.94
308.881	71.94
309.111	75.94
309.341	85.94
309.571	81.94
309.8	86.94
310.03	85.94
310.26	76.94
310.49	82.94
310.72	89.94
310.949	79.94
311.179	65.94
311.409	77.94
311.639	88.94
311.868	79.94
312.098	96.94
312.328	84.94
312.557	79.94
312.787	82.94
313.017	85.94
313.246	77.94
313.476	75.94
313.706	77.94
313.935	79.94
314.165	82.94
314.394	76.94
314.624	76.94
314.853	86.94
315.083	83.94
315.312	83.94
315.542	86.94
315.771	73.94
316.001	85.94
316.23	89.94
316.46	73.94
316.689	69.94
316.919	100.94
317.148	73.94
317.377	79.94
317.607	89.94
317.836	88.94
318.065	73.94
318.295	81.94
318.524	85.94
318.753	91.94
318.983	69.94
319.212	89.94
319.441	99.94
319.67	81.94
319.9	79.94
320.129	85.94
320.358	86.94
320.587	83.94
320.816	63.94
321.046	88.94
321.275	73.94
321.504	90.94
321.733	92.94
321.962	84.94
322.191	85.94
322.42	85.94
322.649	84.94
322.878	62.94
323.108	77.94
323.337	85.94
323.566	81.94
323.795	75.94
324.024	82.94
324.253	81.94
324.482	86.94
324.71	72.94
324.939	82.94
325.168	85.94
325.397	85.94
325.626	101.94
325.855	79.94
326.084	62.94
326.313	95.94
326.542	73.94
326.77	81.94
326.999	77.94
327.228	81.94
327.457	78.94
327.686	77.94
327.914	86.94
328.143	92.94
328.372	79.94
328.6	67.94
328.829	81.94
329.058	78.94
329.287	90.94
329.515	88.94
329.744	78.94
329.972	99.94
330.201	76.94
330.43	79.94
330.658	73.94
330.887	86.94
331.115	79.94
331.344	82.94
331.572	70.94
331.801	76.94
332.03	79.94
332.258	96.94
332.486	70.94
332.715	71.94
332.943	86.94
333.172	90.94
333.4	76.94
333.629	92.94
333.857	85.94
334.085	90.94
334.314	94.94
334.542	82.94
334.771	95.94
334.999	83.94
335.227	92.94
335.455	82.94
335.684	92.94
335.912	98.94
336.14	95.94
336.369	87.94
336.597	73.94
336.825	87.94
337.053	61.94
337.281	75.94
337.51	95.94
337.738	75.94
337.966	89.94
338.194	67.94
338.422	76.94
338.65	80.94
338.878	90.94
339.106	85.94
339.334	79.94
339.562	74.94
339.79	87.94
340.018	88.94
340.246	81.94
340.474	92.94
340.702	84.94
340.93	91.94
341.158	76.94
341.386	89.94
341.614	79.94
341.842	85.94
342.07	93.94
342.298	70.94
342.526	83.94
342.754	87.94
342.981	81.94
343.209	84.94
343.437	84.94
343.665	83.94
343.893	93.94
344.12	77.94
344.348	86.94
344.576	85.94
344.804	82.94
345.031	91.94
345.259	89.94
345.487	79.94
345.714	89.94
345.942	84.94
346.17	104.94
346.397	89.94
346.625	81.94
346.853	92.94
347.08	83.94
347.308	79.94
347.535	69.94
347.763	76.94
347.99	80.94
348.218	91.94
348.445	94.94
348.673	86.94
348.9	101.94
349.128	75.94
349.355	85.94
349.583	73.94
349.81	86.94
350.037	81.94
350.265	85.94
350.492	81.94
350.72	73.94
350.947	75.94
351.174	82.94
351.402	76.94
351.629	76.94
351.856	85.94
352.083	77.94
352.311	93.94
352.538	88.94
352.765	79.94
352.992	81.94
353.22	82.94
353.447	87.94
353.674	79.94
353.901	91.94
354.128	87.94
354.355	81.94
354.583	73.94
354.81	94.94
355.037	85.94
355.264	79.94
355.491	79.94
355.718	95.94
355.945	82.94
356.172	86.94
356.399	79.94
356.626	79.94
356.853	103.94
357.08	82.94
357.307	80.94
357.534	84.94
357.761	86.94
357.988	72.94
358.215	82.94
358.441	70.94
358.668	71.94
358.895	84.94
359.122	89.94
359.349	74.94
359.576	79.94
359.802	93.94
360.029	81.94
360.256	76.94
360.483	84.94
360.709	70.94
360.936	82.94
361.163	77.94
361.39	54.94
361.616	76.94
361.843	100.94
362.07	85.94
362.296	82.94
362.523	77.94
362.749	85.94
362.976	79.94
363.203	69.94
363.429	77.94
363.656	98.94
363.882	88.94
364.109	79.94
364.335	84.94
364.562	79.94
364.788	82.94
365.015	81.94
365.241	75.94
365.468	82.94
365.694	77.94
365.92	73.94
366.147	75.94
366.373	70.94
366.599	86.94
366.826	81.94
367.052	71.94
367.278	75.94
367.505	80.94
367.731	85.94
367.957	75.94
368.184	77.94
368.41	91.94
368.636	81.94
368.862	90.94
369.089	84.94
369.315	80.94
369.541	76.94
369.767	95.94
369.993	82.94
370.219	79.94
370.445	89.94
370.672	75.94
370.898	71.94
371.124	75.94
371.35	68.94
371.576	81.94
371.802	87.94
372.028	71.94
372.254	95.94
372.48	79.94
372.706	86.94
372.932	84.94
373.158	84.94
373.384	82.94
373.61	82.94
373.835	97.94
374.061	88.94
374.287	88.94
374.513	90.94
374.739	80.94
374.965	77.94
375.191	87.94
375.416	82.94
375.642	87.94
375.868	92.94
376.094	79.94
376.319	95.94
376.545	93.94
376.771	89.94
376.997	75.94
377.222	76.94
377.448	81.94
377.674	69.94
377.899	76.94
378.125	80.94
378.35	93.94
378.576	82.94
378.802	75.94
379.027	85.94
379.253	76.94
379.478	72.94
379.704	81.94
379.929	70.94
380.155	81.94
380.38	70.94
380.606	81.94
380.831	93.94
381.057	93.94
381.282	79.94
381.507	70.94
381.733	73.94
381.958	78.94
382.184	75.94
382.409	89.94
382.634	91.94
382.86	75.94
383.085	68.94
383.31	83.94
383.535	90.94
383.761	93.94
383.986	67.94
384.211	76.94
384.436	72.94
384.662	80.94
384.887	73.94
385.112	83.94
385.337	95.94
385.562	68.94
385.787	79.94
386.013	77.94
386.238	83.94
386.463	84.94
386.688	104.94
386.913	75.94
387.138	83.94
387.363	80.94
387.588	82.94
387.813	86.94
388.038	79.94
388.263	60.94
388.488	87.94
388.713	81.94
388.938	91.94
389.163	81.94
389.387	70.94
389.612	85.94
389.837	91.94
390.062	74.94
390.287	90.94
390.512	80.94
390.736	86.94
390.961	65.94
391.186	73.94
391.411	88.94
391.636	78.94
391.86	81.94
392.085	68.94
392.31	83.94
392.534	89.94
392.759	87.94
392.984	82.94
393.208	79.94
393.433	85.94
393.658	83.94
393.882	77.94
394.107	87.94
394.331	78.94
394.556	82.94
394.78	85.94
395.005	82.94
395.229	83.94
395.454	79.94
395.678	81.94
395.903	88.94
396.127	84.94
396.352	75.94
396.576	65.94
396.801	72.94
397.025	80.94
397.249	82.94
397.474	67.94
397.698	64.94
397.922	80.94
398.147	88.94
398.371	73.94
398.595	66.94
398.82	74.94
399.044	79.94
399.268	74.94
399.492	85.94
399.717	77.94
399.941	82.94
400.165	83.94
400.389	81.94
400.613	73.94
400.837	87.94
401.062	87.94
401.286	78.94
401.51	78.94
401.734	76.94
401.958	71.94
402.182	86.94
402.406	87.94
402.63	85.94
402.854	83.94
403.078	80.94
403.302	71.94
403.526	75.94
403.75	77.94
403.974	77.94
404.198	73.94
404.422	75.94
404.645	73.94
404.869	75.94
405.093	79.94
405.317	73.94
405.541	79.94
405.765	85.94
405.988	86.94
406.212	86.94
406.436	94.94
406.66	89.94
406.883	88.94
407.107	83.94
407.331	70.94
407.555	79.94
407.778	86.94
408.002	87.94
408.226	73.94
408.449	72.94
408.673	76.94
408.896	79.94
409.12	85.94
409.344	82.94
409.567	75.94
409.791	81.94
410.014	80.94
410.238	79.94
410.461	71.94
410.685	65.94
410.908	86.94
411.132	73.94
411.355	71.94
411.578	82.94
411.802	79.94
412.025	82.94
412.249	76.94
412.472	84.94
412.695	67.94
412.919	85.94
413.142	65.94
413.365	75.94
413.589	84.94
413.812	77.94
414.035	78.94
414.258	72.94
414.482	93.94
414.705	73.94
414.928	75.94
415.151	75.94
415.374	62.94
415.597	82.94
415.821	88.94
416.044	78.94
416.267	70.94
416.49	69.94
416.713	81.94
416.936	85.94
417.159	68.94
417.382	71.94
417.605	76.94
417.828	83.94
418.051	84.94
418.274	77.94
418.497	76.94
418.72	80.94
418.943	94.94
419.166	81.94
419.389	77.94
419.611	85.94
419.834	76.94
420.057	74.94
420.28	77.94
420.503	78.94
420.726	76.94
420.948	81.94
421.171	79.94
421.394	74.94
421.617	74.94
421.839	74.94
422.062	86.94
422.285	79.94
422.507	86.94
422.73	74.94
422.953	74.94
423.175	73.94
423.398	79.94
423.621	84.94
423.843	63.94
424.066	69.94
424.288	72.94
424.511	77.94
424.733	77.94
424.956	83.94
425.178	84.94
425.401	74.94
425.623	88.94
425.846	71.94
426.068	79.94
426.291	85.94
426.513	83.94
426.735	85.94
426.958	93.94
427.18	79.94
427.402	89.94
427.625	63.94
427.847	81.94
428.069	76.94
428.292	75.94
428.514	84.94
428.736	85.94
428.958	71.94
429.181	71.94
429.403	58.94
429.625	74.94
429.847	77.94
430.069	87.94
430.292	83.94
430.514	93.94
430.736	79.94
430.958	74.94
431.18	77.94
431.402	75.94
431.624	79.94
431.846	89.94
432.068	89.94
432.29	83.94
432.512	81.94
432.734	78.94
432.956	83.94
433.178	90.94
433.4	86.94
433.622	78.94
433.844	74.94
434.066	95.94
434.287	79.94
434.509	80.94
434.731	74.94
434.953	79.94
435.175	91.94
435.397	82.94
435.618	104.94
435.84	69.94
436.062	78.94
436.284	67.94
436.505	71.94
436.727	83.94
436.949	78.94
437.17	73.94
437.392	74.94
437.614	79.94
437.835	71.94
438.057	75.94
438.278	73.94
438.5	86.94
438.721	87.94
438.943	88.94
439.165	73.94
439.386	80.94
439.608	82.94
439.829	69.94
440.05	80.94
440.272	73.94
440.493	80.94
440.715	84.94
440.936	80.94
441.158	84.94
441.379	73.94
441.6	73.94
441.822	84.94
442.043	88.94
442.264	86.94
442.486	88.94
442.707	71.94
442.928	89.94
443.149	90.94
443.371	84.94
443.592	87.94
443.813	91.94
444.034	80.94
444.255	82.94
444.476	78.94
444.698	89.94
444.919	72.94
445.14	160.94
445.361	119.94
445.582	88.94
445.803	81.94
446.024	83.94
446.245	77.94
446.466	75.94
446.687	65.94
446.908	83.94
447.129	91.94
447.35	77.94
447.571	73.94
447.792	81.94
448.013	87.94
448.234	84.94
448.455	84.94
448.675	94.94
448.896	81.94
449.117	85.94
449.338	77.94
449.559	92.94
449.779	82.94
450	77.94
450.221	85.94
450.442	86.94
450.662	82.94
450.883	83.94
451.104	75.94
451.324	79.94
451.545	73.94
451.766	79.94
451.986	67.94
452.207	80.94
452.428	64.94
452.648	75.94
452.869	71.94
453.089	96.94
453.31	83.94
453.53	67.94
453.751	79.94
453.971	74.94
454.192	78.94
454.412	83.94
454.633	67.94
454.853	82.94
455.073	83.94
455.294	91.94
455.514	95.94
455.734	78.94
455.955	78.94
456.175	65.94
456.395	85.94
456.616	83.94
456.836	73.94
457.056	76.94
457.276	72.94
457.497	71.94
457.717	85.94
457.937	64.94
458.157	79.94
458.377	68.94
458.598	77.94
458.818	73.94
459.038	70.94
459.258	71.94
459.478	67.94
459.698	68.94
459.918	92.94
460.138	89.94
460.358	68.94
460.578	79.94
460.798	82.94
461.018	69.94
461.238	86.94
461.458	71.94
461.678	84.94
461.898	70.94
462.118	82.94
462.338	80.94
462.558	94.94
462.777	91.94
462.997	78.94
463.217	83.94
463.437	87.94
463.657	74.94
463.876	70.94
464.096	75.94
464.316	85.94
464.536	78.94
464.755	64.94
464.975	65.94
465.195	82.94
465.414	78.94
465.634	85.94
465.854	85.94
466.073	73.94
466.293	86.94
466.512	80.94
466.732	82.94
466.951	75.94
467.171	86.94
467.391	74.94
467.61	69.94
467.829	88.94
468.049	79.94
468.268	83.94
468.488	71.94
468.707	70.94
468.927	73.94
469.146	73.94
469.365	81.94
469.585	76.94
469.804	87.94
470.023	71.94
470.243	71.94
470.462	75.94
470.681	80.94
470.901	79.94
471.12	79.94
471.339	79.94
471.558	78.94
471.777	80.94
471.997	66.94
472.216	80.94
472.435	73.94
472.654	70.94
472.873	77.94
473.092	74.94
473.311	81.94
473.53	83.94
473.749	82.94
473.968	78.94
474.187	90.94
474.406	62.94
474.625	77.94
474.844	75.94
475.063	79.94
475.282	66.94
475.501	66.94
475.72	85.94
475.939	74.94
476.158	75.94
476.377	81.94
476.596	75.94
476.814	90.94
477.033	81.94
477.252	83.94
477.471	85.94
477.69	95.94
477.908	73.94
478.127	73.94
478.346	79.94
478.564	85.94
478.783	79.94
479.002	98.94
479.22	69.94
479.439	77.94
479.658	75.94
479.876	80.94
480.095	83.94
480.313	71.94
480.532	65.94
480.751	79.94
480.969	89.94
481.188	88.94
481.406	82.94
481.624	79.94
481.843	59.94
482.061	82.94
482.28	83.94
482.498	95.94
482.717	77.94
482.935	83.94
483.153	69.94
483.372	93.94
483.59	91.94
483.808	77.94
484.027	81.94
484.245	79.94
484.463	87.94
484.681	87.94
484.9	81.94
485.118	88.94
485.336	92.94
485.554	81.94
485.772	76.94
485.99	83.94
486.209	66.94
486.427	67.94
486.645	76.94
486.863	77.94
487.081	86.94
487.299	76.94
487.517	89.94
487.735	78.94
487.953	88.94
488.171	79.94
488.389	95.94
488.607	90.94
488.825	68.94
489.043	72.94
489.261	86.94
489.479	81.94
489.696	101.94
489.914	80.94
490.132	63.94
490.35	76.94
490.568	81.94
490.786	93.94
491.003	72.94
491.221	79.94
491.439	86.94
491.657	84.94
491.874	77.94
492.092	74.94
492.31	83.94
492.527	81.94
492.745	61.94
492.963	96.94
493.18	73.94
493.398	89.94
493.615	79.94
493.833	75.94
494.05	90.94
494.268	96.94
494.485	100.94
494.703	77.94
494.92	81.94
495.138	84.94
495.355	67.94
495.573	90.94
495.79	79.94
496.008	87.94
496.225	81.94
496.442	74.94
496.66	91.94
496.877	83.94
497.094	96.94
497.312	73.94
497.529	76.94
497.746	97.94
497.963	60.94
498.181	86.94
498.398	77.94
498.615	79.94
498.832	75.94
499.049	81.94
499.267	79.94
499.484	76.94
499.701	87.94
499.918	85.94
500.135	89.94
500.352	97.94
500.569	85.94
500.786	87.94
501.003	81.94
501.22	78.94
501.437	66.94
501.654	85.94
501.871	81.94
502.088	84.94
502.305	92.94
502.522	75.94
502.739	83.94
502.956	72.94
503.172	84.94
503.389	93.94
503.606	65.94
503.823	70.94
504.04	94.94
504.256	83.94
504.473	89.94
504.69	68.94
504.907	83.94
505.123	70.94
505.34	89.94
505.557	83.94
505.773	81.94
505.99	94.94
506.207	88.94
506.423	86.94
506.64	89.94
506.856	93.94
507.073	87.94
507.289	88.94
507.506	70.94
507.722	69.94
507.939	82.94
508.155	94.94
508.372	87.94
508.588	80.94
508.805	83.94
509.021	82.94
509.238	92.94
509.454	94.94
509.67	75.94
509.887	73.94
510.103	90.94
510.319	71.94
510.536	93.94
510.752	77.94
510.968	82.94
511.184	89.94
511.401	75.94
511.617	80.94
511.833	73.94
512.049	85.94
512.265	77.94
512.481	81.94
512.698	70.94
512.914	81.94
513.13	74.94
513.346	89.94
513.562	79.94
513.778	80.94
513.994	65.94
514.21	67.94
514.426	89.94
514.642	80.94
514.858	90.94
515.074	90.94
515.29	80.94
515.506	81.94
515.721	75.94
515.937	84.94
516.153	97.94
516.369	68.94
516.585	85.94
516.801	89.94
517.016	69.94
517.232	88.94
517.448	64.94
517.664	75.94
517.879	74.94
518.095	71.94
518.311	95.94
518.527	79.94
518.742	87.94
518.958	85.94
519.173	69.94
519.389	83.94
519.605	83.94
519.82	87.94
520.036	88.94
520.251	86.94
520.467	89.94
520.682	79.94
520.898	80.94
521.113	93.94
521.329	79.94
521.544	73.94
521.76	84.94
521.975	90.94
522.19	75.94
522.406	87.94
522.621	86.94
522.836	79.94
523.052	86.94
523.267	77.94
523.482	79.94
523.698	79.94
523.913	77.94
524.128	65.94
524.343	89.94
524.559	93.94
524.774	75.94
524.989	72.94
525.204	91.94
525.419	79.94
525.634	90.94
525.849	87.94
526.064	84.94
526.28	71.94
526.495	76.94
526.71	65.94
526.925	73.94
527.14	90.94
527.355	81.94
527.57	81.94
527.785	75.94
527.999	88.94
528.214	81.94
528.429	82.94
528.644	87.94
528.859	67.94
529.074	88.94
529.289	79.94
529.503	76.94
529.718	83.94
529.933	70.94
530.148	77.94
530.363	75.94
530.577	87.94
530.792	92.94
531.007	78.94
531.221	73.94
531.436	85.94
531.651	87.94
531.865	75.94
532.08	89.94
532.295	72.94
532.509	94.94
532.724	81.94
532.938	75.94
533.153	65.94
533.367	76.94
533.582	84.94
533.796	77.94
534.011	77.94
534.225	90.94
534.44	72.94
534.654	81.94
534.868	84.94
535.083	91.94
535.297	74.94
535.511	86.94
535.726	83.94
535.94	88.94
536.154	81.94
536.369	79.94
536.583	87.94
536.797	96.94
537.011	92.94
537.225	86.94
537.44	66.94
537.654	82.94
537.868	85.94
538.082	72.94
538.296	93.94
538.51	77.94
538.724	68.94
538.938	89.94
539.153	88.94
539.367	90.94
539.581	87.94
539.795	75.94
540.009	76.94
540.222	76.94
540.436	94.94
540.65	89.94
540.864	76.94
541.078	83.94
541.292	79.94
541.506	74.94
541.72	83.94
541.934	85.94
542.147	90.94
542.361	81.94
542.575	93.94
542.789	79.94
543.002	79.94
543.216	81.94
543.43	86.94
543.644	82.94
543.857	85.94
544.071	77.94
544.285	97.94
544.498	89.94
544.712	98.94
544.925	79.94
545.139	85.94
545.352	77.94
545.566	91.94
545.779	75.94
545.993	93.94
546.206	69.94
546.42	86.94
546.633	89.94
546.847	81.94
547.06	81.94
547.274	73.94
547.487	85.94
547.7	94.94
547.914	80.94
548.127	87.94
548.34	88.94
548.554	84.94
548.767	79.94
548.98	91.94
549.193	89.94
549.407	83.94
549.62	80.94
549.833	87.94
550.046	82.94
550.259	88.94
550.473	85.94
550.686	93.94
550.899	75.94
551.112	73.94
551.325	75.94
551.538	87.94
551.751	91.94
551.964	83.94
552.177	87.94
552.39	81.94
552.603	88.94
552.816	79.94
553.029	94.94
553.242	87.94
553.455	85.94
553.667	87.94
553.88	85.94
554.093	86.94
554.306	77.94
554.519	87.94
554.732	88.94
554.944	76.94
555.157	80.94
555.37	81.94
555.583	89.94
555.795	86.94
556.008	82.94
556.221	85.94
556.433	82.94
556.646	77.94
556.859	99.94
557.071	90.94
557.284	90.94
557.496	95.94
557.709	94.94
557.921	106.94
558.134	74.94
558.346	93.94
558.559	100.94
558.771	94.94
558.984	95.94
559.196	80.94
559.409	95.94
559.621	90.94
559.833	83.94
560.046	70.94
560.258	85.94
560.47	89.94
560.683	81.94
560.895	85.94
561.107	82.94
561.32	86.94
561.532	88.94
561.744	82.94
561.956	88.94
562.168	89.94
562.381	82.94
562.593	78.94
562.805	77.94
563.017	85.94
563.229	86.94
563.441	88.94
563.653	79.94
563.865	75.94
564.077	88.94
564.289	82.94
564.501	88.94
564.713	85.94
564.925	92.94
565.137	82.94
565.349	95.94
565.561	76.94
565.773	69.94
565.985	81.94
566.197	79.94
566.408	79.94
566.62	78.94
566.832	82.94
567.044	87.94
567.255	86.94
567.467	83.94
567.679	79.94
567.891	86.94
568.102	81.94
568.314	81.94
568.526	82.94
568.737	82.94
568.949	70.94
569.161	69.94
569.372	83.94
569.584	85.94
569.795	86.94
570.007	73.94
570.218	77.94
570.43	75.94
570.641	70.94
570.853	83.94
571.064	79.94
571.276	75.94
571.487	88.94
571.698	86.94
571.91	84.94
572.121	77.94
572.333	72.94
572.544	75.94
572.755	74.94
572.966	83.94
573.178	75.94
573.389	77.94
573.6	83.94
573.811	93.94
574.023	98.94
574.234	83.94
574.445	86.94
574.656	65.94
574.867	81.94
575.078	87.94
575.289	88.94
575.501	85.94
575.712	78.94
575.923	84.94
576.134	70.94
576.345	72.94
576.556	85.94
576.767	98.94
576.978	85.94
577.188	98.94
577.399	90.94
577.61	87.94
577.821	89.94
578.032	68.94
578.243	85.94
578.454	79.94
578.665	89.94
578.875	76.94
579.086	89.94
579.297	80.94
579.508	90.94
579.718	90.94
579.929	84.94
580.14	90.94
580.35	87.94
580.561	91.94
580.772	86.94
580.982	84.94
581.193	81.94
581.403	77.94
581.614	76.94
581.825	83.94
582.035	72.94
582.246	85.94
582.456	92.94
582.667	77.94
582.877	65.94
583.087	78.94
583.298	91.94
583.508	77.94
583.719	92.94
583.929	75.94
584.139	83.94
584.35	73.94
584.56	85.94
584.77	90.94
584.981	83.94
585.191	84.94
585.401	83.94
585.611	85.94
585.821	79.94
586.032	91.94
586.242	73.94
586.452	88.94
586.662	102.94
586.872	94.94
587.082	86.94
587.292	86.94
587.502	78.94
587.713	82.94
587.923	78.94
588.133	76.94
588.343	78.94
588.553	66.94
588.762	95.94
588.972	75.94
589.182	85.94
589.392	85.94
589.602	79.94
589.812	71.94
590.022	79.94
590.232	83.94
590.441	81.94
590.651	79.94
590.861	82.94
591.071	75.94
591.281	90.94
591.49	73.94
591.7	81.94
591.91	97.94
592.119	84.94
592.329	83.94
592.539	81.94
592.748	84.94
592.958	88.94
593.167	88.94
593.377	80.94
593.587	99.94
593.796	89.94
594.006	90.94
594.215	76.94
594.424	79.94
594.634	72.94
594.843	75.94
595.053	69.94
595.262	79.94
595.472	89.94
595.681	81.94
595.89	83.94
596.1	70.94
596.309	72.94
596.518	85.94
596.727	93.94
596.937	89.94
597.146	88.94
597.355	87.94
597.564	92.94
597.774	83.94
597.983	72.94
598.192	77.94
598.401	84.94
598.61	93.94
598.819	93.94
599.028	92.94
599.237	77.94
599.446	76.94
599.655	75.94
599.864	95.94
600.073	83.94
600.282	94.94
600.491	81.94
600.7	93.94
600.909	81.94
601.118	66.94
601.327	65.94
601.536	73.94
601.745	90.94
601.953	79.94
602.162	86.94
602.371	70.94
602.58	81.94
602.789	81.94
602.997	68.94
603.206	80.94
603.415	60.94
603.623	77.94
603.832	85.94
604.041	81.94
604.249	84.94
604.458	83.94
604.666	77.94
604.875	80.94
605.084	79.94
605.292	79.94
605.501	94.94
605.709	79.94
605.918	74.94
606.126	94.94
606.334	78.94
606.543	84.94
606.751	81.94
606.96	70.94
607.168	92.94
607.376	97.94
607.585	88.94
607.793	95.94
608.001	84.94
608.21	72.94
608.418	89.94
608.626	63.94
608.834	88.94
609.043	81.94
609.251	82.94
609.459	87.94
609.667	87.94
609.875	87.94
610.083	86.94
610.291	81.94
610.499	98.94
610.707	96.94
610.916	73.94
611.124	75.94
611.332	81.94
611.54	75.94
611.748	75.94
611.955	72.94
612.163	84.94
612.371	82.94
612.579	66.94
612.787	87.94
612.995	76.94
613.203	81.94
613.411	77.94
613.618	85.94
613.826	70.94
614.034	82.94
614.242	67.94
614.449	74.94
614.657	82.94
614.865	92.94
615.072	93.94
615.28	76.94
615.488	89.94
615.695	93.94
615.903	85.94
616.111	65.94
616.318	77.94
616.526	83.94
616.733	83.94
616.941	93.94
617.148	74.94
617.356	75.94
617.563	76.94
617.771	89.94
617.978	93.94
618.185	82.94
618.393	97.94
618.6	82.94
618.807	84.94
619.015	66.94
619.222	85.94
619.429	82.94
619.637	92.94
619.844	84.94
620.051	79.94
620.258	78.94
620.466	75.94
620.673	75.94
620.88	90.94
621.087	98.94
621.294	100.94
621.501	87.94
621.708	76.94
621.915	89.94
622.122	98.94
622.329	101.94
622.536	93.94
622.743	82.94
622.95	67.94
623.157	81.94
623.364	92.94
623.571	76.94
623.778	79.94
623.985	82.94
624.192	87.94
624.399	81.94
624.606	95.94
624.812	78.94
625.019	83.94
625.226	91.94
625.433	82.94
625.639	76.94
625.846	81.94
626.053	73.94
626.259	79.94
626.466	70.94
626.673	78.94
626.879	89.94
627.086	97.94
627.293	83.94
627.499	84.94
627.706	81.94
627.912	83.94
628.119	75.94
628.325	87.94
628.532	94.94
628.738	83.94
628.945	102.94
629.151	82.94
629.357	86.94
629.564	73.94
629.77	89.94
629.976	85.94
630.183	85.94
630.389	81.94
630.595	78.94
630.802	87.94
631.008	89.94
631.214	78.94
631.42	81.94
631.627	81.94
631.833	85.94
632.039	96.94
632.245	70.94
632.451	76.94
632.657	74.94
632.863	79.94
633.069	81.94
633.275	79.94
633.481	81.94
633.688	74.94
633.893	83.94
634.099	71.94
634.305	83.94
634.511	94.94
634.717	83.94
634.923	96.94
635.129	79.94
635.335	82.94
635.541	88.94
635.747	81.94
635.952	87.94
636.158	76.94
636.364	81.94
636.57	87.94
636.775	85.94
636.981	76.94
637.187	75.94
637.392	78.94
637.598	81.94
637.804	78.94
638.009	80.94
638.215	73.94
638.421	83.94
638.626	78.94
638.832	70.94
639.037	86.94
639.243	82.94
639.448	94.94
639.654	94.94
639.859	89.94
640.065	97.94
640.27	89.94
640.475	75.94
640.681	81.94
640.886	75.94
641.091	73.94
641.297	70.94
641.502	79.94
641.707	85.94
641.913	93.94
642.118	87.94
642.323	85.94
642.528	76.94
642.733	72.94
642.939	82.94
643.144	81.94
643.349	70.94
643.554	88.94
643.759	73.94
643.964	77.94
644.169	77.94
644.374	75.94
644.579	71.94
644.784	79.94
644.989	71.94
645.194	101.94
645.399	80.94
645.604	70.94
645.809	75.94
646.014	81.94
646.219	88.94
646.423	85.94
646.628	76.94
646.833	85.94
647.038	75.94
647.243	83.94
647.447	88.94
647.652	67.94
647.857	91.94
648.062	87.94
648.266	79.94
648.471	86.94
648.676	93.94
648.88	93.94
649.085	75.94
649.289	80.94
649.494	71.94
649.698	83.94
649.903	93.94
650.107	81.94
650.312	83.94
650.516	65.94
650.721	80.94
650.925	77.94
651.13	95.94
651.334	73.94
651.539	81.94
651.743	87.94
651.947	79.94
652.152	82.94
652.356	81.94
652.56	87.94
652.764	89.94
652.969	83.94
653.173	94.94
653.377	95.94
653.581	90.94
653.785	85.94
653.99	86.94
654.194	73.94
654.398	85.94
654.602	79.94
654.806	83.94
655.01	72.94
655.214	91.94
655.418	76.94
655.622	83.94
655.826	89.94
656.03	95.94
656.234	73.94
656.438	76.94
656.642	75.94
656.846	77.94
657.049	80.94
657.253	86.94
657.457	80.94
657.661	73.94
657.865	74.94
658.068	90.94
658.272	81.94
658.476	74.94
658.68	93.94
658.883	89.94
659.087	72.94
659.291	93.94
659.494	94.94
659.698	89.94
659.901	74.94
660.105	73.94
660.309	80.94
660.512	89.94
660.716	81.94
660.919	93.94
661.123	86.94
661.326	83.94
661.53	81.94
661.733	90.94
661.936	81.94
662.14	77.94
662.343	73.94
662.546	63.94
662.75	83.94
662.953	66.94
663.156	94.94
663.36	79.94
663.563	79.94
663.766	81.94
663.969	83.94
664.173	85.94
664.376	87.94
664.579	86.94
664.782	67.94
664.985	69.94
665.188	73.94
665.391	79.94
665.594	85.94
665.797	81.94
666	90.94
666.203	89.94
666.406	89.94
666.609	88.94
666.812	83.94
667.015	68.94
667.218	84.94
667.421	89.94
667.624	78.94
667.827	85.94
668.03	89.94
668.232	75.94
668.435	72.94
668.638	82.94
668.841	94.94
669.043	81.94
669.246	93.94
669.449	78.94
669.651	73.94
669.854	73.94
670.057	77.94
670.259	87.94
670.462	87.94
670.665	94.94
670.867	80.94
671.07	73.94
671.272	96.94
671.475	90.94
671.677	93.94
671.88	93.94
672.082	78.94
672.284	75.94
672.487	81.94
672.689	77.94
672.892	69.94
