Data from Lead_5_2_HRD10591_00049.txt Node
Date: Fri Feb 20 11:10:18 EST 2026
User: Yrep
Spectrometer: HR+D1059
Trigger mode: 1
Integration Time (sec): 1.000000E-1
Scans to average: 1
Electric dark correction enabled: true
Nonlinearity correction enabled: false
Boxcar width: 0
XAxis mode: Wavelengths
Number of Pixels in Spectrum: 2048
>>>>>Begin Spectral Data<<<<<
223.165	-16.69
223.4	-16.69
223.635	-16.69
223.869	-13.69
224.104	-21.69
224.338	-24.69
224.573	-13.69
224.808	-9.69
225.042	-5.69
225.277	-15.69
225.511	3.31
225.746	4.31
225.98	7.31
226.215	11.31
226.449	23.31
226.683	21.31
226.918	19.31
227.152	31.31
227.387	41.31
227.621	43.31
227.856	44.31
228.09	50.31
228.324	48.31
228.559	43.31
228.793	62.31
229.027	54.31
229.262	59.31
229.496	58.31
229.73	67.31
229.964	72.31
230.199	84.31
230.433	70.31
230.667	62.31
230.901	83.31
231.136	72.31
231.37	84.31
231.604	82.31
231.838	82.31
232.072	77.31
232.306	84.31
232.541	84.31
232.775	85.31
233.009	78.31
233.243	90.31
233.477	73.31
233.711	85.31
233.945	85.31
234.179	57.31
234.413	76.31
234.647	81.31
234.881	70.31
235.115	89.31
235.349	81.31
235.583	73.31
235.817	74.31
236.051	72.31
236.285	82.31
236.519	75.31
236.753	76.31
236.987	75.31
237.221	62.31
237.455	75.31
237.689	88.31
237.922	81.31
238.156	70.31
238.39	79.31
238.624	80.31
238.858	83.31
239.091	83.31
239.325	82.31
239.559	67.31
239.793	70.31
240.027	88.31
240.26	68.31
240.494	79.31
240.728	71.31
240.961	76.31
241.195	80.31
241.429	80.31
241.662	74.31
241.896	83.31
242.13	77.31
242.363	67.31
242.597	68.31
242.83	74.31
243.064	86.31
243.298	81.31
243.531	68.31
243.765	92.31
243.998	74.31
244.232	80.31
244.465	90.31
244.699	71.31
244.932	82.31
245.166	88.31
245.399	78.31
245.633	84.31
245.866	80.31
246.099	80.31
246.333	72.31
246.566	82.31
246.8	80.31
247.033	81.31
247.266	78.31
247.5	89.31
247.733	71.31
247.966	66.31
248.2	87.31
248.433	86.31
248.666	74.31
248.899	82.31
249.133	65.31
249.366	84.31
249.599	79.31
249.832	80.31
250.066	73.31
250.299	83.31
250.532	62.31
250.765	78.31
250.998	82.31
251.231	72.31
251.465	91.31
251.698	64.31
251.931	76.31
252.164	78.31
252.397	67.31
252.63	77.31
252.863	82.31
253.096	72.31
253.329	86.31
253.562	71.31
253.795	86.31
254.028	84.31
254.261	75.31
254.494	84.31
254.727	83.31
254.96	81.31
255.193	73.31
255.426	82.31
255.659	85.31
255.892	75.31
256.124	77.31
256.357	71.31
256.59	75.31
256.823	80.31
257.056	80.31
257.289	84.31
257.521	98.31
257.754	71.31
257.987	67.31
258.22	65.31
258.452	80.31
258.685	90.31
258.918	76.31
259.151	67.31
259.383	74.31
259.616	78.31
259.849	82.31
260.081	90.31
260.314	86.31
260.547	76.31
260.779	93.31
261.012	87.31
261.244	101.31
261.477	87.31
261.71	75.31
261.942	66.31
262.175	70.31
262.407	80.31
262.64	94.31
262.872	79.31
263.105	85.31
263.337	80.31
263.57	72.31
263.802	82.31
264.035	89.31
264.267	91.31
264.499	87.31
264.732	87.31
264.964	85.31
265.197	74.31
265.429	84.31
265.661	98.31
265.894	83.31
266.126	83.31
266.358	91.31
266.591	73.31
266.823	83.31
267.055	77.31
267.287	83.31
267.52	87.31
267.752	84.31
267.984	87.31
268.216	82.31
268.448	77.31
268.681	75.31
268.913	71.31
269.145	82.31
269.377	87.31
269.609	87.31
269.841	83.31
270.073	88.31
270.306	89.31
270.538	96.31
270.77	86.31
271.002	81.31
271.234	80.31
271.466	97.31
271.698	86.31
271.93	77.31
272.162	86.31
272.394	83.31
272.626	74.31
272.858	86.31
273.09	100.31
273.322	96.31
273.553	74.31
273.785	81.31
274.017	100.31
274.249	100.31
274.481	71.31
274.713	77.31
274.945	90.31
275.176	94.31
275.408	88.31
275.64	86.31
275.872	73.31
276.104	74.31
276.335	90.31
276.567	71.31
276.799	87.31
277.031	70.31
277.262	86.31
277.494	82.31
277.726	88.31
277.957	86.31
278.189	86.31
278.421	98.31
278.652	82.31
278.884	97.31
279.115	84.31
279.347	92.31
279.579	81.31
279.81	87.31
280.042	82.31
280.273	87.31
280.505	95.31
280.736	77.31
280.968	76.31
281.199	80.31
281.431	83.31
281.662	82.31
281.894	88.31
282.125	85.31
282.356	68.31
282.588	87.31
282.819	86.31
283.051	73.31
283.282	87.31
283.513	94.31
283.745	82.31
283.976	74.31
284.207	86.31
284.439	87.31
284.67	82.31
284.901	86.31
285.132	82.31
285.364	74.31
285.595	101.31
285.826	84.31
286.057	91.31
286.288	88.31
286.52	90.31
286.751	81.31
286.982	94.31
287.213	72.31
287.444	86.31
287.675	84.31
287.906	73.31
288.138	67.31
288.369	80.31
288.6	75.31
288.831	80.31
289.062	74.31
289.293	85.31
289.524	69.31
289.755	94.31
289.986	89.31
290.217	82.31
290.448	73.31
290.679	80.31
290.91	87.31
291.141	84.31
291.371	91.31
291.602	77.31
291.833	91.31
292.064	99.31
292.295	78.31
292.526	92.31
292.757	82.31
292.987	91.31
293.218	85.31
293.449	89.31
293.68	80.31
293.91	95.31
294.141	86.31
294.372	84.31
294.603	83.31
294.833	86.31
295.064	82.31
295.295	87.31
295.525	76.31
295.756	73.31
295.987	86.31
296.217	75.31
296.448	86.31
296.679	86.31
296.909	88.31
297.14	84.31
297.37	97.31
297.601	83.31
297.831	81.31
298.062	96.31
298.292	74.31
298.523	85.31
298.753	84.31
298.984	82.31
299.214	82.31
299.445	77.31
299.675	91.31
299.905	75.31
300.136	81.31
300.366	80.31
300.597	90.31
300.827	96.31
301.057	66.31
301.288	91.31
301.518	80.31
301.748	86.31
301.979	95.31
302.209	69.31
302.439	86.31
302.669	83.31
302.9	73.31
303.13	82.31
303.36	90.31
303.59	80.31
303.82	71.31
304.051	69.31
304.281	87.31
304.511	89.31
304.741	80.31
304.971	71.31
305.201	85.31
305.431	91.31
305.661	94.31
305.891	75.31
306.121	89.31
306.352	82.31
306.582	75.31
306.812	82.31
307.042	84.31
307.272	80.31
307.502	96.31
307.731	75.31
307.961	87.31
308.191	82.31
308.421	86.31
308.651	83.31
308.881	75.31
309.111	74.31
309.341	81.31
309.571	78.31
309.8	90.31
310.03	83.31
310.26	82.31
310.49	66.31
310.72	77.31
310.949	66.31
311.179	91.31
311.409	84.31
311.639	84.31
311.868	90.31
312.098	84.31
312.328	76.31
312.557	80.31
312.787	94.31
313.017	77.31
313.246	82.31
313.476	86.31
313.706	85.31
313.935	86.31
314.165	95.31
314.394	82.31
314.624	89.31
314.853	91.31
315.083	67.31
315.312	92.31
315.542	81.31
315.771	81.31
316.001	73.31
316.23	79.31
316.46	79.31
316.689	81.31
316.919	74.31
317.148	90.31
317.377	84.31
317.607	89.31
317.836	80.31
318.065	85.31
318.295	73.31
318.524	92.31
318.753	72.31
318.983	76.31
319.212	80.31
319.441	94.31
319.67	90.31
319.9	86.31
320.129	70.31
320.358	84.31
320.587	94.31
320.816	86.31
321.046	77.31
321.275	79.31
321.504	89.31
321.733	88.31
321.962	75.31
322.191	88.31
322.42	81.31
322.649	75.31
322.878	98.31
323.108	95.31
323.337	99.31
323.566	89.31
323.795	91.31
324.024	88.31
324.253	88.31
324.482	93.31
324.71	73.31
324.939	67.31
325.168	88.31
325.397	91.31
325.626	87.31
325.855	93.31
326.084	86.31
326.313	81.31
326.542	66.31
326.77	92.31
326.999	93.31
327.228	101.31
327.457	93.31
327.686	97.31
327.914	88.31
328.143	85.31
328.372	86.31
328.6	91.31
328.829	86.31
329.058	81.31
329.287	87.31
329.515	85.31
329.744	92.31
329.972	82.31
330.201	93.31
330.43	87.31
330.658	80.31
330.887	80.31
331.115	82.31
331.344	85.31
331.572	87.31
331.801	91.31
332.03	61.31
332.258	76.31
332.486	97.31
332.715	85.31
332.943	82.31
333.172	86.31
333.4	79.31
333.629	92.31
333.857	82.31
334.085	75.31
334.314	77.31
334.542	73.31
334.771	83.31
334.999	82.31
335.227	89.31
335.455	74.31
335.684	88.31
335.912	92.31
336.14	74.31
336.369	87.31
336.597	79.31
336.825	82.31
337.053	72.31
337.281	75.31
337.51	84.31
337.738	85.31
337.966	80.31
338.194	71.31
338.422	95.31
338.65	94.31
338.878	95.31
339.106	79.31
339.334	100.31
339.562	90.31
339.79	77.31
340.018	74.31
340.246	72.31
340.474	76.31
340.702	72.31
340.93	82.31
341.158	86.31
341.386	82.31
341.614	86.31
341.842	87.31
342.07	89.31
342.298	82.31
342.526	76.31
342.754	89.31
342.981	83.31
343.209	76.31
343.437	94.31
343.665	95.31
343.893	77.31
344.12	79.31
344.348	82.31
344.576	81.31
344.804	77.31
345.031	87.31
345.259	89.31
345.487	78.31
345.714	89.31
345.942	74.31
346.17	83.31
346.397	84.31
346.625	88.31
346.853	87.31
347.08	88.31
347.308	79.31
347.535	81.31
347.763	94.31
347.99	88.31
348.218	86.31
348.445	73.31
348.673	80.31
348.9	80.31
349.128	65.31
349.355	86.31
349.583	82.31
349.81	94.31
350.037	79.31
350.265	86.31
350.492	81.31
350.72	74.31
350.947	74.31
351.174	98.31
351.402	90.31
351.629	86.31
351.856	73.31
352.083	84.31
352.311	75.31
352.538	80.31
352.765	73.31
352.992	76.31
353.22	75.31
353.447	82.31
353.674	87.31
353.901	86.31
354.128	72.31
354.355	101.31
354.583	71.31
354.81	83.31
355.037	86.31
355.264	72.31
355.491	81.31
355.718	87.31
355.945	84.31
356.172	92.31
356.399	83.31
356.626	79.31
356.853	68.31
357.08	106.31
357.307	94.31
357.534	67.31
357.761	82.31
357.988	82.31
358.215	83.31
358.441	82.31
358.668	90.31
358.895	78.31
359.122	82.31
359.349	89.31
359.576	86.31
359.802	82.31
360.029	78.31
360.256	87.31
360.483	70.31
360.709	76.31
360.936	89.31
361.163	90.31
361.39	83.31
361.616	79.31
361.843	80.31
362.07	81.31
362.296	94.31
362.523	77.31
362.749	92.31
362.976	76.31
363.203	83.31
363.429	84.31
363.656	79.31
363.882	91.31
364.109	86.31
364.335	75.31
364.562	91.31
364.788	97.31
365.015	78.31
365.241	84.31
365.468	82.31
365.694	74.31
365.92	71.31
366.147	74.31
366.373	79.31
366.599	72.31
366.826	74.31
367.052	64.31
367.278	78.31
367.505	77.31
367.731	96.31
367.957	84.31
368.184	94.31
368.41	76.31
368.636	74.31
368.862	96.31
369.089	88.31
369.315	84.31
369.541	78.31
369.767	72.31
369.993	78.31
370.219	84.31
370.445	95.31
370.672	79.31
370.898	82.31
371.124	78.31
371.35	88.31
371.576	82.31
371.802	77.31
372.028	82.31
372.254	81.31
372.48	87.31
372.706	82.31
372.932	84.31
373.158	82.31
373.384	73.31
373.61	85.31
373.835	86.31
374.061	92.31
374.287	90.31
374.513	75.31
374.739	77.31
374.965	86.31
375.191	86.31
375.416	69.31
375.642	76.31
375.868	80.31
376.094	78.31
376.319	82.31
376.545	100.31
376.771	91.31
376.997	86.31
377.222	80.31
377.448	62.31
377.674	72.31
377.899	75.31
378.125	85.31
378.35	86.31
378.576	79.31
378.802	78.31
379.027	84.31
379.253	86.31
379.478	72.31
379.704	67.31
379.929	88.31
380.155	84.31
380.38	89.31
380.606	71.31
380.831	90.31
381.057	90.31
381.282	82.31
381.507	104.31
381.733	92.31
381.958	76.31
382.184	84.31
382.409	73.31
382.634	88.31
382.86	76.31
383.085	87.31
383.31	80.31
383.535	85.31
383.761	67.31
383.986	87.31
384.211	84.31
384.436	75.31
384.662	84.31
384.887	88.31
385.112	69.31
385.337	86.31
385.562	82.31
385.787	75.31
386.013	83.31
386.238	94.31
386.463	84.31
386.688	88.31
386.913	79.31
387.138	83.31
387.363	80.31
387.588	92.31
387.813	66.31
388.038	83.31
388.263	74.31
388.488	72.31
388.713	79.31
388.938	74.31
389.163	80.31
389.387	68.31
389.612	81.31
389.837	62.31
390.062	86.31
390.287	82.31
390.512	72.31
390.736	80.31
390.961	72.31
391.186	85.31
391.411	85.31
391.636	86.31
391.86	95.31
392.085	86.31
392.31	88.31
392.534	72.31
392.759	76.31
392.984	87.31
393.208	77.31
393.433	81.31
393.658	78.31
393.882	79.31
394.107	83.31
394.331	90.31
394.556	80.31
394.78	79.31
395.005	81.31
395.229	78.31
395.454	85.31
395.678	75.31
395.903	84.31
396.127	89.31
396.352	74.31
396.576	85.31
396.801	93.31
397.025	69.31
397.249	76.31
397.474	86.31
397.698	74.31
397.922	73.31
398.147	74.31
398.371	72.31
398.595	92.31
398.82	80.31
399.044	76.31
399.268	92.31
399.492	79.31
399.717	68.31
399.941	74.31
400.165	92.31
400.389	86.31
400.613	62.31
400.837	82.31
401.062	88.31
401.286	89.31
401.51	97.31
401.734	86.31
401.958	98.31
402.182	78.31
402.406	85.31
402.63	85.31
402.854	83.31
403.078	86.31
403.302	96.31
403.526	87.31
403.75	64.31
403.974	71.31
404.198	83.31
404.422	74.31
404.645	80.31
404.869	87.31
405.093	84.31
405.317	71.31
405.541	87.31
405.765	76.31
405.988	78.31
406.212	76.31
406.436	72.31
406.66	75.31
406.883	77.31
407.107	70.31
407.331	80.31
407.555	74.31
407.778	82.31
408.002	69.31
408.226	82.31
408.449	77.31
408.673	87.31
408.896	73.31
409.12	84.31
409.344	82.31
409.567	74.31
409.791	69.31
410.014	96.31
410.238	76.31
410.461	66.31
410.685	74.31
410.908	91.31
411.132	82.31
411.355	69.31
411.578	64.31
411.802	82.31
412.025	63.31
412.249	83.31
412.472	96.31
412.695	65.31
412.919	90.31
413.142	79.31
413.365	86.31
413.589	82.31
413.812	74.31
414.035	80.31
414.258	74.31
414.482	76.31
414.705	76.31
414.928	82.31
415.151	80.31
415.374	73.31
415.597	82.31
415.821	85.31
416.044	73.31
416.267	83.31
416.49	70.31
416.713	75.31
416.936	90.31
417.159	75.31
417.382	82.31
417.605	92.31
417.828	81.31
418.051	79.31
418.274	86.31
418.497	78.31
418.72	59.31
418.943	100.31
419.166	76.31
419.389	75.31
419.611	87.31
419.834	76.31
420.057	73.31
420.28	89.31
420.503	73.31
420.726	81.31
420.948	82.31
421.171	77.31
421.394	89.31
421.617	73.31
421.839	81.31
422.062	94.31
422.285	88.31
422.507	103.31
422.73	66.31
422.953	72.31
423.175	84.31
423.398	88.31
423.621	80.31
423.843	72.31
424.066	72.31
424.288	69.31
424.511	87.31
424.733	75.31
424.956	66.31
425.178	65.31
425.401	70.31
425.623	91.31
425.846	66.31
426.068	65.31
426.291	97.31
426.513	74.31
426.735	91.31
426.958	81.31
427.18	90.31
427.402	84.31
427.625	81.31
427.847	81.31
428.069	82.31
428.292	70.31
428.514	66.31
428.736	93.31
428.958	87.31
429.181	73.31
429.403	80.31
429.625	76.31
429.847	90.31
430.069	100.31
430.292	77.31
430.514	70.31
430.736	78.31
430.958	81.31
431.18	75.31
431.402	85.31
431.624	77.31
431.846	88.31
432.068	82.31
432.29	83.31
432.512	93.31
432.734	74.31
432.956	66.31
433.178	81.31
433.4	82.31
433.622	85.31
433.844	83.31
434.066	88.31
434.287	80.31
434.509	84.31
434.731	72.31
434.953	62.31
435.175	69.31
435.397	91.31
435.618	81.31
435.84	82.31
436.062	89.31
436.284	76.31
436.505	72.31
436.727	84.31
436.949	68.31
437.17	73.31
437.392	76.31
437.614	65.31
437.835	86.31
438.057	87.31
438.278	82.31
438.5	76.31
438.721	67.31
438.943	88.31
439.165	86.31
439.386	78.31
439.608	78.31
439.829	87.31
440.05	76.31
440.272	70.31
440.493	70.31
440.715	75.31
440.936	67.31
441.158	78.31
441.379	76.31
441.6	75.31
441.822	81.31
442.043	77.31
442.264	71.31
442.486	69.31
442.707	76.31
442.928	70.31
443.149	80.31
443.371	81.31
443.592	77.31
443.813	90.31
444.034	75.31
444.255	79.31
444.476	86.31
444.698	93.31
444.919	74.31
445.14	137.31
445.361	110.31
445.582	74.31
445.803	74.31
446.024	87.31
446.245	70.31
446.466	66.31
446.687	80.31
446.908	69.31
447.129	72.31
447.35	79.31
447.571	93.31
447.792	91.31
448.013	90.31
448.234	77.31
448.455	92.31
448.675	83.31
448.896	85.31
449.117	65.31
449.338	72.31
449.559	81.31
449.779	79.31
450	90.31
450.221	64.31
450.442	73.31
450.662	64.31
450.883	86.31
451.104	62.31
451.324	80.31
451.545	72.31
451.766	88.31
451.986	77.31
452.207	95.31
452.428	72.31
452.648	94.31
452.869	68.31
453.089	75.31
453.31	68.31
453.53	80.31
453.751	94.31
453.971	83.31
454.192	86.31
454.412	81.31
454.633	81.31
454.853	82.31
455.073	80.31
455.294	74.31
455.514	76.31
455.734	62.31
455.955	81.31
456.175	58.31
456.395	89.31
456.616	80.31
456.836	79.31
457.056	60.31
457.276	78.31
457.497	80.31
457.717	73.31
457.937	77.31
458.157	91.31
458.377	96.31
458.598	75.31
458.818	78.31
459.038	66.31
459.258	91.31
459.478	92.31
459.698	110.31
459.918	81.31
460.138	82.31
460.358	80.31
460.578	75.31
460.798	93.31
461.018	83.31
461.238	78.31
461.458	88.31
461.678	76.31
461.898	92.31
462.118	91.31
462.338	88.31
462.558	80.31
462.777	85.31
462.997	77.31
463.217	66.31
463.437	74.31
463.657	87.31
463.876	73.31
464.096	74.31
464.316	76.31
464.536	67.31
464.755	80.31
464.975	86.31
465.195	87.31
465.414	76.31
465.634	81.31
465.854	80.31
466.073	94.31
466.293	81.31
466.512	80.31
466.732	82.31
466.951	82.31
467.171	85.31
467.391	73.31
467.61	76.31
467.829	70.31
468.049	82.31
468.268	74.31
468.488	79.31
468.707	90.31
468.927	71.31
469.146	76.31
469.365	88.31
469.585	83.31
469.804	76.31
470.023	87.31
470.243	76.31
470.462	82.31
470.681	72.31
470.901	97.31
471.12	86.31
471.339	83.31
471.558	68.31
471.777	82.31
471.997	81.31
472.216	90.31
472.435	87.31
472.654	91.31
472.873	81.31
473.092	86.31
473.311	89.31
473.53	90.31
473.749	80.31
473.968	96.31
474.187	79.31
474.406	78.31
474.625	95.31
474.844	81.31
475.063	80.31
475.282	78.31
475.501	90.31
475.72	80.31
475.939	89.31
476.158	82.31
476.377	92.31
476.596	73.31
476.814	84.31
477.033	77.31
477.252	75.31
477.471	77.31
477.69	82.31
477.908	83.31
478.127	91.31
478.346	102.31
478.564	88.31
478.783	81.31
479.002	84.31
479.22	75.31
479.439	80.31
479.658	86.31
479.876	89.31
480.095	92.31
480.313	79.31
480.532	84.31
480.751	81.31
480.969	74.31
481.188	94.31
481.406	74.31
481.624	90.31
481.843	77.31
482.061	82.31
482.28	75.31
482.498	74.31
482.717	83.31
482.935	66.31
483.153	84.31
483.372	79.31
483.59	81.31
483.808	76.31
484.027	89.31
484.245	81.31
484.463	80.31
484.681	90.31
484.9	90.31
485.118	72.31
485.336	78.31
485.554	73.31
485.772	84.31
485.99	82.31
486.209	73.31
486.427	96.31
486.645	69.31
486.863	74.31
487.081	87.31
487.299	69.31
487.517	72.31
487.735	87.31
487.953	74.31
488.171	72.31
488.389	77.31
488.607	91.31
488.825	81.31
489.043	74.31
489.261	88.31
489.479	71.31
489.696	85.31
489.914	78.31
490.132	89.31
490.35	92.31
490.568	84.31
490.786	94.31
491.003	82.31
491.221	71.31
491.439	85.31
491.657	88.31
491.874	89.31
492.092	84.31
492.31	76.31
492.527	94.31
492.745	78.31
492.963	79.31
493.18	76.31
493.398	87.31
493.615	75.31
493.833	79.31
494.05	89.31
494.268	95.31
494.485	88.31
494.703	71.31
494.92	92.31
495.138	78.31
495.355	98.31
495.573	79.31
495.79	84.31
496.008	85.31
496.225	86.31
496.442	80.31
496.66	85.31
496.877	78.31
497.094	84.31
497.312	87.31
497.529	96.31
497.746	94.31
497.963	83.31
498.181	100.31
498.398	88.31
498.615	92.31
498.832	80.31
499.049	66.31
499.267	83.31
499.484	72.31
499.701	80.31
499.918	92.31
500.135	92.31
500.352	86.31
500.569	84.31
500.786	82.31
501.003	86.31
501.22	72.31
501.437	82.31
501.654	85.31
501.871	73.31
502.088	92.31
502.305	85.31
502.522	77.31
502.739	82.31
502.956	77.31
503.172	74.31
503.389	78.31
503.606	76.31
503.823	90.31
504.04	92.31
504.256	83.31
504.473	83.31
504.69	74.31
504.907	87.31
505.123	82.31
505.34	86.31
505.557	82.31
505.773	91.31
505.99	88.31
506.207	75.31
506.423	96.31
506.64	88.31
506.856	74.31
507.073	70.31
507.289	62.31
507.506	95.31
507.722	82.31
507.939	90.31
508.155	92.31
508.372	97.31
508.588	88.31
508.805	81.31
509.021	94.31
509.238	86.31
509.454	80.31
509.67	87.31
509.887	86.31
510.103	89.31
510.319	88.31
510.536	76.31
510.752	74.31
510.968	89.31
511.184	80.31
511.401	74.31
511.617	90.31
511.833	92.31
512.049	79.31
512.265	84.31
512.481	93.31
512.698	94.31
512.914	77.31
513.13	84.31
513.346	89.31
513.562	72.31
513.778	96.31
513.994	84.31
514.21	73.31
514.426	82.31
514.642	83.31
514.858	87.31
515.074	67.31
515.29	90.31
515.506	83.31
515.721	99.31
515.937	87.31
516.153	92.31
516.369	74.31
516.585	83.31
516.801	78.31
517.016	74.31
517.232	79.31
517.448	78.31
517.664	77.31
517.879	77.31
518.095	88.31
518.311	86.31
518.527	85.31
518.742	85.31
518.958	72.31
519.173	88.31
519.389	79.31
519.605	71.31
519.82	85.31
520.036	89.31
520.251	86.31
520.467	85.31
520.682	81.31
520.898	71.31
521.113	84.31
521.329	82.31
521.544	83.31
521.76	85.31
521.975	86.31
522.19	73.31
522.406	79.31
522.621	76.31
522.836	77.31
523.052	86.31
523.267	79.31
523.482	82.31
523.698	74.31
523.913	83.31
524.128	91.31
524.343	99.31
524.559	91.31
524.774	85.31
524.989	83.31
525.204	89.31
525.419	82.31
525.634	80.31
525.849	83.31
526.064	103.31
526.28	81.31
526.495	81.31
526.71	95.31
526.925	82.31
527.14	77.31
527.355	87.31
527.57	91.31
527.785	84.31
527.999	86.31
528.214	96.31
528.429	75.31
528.644	68.31
528.859	85.31
529.074	88.31
529.289	93.31
529.503	86.31
529.718	81.31
529.933	88.31
530.148	90.31
530.363	75.31
530.577	88.31
530.792	96.31
531.007	82.31
531.221	80.31
531.436	91.31
531.651	83.31
531.865	83.31
532.08	83.31
532.295	81.31
532.509	79.31
532.724	87.31
532.938	82.31
533.153	73.31
533.367	82.31
533.582	82.31
533.796	63.31
534.011	76.31
534.225	93.31
534.44	94.31
534.654	88.31
534.868	84.31
535.083	96.31
535.297	67.31
535.511	94.31
535.726	84.31
535.94	76.31
536.154	88.31
536.369	78.31
536.583	73.31
536.797	88.31
537.011	86.31
537.225	73.31
537.44	80.31
537.654	80.31
537.868	80.31
538.082	79.31
538.296	87.31
538.51	86.31
538.724	90.31
538.938	79.31
539.153	92.31
539.367	83.31
539.581	81.31
539.795	74.31
540.009	72.31
540.222	77.31
540.436	79.31
540.65	72.31
540.864	74.31
541.078	82.31
541.292	88.31
541.506	89.31
541.72	99.31
541.934	87.31
542.147	71.31
542.361	88.31
542.575	84.31
542.789	84.31
543.002	84.31
543.216	85.31
543.43	91.31
543.644	95.31
543.857	79.31
544.071	75.31
544.285	90.31
544.498	71.31
544.712	97.31
544.925	60.31
545.139	81.31
545.352	74.31
545.566	80.31
545.779	90.31
545.993	76.31
546.206	96.31
546.42	80.31
546.633	80.31
546.847	72.31
547.06	88.31
547.274	71.31
547.487	74.31
547.7	73.31
547.914	99.31
548.127	88.31
548.34	89.31
548.554	96.31
548.767	90.31
548.98	84.31
549.193	78.31
549.407	75.31
549.62	90.31
549.833	84.31
550.046	76.31
550.259	81.31
550.473	93.31
550.686	73.31
550.899	82.31
551.112	95.31
551.325	99.31
551.538	82.31
551.751	84.31
551.964	76.31
552.177	89.31
552.39	76.31
552.603	66.31
552.816	76.31
553.029	90.31
553.242	88.31
553.455	98.31
553.667	86.31
553.88	86.31
554.093	58.31
554.306	86.31
554.519	74.31
554.732	86.31
554.944	90.31
555.157	87.31
555.37	92.31
555.583	95.31
555.795	91.31
556.008	91.31
556.221	75.31
556.433	98.31
556.646	72.31
556.859	91.31
557.071	91.31
557.284	96.31
557.496	100.31
557.709	98.31
557.921	89.31
558.134	97.31
558.346	75.31
558.559	94.31
558.771	85.31
558.984	76.31
559.196	91.31
559.409	86.31
559.621	70.31
559.833	81.31
560.046	94.31
560.258	85.31
560.47	86.31
560.683	92.31
560.895	97.31
561.107	87.31
561.32	78.31
561.532	86.31
561.744	91.31
561.956	96.31
562.168	92.31
562.381	104.31
562.593	75.31
562.805	72.31
563.017	85.31
563.229	88.31
563.441	96.31
563.653	85.31
563.865	90.31
564.077	77.31
564.289	91.31
564.501	87.31
564.713	80.31
564.925	69.31
565.137	86.31
565.349	80.31
565.561	85.31
565.773	86.31
565.985	90.31
566.197	91.31
566.408	96.31
566.62	90.31
566.832	81.31
567.044	86.31
567.255	89.31
567.467	93.31
567.679	90.31
567.891	82.31
568.102	79.31
568.314	86.31
568.526	81.31
568.737	80.31
568.949	93.31
569.161	84.31
569.372	92.31
569.584	85.31
569.795	77.31
570.007	75.31
570.218	99.31
570.43	93.31
570.641	79.31
570.853	90.31
571.064	82.31
571.276	89.31
571.487	83.31
571.698	88.31
571.91	89.31
572.121	91.31
572.333	75.31
572.544	82.31
572.755	85.31
572.966	98.31
573.178	75.31
573.389	90.31
573.6	100.31
573.811	79.31
574.023	77.31
574.234	87.31
574.445	83.31
574.656	97.31
574.867	82.31
575.078	91.31
575.289	98.31
575.501	75.31
575.712	70.31
575.923	89.31
576.134	73.31
576.345	99.31
576.556	77.31
576.767	70.31
576.978	95.31
577.188	89.31
577.399	91.31
577.61	87.31
577.821	89.31
578.032	94.31
578.243	90.31
578.454	84.31
578.665	82.31
578.875	89.31
579.086	62.31
579.297	70.31
579.508	80.31
579.718	91.31
579.929	105.31
580.14	76.31
580.35	80.31
580.561	85.31
580.772	88.31
580.982	79.31
581.193	85.31
581.403	93.31
581.614	90.31
581.825	80.31
582.035	85.31
582.246	85.31
582.456	89.31
582.667	77.31
582.877	86.31
583.087	84.31
583.298	92.31
583.508	78.31
583.719	77.31
583.929	110.31
584.139	98.31
584.35	72.31
584.56	97.31
584.77	90.31
584.981	73.31
585.191	78.31
585.401	61.31
585.611	81.31
585.821	96.31
586.032	88.31
586.242	76.31
586.452	79.31
586.662	86.31
586.872	77.31
587.082	83.31
587.292	91.31
587.502	77.31
587.713	89.31
587.923	70.31
588.133	76.31
588.343	104.31
588.553	75.31
588.762	87.31
588.972	90.31
589.182	90.31
589.392	100.31
589.602	98.31
589.812	82.31
590.022	95.31
590.232	92.31
590.441	76.31
590.651	81.31
590.861	81.31
591.071	77.31
591.281	90.31
591.49	103.31
591.7	85.31
591.91	94.31
592.119	87.31
592.329	81.31
592.539	81.31
592.748	80.31
592.958	86.31
593.167	95.31
593.377	78.31
593.587	89.31
593.796	91.31
594.006	98.31
594.215	100.31
594.424	87.31
594.634	81.31
594.843	88.31
595.053	94.31
595.262	88.31
595.472	91.31
595.681	93.31
595.89	90.31
596.1	81.31
596.309	96.31
596.518	94.31
596.727	88.31
596.937	86.31
597.146	90.31
597.355	93.31
597.564	102.31
597.774	95.31
597.983	90.31
598.192	83.31
598.401	102.31
598.61	72.31
598.819	85.31
599.028	80.31
599.237	94.31
599.446	95.31
599.655	70.31
599.864	87.31
600.073	82.31
600.282	82.31
600.491	78.31
600.7	97.31
600.909	92.31
601.118	99.31
601.327	91.31
601.536	95.31
601.745	89.31
601.953	87.31
602.162	88.31
602.371	73.31
602.58	79.31
602.789	81.31
602.997	90.31
603.206	75.31
603.415	89.31
603.623	91.31
603.832	93.31
604.041	77.31
604.249	66.31
604.458	82.31
604.666	86.31
604.875	96.31
605.084	80.31
605.292	87.31
605.501	82.31
605.709	78.31
605.918	86.31
606.126	85.31
606.334	99.31
606.543	78.31
606.751	97.31
606.96	98.31
607.168	72.31
607.376	85.31
607.585	85.31
607.793	75.31
608.001	91.31
608.21	87.31
608.418	88.31
608.626	89.31
608.834	78.31
609.043	75.31
609.251	82.31
609.459	84.31
609.667	87.31
609.875	88.31
610.083	86.31
610.291	80.31
610.499	68.31
610.707	89.31
610.916	82.31
611.124	92.31
611.332	96.31
611.54	73.31
611.748	80.31
611.955	74.31
612.163	85.31
612.371	84.31
612.579	88.31
612.787	98.31
612.995	83.31
613.203	86.31
613.411	92.31
613.618	68.31
613.826	85.31
614.034	89.31
614.242	90.31
614.449	88.31
614.657	93.31
614.865	81.31
615.072	87.31
615.28	95.31
615.488	65.31
615.695	81.31
615.903	82.31
616.111	87.31
616.318	85.31
616.526	94.31
616.733	88.31
616.941	92.31
617.148	88.31
617.356	83.31
617.563	91.31
617.771	70.31
617.978	78.31
618.185	82.31
618.393	83.31
618.6	90.31
618.807	95.31
619.015	88.31
619.222	86.31
619.429	94.31
619.637	79.31
619.844	91.31
620.051	96.31
620.258	84.31
620.466	76.31
620.673	88.31
620.88	86.31
621.087	84.31
621.294	91.31
621.501	82.31
621.708	78.31
621.915	79.31
622.122	87.31
622.329	89.31
622.536	85.31
622.743	84.31
622.95	84.31
623.157	76.31
623.364	72.31
623.571	89.31
623.778	80.31
623.985	86.31
624.192	73.31
624.399	80.31
624.606	94.31
624.812	88.31
625.019	89.31
625.226	77.31
625.433	82.31
625.639	67.31
625.846	89.31
626.053	80.31
626.259	98.31
626.466	85.31
626.673	82.31
626.879	83.31
627.086	88.31
627.293	69.31
627.499	85.31
627.706	102.31
627.912	84.31
628.119	79.31
628.325	88.31
628.532	82.31
628.738	71.31
628.945	70.31
629.151	87.31
629.357	94.31
629.564	75.31
629.77	82.31
629.976	74.31
630.183	90.31
630.389	79.31
630.595	76.31
630.802	70.31
631.008	88.31
631.214	90.31
631.42	82.31
631.627	82.31
631.833	80.31
632.039	92.31
632.245	86.31
632.451	84.31
632.657	78.31
632.863	91.31
633.069	89.31
633.275	82.31
633.481	76.31
633.688	99.31
633.893	80.31
634.099	88.31
634.305	87.31
634.511	101.31
634.717	69.31
634.923	89.31
635.129	83.31
635.335	81.31
635.541	91.31
635.747	89.31
635.952	92.31
636.158	79.31
636.364	87.31
636.57	84.31
636.775	79.31
636.981	92.31
637.187	88.31
637.392	77.31
637.598	76.31
637.804	94.31
638.009	81.31
638.215	88.31
638.421	71.31
638.626	79.31
638.832	82.31
639.037	82.31
639.243	62.31
639.448	83.31
639.654	88.31
639.859	82.31
640.065	89.31
640.27	95.31
640.475	86.31
640.681	87.31
640.886	92.31
641.091	90.31
641.297	90.31
641.502	79.31
641.707	75.31
641.913	77.31
642.118	71.31
642.323	86.31
642.528	86.31
642.733	84.31
642.939	72.31
643.144	83.31
643.349	80.31
643.554	79.31
643.759	89.31
643.964	74.31
644.169	84.31
644.374	73.31
644.579	78.31
644.784	86.31
644.989	76.31
645.194	71.31
645.399	73.31
645.604	78.31
645.809	75.31
646.014	82.31
646.219	80.31
646.423	70.31
646.628	84.31
646.833	76.31
647.038	97.31
647.243	83.31
647.447	77.31
647.652	99.31
647.857	92.31
648.062	86.31
648.266	90.31
648.471	75.31
648.676	93.31
648.88	91.31
649.085	79.31
649.289	81.31
649.494	76.31
649.698	62.31
649.903	83.31
650.107	95.31
650.312	92.31
650.516	78.31
650.721	81.31
650.925	84.31
651.13	90.31
651.334	76.31
651.539	89.31
651.743	72.31
651.947	97.31
652.152	76.31
652.356	88.31
652.56	86.31
652.764	67.31
652.969	88.31
653.173	80.31
653.377	69.31
653.581	84.31
653.785	81.31
653.99	75.31
654.194	80.31
654.398	91.31
654.602	83.31
654.806	75.31
655.01	66.31
655.214	74.31
655.418	83.31
655.622	88.31
655.826	86.31
656.03	80.31
656.234	92.31
656.438	82.31
656.642	79.31
656.846	88.31
657.049	88.31
657.253	91.31
657.457	84.31
657.661	80.31
657.865	75.31
658.068	69.31
658.272	72.31
658.476	80.31
658.68	70.31
658.883	74.31
659.087	68.31
659.291	71.31
659.494	84.31
659.698	88.31
659.901	67.31
660.105	64.31
660.309	77.31
660.512	75.31
660.716	78.31
660.919	86.31
661.123	78.31
661.326	93.31
661.53	98.31
661.733	88.31
661.936	96.31
662.14	84.31
662.343	87.31
662.546	76.31
662.75	88.31
662.953	65.31
663.156	84.31
663.36	77.31
663.563	77.31
663.766	91.31
663.969	81.31
664.173	78.31
664.376	73.31
664.579	94.31
664.782	71.31
664.985	82.31
665.188	95.31
665.391	71.31
665.594	92.31
665.797	76.31
666	79.31
666.203	84.31
666.406	81.31
666.609	76.31
666.812	79.31
667.015	74.31
667.218	83.31
667.421	78.31
667.624	82.31
667.827	80.31
668.03	71.31
668.232	77.31
668.435	61.31
668.638	75.31
668.841	85.31
669.043	94.31
669.246	76.31
669.449	84.31
669.651	88.31
669.854	74.31
670.057	82.31
670.259	82.31
670.462	74.31
670.665	82.31
670.867	85.31
671.07	86.31
671.272	80.31
671.475	82.31
671.677	74.31
671.88	91.31
672.082	80.31
672.284	51.31
672.487	76.31
672.689	80.31
672.892	69.31
