Data from Lead_5_2_HRD10591_00087.txt Node
Date: Fri Feb 20 11:10:31 EST 2026
User: Yrep
Spectrometer: HR+D1059
Trigger mode: 1
Integration Time (sec): 1.000000E-1
Scans to average: 1
Electric dark correction enabled: true
Nonlinearity correction enabled: false
Boxcar width: 0
XAxis mode: Wavelengths
Number of Pixels in Spectrum: 2048
>>>>>Begin Spectral Data<<<<<
223.165	-31.69
223.4	-31.69
223.635	-31.69
223.869	-23.69
224.104	-22.69
224.338	-11.69
224.573	-2.69
224.808	0.31
225.042	-7.69
225.277	-1.69
225.511	-7.69
225.746	15.31
225.98	6.31
226.215	8.31
226.449	16.31
226.683	19.31
226.918	22.31
227.152	21.31
227.387	29.31
227.621	27.31
227.856	31.31
228.09	49.31
228.324	57.31
228.559	67.31
228.793	67.31
229.027	62.31
229.262	79.31
229.496	88.31
229.73	78.31
229.964	84.31
230.199	74.31
230.433	75.31
230.667	64.31
230.901	86.31
231.136	85.31
231.37	99.31
231.604	90.31
231.838	93.31
232.072	89.31
232.306	89.31
232.541	87.31
232.775	74.31
233.009	73.31
233.243	61.31
233.477	93.31
233.711	95.31
233.945	75.31
234.179	86.31
234.413	81.31
234.647	81.31
234.881	71.31
235.115	73.31
235.349	74.31
235.583	83.31
235.817	91.31
236.051	76.31
236.285	77.31
236.519	75.31
236.753	93.31
236.987	80.31
237.221	78.31
237.455	67.31
237.689	81.31
237.922	91.31
238.156	80.31
238.39	81.31
238.624	84.31
238.858	74.31
239.091	75.31
239.325	75.31
239.559	86.31
239.793	87.31
240.027	82.31
240.26	67.31
240.494	83.31
240.728	84.31
240.961	83.31
241.195	81.31
241.429	67.31
241.662	74.31
241.896	77.31
242.13	69.31
242.363	86.31
242.597	86.31
242.83	89.31
243.064	83.31
243.298	81.31
243.531	82.31
243.765	86.31
243.998	87.31
244.232	79.31
244.465	67.31
244.699	75.31
244.932	88.31
245.166	78.31
245.399	76.31
245.633	81.31
245.866	88.31
246.099	77.31
246.333	90.31
246.566	87.31
246.8	93.31
247.033	88.31
247.266	73.31
247.5	89.31
247.733	72.31
247.966	78.31
248.2	89.31
248.433	92.31
248.666	82.31
248.899	86.31
249.133	75.31
249.366	95.31
249.599	75.31
249.832	88.31
250.066	72.31
250.299	72.31
250.532	87.31
250.765	80.31
250.998	94.31
251.231	68.31
251.465	74.31
251.698	82.31
251.931	69.31
252.164	77.31
252.397	80.31
252.63	77.31
252.863	84.31
253.096	89.31
253.329	81.31
253.562	77.31
253.795	78.31
254.028	84.31
254.261	88.31
254.494	86.31
254.727	77.31
254.96	71.31
255.193	84.31
255.426	67.31
255.659	83.31
255.892	91.31
256.124	78.31
256.357	81.31
256.59	80.31
256.823	78.31
257.056	76.31
257.289	79.31
257.521	86.31
257.754	85.31
257.987	91.31
258.22	69.31
258.452	78.31
258.685	88.31
258.918	93.31
259.151	70.31
259.383	83.31
259.616	72.31
259.849	87.31
260.081	68.31
260.314	101.31
260.547	91.31
260.779	76.31
261.012	92.31
261.244	78.31
261.477	84.31
261.71	87.31
261.942	68.31
262.175	91.31
262.407	78.31
262.64	79.31
262.872	80.31
263.105	88.31
263.337	96.31
263.57	78.31
263.802	70.31
264.035	79.31
264.267	95.31
264.499	85.31
264.732	84.31
264.964	84.31
265.197	89.31
265.429	76.31
265.661	81.31
265.894	79.31
266.126	90.31
266.358	85.31
266.591	84.31
266.823	81.31
267.055	80.31
267.287	79.31
267.52	88.31
267.752	83.31
267.984	82.31
268.216	84.31
268.448	84.31
268.681	86.31
268.913	82.31
269.145	87.31
269.377	90.31
269.609	79.31
269.841	87.31
270.073	99.31
270.306	90.31
270.538	76.31
270.77	91.31
271.002	95.31
271.234	84.31
271.466	92.31
271.698	77.31
271.93	79.31
272.162	83.31
272.394	103.31
272.626	79.31
272.858	89.31
273.09	94.31
273.322	70.31
273.553	82.31
273.785	80.31
274.017	96.31
274.249	89.31
274.481	85.31
274.713	85.31
274.945	95.31
275.176	80.31
275.408	94.31
275.64	96.31
275.872	91.31
276.104	78.31
276.335	87.31
276.567	93.31
276.799	89.31
277.031	75.31
277.262	87.31
277.494	79.31
277.726	81.31
277.957	85.31
278.189	91.31
278.421	79.31
278.652	83.31
278.884	86.31
279.115	94.31
279.347	84.31
279.579	82.31
279.81	89.31
280.042	92.31
280.273	94.31
280.505	85.31
280.736	93.31
280.968	77.31
281.199	87.31
281.431	89.31
281.662	70.31
281.894	79.31
282.125	101.31
282.356	91.31
282.588	79.31
282.819	87.31
283.051	80.31
283.282	84.31
283.513	87.31
283.745	86.31
283.976	83.31
284.207	91.31
284.439	87.31
284.67	76.31
284.901	63.31
285.132	74.31
285.364	82.31
285.595	98.31
285.826	73.31
286.057	94.31
286.288	81.31
286.52	87.31
286.751	85.31
286.982	78.31
287.213	81.31
287.444	102.31
287.675	97.31
287.906	83.31
288.138	88.31
288.369	89.31
288.6	85.31
288.831	96.31
289.062	88.31
289.293	86.31
289.524	81.31
289.755	87.31
289.986	73.31
290.217	82.31
290.448	82.31
290.679	85.31
290.91	82.31
291.141	87.31
291.371	93.31
291.602	79.31
291.833	103.31
292.064	90.31
292.295	87.31
292.526	84.31
292.757	84.31
292.987	78.31
293.218	95.31
293.449	91.31
293.68	91.31
293.91	81.31
294.141	78.31
294.372	71.31
294.603	79.31
294.833	87.31
295.064	84.31
295.295	89.31
295.525	101.31
295.756	89.31
295.987	91.31
296.217	77.31
296.448	93.31
296.679	101.31
296.909	87.31
297.14	91.31
297.37	76.31
297.601	89.31
297.831	85.31
298.062	95.31
298.292	96.31
298.523	97.31
298.753	97.31
298.984	86.31
299.214	70.31
299.445	90.31
299.675	78.31
299.905	101.31
300.136	74.31
300.366	75.31
300.597	70.31
300.827	85.31
301.057	85.31
301.288	90.31
301.518	97.31
301.748	87.31
301.979	103.31
302.209	85.31
302.439	80.31
302.669	80.31
302.9	89.31
303.13	100.31
303.36	82.31
303.59	76.31
303.82	73.31
304.051	76.31
304.281	92.31
304.511	93.31
304.741	99.31
304.971	80.31
305.201	84.31
305.431	81.31
305.661	105.31
305.891	92.31
306.121	96.31
306.352	70.31
306.582	71.31
306.812	82.31
307.042	72.31
307.272	66.31
307.502	103.31
307.731	95.31
307.961	101.31
308.191	91.31
308.421	91.31
308.651	97.31
308.881	103.31
309.111	79.31
309.341	89.31
309.571	77.31
309.8	82.31
310.03	96.31
310.26	95.31
310.49	93.31
310.72	81.31
310.949	77.31
311.179	91.31
311.409	83.31
311.639	90.31
311.868	92.31
312.098	79.31
312.328	91.31
312.557	91.31
312.787	70.31
313.017	89.31
313.246	79.31
313.476	89.31
313.706	84.31
313.935	78.31
314.165	87.31
314.394	80.31
314.624	86.31
314.853	81.31
315.083	81.31
315.312	88.31
315.542	81.31
315.771	84.31
316.001	80.31
316.23	90.31
316.46	92.31
316.689	81.31
316.919	93.31
317.148	85.31
317.377	86.31
317.607	86.31
317.836	86.31
318.065	108.31
318.295	85.31
318.524	101.31
318.753	93.31
318.983	92.31
319.212	93.31
319.441	97.31
319.67	95.31
319.9	89.31
320.129	93.31
320.358	77.31
320.587	86.31
320.816	95.31
321.046	100.31
321.275	95.31
321.504	82.31
321.733	75.31
321.962	78.31
322.191	92.31
322.42	74.31
322.649	90.31
322.878	101.31
323.108	92.31
323.337	94.31
323.566	80.31
323.795	105.31
324.024	77.31
324.253	78.31
324.482	84.31
324.71	93.31
324.939	91.31
325.168	93.31
325.397	85.31
325.626	88.31
325.855	80.31
326.084	93.31
326.313	93.31
326.542	87.31
326.77	95.31
326.999	86.31
327.228	96.31
327.457	93.31
327.686	103.31
327.914	90.31
328.143	99.31
328.372	87.31
328.6	88.31
328.829	79.31
329.058	94.31
329.287	92.31
329.515	88.31
329.744	98.31
329.972	86.31
330.201	99.31
330.43	91.31
330.658	76.31
330.887	84.31
331.115	88.31
331.344	92.31
331.572	97.31
331.801	81.31
332.03	84.31
332.258	95.31
332.486	102.31
332.715	74.31
332.943	79.31
333.172	82.31
333.4	91.31
333.629	87.31
333.857	71.31
334.085	87.31
334.314	86.31
334.542	89.31
334.771	90.31
334.999	85.31
335.227	72.31
335.455	89.31
335.684	82.31
335.912	92.31
336.14	84.31
336.369	88.31
336.597	69.31
336.825	85.31
337.053	79.31
337.281	93.31
337.51	87.31
337.738	82.31
337.966	88.31
338.194	85.31
338.422	81.31
338.65	87.31
338.878	91.31
339.106	75.31
339.334	91.31
339.562	85.31
339.79	87.31
340.018	74.31
340.246	88.31
340.474	77.31
340.702	82.31
340.93	71.31
341.158	84.31
341.386	104.31
341.614	94.31
341.842	86.31
342.07	97.31
342.298	92.31
342.526	81.31
342.754	94.31
342.981	85.31
343.209	71.31
343.437	89.31
343.665	93.31
343.893	81.31
344.12	92.31
344.348	82.31
344.576	76.31
344.804	91.31
345.031	93.31
345.259	87.31
345.487	75.31
345.714	86.31
345.942	82.31
346.17	92.31
346.397	95.31
346.625	93.31
346.853	76.31
347.08	92.31
347.308	95.31
347.535	80.31
347.763	79.31
347.99	95.31
348.218	87.31
348.445	87.31
348.673	90.31
348.9	87.31
349.128	79.31
349.355	91.31
349.583	82.31
349.81	89.31
350.037	87.31
350.265	81.31
350.492	97.31
350.72	76.31
350.947	79.31
351.174	80.31
351.402	87.31
351.629	91.31
351.856	92.31
352.083	84.31
352.311	86.31
352.538	75.31
352.765	102.31
352.992	97.31
353.22	78.31
353.447	73.31
353.674	85.31
353.901	78.31
354.128	75.31
354.355	81.31
354.583	81.31
354.81	82.31
355.037	90.31
355.264	87.31
355.491	91.31
355.718	87.31
355.945	82.31
356.172	69.31
356.399	89.31
356.626	86.31
356.853	81.31
357.08	100.31
357.307	68.31
357.534	97.31
357.761	97.31
357.988	92.31
358.215	104.31
358.441	82.31
358.668	93.31
358.895	84.31
359.122	73.31
359.349	89.31
359.576	86.31
359.802	96.31
360.029	88.31
360.256	94.31
360.483	85.31
360.709	81.31
360.936	82.31
361.163	95.31
361.39	74.31
361.616	71.31
361.843	89.31
362.07	79.31
362.296	74.31
362.523	100.31
362.749	79.31
362.976	87.31
363.203	91.31
363.429	91.31
363.656	75.31
363.882	91.31
364.109	84.31
364.335	93.31
364.562	87.31
364.788	72.31
365.015	76.31
365.241	95.31
365.468	94.31
365.694	104.31
365.92	75.31
366.147	80.31
366.373	77.31
366.599	81.31
366.826	83.31
367.052	73.31
367.278	94.31
367.505	80.31
367.731	87.31
367.957	91.31
368.184	85.31
368.41	83.31
368.636	89.31
368.862	78.31
369.089	82.31
369.315	98.31
369.541	95.31
369.767	93.31
369.993	95.31
370.219	86.31
370.445	93.31
370.672	80.31
370.898	77.31
371.124	84.31
371.35	80.31
371.576	83.31
371.802	77.31
372.028	93.31
372.254	82.31
372.48	85.31
372.706	91.31
372.932	82.31
373.158	85.31
373.384	91.31
373.61	94.31
373.835	79.31
374.061	88.31
374.287	81.31
374.513	84.31
374.739	91.31
374.965	80.31
375.191	70.31
375.416	80.31
375.642	70.31
375.868	94.31
376.094	86.31
376.319	86.31
376.545	99.31
376.771	87.31
376.997	84.31
377.222	89.31
377.448	77.31
377.674	85.31
377.899	104.31
378.125	87.31
378.35	90.31
378.576	93.31
378.802	93.31
379.027	100.31
379.253	83.31
379.478	89.31
379.704	85.31
379.929	90.31
380.155	82.31
380.38	74.31
380.606	82.31
380.831	68.31
381.057	91.31
381.282	82.31
381.507	76.31
381.733	83.31
381.958	89.31
382.184	72.31
382.409	79.31
382.634	90.31
382.86	64.31
383.085	80.31
383.31	80.31
383.535	68.31
383.761	79.31
383.986	87.31
384.211	85.31
384.436	73.31
384.662	84.31
384.887	88.31
385.112	92.31
385.337	84.31
385.562	87.31
385.787	92.31
386.013	87.31
386.238	83.31
386.463	85.31
386.688	95.31
386.913	80.31
387.138	89.31
387.363	80.31
387.588	87.31
387.813	90.31
388.038	75.31
388.263	76.31
388.488	69.31
388.713	93.31
388.938	105.31
389.163	87.31
389.387	86.31
389.612	72.31
389.837	83.31
390.062	93.31
390.287	90.31
390.512	72.31
390.736	79.31
390.961	81.31
391.186	90.31
391.411	85.31
391.636	93.31
391.86	76.31
392.085	92.31
392.31	84.31
392.534	93.31
392.759	84.31
392.984	74.31
393.208	73.31
393.433	94.31
393.658	83.31
393.882	81.31
394.107	87.31
394.331	81.31
394.556	92.31
394.78	79.31
395.005	75.31
395.229	93.31
395.454	87.31
395.678	99.31
395.903	80.31
396.127	82.31
396.352	91.31
396.576	86.31
396.801	91.31
397.025	66.31
397.249	84.31
397.474	86.31
397.698	95.31
397.922	89.31
398.147	91.31
398.371	75.31
398.595	77.31
398.82	87.31
399.044	80.31
399.268	87.31
399.492	75.31
399.717	71.31
399.941	92.31
400.165	81.31
400.389	80.31
400.613	99.31
400.837	81.31
401.062	71.31
401.286	82.31
401.51	86.31
401.734	78.31
401.958	94.31
402.182	77.31
402.406	88.31
402.63	81.31
402.854	77.31
403.078	87.31
403.302	91.31
403.526	92.31
403.75	88.31
403.974	100.31
404.198	85.31
404.422	91.31
404.645	97.31
404.869	102.31
405.093	95.31
405.317	91.31
405.541	87.31
405.765	89.31
405.988	85.31
406.212	103.31
406.436	93.31
406.66	74.31
406.883	72.31
407.107	97.31
407.331	88.31
407.555	90.31
407.778	86.31
408.002	90.31
408.226	93.31
408.449	88.31
408.673	86.31
408.896	77.31
409.12	77.31
409.344	93.31
409.567	87.31
409.791	97.31
410.014	80.31
410.238	89.31
410.461	94.31
410.685	95.31
410.908	83.31
411.132	96.31
411.355	76.31
411.578	87.31
411.802	75.31
412.025	87.31
412.249	97.31
412.472	86.31
412.695	88.31
412.919	85.31
413.142	82.31
413.365	88.31
413.589	88.31
413.812	78.31
414.035	95.31
414.258	95.31
414.482	95.31
414.705	81.31
414.928	77.31
415.151	88.31
415.374	85.31
415.597	92.31
415.821	85.31
416.044	85.31
416.267	81.31
416.49	81.31
416.713	87.31
416.936	85.31
417.159	81.31
417.382	85.31
417.605	85.31
417.828	83.31
418.051	91.31
418.274	99.31
418.497	76.31
418.72	91.31
418.943	90.31
419.166	89.31
419.389	65.31
419.611	80.31
419.834	88.31
420.057	83.31
420.28	80.31
420.503	89.31
420.726	81.31
420.948	81.31
421.171	74.31
421.394	77.31
421.617	86.31
421.839	88.31
422.062	86.31
422.285	91.31
422.507	80.31
422.73	85.31
422.953	79.31
423.175	101.31
423.398	77.31
423.621	74.31
423.843	77.31
424.066	75.31
424.288	80.31
424.511	75.31
424.733	96.31
424.956	87.31
425.178	89.31
425.401	77.31
425.623	89.31
425.846	89.31
426.068	97.31
426.291	77.31
426.513	94.31
426.735	83.31
426.958	94.31
427.18	87.31
427.402	77.31
427.625	88.31
427.847	88.31
428.069	79.31
428.292	79.31
428.514	93.31
428.736	86.31
428.958	79.31
429.181	87.31
429.403	78.31
429.625	83.31
429.847	88.31
430.069	92.31
430.292	78.31
430.514	101.31
430.736	79.31
430.958	89.31
431.18	103.31
431.402	75.31
431.624	81.31
431.846	91.31
432.068	95.31
432.29	90.31
432.512	77.31
432.734	76.31
432.956	79.31
433.178	83.31
433.4	80.31
433.622	100.31
433.844	81.31
434.066	87.31
434.287	79.31
434.509	99.31
434.731	87.31
434.953	83.31
435.175	80.31
435.397	83.31
435.618	71.31
435.84	82.31
436.062	78.31
436.284	79.31
436.505	78.31
436.727	87.31
436.949	81.31
437.17	84.31
437.392	81.31
437.614	77.31
437.835	90.31
438.057	92.31
438.278	83.31
438.5	87.31
438.721	85.31
438.943	81.31
439.165	90.31
439.386	79.31
439.608	84.31
439.829	69.31
440.05	94.31
440.272	93.31
440.493	93.31
440.715	81.31
440.936	79.31
441.158	95.31
441.379	70.31
441.6	88.31
441.822	79.31
442.043	81.31
442.264	80.31
442.486	81.31
442.707	92.31
442.928	75.31
443.149	85.31
443.371	86.31
443.592	89.31
443.813	92.31
444.034	85.31
444.255	78.31
444.476	85.31
444.698	89.31
444.919	89.31
445.14	162.31
445.361	127.31
445.582	87.31
445.803	87.31
446.024	77.31
446.245	89.31
446.466	91.31
446.687	95.31
446.908	67.31
447.129	67.31
447.35	90.31
447.571	80.31
447.792	92.31
448.013	73.31
448.234	97.31
448.455	82.31
448.675	87.31
448.896	83.31
449.117	74.31
449.338	95.31
449.559	86.31
449.779	92.31
450	76.31
450.221	87.31
450.442	91.31
450.662	75.31
450.883	81.31
451.104	88.31
451.324	79.31
451.545	97.31
451.766	83.31
451.986	75.31
452.207	88.31
452.428	87.31
452.648	92.31
452.869	72.31
453.089	87.31
453.31	75.31
453.53	81.31
453.751	84.31
453.971	90.31
454.192	86.31
454.412	82.31
454.633	84.31
454.853	80.31
455.073	86.31
455.294	75.31
455.514	89.31
455.734	78.31
455.955	90.31
456.175	93.31
456.395	87.31
456.616	81.31
456.836	87.31
457.056	92.31
457.276	98.31
457.497	87.31
457.717	73.31
457.937	108.31
458.157	91.31
458.377	86.31
458.598	82.31
458.818	81.31
459.038	87.31
459.258	74.31
459.478	77.31
459.698	72.31
459.918	90.31
460.138	85.31
460.358	77.31
460.578	77.31
460.798	99.31
461.018	84.31
461.238	85.31
461.458	94.31
461.678	90.31
461.898	98.31
462.118	93.31
462.338	98.31
462.558	87.31
462.777	95.31
462.997	84.31
463.217	77.31
463.437	97.31
463.657	84.31
463.876	82.31
464.096	85.31
464.316	80.31
464.536	85.31
464.755	88.31
464.975	93.31
465.195	74.31
465.414	92.31
465.634	92.31
465.854	85.31
466.073	70.31
466.293	80.31
466.512	96.31
466.732	91.31
466.951	85.31
467.171	88.31
467.391	87.31
467.61	95.31
467.829	72.31
468.049	94.31
468.268	76.31
468.488	87.31
468.707	91.31
468.927	93.31
469.146	79.31
469.365	68.31
469.585	91.31
469.804	85.31
470.023	77.31
470.243	96.31
470.462	85.31
470.681	89.31
470.901	83.31
471.12	80.31
471.339	84.31
471.558	75.31
471.777	87.31
471.997	88.31
472.216	87.31
472.435	81.31
472.654	93.31
472.873	78.31
473.092	64.31
473.311	78.31
473.53	78.31
473.749	88.31
473.968	100.31
474.187	81.31
474.406	80.31
474.625	79.31
474.844	89.31
475.063	81.31
475.282	81.31
475.501	82.31
475.72	81.31
475.939	86.31
476.158	91.31
476.377	80.31
476.596	79.31
476.814	82.31
477.033	71.31
477.252	77.31
477.471	86.31
477.69	91.31
477.908	87.31
478.127	81.31
478.346	77.31
478.564	86.31
478.783	88.31
479.002	87.31
479.22	81.31
479.439	72.31
479.658	101.31
479.876	89.31
480.095	74.31
480.313	85.31
480.532	86.31
480.751	97.31
480.969	78.31
481.188	90.31
481.406	92.31
481.624	89.31
481.843	90.31
482.061	84.31
482.28	90.31
482.498	72.31
482.717	75.31
482.935	85.31
483.153	84.31
483.372	87.31
483.59	91.31
483.808	85.31
484.027	82.31
484.245	96.31
484.463	91.31
484.681	74.31
484.9	98.31
485.118	74.31
485.336	80.31
485.554	87.31
485.772	90.31
485.99	97.31
486.209	101.31
486.427	77.31
486.645	76.31
486.863	88.31
487.081	96.31
487.299	78.31
487.517	83.31
487.735	93.31
487.953	99.31
488.171	84.31
488.389	73.31
488.607	93.31
488.825	87.31
489.043	77.31
489.261	97.31
489.479	87.31
489.696	95.31
489.914	76.31
490.132	92.31
490.35	96.31
490.568	85.31
490.786	85.31
491.003	80.31
491.221	78.31
491.439	99.31
491.657	87.31
491.874	85.31
492.092	90.31
492.31	104.31
492.527	79.31
492.745	100.31
492.963	80.31
493.18	87.31
493.398	89.31
493.615	84.31
493.833	93.31
494.05	87.31
494.268	93.31
494.485	87.31
494.703	80.31
494.92	82.31
495.138	79.31
495.355	93.31
495.573	91.31
495.79	92.31
496.008	87.31
496.225	87.31
496.442	86.31
496.66	89.31
496.877	91.31
497.094	87.31
497.312	82.31
497.529	79.31
497.746	81.31
497.963	78.31
498.181	85.31
498.398	55.31
498.615	78.31
498.832	83.31
499.049	73.31
499.267	87.31
499.484	82.31
499.701	87.31
499.918	97.31
500.135	82.31
500.352	79.31
500.569	73.31
500.786	97.31
501.003	93.31
501.22	83.31
501.437	95.31
501.654	88.31
501.871	97.31
502.088	79.31
502.305	89.31
502.522	76.31
502.739	87.31
502.956	96.31
503.172	86.31
503.389	79.31
503.606	77.31
503.823	86.31
504.04	84.31
504.256	97.31
504.473	88.31
504.69	69.31
504.907	84.31
505.123	87.31
505.34	74.31
505.557	90.31
505.773	94.31
505.99	71.31
506.207	64.31
506.423	79.31
506.64	86.31
506.856	85.31
507.073	79.31
507.289	78.31
507.506	92.31
507.722	86.31
507.939	93.31
508.155	80.31
508.372	71.31
508.588	64.31
508.805	77.31
509.021	79.31
509.238	95.31
509.454	93.31
509.67	84.31
509.887	88.31
510.103	81.31
510.319	89.31
510.536	85.31
510.752	100.31
510.968	88.31
511.184	76.31
511.401	87.31
511.617	80.31
511.833	83.31
512.049	89.31
512.265	80.31
512.481	94.31
512.698	90.31
512.914	101.31
513.13	93.31
513.346	91.31
513.562	93.31
513.778	75.31
513.994	94.31
514.21	79.31
514.426	87.31
514.642	107.31
514.858	85.31
515.074	87.31
515.29	94.31
515.506	79.31
515.721	81.31
515.937	87.31
516.153	80.31
516.369	82.31
516.585	75.31
516.801	89.31
517.016	90.31
517.232	96.31
517.448	86.31
517.664	72.31
517.879	89.31
518.095	117.31
518.311	85.31
518.527	80.31
518.742	73.31
518.958	81.31
519.173	94.31
519.389	91.31
519.605	92.31
519.82	76.31
520.036	99.31
520.251	98.31
520.467	90.31
520.682	89.31
520.898	83.31
521.113	83.31
521.329	90.31
521.544	85.31
521.76	76.31
521.975	87.31
522.19	94.31
522.406	88.31
522.621	91.31
522.836	84.31
523.052	79.31
523.267	93.31
523.482	87.31
523.698	88.31
523.913	62.31
524.128	84.31
524.343	100.31
524.559	80.31
524.774	95.31
524.989	83.31
525.204	89.31
525.419	95.31
525.634	76.31
525.849	83.31
526.064	74.31
526.28	105.31
526.495	76.31
526.71	67.31
526.925	89.31
527.14	66.31
527.355	82.31
527.57	79.31
527.785	91.31
527.999	78.31
528.214	87.31
528.429	85.31
528.644	96.31
528.859	97.31
529.074	92.31
529.289	82.31
529.503	91.31
529.718	86.31
529.933	90.31
530.148	93.31
530.363	92.31
530.577	83.31
530.792	86.31
531.007	80.31
531.221	95.31
531.436	90.31
531.651	86.31
531.865	77.31
532.08	69.31
532.295	81.31
532.509	80.31
532.724	85.31
532.938	82.31
533.153	75.31
533.367	73.31
533.582	85.31
533.796	83.31
534.011	65.31
534.225	77.31
534.44	77.31
534.654	85.31
534.868	95.31
535.083	85.31
535.297	96.31
535.511	85.31
535.726	89.31
535.94	92.31
536.154	103.31
536.369	86.31
536.583	87.31
536.797	86.31
537.011	89.31
537.225	92.31
537.44	88.31
537.654	89.31
537.868	92.31
538.082	89.31
538.296	77.31
538.51	88.31
538.724	88.31
538.938	83.31
539.153	83.31
539.367	92.31
539.581	85.31
539.795	95.31
540.009	80.31
540.222	86.31
540.436	83.31
540.65	74.31
540.864	85.31
541.078	87.31
541.292	94.31
541.506	88.31
541.72	87.31
541.934	85.31
542.147	85.31
542.361	90.31
542.575	80.31
542.789	93.31
543.002	91.31
543.216	88.31
543.43	91.31
543.644	98.31
543.857	88.31
544.071	87.31
544.285	94.31
544.498	99.31
544.712	95.31
544.925	85.31
545.139	75.31
545.352	82.31
545.566	83.31
545.779	82.31
545.993	84.31
546.206	89.31
546.42	74.31
546.633	83.31
546.847	74.31
547.06	80.31
547.274	89.31
547.487	100.31
547.7	92.31
547.914	89.31
548.127	83.31
548.34	84.31
548.554	81.31
548.767	83.31
548.98	87.31
549.193	77.31
549.407	89.31
549.62	85.31
549.833	91.31
550.046	86.31
550.259	77.31
550.473	83.31
550.686	90.31
550.899	89.31
551.112	73.31
551.325	68.31
551.538	94.31
551.751	91.31
551.964	83.31
552.177	88.31
552.39	89.31
552.603	82.31
552.816	95.31
553.029	89.31
553.242	87.31
553.455	80.31
553.667	108.31
553.88	79.31
554.093	90.31
554.306	85.31
554.519	76.31
554.732	81.31
554.944	76.31
555.157	89.31
555.37	91.31
555.583	77.31
555.795	86.31
556.008	81.31
556.221	84.31
556.433	80.31
556.646	99.31
556.859	89.31
557.071	83.31
557.284	87.31
557.496	100.31
557.709	78.31
557.921	84.31
558.134	87.31
558.346	78.31
558.559	91.31
558.771	79.31
558.984	95.31
559.196	100.31
559.409	92.31
559.621	87.31
559.833	87.31
560.046	86.31
560.258	84.31
560.47	89.31
560.683	101.31
560.895	77.31
561.107	90.31
561.32	93.31
561.532	99.31
561.744	88.31
561.956	95.31
562.168	71.31
562.381	76.31
562.593	80.31
562.805	105.31
563.017	89.31
563.229	71.31
563.441	99.31
563.653	101.31
563.865	82.31
564.077	81.31
564.289	94.31
564.501	82.31
564.713	89.31
564.925	94.31
565.137	91.31
565.349	87.31
565.561	91.31
565.773	92.31
565.985	80.31
566.197	85.31
566.408	93.31
566.62	92.31
566.832	86.31
567.044	83.31
567.255	91.31
567.467	84.31
567.679	85.31
567.891	100.31
568.102	95.31
568.314	95.31
568.526	84.31
568.737	94.31
568.949	70.31
569.161	86.31
569.372	91.31
569.584	81.31
569.795	85.31
570.007	82.31
570.218	76.31
570.43	82.31
570.641	94.31
570.853	100.31
571.064	100.31
571.276	81.31
571.487	80.31
571.698	88.31
571.91	77.31
572.121	87.31
572.333	107.31
572.544	99.31
572.755	89.31
572.966	85.31
573.178	93.31
573.389	85.31
573.6	91.31
573.811	91.31
574.023	87.31
574.234	93.31
574.445	88.31
574.656	85.31
574.867	93.31
575.078	82.31
575.289	88.31
575.501	79.31
575.712	79.31
575.923	89.31
576.134	90.31
576.345	95.31
576.556	88.31
576.767	91.31
576.978	89.31
577.188	80.31
577.399	89.31
577.61	89.31
577.821	83.31
578.032	91.31
578.243	99.31
578.454	76.31
578.665	95.31
578.875	91.31
579.086	79.31
579.297	86.31
579.508	79.31
579.718	99.31
579.929	84.31
580.14	85.31
580.35	88.31
580.561	94.31
580.772	81.31
580.982	85.31
581.193	91.31
581.403	79.31
581.614	86.31
581.825	91.31
582.035	88.31
582.246	92.31
582.456	86.31
582.667	86.31
582.877	90.31
583.087	81.31
583.298	92.31
583.508	75.31
583.719	85.31
583.929	87.31
584.139	81.31
584.35	77.31
584.56	75.31
584.77	92.31
584.981	80.31
585.191	88.31
585.401	104.31
585.611	80.31
585.821	89.31
586.032	76.31
586.242	97.31
586.452	93.31
586.662	92.31
586.872	82.31
587.082	73.31
587.292	96.31
587.502	95.31
587.713	79.31
587.923	89.31
588.133	89.31
588.343	88.31
588.553	80.31
588.762	94.31
588.972	81.31
589.182	95.31
589.392	78.31
589.602	97.31
589.812	86.31
590.022	93.31
590.232	91.31
590.441	95.31
590.651	88.31
590.861	103.31
591.071	79.31
591.281	99.31
591.49	81.31
591.7	83.31
591.91	93.31
592.119	86.31
592.329	89.31
592.539	77.31
592.748	101.31
592.958	91.31
593.167	89.31
593.377	99.31
593.587	98.31
593.796	87.31
594.006	99.31
594.215	89.31
594.424	102.31
594.634	97.31
594.843	79.31
595.053	93.31
595.262	91.31
595.472	88.31
595.681	88.31
595.89	85.31
596.1	96.31
596.309	99.31
596.518	78.31
596.727	93.31
596.937	97.31
597.146	74.31
597.355	93.31
597.564	76.31
597.774	89.31
597.983	85.31
598.192	87.31
598.401	87.31
598.61	82.31
598.819	73.31
599.028	90.31
599.237	83.31
599.446	97.31
599.655	79.31
599.864	85.31
600.073	92.31
600.282	88.31
600.491	90.31
600.7	92.31
600.909	87.31
601.118	83.31
601.327	81.31
601.536	93.31
601.745	93.31
601.953	98.31
602.162	78.31
602.371	73.31
602.58	82.31
602.789	78.31
602.997	89.31
603.206	95.31
603.415	79.31
603.623	82.31
603.832	95.31
604.041	94.31
604.249	104.31
604.458	76.31
604.666	87.31
604.875	85.31
605.084	92.31
605.292	91.31
605.501	75.31
605.709	70.31
605.918	73.31
606.126	81.31
606.334	94.31
606.543	91.31
606.751	90.31
606.96	81.31
607.168	84.31
607.376	91.31
607.585	85.31
607.793	98.31
608.001	91.31
608.21	80.31
608.418	89.31
608.626	81.31
608.834	88.31
609.043	88.31
609.251	90.31
609.459	89.31
609.667	81.31
609.875	81.31
610.083	82.31
610.291	101.31
610.499	84.31
610.707	95.31
610.916	95.31
611.124	96.31
611.332	89.31
611.54	94.31
611.748	80.31
611.955	95.31
612.163	77.31
612.371	83.31
612.579	89.31
612.787	98.31
612.995	81.31
613.203	98.31
613.411	90.31
613.618	75.31
613.826	81.31
614.034	100.31
614.242	97.31
614.449	76.31
614.657	73.31
614.865	93.31
615.072	71.31
615.28	86.31
615.488	77.31
615.695	78.31
615.903	87.31
616.111	85.31
616.318	92.31
616.526	88.31
616.733	94.31
616.941	99.31
617.148	76.31
617.356	84.31
617.563	92.31
617.771	88.31
617.978	80.31
618.185	88.31
618.393	93.31
618.6	92.31
618.807	85.31
619.015	102.31
619.222	70.31
619.429	95.31
619.637	78.31
619.844	100.31
620.051	86.31
620.258	88.31
620.466	68.31
620.673	80.31
620.88	76.31
621.087	98.31
621.294	92.31
621.501	99.31
621.708	95.31
621.915	77.31
622.122	87.31
622.329	88.31
622.536	78.31
622.743	94.31
622.95	82.31
623.157	81.31
623.364	87.31
623.571	93.31
623.778	95.31
623.985	84.31
624.192	84.31
624.399	92.31
624.606	90.31
624.812	99.31
625.019	74.31
625.226	90.31
625.433	84.31
625.639	87.31
625.846	90.31
626.053	87.31
626.259	80.31
626.466	88.31
626.673	80.31
626.879	87.31
627.086	96.31
627.293	93.31
627.499	95.31
627.706	85.31
627.912	90.31
628.119	85.31
628.325	82.31
628.532	90.31
628.738	79.31
628.945	78.31
629.151	91.31
629.357	75.31
629.564	87.31
629.77	73.31
629.976	71.31
630.183	84.31
630.389	86.31
630.595	101.31
630.802	88.31
631.008	88.31
631.214	91.31
631.42	80.31
631.627	88.31
631.833	71.31
632.039	73.31
632.245	84.31
632.451	97.31
632.657	88.31
632.863	96.31
633.069	80.31
633.275	78.31
633.481	80.31
633.688	88.31
633.893	94.31
634.099	90.31
634.305	88.31
634.511	93.31
634.717	81.31
634.923	69.31
635.129	78.31
635.335	91.31
635.541	82.31
635.747	85.31
635.952	102.31
636.158	91.31
636.364	89.31
636.57	88.31
636.775	87.31
636.981	91.31
637.187	89.31
637.392	88.31
637.598	87.31
637.804	88.31
638.009	99.31
638.215	90.31
638.421	80.31
638.626	85.31
638.832	91.31
639.037	71.31
639.243	92.31
639.448	83.31
639.654	94.31
639.859	84.31
640.065	80.31
640.27	79.31
640.475	85.31
640.681	83.31
640.886	87.31
641.091	80.31
641.297	93.31
641.502	76.31
641.707	102.31
641.913	76.31
642.118	81.31
642.323	94.31
642.528	89.31
642.733	89.31
642.939	87.31
643.144	82.31
643.349	86.31
643.554	99.31
643.759	91.31
643.964	93.31
644.169	93.31
644.374	76.31
644.579	89.31
644.784	82.31
644.989	83.31
645.194	91.31
645.399	80.31
645.604	90.31
645.809	85.31
646.014	80.31
646.219	88.31
646.423	77.31
646.628	83.31
646.833	91.31
647.038	88.31
647.243	103.31
647.447	94.31
647.652	75.31
647.857	81.31
648.062	85.31
648.266	86.31
648.471	86.31
648.676	87.31
648.88	100.31
649.085	81.31
649.289	85.31
649.494	89.31
649.698	86.31
649.903	94.31
650.107	94.31
650.312	86.31
650.516	97.31
650.721	84.31
650.925	89.31
651.13	84.31
651.334	82.31
651.539	89.31
651.743	74.31
651.947	80.31
652.152	88.31
652.356	83.31
652.56	88.31
652.764	86.31
652.969	99.31
653.173	80.31
653.377	93.31
653.581	91.31
653.785	69.31
653.99	64.31
654.194	77.31
654.398	94.31
654.602	97.31
654.806	94.31
655.01	73.31
655.214	91.31
655.418	96.31
655.622	93.31
655.826	94.31
656.03	91.31
656.234	94.31
656.438	87.31
656.642	97.31
656.846	84.31
657.049	85.31
657.253	90.31
657.457	66.31
657.661	72.31
657.865	70.31
658.068	87.31
658.272	78.31
658.476	79.31
658.68	102.31
658.883	87.31
659.087	70.31
659.291	79.31
659.494	75.31
659.698	84.31
659.901	84.31
660.105	80.31
660.309	75.31
660.512	84.31
660.716	87.31
660.919	95.31
661.123	97.31
661.326	77.31
661.53	96.31
661.733	87.31
661.936	87.31
662.14	87.31
662.343	87.31
662.546	78.31
662.75	79.31
662.953	84.31
663.156	79.31
663.36	87.31
663.563	88.31
663.766	87.31
663.969	99.31
664.173	81.31
664.376	87.31
664.579	79.31
664.782	90.31
664.985	87.31
665.188	87.31
665.391	95.31
665.594	95.31
665.797	87.31
666	91.31
666.203	80.31
666.406	88.31
666.609	91.31
666.812	92.31
667.015	84.31
667.218	92.31
667.421	95.31
667.624	90.31
667.827	96.31
668.03	91.31
668.232	79.31
668.435	92.31
668.638	80.31
668.841	89.31
669.043	96.31
669.246	71.31
669.449	95.31
669.651	76.31
669.854	69.31
670.057	87.31
670.259	83.31
670.462	95.31
670.665	84.31
670.867	77.31
671.07	79.31
671.272	92.31
671.475	86.31
671.677	80.31
671.88	89.31
672.082	72.31
672.284	77.31
672.487	80.31
672.689	71.31
672.892	66.31
