Data from BG_HRD10591_014.txt Node
Date: Fri May 16 15:14:29 EDT 2025
User: Yrep
Spectrometer: HR+D1059
Trigger mode: 1
Integration Time (sec): 1.000000E-1
Scans to average: 1
Electric dark correction enabled: true
Nonlinearity correction enabled: false
Boxcar width: 0
XAxis mode: Wavelengths
Number of Pixels in Spectrum: 2048
>>>>>Begin Spectral Data<<<<<
223.165	-23.31
223.4	-23.31
223.635	-23.31
223.869	-38.31
224.104	-8.31
224.338	-26.31
224.573	-3.31
224.808	-7.31
225.042	-2.31
225.277	-13.31
225.511	-13.31
225.746	7.69
225.98	17.69
226.215	5.69
226.449	23.69
226.683	17.69
226.918	23.69
227.152	39.69
227.387	38.69
227.621	42.69
227.856	33.69
228.09	38.69
228.324	58.69
228.559	55.69
228.793	50.69
229.027	58.69
229.262	69.69
229.496	53.69
229.73	61.69
229.964	60.69
230.199	73.69
230.433	81.69
230.667	67.69
230.901	80.69
231.136	76.69
231.37	87.69
231.604	71.69
231.838	72.69
232.072	85.69
232.306	74.69
232.541	75.69
232.775	87.69
233.009	84.69
233.243	76.69
233.477	73.69
233.711	63.69
233.945	79.69
234.179	66.69
234.413	77.69
234.647	73.69
234.881	82.69
235.115	82.69
235.349	75.69
235.583	69.69
235.817	62.69
236.051	72.69
236.285	72.69
236.519	81.69
236.753	84.69
236.987	80.69
237.221	82.69
237.455	74.69
237.689	63.69
237.922	71.69
238.156	70.69
238.39	76.69
238.624	73.69
238.858	63.69
239.091	67.69
239.325	59.69
239.559	68.69
239.793	86.69
240.027	75.69
240.26	71.69
240.494	65.69
240.728	86.69
240.961	91.69
241.195	86.69
241.429	78.69
241.662	64.69
241.896	62.69
242.13	87.69
242.363	77.69
242.597	67.69
242.83	79.69
243.064	78.69
243.298	67.69
243.531	76.69
243.765	68.69
243.998	94.69
244.232	73.69
244.465	67.69
244.699	69.69
244.932	64.69
245.166	82.69
245.399	73.69
245.633	77.69
245.866	71.69
246.099	80.69
246.333	86.69
246.566	77.69
246.8	76.69
247.033	66.69
247.266	82.69
247.5	83.69
247.733	84.69
247.966	87.69
248.2	87.69
248.433	72.69
248.666	67.69
248.899	69.69
249.133	77.69
249.366	85.69
249.599	66.69
249.832	73.69
250.066	73.69
250.299	73.69
250.532	66.69
250.765	81.69
250.998	64.69
251.231	68.69
251.465	70.69
251.698	85.69
251.931	75.69
252.164	85.69
252.397	76.69
252.63	76.69
252.863	66.69
253.096	71.69
253.329	74.69
253.562	73.69
253.795	91.69
254.028	77.69
254.261	81.69
254.494	79.69
254.727	96.69
254.96	85.69
255.193	74.69
255.426	81.69
255.659	87.69
255.892	78.69
256.124	84.69
256.357	64.69
256.59	85.69
256.823	72.69
257.056	81.69
257.289	83.69
257.521	75.69
257.754	63.69
257.987	74.69
258.22	72.69
258.452	88.69
258.685	68.69
258.918	73.69
259.151	88.69
259.383	79.69
259.616	71.69
259.849	86.69
260.081	94.69
260.314	67.69
260.547	61.69
260.779	83.69
261.012	78.69
261.244	83.69
261.477	87.69
261.71	78.69
261.942	86.69
262.175	97.69
262.407	75.69
262.64	81.69
262.872	75.69
263.105	84.69
263.337	68.69
263.57	69.69
263.802	75.69
264.035	66.69
264.267	74.69
264.499	83.69
264.732	98.69
264.964	83.69
265.197	75.69
265.429	82.69
265.661	87.69
265.894	70.69
266.126	77.69
266.358	80.69
266.591	75.69
266.823	68.69
267.055	82.69
267.287	83.69
267.52	92.69
267.752	83.69
267.984	80.69
268.216	86.69
268.448	89.69
268.681	84.69
268.913	76.69
269.145	81.69
269.377	80.69
269.609	75.69
269.841	77.69
270.073	73.69
270.306	94.69
270.538	101.69
270.77	80.69
271.002	91.69
271.234	87.69
271.466	93.69
271.698	80.69
271.93	81.69
272.162	70.69
272.394	79.69
272.626	75.69
272.858	83.69
273.09	81.69
273.322	82.69
273.553	81.69
273.785	77.69
274.017	73.69
274.249	91.69
274.481	78.69
274.713	94.69
274.945	88.69
275.176	87.69
275.408	74.69
275.64	97.69
275.872	79.69
276.104	77.69
276.335	76.69
276.567	72.69
276.799	77.69
277.031	73.69
277.262	74.69
277.494	96.69
277.726	93.69
277.957	81.69
278.189	71.69
278.421	78.69
278.652	72.69
278.884	89.69
279.115	89.69
279.347	63.69
279.579	79.69
279.81	79.69
280.042	81.69
280.273	79.69
280.505	82.69
280.736	89.69
280.968	83.69
281.199	85.69
281.431	85.69
281.662	83.69
281.894	79.69
282.125	88.69
282.356	69.69
282.588	74.69
282.819	82.69
283.051	86.69
283.282	89.69
283.513	76.69
283.745	77.69
283.976	94.69
284.207	89.69
284.439	88.69
284.67	84.69
284.901	77.69
285.132	81.69
285.364	97.69
285.595	101.69
285.826	92.69
286.057	90.69
286.288	70.69
286.52	82.69
286.751	74.69
286.982	76.69
287.213	82.69
287.444	79.69
287.675	87.69
287.906	93.69
288.138	79.69
288.369	85.69
288.6	90.69
288.831	77.69
289.062	73.69
289.293	87.69
289.524	92.69
289.755	73.69
289.986	78.69
290.217	71.69
290.448	87.69
290.679	82.69
290.91	99.69
291.141	83.69
291.371	89.69
291.602	83.69
291.833	92.69
292.064	83.69
292.295	67.69
292.526	81.69
292.757	76.69
292.987	95.69
293.218	81.69
293.449	72.69
293.68	76.69
293.91	85.69
294.141	87.69
294.372	79.69
294.603	81.69
294.833	84.69
295.064	93.69
295.295	93.69
295.525	76.69
295.756	80.69
295.987	89.69
296.217	79.69
296.448	86.69
296.679	78.69
296.909	83.69
297.14	93.69
297.37	89.69
297.601	86.69
297.831	71.69
298.062	86.69
298.292	75.69
298.523	91.69
298.753	74.69
298.984	85.69
299.214	81.69
299.445	86.69
299.675	83.69
299.905	81.69
300.136	86.69
300.366	92.69
300.597	99.69
300.827	74.69
301.057	87.69
301.288	75.69
301.518	87.69
301.748	71.69
301.979	85.69
302.209	64.69
302.439	84.69
302.669	73.69
302.9	87.69
303.13	65.69
303.36	77.69
303.59	77.69
303.82	85.69
304.051	99.69
304.281	85.69
304.511	101.69
304.741	86.69
304.971	73.69
305.201	86.69
305.431	73.69
305.661	89.69
305.891	76.69
306.121	70.69
306.352	83.69
306.582	97.69
306.812	84.69
307.042	88.69
307.272	79.69
307.502	67.69
307.731	83.69
307.961	69.69
308.191	84.69
308.421	91.69
308.651	93.69
308.881	89.69
309.111	92.69
309.341	85.69
309.571	82.69
309.8	71.69
310.03	73.69
310.26	89.69
310.49	85.69
310.72	79.69
310.949	81.69
311.179	90.69
311.409	82.69
311.639	78.69
311.868	86.69
312.098	85.69
312.328	93.69
312.557	82.69
312.787	76.69
313.017	78.69
313.246	79.69
313.476	91.69
313.706	88.69
313.935	82.69
314.165	83.69
314.394	67.69
314.624	76.69
314.853	84.69
315.083	76.69
315.312	85.69
315.542	89.69
315.771	82.69
316.001	82.69
316.23	89.69
316.46	75.69
316.689	82.69
316.919	75.69
317.148	90.69
317.377	77.69
317.607	108.69
317.836	83.69
318.065	90.69
318.295	75.69
318.524	75.69
318.753	75.69
318.983	74.69
319.212	84.69
319.441	83.69
319.67	86.69
319.9	85.69
320.129	92.69
320.358	90.69
320.587	95.69
320.816	107.69
321.046	83.69
321.275	83.69
321.504	96.69
321.733	68.69
321.962	87.69
322.191	73.69
322.42	78.69
322.649	72.69
322.878	75.69
323.108	82.69
323.337	90.69
323.566	77.69
323.795	83.69
324.024	78.69
324.253	83.69
324.482	85.69
324.71	75.69
324.939	93.69
325.168	79.69
325.397	79.69
325.626	74.69
325.855	92.69
326.084	90.69
326.313	83.69
326.542	85.69
326.77	73.69
326.999	74.69
327.228	97.69
327.457	77.69
327.686	89.69
327.914	81.69
328.143	82.69
328.372	73.69
328.6	88.69
328.829	83.69
329.058	86.69
329.287	64.69
329.515	96.69
329.744	97.69
329.972	71.69
330.201	97.69
330.43	86.69
330.658	84.69
330.887	94.69
331.115	92.69
331.344	90.69
331.572	93.69
331.801	85.69
332.03	90.69
332.258	91.69
332.486	99.69
332.715	88.69
332.943	88.69
333.172	84.69
333.4	86.69
333.629	89.69
333.857	105.69
334.085	86.69
334.314	77.69
334.542	74.69
334.771	81.69
334.999	87.69
335.227	87.69
335.455	93.69
335.684	86.69
335.912	99.69
336.14	89.69
336.369	77.69
336.597	82.69
336.825	94.69
337.053	91.69
337.281	83.69
337.51	82.69
337.738	98.69
337.966	90.69
338.194	91.69
338.422	72.69
338.65	93.69
338.878	82.69
339.106	97.69
339.334	83.69
339.562	87.69
339.79	71.69
340.018	78.69
340.246	80.69
340.474	83.69
340.702	84.69
340.93	91.69
341.158	89.69
341.386	84.69
341.614	97.69
341.842	78.69
342.07	81.69
342.298	75.69
342.526	81.69
342.754	74.69
342.981	94.69
343.209	85.69
343.437	102.69
343.665	87.69
343.893	81.69
344.12	94.69
344.348	90.69
344.576	82.69
344.804	74.69
345.031	87.69
345.259	83.69
345.487	80.69
345.714	96.69
345.942	90.69
346.17	87.69
346.397	78.69
346.625	84.69
346.853	84.69
347.08	82.69
347.308	88.69
347.535	101.69
347.763	79.69
347.99	78.69
348.218	74.69
348.445	76.69
348.673	87.69
348.9	90.69
349.128	89.69
349.355	79.69
349.583	84.69
349.81	94.69
350.037	94.69
350.265	94.69
350.492	99.69
350.72	83.69
350.947	78.69
351.174	78.69
351.402	84.69
351.629	89.69
351.856	86.69
352.083	77.69
352.311	75.69
352.538	86.69
352.765	70.69
352.992	93.69
353.22	92.69
353.447	95.69
353.674	91.69
353.901	84.69
354.128	87.69
354.355	93.69
354.583	87.69
354.81	82.69
355.037	90.69
355.264	67.69
355.491	81.69
355.718	91.69
355.945	86.69
356.172	88.69
356.399	77.69
356.626	67.69
356.853	77.69
357.08	77.69
357.307	83.69
357.534	77.69
357.761	77.69
357.988	92.69
358.215	89.69
358.441	76.69
358.668	87.69
358.895	77.69
359.122	86.69
359.349	80.69
359.576	79.69
359.802	76.69
360.029	78.69
360.256	92.69
360.483	82.69
360.709	85.69
360.936	76.69
361.163	72.69
361.39	73.69
361.616	81.69
361.843	63.69
362.07	85.69
362.296	80.69
362.523	77.69
362.749	77.69
362.976	72.69
363.203	75.69
363.429	79.69
363.656	79.69
363.882	73.69
364.109	91.69
364.335	93.69
364.562	66.69
364.788	90.69
365.015	89.69
365.241	102.69
365.468	82.69
365.694	89.69
365.92	76.69
366.147	78.69
366.373	75.69
366.599	81.69
366.826	79.69
367.052	69.69
367.278	92.69
367.505	89.69
367.731	87.69
367.957	83.69
368.184	74.69
368.41	97.69
368.636	77.69
368.862	69.69
369.089	79.69
369.315	63.69
369.541	83.69
369.767	83.69
369.993	86.69
370.219	83.69
370.445	92.69
370.672	85.69
370.898	92.69
371.124	77.69
371.35	89.69
371.576	92.69
371.802	93.69
372.028	76.69
372.254	91.69
372.48	85.69
372.706	84.69
372.932	74.69
373.158	87.69
373.384	92.69
373.61	82.69
373.835	90.69
374.061	75.69
374.287	83.69
374.513	70.69
374.739	78.69
374.965	84.69
375.191	93.69
375.416	73.69
375.642	70.69
375.868	93.69
376.094	78.69
376.319	86.69
376.545	87.69
376.771	84.69
376.997	90.69
377.222	77.69
377.448	95.69
377.674	85.69
377.899	82.69
378.125	82.69
378.35	81.69
378.576	79.69
378.802	93.69
379.027	74.69
379.253	85.69
379.478	95.69
379.704	95.69
379.929	95.69
380.155	94.69
380.38	94.69
380.606	89.69
380.831	82.69
381.057	98.69
381.282	95.69
381.507	90.69
381.733	96.69
381.958	88.69
382.184	78.69
382.409	73.69
382.634	99.69
382.86	81.69
383.085	86.69
383.31	80.69
383.535	90.69
383.761	88.69
383.986	73.69
384.211	81.69
384.436	85.69
384.662	84.69
384.887	75.69
385.112	79.69
385.337	102.69
385.562	77.69
385.787	78.69
386.013	94.69
386.238	94.69
386.463	85.69
386.688	99.69
386.913	88.69
387.138	93.69
387.363	77.69
387.588	72.69
387.813	97.69
388.038	78.69
388.263	82.69
388.488	71.69
388.713	83.69
388.938	90.69
389.163	89.69
389.387	83.69
389.612	79.69
389.837	91.69
390.062	99.69
390.287	79.69
390.512	91.69
390.736	82.69
390.961	89.69
391.186	81.69
391.411	84.69
391.636	82.69
391.86	100.69
392.085	73.69
392.31	85.69
392.534	87.69
392.759	90.69
392.984	82.69
393.208	72.69
393.433	78.69
393.658	90.69
393.882	78.69
394.107	98.69
394.331	87.69
394.556	76.69
394.78	100.69
395.005	81.69
395.229	81.69
395.454	89.69
395.678	78.69
395.903	84.69
396.127	92.69
396.352	74.69
396.576	86.69
396.801	93.69
397.025	83.69
397.249	101.69
397.474	89.69
397.698	81.69
397.922	76.69
398.147	74.69
398.371	91.69
398.595	84.69
398.82	95.69
399.044	101.69
399.268	89.69
399.492	87.69
399.717	97.69
399.941	89.69
400.165	83.69
400.389	72.69
400.613	71.69
400.837	89.69
401.062	82.69
401.286	81.69
401.51	89.69
401.734	83.69
401.958	87.69
402.182	90.69
402.406	89.69
402.63	71.69
402.854	90.69
403.078	86.69
403.302	90.69
403.526	87.69
403.75	81.69
403.974	102.69
404.198	78.69
404.422	93.69
404.645	82.69
404.869	89.69
405.093	79.69
405.317	81.69
405.541	90.69
405.765	84.69
405.988	85.69
406.212	97.69
406.436	84.69
406.66	105.69
406.883	90.69
407.107	82.69
407.331	84.69
407.555	85.69
407.778	86.69
408.002	79.69
408.226	93.69
408.449	99.69
408.673	88.69
408.896	83.69
409.12	91.69
409.344	94.69
409.567	80.69
409.791	93.69
410.014	90.69
410.238	93.69
410.461	86.69
410.685	86.69
410.908	92.69
411.132	85.69
411.355	86.69
411.578	93.69
411.802	92.69
412.025	99.69
412.249	81.69
412.472	75.69
412.695	94.69
412.919	85.69
413.142	90.69
413.365	88.69
413.589	74.69
413.812	100.69
414.035	95.69
414.258	93.69
414.482	95.69
414.705	79.69
414.928	93.69
415.151	78.69
415.374	89.69
415.597	97.69
415.821	95.69
416.044	89.69
416.267	90.69
416.49	78.69
416.713	70.69
416.936	78.69
417.159	86.69
417.382	83.69
417.605	83.69
417.828	83.69
418.051	89.69
418.274	80.69
418.497	91.69
418.72	84.69
418.943	94.69
419.166	99.69
419.389	89.69
419.611	87.69
419.834	81.69
420.057	92.69
420.28	90.69
420.503	67.69
420.726	75.69
420.948	81.69
421.171	101.69
421.394	95.69
421.617	94.69
421.839	94.69
422.062	81.69
422.285	77.69
422.507	82.69
422.73	81.69
422.953	75.69
423.175	97.69
423.398	93.69
423.621	92.69
423.843	88.69
424.066	97.69
424.288	87.69
424.511	84.69
424.733	78.69
424.956	71.69
425.178	88.69
425.401	81.69
425.623	94.69
425.846	86.69
426.068	77.69
426.291	90.69
426.513	84.69
426.735	82.69
426.958	91.69
427.18	87.69
427.402	82.69
427.625	100.69
427.847	99.69
428.069	90.69
428.292	79.69
428.514	93.69
428.736	76.69
428.958	98.69
429.181	81.69
429.403	97.69
429.625	83.69
429.847	102.69
430.069	86.69
430.292	87.69
430.514	84.69
430.736	89.69
430.958	102.69
431.18	90.69
431.402	87.69
431.624	82.69
431.846	78.69
432.068	83.69
432.29	79.69
432.512	86.69
432.734	90.69
432.956	87.69
433.178	79.69
433.4	89.69
433.622	84.69
433.844	87.69
434.066	86.69
434.287	77.69
434.509	85.69
434.731	85.69
434.953	86.69
435.175	101.69
435.397	98.69
435.618	87.69
435.84	69.69
436.062	97.69
436.284	85.69
436.505	86.69
436.727	81.69
436.949	77.69
437.17	84.69
437.392	105.69
437.614	86.69
437.835	85.69
438.057	86.69
438.278	90.69
438.5	82.69
438.721	81.69
438.943	80.69
439.165	76.69
439.386	105.69
439.608	94.69
439.829	82.69
440.05	92.69
440.272	85.69
440.493	85.69
440.715	75.69
440.936	83.69
441.158	93.69
441.379	84.69
441.6	94.69
441.822	90.69
442.043	91.69
442.264	82.69
442.486	100.69
442.707	86.69
442.928	87.69
443.149	86.69
443.371	91.69
443.592	101.69
443.813	82.69
444.034	82.69
444.255	80.69
444.476	105.69
444.698	90.69
444.919	84.69
445.14	142.69
445.361	113.69
445.582	83.69
445.803	94.69
446.024	79.69
446.245	98.69
446.466	71.69
446.687	69.69
446.908	79.69
447.129	101.69
447.35	80.69
447.571	90.69
447.792	86.69
448.013	86.69
448.234	94.69
448.455	86.69
448.675	78.69
448.896	94.69
449.117	104.69
449.338	90.69
449.559	93.69
449.779	77.69
450	89.69
450.221	63.69
450.442	69.69
450.662	74.69
450.883	81.69
451.104	82.69
451.324	84.69
451.545	90.69
451.766	94.69
451.986	91.69
452.207	79.69
452.428	94.69
452.648	83.69
452.869	91.69
453.089	80.69
453.31	87.69
453.53	88.69
453.751	90.69
453.971	83.69
454.192	80.69
454.412	74.69
454.633	80.69
454.853	84.69
455.073	82.69
455.294	82.69
455.514	80.69
455.734	75.69
455.955	74.69
456.175	76.69
456.395	79.69
456.616	85.69
456.836	84.69
457.056	90.69
457.276	74.69
457.497	72.69
457.717	64.69
457.937	76.69
458.157	80.69
458.377	70.69
458.598	65.69
458.818	76.69
459.038	87.69
459.258	81.69
459.478	90.69
459.698	98.69
459.918	97.69
460.138	104.69
460.358	78.69
460.578	91.69
460.798	98.69
461.018	81.69
461.238	105.69
461.458	94.69
461.678	89.69
461.898	83.69
462.118	89.69
462.338	82.69
462.558	93.69
462.777	84.69
462.997	101.69
463.217	97.69
463.437	90.69
463.657	84.69
463.876	89.69
464.096	103.69
464.316	87.69
464.536	86.69
464.755	94.69
464.975	81.69
465.195	95.69
465.414	89.69
465.634	86.69
465.854	90.69
466.073	76.69
466.293	74.69
466.512	77.69
466.732	75.69
466.951	87.69
467.171	82.69
467.391	83.69
467.61	102.69
467.829	79.69
468.049	80.69
468.268	84.69
468.488	89.69
468.707	83.69
468.927	68.69
469.146	85.69
469.365	103.69
469.585	84.69
469.804	98.69
470.023	87.69
470.243	91.69
470.462	97.69
470.681	97.69
470.901	98.69
471.12	88.69
471.339	83.69
471.558	87.69
471.777	84.69
471.997	76.69
472.216	94.69
472.435	99.69
472.654	90.69
472.873	81.69
473.092	98.69
473.311	90.69
473.53	83.69
473.749	89.69
473.968	76.69
474.187	90.69
474.406	79.69
474.625	85.69
474.844	84.69
475.063	92.69
475.282	103.69
475.501	85.69
475.72	100.69
475.939	71.69
476.158	78.69
476.377	83.69
476.596	89.69
476.814	87.69
477.033	84.69
477.252	100.69
477.471	93.69
477.69	109.69
477.908	88.69
478.127	87.69
478.346	79.69
478.564	73.69
478.783	91.69
479.002	88.69
479.22	85.69
479.439	77.69
479.658	97.69
479.876	76.69
480.095	77.69
480.313	83.69
480.532	88.69
480.751	97.69
480.969	96.69
481.188	91.69
481.406	88.69
481.624	81.69
481.843	75.69
482.061	94.69
482.28	91.69
482.498	88.69
482.717	77.69
482.935	85.69
483.153	90.69
483.372	93.69
483.59	89.69
483.808	77.69
484.027	85.69
484.245	104.69
484.463	94.69
484.681	91.69
484.9	107.69
485.118	101.69
485.336	83.69
485.554	92.69
485.772	77.69
485.99	86.69
486.209	79.69
486.427	89.69
486.645	87.69
486.863	79.69
487.081	78.69
487.299	84.69
487.517	80.69
487.735	85.69
487.953	87.69
488.171	83.69
488.389	80.69
488.607	86.69
488.825	88.69
489.043	87.69
489.261	90.69
489.479	99.69
489.696	100.69
489.914	81.69
490.132	97.69
490.35	92.69
490.568	79.69
490.786	90.69
491.003	85.69
491.221	67.69
491.439	74.69
491.657	78.69
491.874	97.69
492.092	80.69
492.31	91.69
492.527	94.69
492.745	86.69
492.963	84.69
493.18	99.69
493.398	86.69
493.615	77.69
493.833	88.69
494.05	88.69
494.268	107.69
494.485	91.69
494.703	89.69
494.92	79.69
495.138	73.69
495.355	92.69
495.573	87.69
495.79	84.69
496.008	95.69
496.225	104.69
496.442	88.69
496.66	82.69
496.877	74.69
497.094	89.69
497.312	100.69
497.529	89.69
497.746	87.69
497.963	98.69
498.181	91.69
498.398	89.69
498.615	87.69
498.832	101.69
499.049	87.69
499.267	102.69
499.484	105.69
499.701	107.69
499.918	98.69
500.135	103.69
500.352	98.69
500.569	111.69
500.786	108.69
501.003	98.69
501.22	103.69
501.437	92.69
501.654	105.69
501.871	74.69
502.088	101.69
502.305	91.69
502.522	100.69
502.739	104.69
502.956	77.69
503.172	79.69
503.389	92.69
503.606	99.69
503.823	91.69
504.04	98.69
504.256	100.69
504.473	88.69
504.69	77.69
504.907	91.69
505.123	79.69
505.34	89.69
505.557	90.69
505.773	90.69
505.99	73.69
506.207	86.69
506.423	86.69
506.64	85.69
506.856	84.69
507.073	81.69
507.289	93.69
507.506	90.69
507.722	90.69
507.939	90.69
508.155	93.69
508.372	89.69
508.588	88.69
508.805	92.69
509.021	101.69
509.238	82.69
509.454	94.69
509.67	82.69
509.887	87.69
510.103	70.69
510.319	90.69
510.536	93.69
510.752	86.69
510.968	74.69
511.184	79.69
511.401	82.69
511.617	78.69
511.833	80.69
512.049	71.69
512.265	75.69
512.481	65.69
512.698	94.69
512.914	84.69
513.13	82.69
513.346	77.69
513.562	91.69
513.778	84.69
513.994	88.69
514.21	101.69
514.426	101.69
514.642	78.69
514.858	94.69
515.074	82.69
515.29	84.69
515.506	94.69
515.721	97.69
515.937	85.69
516.153	89.69
516.369	95.69
516.585	90.69
516.801	82.69
517.016	69.69
517.232	95.69
517.448	95.69
517.664	89.69
517.879	90.69
518.095	104.69
518.311	91.69
518.527	93.69
518.742	98.69
518.958	110.69
519.173	105.69
519.389	110.69
519.605	82.69
519.82	81.69
520.036	85.69
520.251	83.69
520.467	74.69
520.682	81.69
520.898	97.69
521.113	90.69
521.329	91.69
521.544	89.69
521.76	90.69
521.975	89.69
522.19	97.69
522.406	95.69
522.621	98.69
522.836	81.69
523.052	71.69
523.267	94.69
523.482	84.69
523.698	94.69
523.913	94.69
524.128	84.69
524.343	82.69
524.559	86.69
524.774	86.69
524.989	77.69
525.204	91.69
525.419	94.69
525.634	87.69
525.849	77.69
526.064	90.69
526.28	98.69
526.495	92.69
526.71	99.69
526.925	91.69
527.14	87.69
527.355	87.69
527.57	86.69
527.785	70.69
527.999	91.69
528.214	101.69
528.429	80.69
528.644	87.69
528.859	81.69
529.074	89.69
529.289	84.69
529.503	84.69
529.718	77.69
529.933	90.69
530.148	90.69
530.363	100.69
530.577	78.69
530.792	98.69
531.007	99.69
531.221	97.69
531.436	79.69
531.651	86.69
531.865	83.69
532.08	96.69
532.295	92.69
532.509	85.69
532.724	77.69
532.938	85.69
533.153	86.69
533.367	78.69
533.582	85.69
533.796	80.69
534.011	92.69
534.225	77.69
534.44	83.69
534.654	83.69
534.868	78.69
535.083	92.69
535.297	87.69
535.511	78.69
535.726	92.69
535.94	94.69
536.154	76.69
536.369	88.69
536.583	89.69
536.797	86.69
537.011	90.69
537.225	91.69
537.44	90.69
537.654	79.69
537.868	81.69
538.082	90.69
538.296	89.69
538.51	89.69
538.724	93.69
538.938	87.69
539.153	83.69
539.367	82.69
539.581	79.69
539.795	79.69
540.009	85.69
540.222	64.69
540.436	86.69
540.65	97.69
540.864	87.69
541.078	88.69
541.292	90.69
541.506	83.69
541.72	79.69
541.934	93.69
542.147	89.69
542.361	91.69
542.575	96.69
542.789	90.69
543.002	85.69
543.216	78.69
543.43	81.69
543.644	87.69
543.857	78.69
544.071	95.69
544.285	92.69
544.498	88.69
544.712	79.69
544.925	95.69
545.139	82.69
545.352	93.69
545.566	95.69
545.779	87.69
545.993	79.69
546.206	81.69
546.42	89.69
546.633	85.69
546.847	89.69
547.06	87.69
547.274	100.69
547.487	99.69
547.7	85.69
547.914	91.69
548.127	92.69
548.34	83.69
548.554	78.69
548.767	91.69
548.98	92.69
549.193	75.69
549.407	89.69
549.62	88.69
549.833	86.69
550.046	92.69
550.259	92.69
550.473	79.69
550.686	89.69
550.899	93.69
551.112	98.69
551.325	97.69
551.538	84.69
551.751	103.69
551.964	79.69
552.177	101.69
552.39	73.69
552.603	82.69
552.816	98.69
553.029	91.69
553.242	83.69
553.455	75.69
553.667	89.69
553.88	83.69
554.093	106.69
554.306	90.69
554.519	92.69
554.732	97.69
554.944	85.69
555.157	97.69
555.37	86.69
555.583	83.69
555.795	82.69
556.008	90.69
556.221	81.69
556.433	91.69
556.646	86.69
556.859	71.69
557.071	82.69
557.284	93.69
557.496	81.69
557.709	77.69
557.921	105.69
558.134	83.69
558.346	91.69
558.559	89.69
558.771	84.69
558.984	89.69
559.196	80.69
559.409	87.69
559.621	87.69
559.833	79.69
560.046	79.69
560.258	87.69
560.47	98.69
560.683	82.69
560.895	89.69
561.107	90.69
561.32	83.69
561.532	87.69
561.744	75.69
561.956	86.69
562.168	77.69
562.381	85.69
562.593	79.69
562.805	74.69
563.017	89.69
563.229	95.69
563.441	84.69
563.653	85.69
563.865	77.69
564.077	89.69
564.289	85.69
564.501	81.69
564.713	95.69
564.925	94.69
565.137	81.69
565.349	108.69
565.561	75.69
565.773	81.69
565.985	83.69
566.197	85.69
566.408	100.69
566.62	89.69
566.832	91.69
567.044	91.69
567.255	99.69
567.467	83.69
567.679	99.69
567.891	90.69
568.102	101.69
568.314	94.69
568.526	84.69
568.737	88.69
568.949	106.69
569.161	89.69
569.372	92.69
569.584	87.69
569.795	83.69
570.007	88.69
570.218	78.69
570.43	80.69
570.641	91.69
570.853	75.69
571.064	84.69
571.276	70.69
571.487	86.69
571.698	85.69
571.91	90.69
572.121	83.69
572.333	85.69
572.544	89.69
572.755	92.69
572.966	91.69
573.178	91.69
573.389	80.69
573.6	79.69
573.811	75.69
574.023	88.69
574.234	82.69
574.445	75.69
574.656	76.69
574.867	85.69
575.078	83.69
575.289	87.69
575.501	85.69
575.712	82.69
575.923	93.69
576.134	78.69
576.345	85.69
576.556	83.69
576.767	87.69
576.978	73.69
577.188	80.69
577.399	86.69
577.61	80.69
577.821	83.69
578.032	78.69
578.243	96.69
578.454	85.69
578.665	92.69
578.875	91.69
579.086	82.69
579.297	75.69
579.508	90.69
579.718	91.69
579.929	86.69
580.14	85.69
580.35	89.69
580.561	83.69
580.772	82.69
580.982	88.69
581.193	84.69
581.403	89.69
581.614	82.69
581.825	88.69
582.035	90.69
582.246	97.69
582.456	99.69
582.667	89.69
582.877	81.69
583.087	76.69
583.298	94.69
583.508	87.69
583.719	80.69
583.929	92.69
584.139	92.69
584.35	87.69
584.56	88.69
584.77	89.69
584.981	91.69
585.191	82.69
585.401	80.69
585.611	81.69
585.821	86.69
586.032	81.69
586.242	82.69
586.452	94.69
586.662	94.69
586.872	77.69
587.082	80.69
587.292	71.69
587.502	78.69
587.713	79.69
587.923	85.69
588.133	72.69
588.343	73.69
588.553	91.69
588.762	106.69
588.972	83.69
589.182	90.69
589.392	81.69
589.602	75.69
589.812	81.69
590.022	101.69
590.232	78.69
590.441	77.69
590.651	81.69
590.861	89.69
591.071	84.69
591.281	72.69
591.49	78.69
591.7	91.69
591.91	92.69
592.119	85.69
592.329	82.69
592.539	87.69
592.748	95.69
592.958	83.69
593.167	79.69
593.377	87.69
593.587	77.69
593.796	79.69
594.006	97.69
594.215	86.69
594.424	65.69
594.634	76.69
594.843	81.69
595.053	89.69
595.262	75.69
595.472	82.69
595.681	82.69
595.89	90.69
596.1	84.69
596.309	78.69
596.518	77.69
596.727	99.69
596.937	81.69
597.146	83.69
597.355	86.69
597.564	81.69
597.774	87.69
597.983	81.69
598.192	90.69
598.401	85.69
598.61	86.69
598.819	90.69
599.028	88.69
599.237	74.69
599.446	78.69
599.655	92.69
599.864	93.69
600.073	94.69
600.282	72.69
600.491	88.69
600.7	68.69
600.909	67.69
601.118	81.69
601.327	92.69
601.536	90.69
601.745	77.69
601.953	76.69
602.162	79.69
602.371	82.69
602.58	90.69
602.789	89.69
602.997	93.69
603.206	100.69
603.415	67.69
603.623	71.69
603.832	79.69
604.041	75.69
604.249	77.69
604.458	93.69
604.666	78.69
604.875	92.69
605.084	69.69
605.292	77.69
605.501	88.69
605.709	87.69
605.918	77.69
606.126	89.69
606.334	97.69
606.543	93.69
606.751	73.69
606.96	81.69
607.168	85.69
607.376	70.69
607.585	90.69
607.793	78.69
608.001	82.69
608.21	86.69
608.418	85.69
608.626	87.69
608.834	86.69
609.043	61.69
609.251	69.69
609.459	79.69
609.667	81.69
609.875	85.69
610.083	71.69
610.291	70.69
610.499	88.69
610.707	100.69
610.916	85.69
611.124	77.69
611.332	73.69
611.54	73.69
611.748	78.69
611.955	81.69
612.163	86.69
612.371	77.69
612.579	77.69
612.787	90.69
612.995	86.69
613.203	88.69
613.411	88.69
613.618	88.69
613.826	91.69
614.034	81.69
614.242	78.69
614.449	86.69
614.657	77.69
614.865	82.69
615.072	78.69
615.28	85.69
615.488	89.69
615.695	79.69
615.903	78.69
616.111	89.69
616.318	87.69
616.526	77.69
616.733	81.69
616.941	81.69
617.148	80.69
617.356	79.69
617.563	60.69
617.771	72.69
617.978	89.69
618.185	84.69
618.393	93.69
618.6	83.69
618.807	89.69
619.015	79.69
619.222	90.69
619.429	85.69
619.637	97.69
619.844	90.69
620.051	91.69
620.258	88.69
620.466	89.69
620.673	78.69
620.88	89.69
621.087	82.69
621.294	73.69
621.501	78.69
621.708	77.69
621.915	86.69
622.122	85.69
622.329	78.69
622.536	87.69
622.743	67.69
622.95	66.69
623.157	74.69
623.364	84.69
623.571	87.69
623.778	81.69
623.985	72.69
624.192	78.69
624.399	73.69
624.606	85.69
624.812	83.69
625.019	73.69
625.226	78.69
625.433	81.69
625.639	84.69
625.846	86.69
626.053	81.69
626.259	88.69
626.466	82.69
626.673	84.69
626.879	69.69
627.086	85.69
627.293	77.69
627.499	79.69
627.706	83.69
627.912	81.69
628.119	78.69
628.325	88.69
628.532	65.69
628.738	84.69
628.945	78.69
629.151	80.69
629.357	76.69
629.564	83.69
629.77	83.69
629.976	81.69
630.183	78.69
630.389	89.69
630.595	65.69
630.802	79.69
631.008	75.69
631.214	67.69
631.42	93.69
631.627	76.69
631.833	81.69
632.039	75.69
632.245	54.69
632.451	85.69
632.657	84.69
632.863	87.69
633.069	72.69
633.275	83.69
633.481	90.69
633.688	87.69
633.893	100.69
634.099	85.69
634.305	87.69
634.511	89.69
634.717	90.69
634.923	78.69
635.129	79.69
635.335	89.69
635.541	82.69
635.747	83.69
635.952	91.69
636.158	88.69
636.364	85.69
636.57	79.69
636.775	84.69
636.981	75.69
637.187	82.69
637.392	66.69
637.598	79.69
637.804	79.69
638.009	66.69
638.215	72.69
638.421	83.69
638.626	82.69
638.832	77.69
639.037	73.69
639.243	94.69
639.448	87.69
639.654	75.69
639.859	74.69
640.065	83.69
640.27	81.69
640.475	85.69
640.681	81.69
640.886	90.69
641.091	84.69
641.297	86.69
641.502	75.69
641.707	78.69
641.913	82.69
642.118	94.69
642.323	70.69
642.528	78.69
642.733	85.69
642.939	88.69
643.144	81.69
643.349	83.69
643.554	84.69
643.759	87.69
643.964	83.69
644.169	86.69
644.374	76.69
644.579	79.69
644.784	73.69
644.989	77.69
645.194	83.69
645.399	77.69
645.604	74.69
645.809	78.69
646.014	97.69
646.219	87.69
646.423	69.69
646.628	84.69
646.833	77.69
647.038	92.69
647.243	85.69
647.447	76.69
647.652	80.69
647.857	84.69
648.062	84.69
648.266	74.69
648.471	84.69
648.676	89.69
648.88	87.69
649.085	79.69
649.289	80.69
649.494	81.69
649.698	76.69
649.903	94.69
650.107	84.69
650.312	88.69
650.516	84.69
650.721	79.69
650.925	81.69
651.13	79.69
651.334	82.69
651.539	86.69
651.743	74.69
651.947	85.69
652.152	78.69
652.356	93.69
652.56	77.69
652.764	78.69
652.969	71.69
653.173	89.69
653.377	81.69
653.581	73.69
653.785	88.69
653.99	83.69
654.194	81.69
654.398	72.69
654.602	86.69
654.806	77.69
655.01	86.69
655.214	84.69
655.418	67.69
655.622	69.69
655.826	85.69
656.03	87.69
656.234	89.69
656.438	85.69
656.642	76.69
656.846	68.69
657.049	72.69
657.253	80.69
657.457	68.69
657.661	86.69
657.865	62.69
658.068	66.69
658.272	92.69
658.476	76.69
658.68	68.69
658.883	80.69
659.087	90.69
659.291	97.69
659.494	86.69
659.698	69.69
659.901	74.69
660.105	83.69
660.309	77.69
660.512	66.69
660.716	79.69
660.919	73.69
661.123	89.69
661.326	89.69
661.53	89.69
661.733	72.69
661.936	83.69
662.14	76.69
662.343	83.69
662.546	82.69
662.75	78.69
662.953	71.69
663.156	73.69
663.36	68.69
663.563	74.69
663.766	97.69
663.969	92.69
664.173	87.69
664.376	74.69
664.579	84.69
664.782	76.69
664.985	69.69
665.188	76.69
665.391	72.69
665.594	70.69
665.797	66.69
666	74.69
666.203	78.69
666.406	83.69
666.609	83.69
666.812	73.69
667.015	79.69
667.218	85.69
667.421	75.69
667.624	95.69
667.827	80.69
668.03	68.69
668.232	76.69
668.435	76.69
668.638	73.69
668.841	91.69
669.043	87.69
669.246	71.69
669.449	82.69
669.651	87.69
669.854	82.69
670.057	86.69
670.259	85.69
670.462	83.69
670.665	73.69
670.867	84.69
671.07	99.69
671.272	88.69
671.475	75.69
671.677	72.69
671.88	82.69
672.082	69.69
672.284	71.69
672.487	81.69
672.689	71.69
672.892	77.69
