Data from BG_HRD10591_012.txt Node
Date: Fri May 16 15:14:28 EDT 2025
User: Yrep
Spectrometer: HR+D1059
Trigger mode: 1
Integration Time (sec): 1.000000E-1
Scans to average: 1
Electric dark correction enabled: true
Nonlinearity correction enabled: false
Boxcar width: 0
XAxis mode: Wavelengths
Number of Pixels in Spectrum: 2048
>>>>>Begin Spectral Data<<<<<
223.165	-29.06
223.4	-29.06
223.635	-29.06
223.869	-15.06
224.104	-9.06
224.338	-10.06
224.573	-14.06
224.808	-21.06
225.042	-3.06
225.277	-17.06
225.511	-2.06
225.746	7.94
225.98	6.94
226.215	8.94
226.449	26.94
226.683	12.94
226.918	22.94
227.152	33.94
227.387	38.94
227.621	29.94
227.856	43.94
228.09	57.94
228.324	54.94
228.559	61.94
228.793	58.94
229.027	57.94
229.262	76.94
229.496	70.94
229.73	66.94
229.964	70.94
230.199	70.94
230.433	53.94
230.667	81.94
230.901	69.94
231.136	83.94
231.37	72.94
231.604	74.94
231.838	75.94
232.072	88.94
232.306	86.94
232.541	78.94
232.775	68.94
233.009	78.94
233.243	73.94
233.477	62.94
233.711	86.94
233.945	82.94
234.179	75.94
234.413	98.94
234.647	82.94
234.881	81.94
235.115	78.94
235.349	67.94
235.583	80.94
235.817	80.94
236.051	81.94
236.285	66.94
236.519	71.94
236.753	57.94
236.987	70.94
237.221	72.94
237.455	81.94
237.689	80.94
237.922	70.94
238.156	76.94
238.39	71.94
238.624	73.94
238.858	76.94
239.091	82.94
239.325	61.94
239.559	63.94
239.793	93.94
240.027	71.94
240.26	74.94
240.494	82.94
240.728	80.94
240.961	78.94
241.195	76.94
241.429	67.94
241.662	66.94
241.896	84.94
242.13	73.94
242.363	84.94
242.597	76.94
242.83	76.94
243.064	69.94
243.298	93.94
243.531	74.94
243.765	77.94
243.998	60.94
244.232	70.94
244.465	72.94
244.699	70.94
244.932	84.94
245.166	70.94
245.399	83.94
245.633	86.94
245.866	82.94
246.099	66.94
246.333	84.94
246.566	84.94
246.8	68.94
247.033	66.94
247.266	73.94
247.5	75.94
247.733	81.94
247.966	85.94
248.2	70.94
248.433	75.94
248.666	61.94
248.899	70.94
249.133	69.94
249.366	77.94
249.599	65.94
249.832	76.94
250.066	71.94
250.299	84.94
250.532	77.94
250.765	70.94
250.998	69.94
251.231	64.94
251.465	85.94
251.698	88.94
251.931	79.94
252.164	67.94
252.397	76.94
252.63	72.94
252.863	66.94
253.096	69.94
253.329	80.94
253.562	70.94
253.795	67.94
254.028	61.94
254.261	61.94
254.494	69.94
254.727	80.94
254.96	71.94
255.193	65.94
255.426	81.94
255.659	78.94
255.892	81.94
256.124	78.94
256.357	69.94
256.59	87.94
256.823	79.94
257.056	81.94
257.289	85.94
257.521	73.94
257.754	84.94
257.987	83.94
258.22	85.94
258.452	86.94
258.685	86.94
258.918	91.94
259.151	86.94
259.383	83.94
259.616	81.94
259.849	85.94
260.081	77.94
260.314	78.94
260.547	93.94
260.779	63.94
261.012	67.94
261.244	84.94
261.477	78.94
261.71	84.94
261.942	84.94
262.175	84.94
262.407	74.94
262.64	79.94
262.872	76.94
263.105	89.94
263.337	88.94
263.57	70.94
263.802	72.94
264.035	89.94
264.267	80.94
264.499	84.94
264.732	94.94
264.964	92.94
265.197	73.94
265.429	78.94
265.661	75.94
265.894	89.94
266.126	75.94
266.358	91.94
266.591	86.94
266.823	73.94
267.055	72.94
267.287	84.94
267.52	82.94
267.752	81.94
267.984	76.94
268.216	78.94
268.448	71.94
268.681	85.94
268.913	78.94
269.145	92.94
269.377	78.94
269.609	86.94
269.841	70.94
270.073	78.94
270.306	79.94
270.538	86.94
270.77	86.94
271.002	89.94
271.234	82.94
271.466	85.94
271.698	80.94
271.93	90.94
272.162	84.94
272.394	83.94
272.626	89.94
272.858	82.94
273.09	82.94
273.322	87.94
273.553	74.94
273.785	92.94
274.017	57.94
274.249	88.94
274.481	84.94
274.713	67.94
274.945	73.94
275.176	75.94
275.408	83.94
275.64	80.94
275.872	87.94
276.104	77.94
276.335	69.94
276.567	72.94
276.799	96.94
277.031	68.94
277.262	94.94
277.494	83.94
277.726	69.94
277.957	82.94
278.189	87.94
278.421	74.94
278.652	75.94
278.884	74.94
279.115	76.94
279.347	79.94
279.579	74.94
279.81	85.94
280.042	79.94
280.273	78.94
280.505	80.94
280.736	80.94
280.968	86.94
281.199	88.94
281.431	95.94
281.662	91.94
281.894	92.94
282.125	98.94
282.356	67.94
282.588	80.94
282.819	92.94
283.051	89.94
283.282	80.94
283.513	78.94
283.745	88.94
283.976	80.94
284.207	88.94
284.439	81.94
284.67	90.94
284.901	84.94
285.132	78.94
285.364	86.94
285.595	74.94
285.826	78.94
286.057	67.94
286.288	84.94
286.52	76.94
286.751	85.94
286.982	78.94
287.213	79.94
287.444	98.94
287.675	95.94
287.906	87.94
288.138	98.94
288.369	85.94
288.6	80.94
288.831	73.94
289.062	80.94
289.293	80.94
289.524	77.94
289.755	86.94
289.986	83.94
290.217	86.94
290.448	81.94
290.679	80.94
290.91	82.94
291.141	81.94
291.371	83.94
291.602	88.94
291.833	105.94
292.064	85.94
292.295	79.94
292.526	90.94
292.757	75.94
292.987	89.94
293.218	86.94
293.449	86.94
293.68	82.94
293.91	86.94
294.141	86.94
294.372	83.94
294.603	87.94
294.833	75.94
295.064	87.94
295.295	78.94
295.525	81.94
295.756	84.94
295.987	78.94
296.217	89.94
296.448	93.94
296.679	83.94
296.909	82.94
297.14	74.94
297.37	85.94
297.601	80.94
297.831	78.94
298.062	88.94
298.292	100.94
298.523	84.94
298.753	89.94
298.984	80.94
299.214	68.94
299.445	84.94
299.675	67.94
299.905	84.94
300.136	80.94
300.366	72.94
300.597	85.94
300.827	77.94
301.057	88.94
301.288	84.94
301.518	96.94
301.748	80.94
301.979	94.94
302.209	86.94
302.439	90.94
302.669	86.94
302.9	96.94
303.13	73.94
303.36	92.94
303.59	72.94
303.82	80.94
304.051	80.94
304.281	93.94
304.511	89.94
304.741	89.94
304.971	78.94
305.201	84.94
305.431	65.94
305.661	91.94
305.891	76.94
306.121	84.94
306.352	91.94
306.582	100.94
306.812	83.94
307.042	82.94
307.272	75.94
307.502	86.94
307.731	87.94
307.961	75.94
308.191	73.94
308.421	76.94
308.651	88.94
308.881	90.94
309.111	88.94
309.341	80.94
309.571	84.94
309.8	80.94
310.03	85.94
310.26	86.94
310.49	75.94
310.72	86.94
310.949	88.94
311.179	80.94
311.409	77.94
311.639	93.94
311.868	83.94
312.098	87.94
312.328	77.94
312.557	89.94
312.787	83.94
313.017	68.94
313.246	78.94
313.476	88.94
313.706	77.94
313.935	97.94
314.165	88.94
314.394	104.94
314.624	74.94
314.853	91.94
315.083	79.94
315.312	77.94
315.542	85.94
315.771	106.94
316.001	89.94
316.23	81.94
316.46	92.94
316.689	81.94
316.919	75.94
317.148	82.94
317.377	97.94
317.607	77.94
317.836	81.94
318.065	74.94
318.295	90.94
318.524	88.94
318.753	94.94
318.983	94.94
319.212	77.94
319.441	84.94
319.67	96.94
319.9	76.94
320.129	77.94
320.358	102.94
320.587	89.94
320.816	84.94
321.046	85.94
321.275	95.94
321.504	73.94
321.733	72.94
321.962	87.94
322.191	100.94
322.42	86.94
322.649	83.94
322.878	82.94
323.108	80.94
323.337	82.94
323.566	93.94
323.795	78.94
324.024	67.94
324.253	97.94
324.482	96.94
324.71	74.94
324.939	85.94
325.168	80.94
325.397	89.94
325.626	81.94
325.855	79.94
326.084	82.94
326.313	85.94
326.542	97.94
326.77	86.94
326.999	79.94
327.228	77.94
327.457	82.94
327.686	79.94
327.914	76.94
328.143	81.94
328.372	88.94
328.6	79.94
328.829	89.94
329.058	77.94
329.287	81.94
329.515	80.94
329.744	96.94
329.972	91.94
330.201	97.94
330.43	80.94
330.658	85.94
330.887	91.94
331.115	90.94
331.344	74.94
331.572	81.94
331.801	88.94
332.03	73.94
332.258	110.94
332.486	88.94
332.715	84.94
332.943	90.94
333.172	85.94
333.4	92.94
333.629	99.94
333.857	88.94
334.085	81.94
334.314	87.94
334.542	93.94
334.771	92.94
334.999	85.94
335.227	60.94
335.455	88.94
335.684	79.94
335.912	77.94
336.14	88.94
336.369	100.94
336.597	88.94
336.825	91.94
337.053	100.94
337.281	85.94
337.51	86.94
337.738	81.94
337.966	78.94
338.194	91.94
338.422	95.94
338.65	84.94
338.878	102.94
339.106	79.94
339.334	65.94
339.562	90.94
339.79	84.94
340.018	81.94
340.246	86.94
340.474	93.94
340.702	85.94
340.93	83.94
341.158	85.94
341.386	80.94
341.614	80.94
341.842	75.94
342.07	87.94
342.298	81.94
342.526	96.94
342.754	84.94
342.981	85.94
343.209	92.94
343.437	86.94
343.665	85.94
343.893	86.94
344.12	83.94
344.348	89.94
344.576	89.94
344.804	82.94
345.031	92.94
345.259	77.94
345.487	72.94
345.714	81.94
345.942	99.94
346.17	72.94
346.397	84.94
346.625	85.94
346.853	98.94
347.08	96.94
347.308	84.94
347.535	86.94
347.763	89.94
347.99	96.94
348.218	83.94
348.445	82.94
348.673	102.94
348.9	78.94
349.128	93.94
349.355	81.94
349.583	78.94
349.81	87.94
350.037	88.94
350.265	77.94
350.492	86.94
350.72	79.94
350.947	86.94
351.174	80.94
351.402	93.94
351.629	82.94
351.856	81.94
352.083	86.94
352.311	83.94
352.538	89.94
352.765	88.94
352.992	90.94
353.22	82.94
353.447	66.94
353.674	88.94
353.901	76.94
354.128	80.94
354.355	73.94
354.583	98.94
354.81	86.94
355.037	86.94
355.264	84.94
355.491	67.94
355.718	75.94
355.945	84.94
356.172	75.94
356.399	98.94
356.626	96.94
356.853	83.94
357.08	90.94
357.307	80.94
357.534	86.94
357.761	69.94
357.988	86.94
358.215	77.94
358.441	85.94
358.668	77.94
358.895	81.94
359.122	72.94
359.349	82.94
359.576	80.94
359.802	72.94
360.029	82.94
360.256	84.94
360.483	81.94
360.709	98.94
360.936	76.94
361.163	95.94
361.39	70.94
361.616	80.94
361.843	93.94
362.07	92.94
362.296	92.94
362.523	76.94
362.749	78.94
362.976	84.94
363.203	92.94
363.429	96.94
363.656	80.94
363.882	76.94
364.109	77.94
364.335	96.94
364.562	104.94
364.788	104.94
365.015	96.94
365.241	76.94
365.468	81.94
365.694	101.94
365.92	80.94
366.147	68.94
366.373	89.94
366.599	93.94
366.826	88.94
367.052	84.94
367.278	71.94
367.505	80.94
367.731	91.94
367.957	77.94
368.184	86.94
368.41	85.94
368.636	91.94
368.862	82.94
369.089	89.94
369.315	83.94
369.541	71.94
369.767	94.94
369.993	86.94
370.219	92.94
370.445	78.94
370.672	92.94
370.898	72.94
371.124	92.94
371.35	77.94
371.576	84.94
371.802	76.94
372.028	82.94
372.254	96.94
372.48	92.94
372.706	83.94
372.932	90.94
373.158	88.94
373.384	93.94
373.61	83.94
373.835	80.94
374.061	94.94
374.287	87.94
374.513	88.94
374.739	86.94
374.965	82.94
375.191	81.94
375.416	82.94
375.642	87.94
375.868	80.94
376.094	96.94
376.319	74.94
376.545	86.94
376.771	83.94
376.997	88.94
377.222	89.94
377.448	85.94
377.674	81.94
377.899	74.94
378.125	75.94
378.35	94.94
378.576	98.94
378.802	83.94
379.027	76.94
379.253	89.94
379.478	85.94
379.704	76.94
379.929	69.94
380.155	78.94
380.38	90.94
380.606	102.94
380.831	70.94
381.057	81.94
381.282	70.94
381.507	80.94
381.733	86.94
381.958	88.94
382.184	84.94
382.409	89.94
382.634	78.94
382.86	100.94
383.085	88.94
383.31	83.94
383.535	90.94
383.761	84.94
383.986	96.94
384.211	85.94
384.436	88.94
384.662	90.94
384.887	93.94
385.112	71.94
385.337	74.94
385.562	86.94
385.787	81.94
386.013	84.94
386.238	96.94
386.463	73.94
386.688	91.94
386.913	93.94
387.138	80.94
387.363	89.94
387.588	77.94
387.813	76.94
388.038	91.94
388.263	87.94
388.488	86.94
388.713	86.94
388.938	91.94
389.163	82.94
389.387	84.94
389.612	92.94
389.837	90.94
390.062	80.94
390.287	73.94
390.512	90.94
390.736	88.94
390.961	70.94
391.186	88.94
391.411	82.94
391.636	85.94
391.86	74.94
392.085	76.94
392.31	90.94
392.534	84.94
392.759	79.94
392.984	86.94
393.208	90.94
393.433	98.94
393.658	78.94
393.882	77.94
394.107	74.94
394.331	72.94
394.556	89.94
394.78	92.94
395.005	88.94
395.229	90.94
395.454	85.94
395.678	85.94
395.903	76.94
396.127	94.94
396.352	80.94
396.576	92.94
396.801	85.94
397.025	84.94
397.249	106.94
397.474	107.94
397.698	85.94
397.922	101.94
398.147	76.94
398.371	90.94
398.595	92.94
398.82	99.94
399.044	92.94
399.268	98.94
399.492	93.94
399.717	77.94
399.941	81.94
400.165	83.94
400.389	82.94
400.613	79.94
400.837	96.94
401.062	90.94
401.286	89.94
401.51	81.94
401.734	87.94
401.958	89.94
402.182	85.94
402.406	93.94
402.63	88.94
402.854	101.94
403.078	80.94
403.302	75.94
403.526	87.94
403.75	100.94
403.974	75.94
404.198	94.94
404.422	100.94
404.645	104.94
404.869	90.94
405.093	102.94
405.317	90.94
405.541	74.94
405.765	77.94
405.988	104.94
406.212	88.94
406.436	92.94
406.66	93.94
406.883	98.94
407.107	92.94
407.331	94.94
407.555	98.94
407.778	84.94
408.002	74.94
408.226	85.94
408.449	88.94
408.673	92.94
408.896	97.94
409.12	86.94
409.344	98.94
409.567	89.94
409.791	86.94
410.014	87.94
410.238	84.94
410.461	86.94
410.685	84.94
410.908	82.94
411.132	86.94
411.355	89.94
411.578	84.94
411.802	80.94
412.025	84.94
412.249	85.94
412.472	81.94
412.695	68.94
412.919	84.94
413.142	98.94
413.365	85.94
413.589	88.94
413.812	90.94
414.035	94.94
414.258	89.94
414.482	60.94
414.705	84.94
414.928	82.94
415.151	87.94
415.374	87.94
415.597	81.94
415.821	88.94
416.044	80.94
416.267	85.94
416.49	91.94
416.713	82.94
416.936	84.94
417.159	76.94
417.382	71.94
417.605	90.94
417.828	91.94
418.051	83.94
418.274	89.94
418.497	90.94
418.72	89.94
418.943	98.94
419.166	96.94
419.389	88.94
419.611	90.94
419.834	82.94
420.057	83.94
420.28	81.94
420.503	94.94
420.726	96.94
420.948	78.94
421.171	76.94
421.394	78.94
421.617	85.94
421.839	89.94
422.062	90.94
422.285	91.94
422.507	90.94
422.73	92.94
422.953	76.94
423.175	87.94
423.398	77.94
423.621	91.94
423.843	82.94
424.066	93.94
424.288	73.94
424.511	89.94
424.733	70.94
424.956	83.94
425.178	78.94
425.401	95.94
425.623	89.94
425.846	88.94
426.068	90.94
426.291	89.94
426.513	96.94
426.735	91.94
426.958	92.94
427.18	81.94
427.402	88.94
427.625	78.94
427.847	78.94
428.069	90.94
428.292	87.94
428.514	72.94
428.736	77.94
428.958	85.94
429.181	82.94
429.403	88.94
429.625	91.94
429.847	96.94
430.069	93.94
430.292	93.94
430.514	91.94
430.736	84.94
430.958	96.94
431.18	98.94
431.402	85.94
431.624	77.94
431.846	72.94
432.068	91.94
432.29	74.94
432.512	88.94
432.734	85.94
432.956	86.94
433.178	84.94
433.4	79.94
433.622	83.94
433.844	84.94
434.066	75.94
434.287	72.94
434.509	78.94
434.731	89.94
434.953	85.94
435.175	75.94
435.397	86.94
435.618	85.94
435.84	92.94
436.062	81.94
436.284	90.94
436.505	96.94
436.727	78.94
436.949	76.94
437.17	73.94
437.392	91.94
437.614	91.94
437.835	89.94
438.057	102.94
438.278	98.94
438.5	82.94
438.721	81.94
438.943	96.94
439.165	82.94
439.386	92.94
439.608	86.94
439.829	100.94
440.05	95.94
440.272	89.94
440.493	88.94
440.715	91.94
440.936	89.94
441.158	88.94
441.379	86.94
441.6	84.94
441.822	92.94
442.043	86.94
442.264	92.94
442.486	92.94
442.707	83.94
442.928	84.94
443.149	83.94
443.371	79.94
443.592	85.94
443.813	90.94
444.034	86.94
444.255	87.94
444.476	89.94
444.698	91.94
444.919	99.94
445.14	145.94
445.361	118.94
445.582	90.94
445.803	93.94
446.024	89.94
446.245	98.94
446.466	80.94
446.687	92.94
446.908	81.94
447.129	88.94
447.35	98.94
447.571	74.94
447.792	72.94
448.013	88.94
448.234	78.94
448.455	85.94
448.675	81.94
448.896	79.94
449.117	64.94
449.338	87.94
449.559	82.94
449.779	78.94
450	88.94
450.221	100.94
450.442	91.94
450.662	83.94
450.883	88.94
451.104	81.94
451.324	77.94
451.545	86.94
451.766	92.94
451.986	81.94
452.207	80.94
452.428	92.94
452.648	87.94
452.869	94.94
453.089	74.94
453.31	77.94
453.53	93.94
453.751	87.94
453.971	92.94
454.192	76.94
454.412	73.94
454.633	73.94
454.853	86.94
455.073	82.94
455.294	90.94
455.514	82.94
455.734	75.94
455.955	97.94
456.175	79.94
456.395	91.94
456.616	83.94
456.836	98.94
457.056	93.94
457.276	92.94
457.497	74.94
457.717	74.94
457.937	75.94
458.157	90.94
458.377	77.94
458.598	88.94
458.818	71.94
459.038	82.94
459.258	88.94
459.478	89.94
459.698	77.94
459.918	83.94
460.138	87.94
460.358	82.94
460.578	100.94
460.798	105.94
461.018	96.94
461.238	82.94
461.458	94.94
461.678	77.94
461.898	86.94
462.118	96.94
462.338	80.94
462.558	94.94
462.777	91.94
462.997	89.94
463.217	89.94
463.437	99.94
463.657	100.94
463.876	93.94
464.096	97.94
464.316	86.94
464.536	100.94
464.755	100.94
464.975	88.94
465.195	87.94
465.414	76.94
465.634	77.94
465.854	83.94
466.073	90.94
466.293	87.94
466.512	92.94
466.732	87.94
466.951	99.94
467.171	96.94
467.391	84.94
467.61	94.94
467.829	96.94
468.049	93.94
468.268	86.94
468.488	90.94
468.707	80.94
468.927	98.94
469.146	81.94
469.365	84.94
469.585	80.94
469.804	101.94
470.023	87.94
470.243	82.94
470.462	79.94
470.681	72.94
470.901	88.94
471.12	84.94
471.339	88.94
471.558	77.94
471.777	88.94
471.997	86.94
472.216	99.94
472.435	82.94
472.654	98.94
472.873	82.94
473.092	83.94
473.311	96.94
473.53	89.94
473.749	94.94
473.968	92.94
474.187	91.94
474.406	77.94
474.625	86.94
474.844	94.94
475.063	89.94
475.282	83.94
475.501	82.94
475.72	96.94
475.939	92.94
476.158	82.94
476.377	92.94
476.596	90.94
476.814	85.94
477.033	76.94
477.252	76.94
477.471	96.94
477.69	90.94
477.908	82.94
478.127	81.94
478.346	73.94
478.564	77.94
478.783	101.94
479.002	102.94
479.22	94.94
479.439	94.94
479.658	93.94
479.876	91.94
480.095	87.94
480.313	91.94
480.532	94.94
480.751	81.94
480.969	93.94
481.188	89.94
481.406	93.94
481.624	93.94
481.843	84.94
482.061	88.94
482.28	80.94
482.498	83.94
482.717	87.94
482.935	90.94
483.153	84.94
483.372	94.94
483.59	87.94
483.808	90.94
484.027	92.94
484.245	82.94
484.463	97.94
484.681	92.94
484.9	94.94
485.118	92.94
485.336	94.94
485.554	100.94
485.772	84.94
485.99	76.94
486.209	85.94
486.427	74.94
486.645	86.94
486.863	84.94
487.081	90.94
487.299	94.94
487.517	97.94
487.735	78.94
487.953	86.94
488.171	91.94
488.389	107.94
488.607	88.94
488.825	89.94
489.043	88.94
489.261	107.94
489.479	94.94
489.696	84.94
489.914	92.94
490.132	87.94
490.35	94.94
490.568	78.94
490.786	92.94
491.003	87.94
491.221	91.94
491.439	84.94
491.657	85.94
491.874	86.94
492.092	85.94
492.31	88.94
492.527	108.94
492.745	81.94
492.963	80.94
493.18	99.94
493.398	94.94
493.615	79.94
493.833	88.94
494.05	97.94
494.268	93.94
494.485	91.94
494.703	98.94
494.92	96.94
495.138	90.94
495.355	88.94
495.573	96.94
495.79	90.94
496.008	91.94
496.225	84.94
496.442	94.94
496.66	90.94
496.877	84.94
497.094	100.94
497.312	100.94
497.529	100.94
497.746	97.94
497.963	81.94
498.181	96.94
498.398	89.94
498.615	93.94
498.832	101.94
499.049	104.94
499.267	115.94
499.484	85.94
499.701	96.94
499.918	102.94
500.135	121.94
500.352	118.94
500.569	97.94
500.786	114.94
501.003	126.94
501.22	106.94
501.437	115.94
501.654	108.94
501.871	95.94
502.088	86.94
502.305	103.94
502.522	101.94
502.739	109.94
502.956	104.94
503.172	85.94
503.389	84.94
503.606	96.94
503.823	77.94
504.04	101.94
504.256	102.94
504.473	104.94
504.69	96.94
504.907	101.94
505.123	92.94
505.34	100.94
505.557	106.94
505.773	87.94
505.99	86.94
506.207	91.94
506.423	87.94
506.64	102.94
506.856	106.94
507.073	108.94
507.289	87.94
507.506	86.94
507.722	82.94
507.939	88.94
508.155	86.94
508.372	87.94
508.588	97.94
508.805	84.94
509.021	93.94
509.238	84.94
509.454	93.94
509.67	84.94
509.887	81.94
510.103	96.94
510.319	102.94
510.536	97.94
510.752	103.94
510.968	97.94
511.184	81.94
511.401	84.94
511.617	102.94
511.833	96.94
512.049	85.94
512.265	90.94
512.481	93.94
512.698	80.94
512.914	92.94
513.13	86.94
513.346	79.94
513.562	84.94
513.778	90.94
513.994	92.94
514.21	93.94
514.426	84.94
514.642	92.94
514.858	91.94
515.074	83.94
515.29	84.94
515.506	74.94
515.721	92.94
515.937	86.94
516.153	89.94
516.369	87.94
516.585	92.94
516.801	92.94
517.016	85.94
517.232	103.94
517.448	97.94
517.664	100.94
517.879	87.94
518.095	99.94
518.311	89.94
518.527	84.94
518.742	91.94
518.958	82.94
519.173	79.94
519.389	75.94
519.605	93.94
519.82	89.94
520.036	93.94
520.251	90.94
520.467	83.94
520.682	97.94
520.898	86.94
521.113	86.94
521.329	74.94
521.544	89.94
521.76	82.94
521.975	83.94
522.19	104.94
522.406	85.94
522.621	98.94
522.836	74.94
523.052	82.94
523.267	94.94
523.482	69.94
523.698	89.94
523.913	69.94
524.128	78.94
524.343	79.94
524.559	80.94
524.774	83.94
524.989	103.94
525.204	78.94
525.419	96.94
525.634	92.94
525.849	87.94
526.064	88.94
526.28	100.94
526.495	84.94
526.71	90.94
526.925	79.94
527.14	72.94
527.355	97.94
527.57	87.94
527.785	93.94
527.999	81.94
528.214	88.94
528.429	93.94
528.644	95.94
528.859	96.94
529.074	101.94
529.289	79.94
529.503	79.94
529.718	85.94
529.933	90.94
530.148	78.94
530.363	94.94
530.577	98.94
530.792	96.94
531.007	86.94
531.221	86.94
531.436	84.94
531.651	102.94
531.865	104.94
532.08	83.94
532.295	92.94
532.509	98.94
532.724	80.94
532.938	84.94
533.153	104.94
533.367	86.94
533.582	101.94
533.796	78.94
534.011	83.94
534.225	84.94
534.44	96.94
534.654	100.94
534.868	94.94
535.083	93.94
535.297	84.94
535.511	98.94
535.726	99.94
535.94	72.94
536.154	96.94
536.369	92.94
536.583	91.94
536.797	81.94
537.011	92.94
537.225	90.94
537.44	92.94
537.654	90.94
537.868	86.94
538.082	85.94
538.296	87.94
538.51	82.94
538.724	99.94
538.938	98.94
539.153	84.94
539.367	93.94
539.581	74.94
539.795	87.94
540.009	83.94
540.222	90.94
540.436	96.94
540.65	90.94
540.864	105.94
541.078	87.94
541.292	85.94
541.506	92.94
541.72	92.94
541.934	75.94
542.147	88.94
542.361	88.94
542.575	99.94
542.789	93.94
543.002	94.94
543.216	74.94
543.43	75.94
543.644	83.94
543.857	88.94
544.071	88.94
544.285	84.94
544.498	76.94
544.712	77.94
544.925	84.94
545.139	98.94
545.352	74.94
545.566	88.94
545.779	83.94
545.993	94.94
546.206	96.94
546.42	81.94
546.633	100.94
546.847	87.94
547.06	77.94
547.274	85.94
547.487	82.94
547.7	90.94
547.914	84.94
548.127	85.94
548.34	105.94
548.554	99.94
548.767	98.94
548.98	74.94
549.193	94.94
549.407	83.94
549.62	91.94
549.833	82.94
550.046	94.94
550.259	82.94
550.473	90.94
550.686	79.94
550.899	81.94
551.112	70.94
551.325	82.94
551.538	86.94
551.751	98.94
551.964	89.94
552.177	90.94
552.39	108.94
552.603	88.94
552.816	76.94
553.029	68.94
553.242	83.94
553.455	97.94
553.667	91.94
553.88	78.94
554.093	83.94
554.306	88.94
554.519	91.94
554.732	91.94
554.944	78.94
555.157	78.94
555.37	75.94
555.583	85.94
555.795	97.94
556.008	88.94
556.221	92.94
556.433	88.94
556.646	76.94
556.859	86.94
557.071	88.94
557.284	81.94
557.496	87.94
557.709	82.94
557.921	88.94
558.134	91.94
558.346	91.94
558.559	90.94
558.771	90.94
558.984	80.94
559.196	89.94
559.409	93.94
559.621	85.94
559.833	79.94
560.046	99.94
560.258	87.94
560.47	84.94
560.683	93.94
560.895	76.94
561.107	100.94
561.32	75.94
561.532	75.94
561.744	84.94
561.956	85.94
562.168	85.94
562.381	98.94
562.593	74.94
562.805	100.94
563.017	89.94
563.229	92.94
563.441	87.94
563.653	86.94
563.865	102.94
564.077	99.94
564.289	82.94
564.501	82.94
564.713	90.94
564.925	87.94
565.137	88.94
565.349	96.94
565.561	83.94
565.773	96.94
565.985	95.94
566.197	99.94
566.408	93.94
566.62	93.94
566.832	89.94
567.044	81.94
567.255	99.94
567.467	89.94
567.679	99.94
567.891	93.94
568.102	98.94
568.314	112.94
568.526	91.94
568.737	100.94
568.949	86.94
569.161	72.94
569.372	80.94
569.584	103.94
569.795	90.94
570.007	82.94
570.218	84.94
570.43	82.94
570.641	74.94
570.853	85.94
571.064	91.94
571.276	88.94
571.487	101.94
571.698	85.94
571.91	74.94
572.121	77.94
572.333	80.94
572.544	90.94
572.755	85.94
572.966	92.94
573.178	79.94
573.389	99.94
573.6	80.94
573.811	84.94
574.023	89.94
574.234	77.94
574.445	82.94
574.656	80.94
574.867	85.94
575.078	83.94
575.289	93.94
575.501	92.94
575.712	75.94
575.923	94.94
576.134	91.94
576.345	80.94
576.556	103.94
576.767	92.94
576.978	79.94
577.188	89.94
577.399	90.94
577.61	88.94
577.821	92.94
578.032	92.94
578.243	92.94
578.454	97.94
578.665	96.94
578.875	110.94
579.086	85.94
579.297	89.94
579.508	61.94
579.718	77.94
579.929	105.94
580.14	88.94
580.35	73.94
580.561	74.94
580.772	91.94
580.982	77.94
581.193	82.94
581.403	75.94
581.614	84.94
581.825	89.94
582.035	84.94
582.246	88.94
582.456	76.94
582.667	80.94
582.877	82.94
583.087	79.94
583.298	86.94
583.508	83.94
583.719	74.94
583.929	81.94
584.139	96.94
584.35	84.94
584.56	83.94
584.77	89.94
584.981	83.94
585.191	80.94
585.401	80.94
585.611	93.94
585.821	97.94
586.032	74.94
586.242	91.94
586.452	78.94
586.662	80.94
586.872	107.94
587.082	80.94
587.292	83.94
587.502	78.94
587.713	92.94
587.923	99.94
588.133	90.94
588.343	88.94
588.553	78.94
588.762	91.94
588.972	107.94
589.182	85.94
589.392	85.94
589.602	76.94
589.812	77.94
590.022	78.94
590.232	97.94
590.441	85.94
590.651	92.94
590.861	88.94
591.071	84.94
591.281	91.94
591.49	92.94
591.7	73.94
591.91	90.94
592.119	84.94
592.329	88.94
592.539	85.94
592.748	84.94
592.958	88.94
593.167	91.94
593.377	80.94
593.587	80.94
593.796	84.94
594.006	78.94
594.215	84.94
594.424	83.94
594.634	71.94
594.843	70.94
595.053	81.94
595.262	85.94
595.472	76.94
595.681	73.94
595.89	88.94
596.1	73.94
596.309	89.94
596.518	76.94
596.727	91.94
596.937	87.94
597.146	81.94
597.355	64.94
597.564	96.94
597.774	94.94
597.983	85.94
598.192	85.94
598.401	92.94
598.61	87.94
598.819	85.94
599.028	77.94
599.237	84.94
599.446	85.94
599.655	92.94
599.864	78.94
600.073	74.94
600.282	92.94
600.491	87.94
600.7	76.94
600.909	82.94
601.118	72.94
601.327	79.94
601.536	80.94
601.745	90.94
601.953	82.94
602.162	90.94
602.371	89.94
602.58	85.94
602.789	97.94
602.997	91.94
603.206	81.94
603.415	84.94
603.623	66.94
603.832	72.94
604.041	73.94
604.249	76.94
604.458	81.94
604.666	81.94
604.875	84.94
605.084	92.94
605.292	84.94
605.501	84.94
605.709	90.94
605.918	84.94
606.126	89.94
606.334	85.94
606.543	78.94
606.751	89.94
606.96	82.94
607.168	85.94
607.376	59.94
607.585	93.94
607.793	82.94
608.001	81.94
608.21	90.94
608.418	76.94
608.626	93.94
608.834	100.94
609.043	81.94
609.251	91.94
609.459	85.94
609.667	90.94
609.875	84.94
610.083	74.94
610.291	75.94
610.499	80.94
610.707	89.94
610.916	86.94
611.124	71.94
611.332	83.94
611.54	69.94
611.748	80.94
611.955	82.94
612.163	91.94
612.371	93.94
612.579	70.94
612.787	76.94
612.995	72.94
613.203	86.94
613.411	91.94
613.618	86.94
613.826	86.94
614.034	84.94
614.242	85.94
614.449	82.94
614.657	96.94
614.865	78.94
615.072	84.94
615.28	86.94
615.488	70.94
615.695	87.94
615.903	89.94
616.111	87.94
616.318	93.94
616.526	91.94
616.733	81.94
616.941	71.94
617.148	90.94
617.356	93.94
617.563	79.94
617.771	80.94
617.978	82.94
618.185	88.94
618.393	81.94
618.6	77.94
618.807	74.94
619.015	81.94
619.222	89.94
619.429	96.94
619.637	76.94
619.844	83.94
620.051	65.94
620.258	70.94
620.466	81.94
620.673	81.94
620.88	74.94
621.087	63.94
621.294	77.94
621.501	93.94
621.708	87.94
621.915	76.94
622.122	80.94
622.329	87.94
622.536	80.94
622.743	77.94
622.95	87.94
623.157	81.94
623.364	82.94
623.571	77.94
623.778	79.94
623.985	83.94
624.192	87.94
624.399	83.94
624.606	88.94
624.812	72.94
625.019	83.94
625.226	87.94
625.433	91.94
625.639	86.94
625.846	73.94
626.053	84.94
626.259	82.94
626.466	71.94
626.673	77.94
626.879	86.94
627.086	85.94
627.293	88.94
627.499	85.94
627.706	89.94
627.912	78.94
628.119	80.94
628.325	79.94
628.532	75.94
628.738	72.94
628.945	82.94
629.151	79.94
629.357	65.94
629.564	84.94
629.77	90.94
629.976	81.94
630.183	85.94
630.389	85.94
630.595	88.94
630.802	80.94
631.008	86.94
631.214	84.94
631.42	90.94
631.627	78.94
631.833	85.94
632.039	71.94
632.245	77.94
632.451	66.94
632.657	83.94
632.863	82.94
633.069	74.94
633.275	77.94
633.481	82.94
633.688	84.94
633.893	85.94
634.099	80.94
634.305	77.94
634.511	80.94
634.717	76.94
634.923	81.94
635.129	77.94
635.335	77.94
635.541	89.94
635.747	68.94
635.952	80.94
636.158	69.94
636.364	87.94
636.57	82.94
636.775	84.94
636.981	80.94
637.187	79.94
637.392	84.94
637.598	85.94
637.804	66.94
638.009	81.94
638.215	94.94
638.421	91.94
638.626	75.94
638.832	80.94
639.037	72.94
639.243	75.94
639.448	89.94
639.654	85.94
639.859	85.94
640.065	84.94
640.27	97.94
640.475	84.94
640.681	77.94
640.886	81.94
641.091	84.94
641.297	93.94
641.502	98.94
641.707	87.94
641.913	80.94
642.118	83.94
642.323	82.94
642.528	78.94
642.733	69.94
642.939	78.94
643.144	86.94
643.349	87.94
643.554	92.94
643.759	73.94
643.964	77.94
644.169	70.94
644.374	79.94
644.579	77.94
644.784	63.94
644.989	70.94
645.194	80.94
645.399	71.94
645.604	82.94
645.809	84.94
646.014	87.94
646.219	75.94
646.423	81.94
646.628	78.94
646.833	73.94
647.038	88.94
647.243	68.94
647.447	83.94
647.652	82.94
647.857	79.94
648.062	83.94
648.266	86.94
648.471	85.94
648.676	74.94
648.88	72.94
649.085	78.94
649.289	82.94
649.494	86.94
649.698	71.94
649.903	91.94
650.107	87.94
650.312	87.94
650.516	80.94
650.721	83.94
650.925	93.94
651.13	78.94
651.334	81.94
651.539	71.94
651.743	87.94
651.947	74.94
652.152	92.94
652.356	73.94
652.56	82.94
652.764	85.94
652.969	78.94
653.173	76.94
653.377	81.94
653.581	82.94
653.785	71.94
653.99	68.94
654.194	73.94
654.398	77.94
654.602	73.94
654.806	93.94
655.01	71.94
655.214	78.94
655.418	82.94
655.622	70.94
655.826	84.94
656.03	80.94
656.234	94.94
656.438	68.94
656.642	79.94
656.846	77.94
657.049	85.94
657.253	72.94
657.457	77.94
657.661	72.94
657.865	96.94
658.068	89.94
658.272	86.94
658.476	79.94
658.68	74.94
658.883	74.94
659.087	84.94
659.291	76.94
659.494	88.94
659.698	72.94
659.901	81.94
660.105	80.94
660.309	69.94
660.512	90.94
660.716	74.94
660.919	94.94
661.123	69.94
661.326	88.94
661.53	78.94
661.733	92.94
661.936	90.94
662.14	72.94
662.343	80.94
662.546	74.94
662.75	88.94
662.953	63.94
663.156	82.94
663.36	87.94
663.563	85.94
663.766	78.94
663.969	90.94
664.173	84.94
664.376	84.94
664.579	72.94
664.782	84.94
664.985	80.94
665.188	80.94
665.391	86.94
665.594	78.94
665.797	74.94
666	81.94
666.203	76.94
666.406	86.94
666.609	83.94
666.812	82.94
667.015	84.94
667.218	81.94
667.421	78.94
667.624	86.94
667.827	82.94
668.03	80.94
668.232	69.94
668.435	82.94
668.638	71.94
668.841	91.94
669.043	79.94
669.246	73.94
669.449	69.94
669.651	76.94
669.854	82.94
670.057	78.94
670.259	78.94
670.462	76.94
670.665	88.94
670.867	86.94
671.07	82.94
671.272	76.94
671.475	80.94
671.677	98.94
671.88	82.94
672.082	70.94
672.284	86.94
672.487	80.94
672.689	85.94
672.892	76.94
