Data from BG_HRD10591_069.txt Node
Date: Fri May 16 15:14:57 EDT 2025
User: Yrep
Spectrometer: HR+D1059
Trigger mode: 1
Integration Time (sec): 1.000000E-1
Scans to average: 1
Electric dark correction enabled: true
Nonlinearity correction enabled: false
Boxcar width: 0
XAxis mode: Wavelengths
Number of Pixels in Spectrum: 2048
>>>>>Begin Spectral Data<<<<<
223.165	-18.19
223.4	-18.19
223.635	-18.19
223.869	-25.19
224.104	-12.19
224.338	-24.19
224.573	-28.19
224.808	-13.19
225.042	-10.19
225.277	7.81
225.511	7.81
225.746	-10.19
225.98	-2.19
226.215	18.81
226.449	19.81
226.683	23.81
226.918	23.81
227.152	41.81
227.387	30.81
227.621	41.81
227.856	40.81
228.09	61.81
228.324	58.81
228.559	62.81
228.793	53.81
229.027	59.81
229.262	67.81
229.496	68.81
229.73	74.81
229.964	70.81
230.199	73.81
230.433	90.81
230.667	79.81
230.901	77.81
231.136	79.81
231.37	64.81
231.604	83.81
231.838	68.81
232.072	78.81
232.306	77.81
232.541	75.81
232.775	85.81
233.009	69.81
233.243	87.81
233.477	99.81
233.711	86.81
233.945	94.81
234.179	82.81
234.413	72.81
234.647	74.81
234.881	71.81
235.115	77.81
235.349	75.81
235.583	81.81
235.817	73.81
236.051	82.81
236.285	90.81
236.519	78.81
236.753	77.81
236.987	68.81
237.221	62.81
237.455	79.81
237.689	77.81
237.922	72.81
238.156	72.81
238.39	84.81
238.624	71.81
238.858	72.81
239.091	88.81
239.325	86.81
239.559	58.81
239.793	87.81
240.027	74.81
240.26	76.81
240.494	78.81
240.728	61.81
240.961	64.81
241.195	74.81
241.429	74.81
241.662	72.81
241.896	81.81
242.13	80.81
242.363	71.81
242.597	68.81
242.83	90.81
243.064	87.81
243.298	74.81
243.531	70.81
243.765	84.81
243.998	90.81
244.232	80.81
244.465	86.81
244.699	78.81
244.932	83.81
245.166	80.81
245.399	72.81
245.633	78.81
245.866	79.81
246.099	78.81
246.333	89.81
246.566	75.81
246.8	91.81
247.033	72.81
247.266	82.81
247.5	75.81
247.733	64.81
247.966	85.81
248.2	79.81
248.433	82.81
248.666	70.81
248.899	78.81
249.133	82.81
249.366	92.81
249.599	82.81
249.832	75.81
250.066	72.81
250.299	80.81
250.532	85.81
250.765	81.81
250.998	94.81
251.231	63.81
251.465	72.81
251.698	90.81
251.931	77.81
252.164	77.81
252.397	83.81
252.63	72.81
252.863	71.81
253.096	85.81
253.329	68.81
253.562	68.81
253.795	84.81
254.028	91.81
254.261	79.81
254.494	82.81
254.727	70.81
254.96	76.81
255.193	78.81
255.426	79.81
255.659	76.81
255.892	90.81
256.124	83.81
256.357	72.81
256.59	80.81
256.823	77.81
257.056	75.81
257.289	86.81
257.521	85.81
257.754	85.81
257.987	80.81
258.22	82.81
258.452	76.81
258.685	73.81
258.918	86.81
259.151	98.81
259.383	85.81
259.616	77.81
259.849	60.81
260.081	82.81
260.314	80.81
260.547	78.81
260.779	90.81
261.012	80.81
261.244	83.81
261.477	92.81
261.71	86.81
261.942	78.81
262.175	75.81
262.407	67.81
262.64	81.81
262.872	87.81
263.105	81.81
263.337	85.81
263.57	94.81
263.802	84.81
264.035	81.81
264.267	78.81
264.499	77.81
264.732	94.81
264.964	99.81
265.197	80.81
265.429	70.81
265.661	86.81
265.894	88.81
266.126	86.81
266.358	81.81
266.591	83.81
266.823	82.81
267.055	76.81
267.287	81.81
267.52	85.81
267.752	91.81
267.984	93.81
268.216	72.81
268.448	82.81
268.681	79.81
268.913	79.81
269.145	82.81
269.377	71.81
269.609	77.81
269.841	80.81
270.073	76.81
270.306	85.81
270.538	82.81
270.77	85.81
271.002	99.81
271.234	84.81
271.466	91.81
271.698	75.81
271.93	81.81
272.162	86.81
272.394	85.81
272.626	74.81
272.858	84.81
273.09	87.81
273.322	72.81
273.553	77.81
273.785	95.81
274.017	82.81
274.249	82.81
274.481	85.81
274.713	76.81
274.945	79.81
275.176	90.81
275.408	85.81
275.64	78.81
275.872	73.81
276.104	88.81
276.335	89.81
276.567	88.81
276.799	73.81
277.031	79.81
277.262	81.81
277.494	95.81
277.726	70.81
277.957	90.81
278.189	83.81
278.421	74.81
278.652	76.81
278.884	78.81
279.115	99.81
279.347	75.81
279.579	79.81
279.81	87.81
280.042	89.81
280.273	76.81
280.505	82.81
280.736	85.81
280.968	83.81
281.199	102.81
281.431	84.81
281.662	80.81
281.894	94.81
282.125	83.81
282.356	75.81
282.588	85.81
282.819	78.81
283.051	73.81
283.282	88.81
283.513	80.81
283.745	92.81
283.976	93.81
284.207	83.81
284.439	79.81
284.67	88.81
284.901	80.81
285.132	87.81
285.364	89.81
285.595	88.81
285.826	90.81
286.057	86.81
286.288	95.81
286.52	93.81
286.751	79.81
286.982	71.81
287.213	75.81
287.444	80.81
287.675	84.81
287.906	86.81
288.138	94.81
288.369	91.81
288.6	90.81
288.831	87.81
289.062	81.81
289.293	87.81
289.524	88.81
289.755	87.81
289.986	96.81
290.217	89.81
290.448	88.81
290.679	84.81
290.91	87.81
291.141	72.81
291.371	102.81
291.602	94.81
291.833	85.81
292.064	91.81
292.295	94.81
292.526	82.81
292.757	72.81
292.987	85.81
293.218	83.81
293.449	84.81
293.68	76.81
293.91	83.81
294.141	88.81
294.372	85.81
294.603	87.81
294.833	75.81
295.064	78.81
295.295	79.81
295.525	73.81
295.756	95.81
295.987	94.81
296.217	89.81
296.448	94.81
296.679	99.81
296.909	78.81
297.14	83.81
297.37	79.81
297.601	75.81
297.831	78.81
298.062	84.81
298.292	88.81
298.523	73.81
298.753	89.81
298.984	88.81
299.214	86.81
299.445	83.81
299.675	80.81
299.905	89.81
300.136	93.81
300.366	91.81
300.597	79.81
300.827	103.81
301.057	96.81
301.288	82.81
301.518	84.81
301.748	89.81
301.979	103.81
302.209	88.81
302.439	73.81
302.669	84.81
302.9	79.81
303.13	74.81
303.36	77.81
303.59	96.81
303.82	98.81
304.051	82.81
304.281	84.81
304.511	103.81
304.741	86.81
304.971	93.81
305.201	89.81
305.431	93.81
305.661	88.81
305.891	88.81
306.121	84.81
306.352	83.81
306.582	85.81
306.812	99.81
307.042	85.81
307.272	71.81
307.502	72.81
307.731	95.81
307.961	89.81
308.191	85.81
308.421	87.81
308.651	86.81
308.881	104.81
309.111	75.81
309.341	77.81
309.571	90.81
309.8	86.81
310.03	100.81
310.26	90.81
310.49	68.81
310.72	88.81
310.949	87.81
311.179	83.81
311.409	89.81
311.639	88.81
311.868	93.81
312.098	94.81
312.328	84.81
312.557	87.81
312.787	62.81
313.017	98.81
313.246	92.81
313.476	88.81
313.706	79.81
313.935	85.81
314.165	86.81
314.394	90.81
314.624	93.81
314.853	88.81
315.083	79.81
315.312	82.81
315.542	71.81
315.771	95.81
316.001	80.81
316.23	83.81
316.46	104.81
316.689	86.81
316.919	91.81
317.148	98.81
317.377	98.81
317.607	85.81
317.836	86.81
318.065	110.81
318.295	95.81
318.524	78.81
318.753	94.81
318.983	93.81
319.212	90.81
319.441	77.81
319.67	90.81
319.9	88.81
320.129	74.81
320.358	92.81
320.587	87.81
320.816	88.81
321.046	88.81
321.275	81.81
321.504	89.81
321.733	96.81
321.962	92.81
322.191	81.81
322.42	89.81
322.649	94.81
322.878	92.81
323.108	88.81
323.337	72.81
323.566	79.81
323.795	89.81
324.024	95.81
324.253	91.81
324.482	79.81
324.71	84.81
324.939	86.81
325.168	91.81
325.397	105.81
325.626	80.81
325.855	82.81
326.084	80.81
326.313	93.81
326.542	99.81
326.77	88.81
326.999	101.81
327.228	91.81
327.457	83.81
327.686	82.81
327.914	92.81
328.143	87.81
328.372	94.81
328.6	90.81
328.829	90.81
329.058	85.81
329.287	75.81
329.515	74.81
329.744	102.81
329.972	88.81
330.201	72.81
330.43	100.81
330.658	89.81
330.887	90.81
331.115	82.81
331.344	79.81
331.572	79.81
331.801	86.81
332.03	100.81
332.258	73.81
332.486	85.81
332.715	83.81
332.943	98.81
333.172	96.81
333.4	89.81
333.629	75.81
333.857	84.81
334.085	87.81
334.314	92.81
334.542	97.81
334.771	87.81
334.999	89.81
335.227	90.81
335.455	76.81
335.684	84.81
335.912	81.81
336.14	95.81
336.369	80.81
336.597	80.81
336.825	94.81
337.053	86.81
337.281	91.81
337.51	89.81
337.738	75.81
337.966	81.81
338.194	72.81
338.422	77.81
338.65	83.81
338.878	100.81
339.106	96.81
339.334	87.81
339.562	98.81
339.79	95.81
340.018	85.81
340.246	70.81
340.474	91.81
340.702	82.81
340.93	87.81
341.158	90.81
341.386	102.81
341.614	87.81
341.842	86.81
342.07	86.81
342.298	95.81
342.526	89.81
342.754	90.81
342.981	74.81
343.209	79.81
343.437	95.81
343.665	86.81
343.893	79.81
344.12	89.81
344.348	73.81
344.576	74.81
344.804	76.81
345.031	88.81
345.259	82.81
345.487	87.81
345.714	93.81
345.942	88.81
346.17	100.81
346.397	73.81
346.625	79.81
346.853	93.81
347.08	90.81
347.308	85.81
347.535	85.81
347.763	82.81
347.99	73.81
348.218	83.81
348.445	87.81
348.673	92.81
348.9	100.81
349.128	84.81
349.355	89.81
349.583	88.81
349.81	90.81
350.037	97.81
350.265	82.81
350.492	92.81
350.72	98.81
350.947	84.81
351.174	94.81
351.402	79.81
351.629	82.81
351.856	84.81
352.083	74.81
352.311	102.81
352.538	85.81
352.765	87.81
352.992	85.81
353.22	80.81
353.447	93.81
353.674	87.81
353.901	87.81
354.128	83.81
354.355	88.81
354.583	84.81
354.81	86.81
355.037	94.81
355.264	88.81
355.491	92.81
355.718	88.81
355.945	98.81
356.172	91.81
356.399	83.81
356.626	75.81
356.853	93.81
357.08	85.81
357.307	90.81
357.534	80.81
357.761	90.81
357.988	94.81
358.215	86.81
358.441	88.81
358.668	86.81
358.895	89.81
359.122	87.81
359.349	97.81
359.576	87.81
359.802	93.81
360.029	86.81
360.256	87.81
360.483	80.81
360.709	70.81
360.936	89.81
361.163	83.81
361.39	106.81
361.616	90.81
361.843	85.81
362.07	85.81
362.296	77.81
362.523	74.81
362.749	101.81
362.976	84.81
363.203	84.81
363.429	67.81
363.656	76.81
363.882	77.81
364.109	99.81
364.335	78.81
364.562	90.81
364.788	90.81
365.015	91.81
365.241	82.81
365.468	95.81
365.694	84.81
365.92	95.81
366.147	91.81
366.373	92.81
366.599	90.81
366.826	77.81
367.052	85.81
367.278	87.81
367.505	82.81
367.731	98.81
367.957	79.81
368.184	89.81
368.41	100.81
368.636	81.81
368.862	91.81
369.089	87.81
369.315	85.81
369.541	71.81
369.767	86.81
369.993	81.81
370.219	76.81
370.445	70.81
370.672	79.81
370.898	77.81
371.124	75.81
371.35	98.81
371.576	80.81
371.802	89.81
372.028	72.81
372.254	73.81
372.48	88.81
372.706	90.81
372.932	88.81
373.158	87.81
373.384	77.81
373.61	79.81
373.835	86.81
374.061	78.81
374.287	68.81
374.513	94.81
374.739	82.81
374.965	70.81
375.191	92.81
375.416	86.81
375.642	93.81
375.868	86.81
376.094	83.81
376.319	81.81
376.545	86.81
376.771	93.81
376.997	90.81
377.222	85.81
377.448	85.81
377.674	92.81
377.899	112.81
378.125	85.81
378.35	94.81
378.576	77.81
378.802	81.81
379.027	75.81
379.253	85.81
379.478	100.81
379.704	82.81
379.929	88.81
380.155	95.81
380.38	96.81
380.606	99.81
380.831	82.81
381.057	83.81
381.282	75.81
381.507	67.81
381.733	84.81
381.958	90.81
382.184	74.81
382.409	79.81
382.634	81.81
382.86	94.81
383.085	88.81
383.31	78.81
383.535	86.81
383.761	92.81
383.986	74.81
384.211	93.81
384.436	88.81
384.662	84.81
384.887	93.81
385.112	90.81
385.337	91.81
385.562	92.81
385.787	98.81
386.013	101.81
386.238	89.81
386.463	83.81
386.688	108.81
386.913	91.81
387.138	82.81
387.363	86.81
387.588	80.81
387.813	92.81
388.038	89.81
388.263	95.81
388.488	100.81
388.713	76.81
388.938	84.81
389.163	72.81
389.387	82.81
389.612	82.81
389.837	87.81
390.062	87.81
390.287	88.81
390.512	81.81
390.736	93.81
390.961	83.81
391.186	74.81
391.411	76.81
391.636	77.81
391.86	91.81
392.085	89.81
392.31	80.81
392.534	78.81
392.759	88.81
392.984	100.81
393.208	83.81
393.433	92.81
393.658	84.81
393.882	88.81
394.107	96.81
394.331	80.81
394.556	95.81
394.78	78.81
395.005	82.81
395.229	100.81
395.454	108.81
395.678	83.81
395.903	90.81
396.127	74.81
396.352	77.81
396.576	75.81
396.801	98.81
397.025	74.81
397.249	87.81
397.474	86.81
397.698	98.81
397.922	89.81
398.147	85.81
398.371	95.81
398.595	77.81
398.82	76.81
399.044	92.81
399.268	84.81
399.492	95.81
399.717	101.81
399.941	98.81
400.165	77.81
400.389	81.81
400.613	94.81
400.837	88.81
401.062	90.81
401.286	91.81
401.51	92.81
401.734	84.81
401.958	85.81
402.182	88.81
402.406	75.81
402.63	75.81
402.854	90.81
403.078	92.81
403.302	74.81
403.526	72.81
403.75	82.81
403.974	98.81
404.198	95.81
404.422	100.81
404.645	115.81
404.869	94.81
405.093	76.81
405.317	90.81
405.541	88.81
405.765	80.81
405.988	77.81
406.212	80.81
406.436	79.81
406.66	98.81
406.883	86.81
407.107	77.81
407.331	87.81
407.555	105.81
407.778	91.81
408.002	96.81
408.226	93.81
408.449	88.81
408.673	79.81
408.896	90.81
409.12	76.81
409.344	100.81
409.567	90.81
409.791	88.81
410.014	94.81
410.238	93.81
410.461	95.81
410.685	101.81
410.908	86.81
411.132	93.81
411.355	76.81
411.578	95.81
411.802	98.81
412.025	73.81
412.249	92.81
412.472	98.81
412.695	95.81
412.919	91.81
413.142	88.81
413.365	85.81
413.589	77.81
413.812	102.81
414.035	82.81
414.258	80.81
414.482	92.81
414.705	83.81
414.928	82.81
415.151	72.81
415.374	94.81
415.597	84.81
415.821	83.81
416.044	94.81
416.267	84.81
416.49	99.81
416.713	92.81
416.936	95.81
417.159	85.81
417.382	85.81
417.605	87.81
417.828	86.81
418.051	78.81
418.274	74.81
418.497	91.81
418.72	88.81
418.943	95.81
419.166	100.81
419.389	93.81
419.611	74.81
419.834	84.81
420.057	85.81
420.28	82.81
420.503	87.81
420.726	81.81
420.948	79.81
421.171	85.81
421.394	88.81
421.617	83.81
421.839	86.81
422.062	95.81
422.285	85.81
422.507	78.81
422.73	89.81
422.953	88.81
423.175	91.81
423.398	84.81
423.621	92.81
423.843	85.81
424.066	94.81
424.288	94.81
424.511	94.81
424.733	90.81
424.956	88.81
425.178	94.81
425.401	87.81
425.623	78.81
425.846	83.81
426.068	74.81
426.291	84.81
426.513	90.81
426.735	85.81
426.958	79.81
427.18	83.81
427.402	69.81
427.625	83.81
427.847	81.81
428.069	90.81
428.292	83.81
428.514	78.81
428.736	83.81
428.958	89.81
429.181	90.81
429.403	85.81
429.625	72.81
429.847	81.81
430.069	77.81
430.292	90.81
430.514	76.81
430.736	86.81
430.958	98.81
431.18	82.81
431.402	79.81
431.624	95.81
431.846	76.81
432.068	80.81
432.29	87.81
432.512	91.81
432.734	86.81
432.956	87.81
433.178	90.81
433.4	92.81
433.622	90.81
433.844	91.81
434.066	87.81
434.287	84.81
434.509	95.81
434.731	99.81
434.953	82.81
435.175	88.81
435.397	82.81
435.618	96.81
435.84	91.81
436.062	90.81
436.284	92.81
436.505	95.81
436.727	73.81
436.949	74.81
437.17	87.81
437.392	102.81
437.614	94.81
437.835	87.81
438.057	91.81
438.278	77.81
438.5	96.81
438.721	80.81
438.943	90.81
439.165	79.81
439.386	81.81
439.608	83.81
439.829	88.81
440.05	76.81
440.272	82.81
440.493	79.81
440.715	89.81
440.936	90.81
441.158	108.81
441.379	98.81
441.6	83.81
441.822	80.81
442.043	86.81
442.264	81.81
442.486	79.81
442.707	84.81
442.928	89.81
443.149	86.81
443.371	82.81
443.592	83.81
443.813	88.81
444.034	86.81
444.255	86.81
444.476	95.81
444.698	93.81
444.919	89.81
445.14	182.81
445.361	139.81
445.582	86.81
445.803	82.81
446.024	83.81
446.245	95.81
446.466	90.81
446.687	92.81
446.908	79.81
447.129	87.81
447.35	93.81
447.571	103.81
447.792	82.81
448.013	91.81
448.234	84.81
448.455	82.81
448.675	93.81
448.896	94.81
449.117	75.81
449.338	100.81
449.559	80.81
449.779	94.81
450	74.81
450.221	90.81
450.442	82.81
450.662	69.81
450.883	79.81
451.104	72.81
451.324	64.81
451.545	99.81
451.766	82.81
451.986	71.81
452.207	85.81
452.428	77.81
452.648	91.81
452.869	85.81
453.089	91.81
453.31	100.81
453.53	85.81
453.751	83.81
453.971	84.81
454.192	80.81
454.412	75.81
454.633	77.81
454.853	80.81
455.073	85.81
455.294	91.81
455.514	84.81
455.734	87.81
455.955	91.81
456.175	77.81
456.395	90.81
456.616	91.81
456.836	92.81
457.056	84.81
457.276	83.81
457.497	78.81
457.717	78.81
457.937	95.81
458.157	91.81
458.377	88.81
458.598	79.81
458.818	94.81
459.038	87.81
459.258	102.81
459.478	84.81
459.698	87.81
459.918	95.81
460.138	71.81
460.358	94.81
460.578	82.81
460.798	97.81
461.018	92.81
461.238	89.81
461.458	101.81
461.678	78.81
461.898	90.81
462.118	89.81
462.338	99.81
462.558	93.81
462.777	88.81
462.997	93.81
463.217	101.81
463.437	87.81
463.657	76.81
463.876	88.81
464.096	104.81
464.316	100.81
464.536	106.81
464.755	101.81
464.975	86.81
465.195	73.81
465.414	77.81
465.634	77.81
465.854	82.81
466.073	95.81
466.293	88.81
466.512	82.81
466.732	86.81
466.951	74.81
467.171	83.81
467.391	88.81
467.61	79.81
467.829	85.81
468.049	96.81
468.268	90.81
468.488	86.81
468.707	81.81
468.927	80.81
469.146	94.81
469.365	78.81
469.585	95.81
469.804	77.81
470.023	72.81
470.243	73.81
470.462	81.81
470.681	79.81
470.901	76.81
471.12	87.81
471.339	94.81
471.558	75.81
471.777	71.81
471.997	77.81
472.216	96.81
472.435	87.81
472.654	88.81
472.873	76.81
473.092	95.81
473.311	90.81
473.53	94.81
473.749	93.81
473.968	92.81
474.187	83.81
474.406	91.81
474.625	92.81
474.844	83.81
475.063	87.81
475.282	78.81
475.501	82.81
475.72	93.81
475.939	80.81
476.158	89.81
476.377	81.81
476.596	80.81
476.814	68.81
477.033	92.81
477.252	83.81
477.471	82.81
477.69	88.81
477.908	80.81
478.127	86.81
478.346	94.81
478.564	79.81
478.783	77.81
479.002	94.81
479.22	99.81
479.439	82.81
479.658	90.81
479.876	80.81
480.095	95.81
480.313	95.81
480.532	86.81
480.751	88.81
480.969	92.81
481.188	91.81
481.406	95.81
481.624	98.81
481.843	80.81
482.061	91.81
482.28	109.81
482.498	92.81
482.717	104.81
482.935	86.81
483.153	92.81
483.372	85.81
483.59	93.81
483.808	94.81
484.027	83.81
484.245	101.81
484.463	78.81
484.681	93.81
484.9	94.81
485.118	98.81
485.336	94.81
485.554	80.81
485.772	91.81
485.99	72.81
486.209	84.81
486.427	95.81
486.645	91.81
486.863	76.81
487.081	97.81
487.299	98.81
487.517	83.81
487.735	90.81
487.953	76.81
488.171	78.81
488.389	100.81
488.607	88.81
488.825	86.81
489.043	92.81
489.261	98.81
489.479	101.81
489.696	85.81
489.914	87.81
490.132	84.81
490.35	89.81
490.568	88.81
490.786	91.81
491.003	85.81
491.221	95.81
491.439	95.81
491.657	86.81
491.874	103.81
492.092	85.81
492.31	84.81
492.527	69.81
492.745	80.81
492.963	88.81
493.18	92.81
493.398	82.81
493.615	85.81
493.833	97.81
494.05	99.81
494.268	97.81
494.485	72.81
494.703	98.81
494.92	102.81
495.138	86.81
495.355	76.81
495.573	99.81
495.79	77.81
496.008	100.81
496.225	95.81
496.442	78.81
496.66	102.81
496.877	102.81
497.094	97.81
497.312	102.81
497.529	89.81
497.746	90.81
497.963	95.81
498.181	80.81
498.398	90.81
498.615	102.81
498.832	107.81
499.049	112.81
499.267	113.81
499.484	107.81
499.701	112.81
499.918	96.81
500.135	110.81
500.352	126.81
500.569	116.81
500.786	120.81
501.003	122.81
501.22	95.81
501.437	96.81
501.654	84.81
501.871	98.81
502.088	111.81
502.305	91.81
502.522	95.81
502.739	105.81
502.956	90.81
503.172	93.81
503.389	95.81
503.606	74.81
503.823	90.81
504.04	99.81
504.256	82.81
504.473	96.81
504.69	93.81
504.907	114.81
505.123	98.81
505.34	95.81
505.557	93.81
505.773	99.81
505.99	98.81
506.207	83.81
506.423	97.81
506.64	84.81
506.856	85.81
507.073	85.81
507.289	77.81
507.506	69.81
507.722	74.81
507.939	79.81
508.155	84.81
508.372	81.81
508.588	86.81
508.805	80.81
509.021	83.81
509.238	102.81
509.454	86.81
509.67	70.81
509.887	98.81
510.103	90.81
510.319	90.81
510.536	94.81
510.752	92.81
510.968	79.81
511.184	98.81
511.401	80.81
511.617	91.81
511.833	75.81
512.049	84.81
512.265	85.81
512.481	78.81
512.698	86.81
512.914	89.81
513.13	94.81
513.346	88.81
513.562	91.81
513.778	89.81
513.994	93.81
514.21	77.81
514.426	100.81
514.642	76.81
514.858	89.81
515.074	105.81
515.29	106.81
515.506	77.81
515.721	82.81
515.937	76.81
516.153	89.81
516.369	94.81
516.585	86.81
516.801	93.81
517.016	86.81
517.232	106.81
517.448	95.81
517.664	92.81
517.879	102.81
518.095	91.81
518.311	100.81
518.527	87.81
518.742	93.81
518.958	87.81
519.173	87.81
519.389	89.81
519.605	90.81
519.82	99.81
520.036	78.81
520.251	96.81
520.467	91.81
520.682	101.81
520.898	97.81
521.113	92.81
521.329	77.81
521.544	94.81
521.76	87.81
521.975	90.81
522.19	91.81
522.406	102.81
522.621	88.81
522.836	75.81
523.052	89.81
523.267	82.81
523.482	94.81
523.698	106.81
523.913	97.81
524.128	75.81
524.343	104.81
524.559	103.81
524.774	80.81
524.989	86.81
525.204	93.81
525.419	91.81
525.634	92.81
525.849	84.81
526.064	97.81
526.28	86.81
526.495	93.81
526.71	71.81
526.925	78.81
527.14	88.81
527.355	94.81
527.57	84.81
527.785	92.81
527.999	83.81
528.214	87.81
528.429	86.81
528.644	90.81
528.859	98.81
529.074	96.81
529.289	85.81
529.503	84.81
529.718	84.81
529.933	98.81
530.148	88.81
530.363	72.81
530.577	90.81
530.792	91.81
531.007	81.81
531.221	85.81
531.436	93.81
531.651	78.81
531.865	70.81
532.08	95.81
532.295	98.81
532.509	88.81
532.724	84.81
532.938	103.81
533.153	80.81
533.367	100.81
533.582	98.81
533.796	88.81
534.011	90.81
534.225	87.81
534.44	93.81
534.654	91.81
534.868	95.81
535.083	101.81
535.297	90.81
535.511	92.81
535.726	94.81
535.94	98.81
536.154	89.81
536.369	94.81
536.583	88.81
536.797	97.81
537.011	105.81
537.225	99.81
537.44	107.81
537.654	77.81
537.868	81.81
538.082	94.81
538.296	77.81
538.51	84.81
538.724	93.81
538.938	85.81
539.153	83.81
539.367	100.81
539.581	74.81
539.795	95.81
540.009	82.81
540.222	98.81
540.436	90.81
540.65	74.81
540.864	85.81
541.078	97.81
541.292	98.81
541.506	84.81
541.72	89.81
541.934	96.81
542.147	89.81
542.361	82.81
542.575	98.81
542.789	87.81
543.002	82.81
543.216	95.81
543.43	84.81
543.644	98.81
543.857	93.81
544.071	85.81
544.285	80.81
544.498	85.81
544.712	106.81
544.925	89.81
545.139	88.81
545.352	94.81
545.566	84.81
545.779	112.81
545.993	78.81
546.206	86.81
546.42	82.81
546.633	87.81
546.847	93.81
547.06	90.81
547.274	93.81
547.487	90.81
547.7	84.81
547.914	100.81
548.127	102.81
548.34	82.81
548.554	79.81
548.767	89.81
548.98	84.81
549.193	85.81
549.407	90.81
549.62	96.81
549.833	100.81
550.046	95.81
550.259	90.81
550.473	103.81
550.686	100.81
550.899	87.81
551.112	97.81
551.325	89.81
551.538	86.81
551.751	94.81
551.964	86.81
552.177	94.81
552.39	88.81
552.603	84.81
552.816	89.81
553.029	90.81
553.242	94.81
553.455	93.81
553.667	99.81
553.88	87.81
554.093	76.81
554.306	86.81
554.519	98.81
554.732	82.81
554.944	101.81
555.157	82.81
555.37	85.81
555.583	84.81
555.795	86.81
556.008	81.81
556.221	83.81
556.433	83.81
556.646	94.81
556.859	77.81
557.071	85.81
557.284	95.81
557.496	98.81
557.709	82.81
557.921	84.81
558.134	90.81
558.346	90.81
558.559	92.81
558.771	74.81
558.984	83.81
559.196	86.81
559.409	84.81
559.621	102.81
559.833	85.81
560.046	88.81
560.258	84.81
560.47	91.81
560.683	87.81
560.895	93.81
561.107	93.81
561.32	78.81
561.532	91.81
561.744	82.81
561.956	67.81
562.168	79.81
562.381	86.81
562.593	95.81
562.805	98.81
563.017	86.81
563.229	92.81
563.441	88.81
563.653	86.81
563.865	99.81
564.077	76.81
564.289	85.81
564.501	94.81
564.713	89.81
564.925	87.81
565.137	81.81
565.349	86.81
565.561	110.81
565.773	90.81
565.985	85.81
566.197	89.81
566.408	93.81
566.62	96.81
566.832	87.81
567.044	96.81
567.255	102.81
567.467	86.81
567.679	89.81
567.891	83.81
568.102	93.81
568.314	98.81
568.526	102.81
568.737	90.81
568.949	77.81
569.161	91.81
569.372	83.81
569.584	91.81
569.795	85.81
570.007	84.81
570.218	94.81
570.43	85.81
570.641	94.81
570.853	99.81
571.064	93.81
571.276	89.81
571.487	92.81
571.698	78.81
571.91	78.81
572.121	80.81
572.333	86.81
572.544	86.81
572.755	85.81
572.966	81.81
573.178	81.81
573.389	87.81
573.6	84.81
573.811	86.81
574.023	85.81
574.234	83.81
574.445	75.81
574.656	74.81
574.867	86.81
575.078	85.81
575.289	73.81
575.501	84.81
575.712	86.81
575.923	86.81
576.134	85.81
576.345	95.81
576.556	93.81
576.767	77.81
576.978	99.81
577.188	90.81
577.399	73.81
577.61	92.81
577.821	82.81
578.032	66.81
578.243	91.81
578.454	84.81
578.665	77.81
578.875	83.81
579.086	83.81
579.297	77.81
579.508	80.81
579.718	82.81
579.929	80.81
580.14	94.81
580.35	85.81
580.561	91.81
580.772	102.81
580.982	89.81
581.193	88.81
581.403	102.81
581.614	85.81
581.825	79.81
582.035	84.81
582.246	86.81
582.456	82.81
582.667	86.81
582.877	100.81
583.087	95.81
583.298	92.81
583.508	93.81
583.719	90.81
583.929	86.81
584.139	96.81
584.35	83.81
584.56	86.81
584.77	78.81
584.981	88.81
585.191	83.81
585.401	91.81
585.611	79.81
585.821	80.81
586.032	79.81
586.242	93.81
586.452	87.81
586.662	86.81
586.872	76.81
587.082	81.81
587.292	98.81
587.502	85.81
587.713	80.81
587.923	86.81
588.133	94.81
588.343	79.81
588.553	66.81
588.762	86.81
588.972	94.81
589.182	84.81
589.392	79.81
589.602	85.81
589.812	91.81
590.022	82.81
590.232	93.81
590.441	86.81
590.651	73.81
590.861	78.81
591.071	92.81
591.281	89.81
591.49	94.81
591.7	75.81
591.91	85.81
592.119	88.81
592.329	107.81
592.539	83.81
592.748	90.81
592.958	82.81
593.167	83.81
593.377	71.81
593.587	87.81
593.796	79.81
594.006	89.81
594.215	99.81
594.424	81.81
594.634	96.81
594.843	81.81
595.053	85.81
595.262	79.81
595.472	90.81
595.681	88.81
595.89	80.81
596.1	88.81
596.309	84.81
596.518	91.81
596.727	96.81
596.937	91.81
597.146	91.81
597.355	96.81
597.564	70.81
597.774	80.81
597.983	101.81
598.192	82.81
598.401	76.81
598.61	79.81
598.819	75.81
599.028	90.81
599.237	85.81
599.446	91.81
599.655	74.81
599.864	82.81
600.073	98.81
600.282	83.81
600.491	91.81
600.7	83.81
600.909	84.81
601.118	91.81
601.327	89.81
601.536	88.81
601.745	75.81
601.953	98.81
602.162	73.81
602.371	61.81
602.58	74.81
602.789	84.81
602.997	79.81
603.206	90.81
603.415	84.81
603.623	89.81
603.832	82.81
604.041	79.81
604.249	91.81
604.458	93.81
604.666	87.81
604.875	84.81
605.084	85.81
605.292	78.81
605.501	75.81
605.709	84.81
605.918	83.81
606.126	93.81
606.334	89.81
606.543	88.81
606.751	82.81
606.96	85.81
607.168	78.81
607.376	79.81
607.585	91.81
607.793	106.81
608.001	91.81
608.21	70.81
608.418	82.81
608.626	79.81
608.834	90.81
609.043	82.81
609.251	73.81
609.459	88.81
609.667	70.81
609.875	96.81
610.083	83.81
610.291	87.81
610.499	93.81
610.707	74.81
610.916	85.81
611.124	60.81
611.332	74.81
611.54	84.81
611.748	82.81
611.955	87.81
612.163	85.81
612.371	94.81
612.579	80.81
612.787	76.81
612.995	90.81
613.203	98.81
613.411	80.81
613.618	86.81
613.826	75.81
614.034	95.81
614.242	74.81
614.449	80.81
614.657	83.81
614.865	78.81
615.072	76.81
615.28	96.81
615.488	87.81
615.695	87.81
615.903	79.81
616.111	96.81
616.318	91.81
616.526	87.81
616.733	87.81
616.941	85.81
617.148	89.81
617.356	87.81
617.563	84.81
617.771	76.81
617.978	76.81
618.185	82.81
618.393	85.81
618.6	78.81
618.807	87.81
619.015	80.81
619.222	89.81
619.429	69.81
619.637	78.81
619.844	85.81
620.051	89.81
620.258	89.81
620.466	90.81
620.673	84.81
620.88	76.81
621.087	84.81
621.294	86.81
621.501	88.81
621.708	80.81
621.915	87.81
622.122	75.81
622.329	72.81
622.536	77.81
622.743	76.81
622.95	76.81
623.157	74.81
623.364	80.81
623.571	86.81
623.778	84.81
623.985	74.81
624.192	78.81
624.399	92.81
624.606	90.81
624.812	87.81
625.019	80.81
625.226	84.81
625.433	78.81
625.639	88.81
625.846	84.81
626.053	77.81
626.259	82.81
626.466	73.81
626.673	99.81
626.879	80.81
627.086	78.81
627.293	84.81
627.499	85.81
627.706	68.81
627.912	83.81
628.119	75.81
628.325	88.81
628.532	87.81
628.738	79.81
628.945	76.81
629.151	91.81
629.357	80.81
629.564	83.81
629.77	87.81
629.976	92.81
630.183	72.81
630.389	78.81
630.595	79.81
630.802	87.81
631.008	91.81
631.214	77.81
631.42	84.81
631.627	82.81
631.833	82.81
632.039	75.81
632.245	85.81
632.451	93.81
632.657	83.81
632.863	79.81
633.069	80.81
633.275	89.81
633.481	71.81
633.688	79.81
633.893	87.81
634.099	98.81
634.305	74.81
634.511	71.81
634.717	87.81
634.923	78.81
635.129	95.81
635.335	88.81
635.541	79.81
635.747	92.81
635.952	93.81
636.158	74.81
636.364	93.81
636.57	79.81
636.775	100.81
636.981	84.81
637.187	70.81
637.392	84.81
637.598	79.81
637.804	80.81
638.009	95.81
638.215	72.81
638.421	74.81
638.626	75.81
638.832	87.81
639.037	79.81
639.243	83.81
639.448	69.81
639.654	71.81
639.859	78.81
640.065	71.81
640.27	94.81
640.475	89.81
640.681	76.81
640.886	68.81
641.091	74.81
641.297	100.81
641.502	74.81
641.707	95.81
641.913	81.81
642.118	90.81
642.323	73.81
642.528	83.81
642.733	82.81
642.939	87.81
643.144	103.81
643.349	98.81
643.554	82.81
643.759	86.81
643.964	87.81
644.169	69.81
644.374	91.81
644.579	82.81
644.784	78.81
644.989	72.81
645.194	80.81
645.399	84.81
645.604	78.81
645.809	72.81
646.014	91.81
646.219	84.81
646.423	82.81
646.628	99.81
646.833	79.81
647.038	91.81
647.243	75.81
647.447	75.81
647.652	77.81
647.857	81.81
648.062	98.81
648.266	94.81
648.471	88.81
648.676	84.81
648.88	63.81
649.085	92.81
649.289	94.81
649.494	67.81
649.698	85.81
649.903	81.81
650.107	82.81
650.312	95.81
650.516	85.81
650.721	100.81
650.925	73.81
651.13	69.81
651.334	78.81
651.539	90.81
651.743	83.81
651.947	84.81
652.152	83.81
652.356	73.81
652.56	79.81
652.764	86.81
652.969	68.81
653.173	86.81
653.377	80.81
653.581	75.81
653.785	87.81
653.99	76.81
654.194	61.81
654.398	79.81
654.602	76.81
654.806	82.81
655.01	77.81
655.214	84.81
655.418	83.81
655.622	83.81
655.826	88.81
656.03	90.81
656.234	82.81
656.438	91.81
656.642	85.81
656.846	78.81
657.049	74.81
657.253	99.81
657.457	83.81
657.661	76.81
657.865	85.81
658.068	82.81
658.272	67.81
658.476	76.81
658.68	84.81
658.883	75.81
659.087	88.81
659.291	79.81
659.494	70.81
659.698	79.81
659.901	77.81
660.105	79.81
660.309	85.81
660.512	76.81
660.716	78.81
660.919	62.81
661.123	93.81
661.326	80.81
661.53	105.81
661.733	83.81
661.936	71.81
662.14	82.81
662.343	78.81
662.546	69.81
662.75	77.81
662.953	80.81
663.156	83.81
663.36	71.81
663.563	78.81
663.766	90.81
663.969	90.81
664.173	86.81
664.376	72.81
664.579	84.81
664.782	76.81
664.985	86.81
665.188	63.81
665.391	79.81
665.594	84.81
665.797	78.81
666	79.81
666.203	67.81
666.406	62.81
666.609	72.81
666.812	91.81
667.015	98.81
667.218	81.81
667.421	80.81
667.624	78.81
667.827	82.81
668.03	76.81
668.232	75.81
668.435	84.81
668.638	79.81
668.841	69.81
669.043	93.81
669.246	80.81
669.449	88.81
669.651	85.81
669.854	73.81
670.057	78.81
670.259	78.81
670.462	83.81
670.665	91.81
670.867	86.81
671.07	83.81
671.272	77.81
671.475	84.81
671.677	60.81
671.88	82.81
672.082	78.81
672.284	74.81
672.487	89.81
672.689	73.81
672.892	78.81
