Data from Cut_Leaves_25_2_HRD10591_00012.txt Node
Date: Wed Dec 03 14:13:42 EST 2025
User: Yrep
Spectrometer: HR+D1059
Trigger mode: 1
Integration Time (sec): 1.000000E-1
Scans to average: 1
Electric dark correction enabled: true
Nonlinearity correction enabled: false
Boxcar width: 0
XAxis mode: Wavelengths
Number of Pixels in Spectrum: 2048
>>>>>Begin Spectral Data<<<<<
223.165	-16.94
223.4	-16.94
223.635	-16.94
223.869	-22.94
224.104	-26.94
224.338	-13.94
224.573	-14.94
224.808	8.06
225.042	-7.94
225.277	2.06
225.511	-4.94
225.746	6.06
225.98	4.06
226.215	22.06
226.449	16.06
226.683	9.06
226.918	16.06
227.152	25.06
227.387	46.06
227.621	38.06
227.856	43.06
228.09	55.06
228.324	59.06
228.559	61.06
228.793	71.06
229.027	60.06
229.262	64.06
229.496	73.06
229.73	69.06
229.964	68.06
230.199	73.06
230.433	64.06
230.667	69.06
230.901	71.06
231.136	67.06
231.37	79.06
231.604	75.06
231.838	84.06
232.072	77.06
232.306	77.06
232.541	86.06
232.775	81.06
233.009	88.06
233.243	76.06
233.477	80.06
233.711	73.06
233.945	73.06
234.179	81.06
234.413	92.06
234.647	85.06
234.881	79.06
235.115	89.06
235.349	84.06
235.583	88.06
235.817	71.06
236.051	81.06
236.285	76.06
236.519	83.06
236.753	66.06
236.987	79.06
237.221	92.06
237.455	75.06
237.689	78.06
237.922	78.06
238.156	84.06
238.39	75.06
238.624	74.06
238.858	77.06
239.091	70.06
239.325	84.06
239.559	79.06
239.793	84.06
240.027	92.06
240.26	64.06
240.494	89.06
240.728	88.06
240.961	85.06
241.195	86.06
241.429	84.06
241.662	70.06
241.896	94.06
242.13	89.06
242.363	77.06
242.597	68.06
242.83	86.06
243.064	76.06
243.298	77.06
243.531	79.06
243.765	94.06
243.998	90.06
244.232	78.06
244.465	80.06
244.699	68.06
244.932	80.06
245.166	71.06
245.399	67.06
245.633	80.06
245.866	80.06
246.099	69.06
246.333	76.06
246.566	68.06
246.8	74.06
247.033	75.06
247.266	72.06
247.5	79.06
247.733	77.06
247.966	80.06
248.2	62.06
248.433	76.06
248.666	78.06
248.899	90.06
249.133	67.06
249.366	81.06
249.599	78.06
249.832	76.06
250.066	63.06
250.299	85.06
250.532	79.06
250.765	91.06
250.998	77.06
251.231	75.06
251.465	87.06
251.698	88.06
251.931	66.06
252.164	75.06
252.397	82.06
252.63	75.06
252.863	67.06
253.096	83.06
253.329	88.06
253.562	92.06
253.795	86.06
254.028	90.06
254.261	87.06
254.494	72.06
254.727	79.06
254.96	89.06
255.193	80.06
255.426	75.06
255.659	81.06
255.892	73.06
256.124	80.06
256.357	90.06
256.59	92.06
256.823	75.06
257.056	75.06
257.289	73.06
257.521	80.06
257.754	89.06
257.987	76.06
258.22	88.06
258.452	80.06
258.685	70.06
258.918	74.06
259.151	68.06
259.383	80.06
259.616	87.06
259.849	69.06
260.081	92.06
260.314	100.06
260.547	79.06
260.779	94.06
261.012	66.06
261.244	82.06
261.477	77.06
261.71	85.06
261.942	84.06
262.175	93.06
262.407	79.06
262.64	73.06
262.872	85.06
263.105	83.06
263.337	99.06
263.57	96.06
263.802	66.06
264.035	74.06
264.267	80.06
264.499	81.06
264.732	97.06
264.964	78.06
265.197	84.06
265.429	84.06
265.661	73.06
265.894	78.06
266.126	96.06
266.358	95.06
266.591	84.06
266.823	62.06
267.055	74.06
267.287	80.06
267.52	84.06
267.752	84.06
267.984	93.06
268.216	81.06
268.448	96.06
268.681	83.06
268.913	73.06
269.145	93.06
269.377	74.06
269.609	86.06
269.841	78.06
270.073	87.06
270.306	86.06
270.538	95.06
270.77	69.06
271.002	62.06
271.234	69.06
271.466	79.06
271.698	71.06
271.93	81.06
272.162	86.06
272.394	92.06
272.626	75.06
272.858	82.06
273.09	74.06
273.322	87.06
273.553	76.06
273.785	93.06
274.017	81.06
274.249	74.06
274.481	66.06
274.713	77.06
274.945	84.06
275.176	72.06
275.408	90.06
275.64	85.06
275.872	96.06
276.104	73.06
276.335	87.06
276.567	88.06
276.799	95.06
277.031	95.06
277.262	89.06
277.494	91.06
277.726	97.06
277.957	88.06
278.189	84.06
278.421	89.06
278.652	67.06
278.884	84.06
279.115	87.06
279.347	91.06
279.579	82.06
279.81	75.06
280.042	95.06
280.273	82.06
280.505	78.06
280.736	82.06
280.968	86.06
281.199	84.06
281.431	76.06
281.662	96.06
281.894	87.06
282.125	93.06
282.356	81.06
282.588	89.06
282.819	74.06
283.051	81.06
283.282	84.06
283.513	80.06
283.745	84.06
283.976	79.06
284.207	79.06
284.439	87.06
284.67	90.06
284.901	87.06
285.132	74.06
285.364	89.06
285.595	84.06
285.826	87.06
286.057	75.06
286.288	91.06
286.52	79.06
286.751	92.06
286.982	78.06
287.213	89.06
287.444	87.06
287.675	78.06
287.906	68.06
288.138	90.06
288.369	76.06
288.6	78.06
288.831	82.06
289.062	87.06
289.293	70.06
289.524	88.06
289.755	87.06
289.986	79.06
290.217	80.06
290.448	87.06
290.679	79.06
290.91	89.06
291.141	71.06
291.371	73.06
291.602	100.06
291.833	78.06
292.064	92.06
292.295	87.06
292.526	89.06
292.757	88.06
292.987	85.06
293.218	88.06
293.449	84.06
293.68	80.06
293.91	75.06
294.141	90.06
294.372	95.06
294.603	80.06
294.833	88.06
295.064	82.06
295.295	86.06
295.525	68.06
295.756	77.06
295.987	91.06
296.217	78.06
296.448	76.06
296.679	82.06
296.909	78.06
297.14	89.06
297.37	81.06
297.601	95.06
297.831	75.06
298.062	80.06
298.292	97.06
298.523	92.06
298.753	97.06
298.984	80.06
299.214	80.06
299.445	88.06
299.675	82.06
299.905	87.06
300.136	84.06
300.366	93.06
300.597	84.06
300.827	84.06
301.057	79.06
301.288	104.06
301.518	90.06
301.748	94.06
301.979	97.06
302.209	104.06
302.439	86.06
302.669	84.06
302.9	94.06
303.13	96.06
303.36	77.06
303.59	61.06
303.82	84.06
304.051	70.06
304.281	93.06
304.511	84.06
304.741	84.06
304.971	81.06
305.201	86.06
305.431	77.06
305.661	95.06
305.891	82.06
306.121	84.06
306.352	93.06
306.582	80.06
306.812	98.06
307.042	91.06
307.272	73.06
307.502	82.06
307.731	77.06
307.961	75.06
308.191	78.06
308.421	91.06
308.651	77.06
308.881	81.06
309.111	72.06
309.341	97.06
309.571	73.06
309.8	92.06
310.03	87.06
310.26	80.06
310.49	70.06
310.72	85.06
310.949	83.06
311.179	77.06
311.409	68.06
311.639	69.06
311.868	75.06
312.098	80.06
312.328	78.06
312.557	82.06
312.787	86.06
313.017	81.06
313.246	91.06
313.476	86.06
313.706	70.06
313.935	92.06
314.165	79.06
314.394	67.06
314.624	68.06
314.853	70.06
315.083	74.06
315.312	83.06
315.542	84.06
315.771	75.06
316.001	92.06
316.23	92.06
316.46	84.06
316.689	92.06
316.919	80.06
317.148	79.06
317.377	80.06
317.607	90.06
317.836	84.06
318.065	89.06
318.295	81.06
318.524	88.06
318.753	85.06
318.983	88.06
319.212	91.06
319.441	88.06
319.67	83.06
319.9	103.06
320.129	72.06
320.358	101.06
320.587	73.06
320.816	78.06
321.046	81.06
321.275	73.06
321.504	92.06
321.733	73.06
321.962	77.06
322.191	73.06
322.42	85.06
322.649	84.06
322.878	84.06
323.108	102.06
323.337	86.06
323.566	82.06
323.795	79.06
324.024	85.06
324.253	86.06
324.482	78.06
324.71	91.06
324.939	85.06
325.168	84.06
325.397	89.06
325.626	76.06
325.855	79.06
326.084	75.06
326.313	87.06
326.542	73.06
326.77	69.06
326.999	82.06
327.228	80.06
327.457	77.06
327.686	91.06
327.914	87.06
328.143	88.06
328.372	91.06
328.6	76.06
328.829	78.06
329.058	68.06
329.287	75.06
329.515	76.06
329.744	78.06
329.972	77.06
330.201	96.06
330.43	74.06
330.658	74.06
330.887	84.06
331.115	78.06
331.344	86.06
331.572	81.06
331.801	84.06
332.03	87.06
332.258	93.06
332.486	75.06
332.715	66.06
332.943	67.06
333.172	91.06
333.4	79.06
333.629	94.06
333.857	79.06
334.085	90.06
334.314	95.06
334.542	89.06
334.771	84.06
334.999	80.06
335.227	83.06
335.455	80.06
335.684	88.06
335.912	77.06
336.14	96.06
336.369	85.06
336.597	84.06
336.825	77.06
337.053	88.06
337.281	77.06
337.51	92.06
337.738	77.06
337.966	95.06
338.194	79.06
338.422	85.06
338.65	87.06
338.878	90.06
339.106	89.06
339.334	79.06
339.562	76.06
339.79	76.06
340.018	79.06
340.246	92.06
340.474	87.06
340.702	90.06
340.93	96.06
341.158	84.06
341.386	104.06
341.614	85.06
341.842	77.06
342.07	80.06
342.298	80.06
342.526	88.06
342.754	89.06
342.981	103.06
343.209	79.06
343.437	88.06
343.665	84.06
343.893	69.06
344.12	80.06
344.348	74.06
344.576	95.06
344.804	91.06
345.031	79.06
345.259	91.06
345.487	86.06
345.714	79.06
345.942	92.06
346.17	80.06
346.397	78.06
346.625	92.06
346.853	84.06
347.08	65.06
347.308	93.06
347.535	91.06
347.763	89.06
347.99	70.06
348.218	91.06
348.445	69.06
348.673	73.06
348.9	85.06
349.128	89.06
349.355	100.06
349.583	74.06
349.81	78.06
350.037	78.06
350.265	89.06
350.492	89.06
350.72	71.06
350.947	92.06
351.174	91.06
351.402	80.06
351.629	96.06
351.856	81.06
352.083	96.06
352.311	80.06
352.538	86.06
352.765	94.06
352.992	87.06
353.22	77.06
353.447	88.06
353.674	84.06
353.901	89.06
354.128	78.06
354.355	63.06
354.583	88.06
354.81	90.06
355.037	83.06
355.264	92.06
355.491	88.06
355.718	72.06
355.945	88.06
356.172	77.06
356.399	88.06
356.626	73.06
356.853	76.06
357.08	87.06
357.307	91.06
357.534	88.06
357.761	84.06
357.988	106.06
358.215	71.06
358.441	87.06
358.668	69.06
358.895	77.06
359.122	91.06
359.349	83.06
359.576	88.06
359.802	81.06
360.029	88.06
360.256	89.06
360.483	78.06
360.709	92.06
360.936	87.06
361.163	84.06
361.39	85.06
361.616	76.06
361.843	88.06
362.07	86.06
362.296	70.06
362.523	76.06
362.749	93.06
362.976	96.06
363.203	92.06
363.429	93.06
363.656	76.06
363.882	70.06
364.109	82.06
364.335	96.06
364.562	88.06
364.788	75.06
365.015	73.06
365.241	78.06
365.468	88.06
365.694	79.06
365.92	88.06
366.147	78.06
366.373	84.06
366.599	76.06
366.826	86.06
367.052	75.06
367.278	76.06
367.505	77.06
367.731	84.06
367.957	88.06
368.184	77.06
368.41	72.06
368.636	88.06
368.862	86.06
369.089	83.06
369.315	85.06
369.541	98.06
369.767	79.06
369.993	86.06
370.219	76.06
370.445	88.06
370.672	84.06
370.898	82.06
371.124	84.06
371.35	85.06
371.576	93.06
371.802	91.06
372.028	69.06
372.254	81.06
372.48	61.06
372.706	81.06
372.932	89.06
373.158	86.06
373.384	81.06
373.61	77.06
373.835	77.06
374.061	80.06
374.287	86.06
374.513	87.06
374.739	87.06
374.965	86.06
375.191	77.06
375.416	68.06
375.642	77.06
375.868	88.06
376.094	89.06
376.319	93.06
376.545	94.06
376.771	76.06
376.997	76.06
377.222	78.06
377.448	77.06
377.674	91.06
377.899	76.06
378.125	76.06
378.35	77.06
378.576	84.06
378.802	81.06
379.027	92.06
379.253	80.06
379.478	76.06
379.704	79.06
379.929	91.06
380.155	91.06
380.38	109.06
380.606	82.06
380.831	86.06
381.057	80.06
381.282	85.06
381.507	70.06
381.733	85.06
381.958	86.06
382.184	90.06
382.409	84.06
382.634	88.06
382.86	88.06
383.085	84.06
383.31	82.06
383.535	87.06
383.761	84.06
383.986	94.06
384.211	81.06
384.436	79.06
384.662	86.06
384.887	94.06
385.112	86.06
385.337	78.06
385.562	98.06
385.787	75.06
386.013	81.06
386.238	75.06
386.463	74.06
386.688	92.06
386.913	89.06
387.138	76.06
387.363	70.06
387.588	68.06
387.813	77.06
388.038	73.06
388.263	90.06
388.488	95.06
388.713	88.06
388.938	79.06
389.163	88.06
389.387	81.06
389.612	89.06
389.837	76.06
390.062	88.06
390.287	71.06
390.512	75.06
390.736	84.06
390.961	81.06
391.186	68.06
391.411	70.06
391.636	84.06
391.86	85.06
392.085	89.06
392.31	81.06
392.534	86.06
392.759	84.06
392.984	79.06
393.208	71.06
393.433	87.06
393.658	90.06
393.882	79.06
394.107	77.06
394.331	96.06
394.556	74.06
394.78	90.06
395.005	73.06
395.229	79.06
395.454	82.06
395.678	75.06
395.903	92.06
396.127	78.06
396.352	81.06
396.576	77.06
396.801	80.06
397.025	84.06
397.249	80.06
397.474	76.06
397.698	92.06
397.922	78.06
398.147	86.06
398.371	80.06
398.595	75.06
398.82	86.06
399.044	88.06
399.268	71.06
399.492	81.06
399.717	88.06
399.941	64.06
400.165	87.06
400.389	78.06
400.613	74.06
400.837	82.06
401.062	87.06
401.286	66.06
401.51	74.06
401.734	94.06
401.958	88.06
402.182	72.06
402.406	71.06
402.63	87.06
402.854	84.06
403.078	76.06
403.302	87.06
403.526	86.06
403.75	96.06
403.974	71.06
404.198	86.06
404.422	92.06
404.645	87.06
404.869	85.06
405.093	92.06
405.317	80.06
405.541	77.06
405.765	81.06
405.988	81.06
406.212	77.06
406.436	78.06
406.66	75.06
406.883	77.06
407.107	71.06
407.331	85.06
407.555	97.06
407.778	84.06
408.002	75.06
408.226	77.06
408.449	88.06
408.673	75.06
408.896	72.06
409.12	85.06
409.344	80.06
409.567	79.06
409.791	79.06
410.014	87.06
410.238	95.06
410.461	72.06
410.685	88.06
410.908	75.06
411.132	98.06
411.355	84.06
411.578	78.06
411.802	85.06
412.025	89.06
412.249	87.06
412.472	73.06
412.695	77.06
412.919	77.06
413.142	84.06
413.365	82.06
413.589	84.06
413.812	84.06
414.035	78.06
414.258	84.06
414.482	79.06
414.705	72.06
414.928	71.06
415.151	85.06
415.374	73.06
415.597	85.06
415.821	87.06
416.044	70.06
416.267	73.06
416.49	78.06
416.713	79.06
416.936	78.06
417.159	84.06
417.382	90.06
417.605	71.06
417.828	70.06
418.051	94.06
418.274	73.06
418.497	75.06
418.72	81.06
418.943	81.06
419.166	85.06
419.389	65.06
419.611	70.06
419.834	72.06
420.057	77.06
420.28	86.06
420.503	72.06
420.726	79.06
420.948	72.06
421.171	71.06
421.394	93.06
421.617	95.06
421.839	77.06
422.062	88.06
422.285	100.06
422.507	86.06
422.73	106.06
422.953	106.06
423.175	91.06
423.398	92.06
423.621	91.06
423.843	72.06
424.066	76.06
424.288	86.06
424.511	76.06
424.733	80.06
424.956	83.06
425.178	79.06
425.401	75.06
425.623	84.06
425.846	82.06
426.068	63.06
426.291	77.06
426.513	85.06
426.735	85.06
426.958	69.06
427.18	70.06
427.402	72.06
427.625	76.06
427.847	80.06
428.069	80.06
428.292	87.06
428.514	81.06
428.736	86.06
428.958	87.06
429.181	74.06
429.403	78.06
429.625	80.06
429.847	80.06
430.069	69.06
430.292	80.06
430.514	89.06
430.736	88.06
430.958	89.06
431.18	88.06
431.402	79.06
431.624	77.06
431.846	74.06
432.068	82.06
432.29	78.06
432.512	76.06
432.734	93.06
432.956	79.06
433.178	88.06
433.4	92.06
433.622	69.06
433.844	88.06
434.066	76.06
434.287	90.06
434.509	88.06
434.731	79.06
434.953	74.06
435.175	88.06
435.397	90.06
435.618	90.06
435.84	88.06
436.062	78.06
436.284	92.06
436.505	80.06
436.727	84.06
436.949	85.06
437.17	87.06
437.392	81.06
437.614	84.06
437.835	78.06
438.057	89.06
438.278	77.06
438.5	81.06
438.721	89.06
438.943	93.06
439.165	71.06
439.386	73.06
439.608	71.06
439.829	73.06
440.05	85.06
440.272	71.06
440.493	75.06
440.715	85.06
440.936	90.06
441.158	82.06
441.379	81.06
441.6	76.06
441.822	85.06
442.043	76.06
442.264	71.06
442.486	90.06
442.707	60.06
442.928	78.06
443.149	94.06
443.371	81.06
443.592	94.06
443.813	90.06
444.034	77.06
444.255	90.06
444.476	82.06
444.698	76.06
444.919	68.06
445.14	164.06
445.361	121.06
445.582	94.06
445.803	90.06
446.024	78.06
446.245	90.06
446.466	84.06
446.687	78.06
446.908	79.06
447.129	79.06
447.35	69.06
447.571	76.06
447.792	82.06
448.013	86.06
448.234	71.06
448.455	88.06
448.675	83.06
448.896	81.06
449.117	78.06
449.338	80.06
449.559	77.06
449.779	76.06
450	88.06
450.221	78.06
450.442	90.06
450.662	89.06
450.883	94.06
451.104	99.06
451.324	72.06
451.545	76.06
451.766	79.06
451.986	82.06
452.207	87.06
452.428	82.06
452.648	88.06
452.869	77.06
453.089	92.06
453.31	91.06
453.53	93.06
453.751	88.06
453.971	100.06
454.192	74.06
454.412	95.06
454.633	84.06
454.853	88.06
455.073	89.06
455.294	77.06
455.514	75.06
455.734	77.06
455.955	78.06
456.175	82.06
456.395	75.06
456.616	71.06
456.836	92.06
457.056	83.06
457.276	81.06
457.497	84.06
457.717	78.06
457.937	74.06
458.157	81.06
458.377	77.06
458.598	73.06
458.818	74.06
459.038	78.06
459.258	78.06
459.478	79.06
459.698	81.06
459.918	81.06
460.138	66.06
460.358	93.06
460.578	86.06
460.798	88.06
461.018	79.06
461.238	77.06
461.458	85.06
461.678	84.06
461.898	81.06
462.118	84.06
462.338	85.06
462.558	92.06
462.777	87.06
462.997	72.06
463.217	76.06
463.437	78.06
463.657	81.06
463.876	74.06
464.096	82.06
464.316	90.06
464.536	74.06
464.755	85.06
464.975	84.06
465.195	99.06
465.414	92.06
465.634	73.06
465.854	82.06
466.073	88.06
466.293	60.06
466.512	79.06
466.732	77.06
466.951	94.06
467.171	80.06
467.391	78.06
467.61	84.06
467.829	78.06
468.049	74.06
468.268	78.06
468.488	93.06
468.707	86.06
468.927	76.06
469.146	88.06
469.365	85.06
469.585	84.06
469.804	94.06
470.023	86.06
470.243	86.06
470.462	84.06
470.681	81.06
470.901	79.06
471.12	78.06
471.339	77.06
471.558	84.06
471.777	74.06
471.997	87.06
472.216	91.06
472.435	85.06
472.654	76.06
472.873	62.06
473.092	67.06
473.311	90.06
473.53	84.06
473.749	90.06
473.968	93.06
474.187	74.06
474.406	75.06
474.625	84.06
474.844	71.06
475.063	91.06
475.282	90.06
475.501	87.06
475.72	83.06
475.939	71.06
476.158	84.06
476.377	83.06
476.596	77.06
476.814	73.06
477.033	86.06
477.252	80.06
477.471	94.06
477.69	77.06
477.908	86.06
478.127	79.06
478.346	72.06
478.564	78.06
478.783	88.06
479.002	95.06
479.22	86.06
479.439	83.06
479.658	82.06
479.876	83.06
480.095	81.06
480.313	79.06
480.532	69.06
480.751	75.06
480.969	101.06
481.188	88.06
481.406	81.06
481.624	75.06
481.843	84.06
482.061	72.06
482.28	72.06
482.498	92.06
482.717	96.06
482.935	76.06
483.153	84.06
483.372	85.06
483.59	81.06
483.808	75.06
484.027	76.06
484.245	85.06
484.463	84.06
484.681	76.06
484.9	65.06
485.118	92.06
485.336	81.06
485.554	84.06
485.772	70.06
485.99	79.06
486.209	78.06
486.427	86.06
486.645	73.06
486.863	97.06
487.081	81.06
487.299	91.06
487.517	92.06
487.735	77.06
487.953	76.06
488.171	84.06
488.389	68.06
488.607	80.06
488.825	73.06
489.043	81.06
489.261	91.06
489.479	84.06
489.696	70.06
489.914	91.06
490.132	89.06
490.35	80.06
490.568	93.06
490.786	85.06
491.003	70.06
491.221	81.06
491.439	80.06
491.657	85.06
491.874	88.06
492.092	88.06
492.31	88.06
492.527	81.06
492.745	78.06
492.963	81.06
493.18	97.06
493.398	84.06
493.615	78.06
493.833	77.06
494.05	87.06
494.268	94.06
494.485	71.06
494.703	88.06
494.92	79.06
495.138	81.06
495.355	84.06
495.573	83.06
495.79	90.06
496.008	77.06
496.225	95.06
496.442	94.06
496.66	92.06
496.877	86.06
497.094	84.06
497.312	81.06
497.529	88.06
497.746	84.06
497.963	72.06
498.181	88.06
498.398	84.06
498.615	97.06
498.832	91.06
499.049	90.06
499.267	100.06
499.484	88.06
499.701	91.06
499.918	70.06
500.135	82.06
500.352	85.06
500.569	76.06
500.786	84.06
501.003	81.06
501.22	80.06
501.437	78.06
501.654	98.06
501.871	95.06
502.088	68.06
502.305	87.06
502.522	81.06
502.739	78.06
502.956	72.06
503.172	85.06
503.389	89.06
503.606	83.06
503.823	76.06
504.04	88.06
504.256	94.06
504.473	84.06
504.69	76.06
504.907	94.06
505.123	79.06
505.34	79.06
505.557	96.06
505.773	86.06
505.99	79.06
506.207	80.06
506.423	87.06
506.64	77.06
506.856	76.06
507.073	72.06
507.289	87.06
507.506	91.06
507.722	77.06
507.939	88.06
508.155	82.06
508.372	87.06
508.588	97.06
508.805	91.06
509.021	89.06
509.238	77.06
509.454	74.06
509.67	94.06
509.887	80.06
510.103	78.06
510.319	89.06
510.536	87.06
510.752	86.06
510.968	95.06
511.184	69.06
511.401	82.06
511.617	83.06
511.833	89.06
512.049	75.06
512.265	91.06
512.481	85.06
512.698	84.06
512.914	89.06
513.13	80.06
513.346	92.06
513.562	82.06
513.778	84.06
513.994	84.06
514.21	82.06
514.426	86.06
514.642	78.06
514.858	95.06
515.074	93.06
515.29	85.06
515.506	85.06
515.721	93.06
515.937	97.06
516.153	91.06
516.369	78.06
516.585	79.06
516.801	84.06
517.016	88.06
517.232	87.06
517.448	89.06
517.664	103.06
517.879	89.06
518.095	86.06
518.311	91.06
518.527	87.06
518.742	91.06
518.958	84.06
519.173	86.06
519.389	85.06
519.605	77.06
519.82	80.06
520.036	81.06
520.251	73.06
520.467	73.06
520.682	85.06
520.898	73.06
521.113	81.06
521.329	93.06
521.544	75.06
521.76	84.06
521.975	77.06
522.19	89.06
522.406	83.06
522.621	90.06
522.836	84.06
523.052	81.06
523.267	81.06
523.482	78.06
523.698	91.06
523.913	76.06
524.128	72.06
524.343	80.06
524.559	85.06
524.774	87.06
524.989	84.06
525.204	89.06
525.419	95.06
525.634	75.06
525.849	84.06
526.064	75.06
526.28	92.06
526.495	93.06
526.71	95.06
526.925	79.06
527.14	93.06
527.355	90.06
527.57	76.06
527.785	76.06
527.999	87.06
528.214	84.06
528.429	88.06
528.644	74.06
528.859	67.06
529.074	74.06
529.289	87.06
529.503	70.06
529.718	88.06
529.933	86.06
530.148	95.06
530.363	79.06
530.577	86.06
530.792	80.06
531.007	75.06
531.221	81.06
531.436	77.06
531.651	89.06
531.865	88.06
532.08	93.06
532.295	89.06
532.509	90.06
532.724	74.06
532.938	101.06
533.153	74.06
533.367	89.06
533.582	85.06
533.796	88.06
534.011	95.06
534.225	94.06
534.44	89.06
534.654	95.06
534.868	89.06
535.083	86.06
535.297	81.06
535.511	82.06
535.726	88.06
535.94	87.06
536.154	69.06
536.369	94.06
536.583	79.06
536.797	105.06
537.011	91.06
537.225	93.06
537.44	69.06
537.654	85.06
537.868	77.06
538.082	78.06
538.296	85.06
538.51	82.06
538.724	78.06
538.938	97.06
539.153	103.06
539.367	84.06
539.581	78.06
539.795	80.06
540.009	75.06
540.222	92.06
540.436	95.06
540.65	86.06
540.864	72.06
541.078	88.06
541.292	81.06
541.506	80.06
541.72	88.06
541.934	96.06
542.147	89.06
542.361	80.06
542.575	81.06
542.789	86.06
543.002	81.06
543.216	88.06
543.43	88.06
543.644	74.06
543.857	84.06
544.071	92.06
544.285	97.06
544.498	96.06
544.712	79.06
544.925	86.06
545.139	85.06
545.352	85.06
545.566	84.06
545.779	98.06
545.993	86.06
546.206	99.06
546.42	81.06
546.633	80.06
546.847	79.06
547.06	93.06
547.274	84.06
547.487	81.06
547.7	79.06
547.914	93.06
548.127	100.06
548.34	87.06
548.554	88.06
548.767	87.06
548.98	73.06
549.193	89.06
549.407	88.06
549.62	94.06
549.833	79.06
550.046	95.06
550.259	96.06
550.473	74.06
550.686	97.06
550.899	91.06
551.112	93.06
551.325	103.06
551.538	96.06
551.751	80.06
551.964	87.06
552.177	93.06
552.39	83.06
552.603	108.06
552.816	110.06
553.029	102.06
553.242	102.06
553.455	105.06
553.667	93.06
553.88	89.06
554.093	103.06
554.306	101.06
554.519	107.06
554.732	101.06
554.944	95.06
555.157	103.06
555.37	92.06
555.583	86.06
555.795	94.06
556.008	95.06
556.221	93.06
556.433	87.06
556.646	91.06
556.859	80.06
557.071	90.06
557.284	86.06
557.496	84.06
557.709	92.06
557.921	76.06
558.134	90.06
558.346	89.06
558.559	93.06
558.771	99.06
558.984	105.06
559.196	92.06
559.409	87.06
559.621	91.06
559.833	96.06
560.046	90.06
560.258	100.06
560.47	102.06
560.683	81.06
560.895	90.06
561.107	90.06
561.32	75.06
561.532	89.06
561.744	73.06
561.956	88.06
562.168	80.06
562.381	76.06
562.593	87.06
562.805	91.06
563.017	82.06
563.229	86.06
563.441	95.06
563.653	88.06
563.865	71.06
564.077	86.06
564.289	84.06
564.501	96.06
564.713	88.06
564.925	97.06
565.137	77.06
565.349	76.06
565.561	85.06
565.773	87.06
565.985	88.06
566.197	87.06
566.408	78.06
566.62	76.06
566.832	95.06
567.044	78.06
567.255	76.06
567.467	90.06
567.679	72.06
567.891	85.06
568.102	84.06
568.314	77.06
568.526	88.06
568.737	101.06
568.949	80.06
569.161	92.06
569.372	94.06
569.584	94.06
569.795	84.06
570.007	98.06
570.218	93.06
570.43	79.06
570.641	84.06
570.853	92.06
571.064	80.06
571.276	84.06
571.487	64.06
571.698	81.06
571.91	104.06
572.121	71.06
572.333	83.06
572.544	88.06
572.755	73.06
572.966	81.06
573.178	76.06
573.389	85.06
573.6	86.06
573.811	101.06
574.023	88.06
574.234	100.06
574.445	81.06
574.656	76.06
574.867	76.06
575.078	88.06
575.289	102.06
575.501	89.06
575.712	91.06
575.923	91.06
576.134	82.06
576.345	73.06
576.556	88.06
576.767	73.06
576.978	75.06
577.188	86.06
577.399	71.06
577.61	98.06
577.821	84.06
578.032	96.06
578.243	103.06
578.454	100.06
578.665	84.06
578.875	83.06
579.086	84.06
579.297	85.06
579.508	102.06
579.718	91.06
579.929	88.06
580.14	81.06
580.35	107.06
580.561	77.06
580.772	102.06
580.982	88.06
581.193	76.06
581.403	84.06
581.614	81.06
581.825	92.06
582.035	96.06
582.246	90.06
582.456	84.06
582.667	92.06
582.877	80.06
583.087	74.06
583.298	88.06
583.508	92.06
583.719	83.06
583.929	83.06
584.139	87.06
584.35	69.06
584.56	75.06
584.77	81.06
584.981	97.06
585.191	90.06
585.401	105.06
585.611	90.06
585.821	94.06
586.032	88.06
586.242	86.06
586.452	80.06
586.662	84.06
586.872	105.06
587.082	98.06
587.292	81.06
587.502	92.06
587.713	80.06
587.923	91.06
588.133	88.06
588.343	93.06
588.553	98.06
588.762	115.06
588.972	204.06
589.182	381.06
589.392	265.06
589.602	209.06
589.812	327.06
590.022	200.06
590.232	123.06
590.441	103.06
590.651	88.06
590.861	88.06
591.071	72.06
591.281	85.06
591.49	80.06
591.7	90.06
591.91	81.06
592.119	92.06
592.329	102.06
592.539	92.06
592.748	88.06
592.958	92.06
593.167	86.06
593.377	90.06
593.587	96.06
593.796	74.06
594.006	94.06
594.215	84.06
594.424	94.06
594.634	93.06
594.843	81.06
595.053	90.06
595.262	75.06
595.472	96.06
595.681	100.06
595.89	92.06
596.1	88.06
596.309	97.06
596.518	91.06
596.727	94.06
596.937	83.06
597.146	88.06
597.355	97.06
597.564	91.06
597.774	103.06
597.983	84.06
598.192	103.06
598.401	88.06
598.61	89.06
598.819	86.06
599.028	100.06
599.237	82.06
599.446	91.06
599.655	90.06
599.864	98.06
600.073	94.06
600.282	81.06
600.491	88.06
600.7	89.06
600.909	86.06
601.118	78.06
601.327	92.06
601.536	105.06
601.745	90.06
601.953	85.06
602.162	101.06
602.371	99.06
602.58	80.06
602.789	104.06
602.997	88.06
603.206	76.06
603.415	93.06
603.623	87.06
603.832	92.06
604.041	96.06
604.249	99.06
604.458	85.06
604.666	97.06
604.875	97.06
605.084	89.06
605.292	97.06
605.501	90.06
605.709	70.06
605.918	90.06
606.126	104.06
606.334	97.06
606.543	99.06
606.751	85.06
606.96	80.06
607.168	90.06
607.376	94.06
607.585	93.06
607.793	74.06
608.001	99.06
608.21	102.06
608.418	104.06
608.626	81.06
608.834	77.06
609.043	85.06
609.251	98.06
609.459	99.06
609.667	96.06
609.875	109.06
610.083	95.06
610.291	91.06
610.499	97.06
610.707	90.06
610.916	91.06
611.124	87.06
611.332	101.06
611.54	89.06
611.748	100.06
611.955	90.06
612.163	85.06
612.371	103.06
612.579	87.06
612.787	87.06
612.995	84.06
613.203	96.06
613.411	102.06
613.618	96.06
613.826	94.06
614.034	98.06
614.242	97.06
614.449	88.06
614.657	86.06
614.865	91.06
615.072	106.06
615.28	94.06
615.488	88.06
615.695	89.06
615.903	97.06
616.111	93.06
616.318	113.06
616.526	116.06
616.733	113.06
616.941	89.06
617.148	104.06
617.356	87.06
617.563	102.06
617.771	101.06
617.978	88.06
618.185	100.06
618.393	89.06
618.6	93.06
618.807	96.06
619.015	103.06
619.222	101.06
619.429	89.06
619.637	98.06
619.844	95.06
620.051	96.06
620.258	101.06
620.466	102.06
620.673	95.06
620.88	100.06
621.087	92.06
621.294	104.06
621.501	109.06
621.708	90.06
621.915	85.06
622.122	96.06
622.329	96.06
622.536	108.06
622.743	92.06
622.95	101.06
623.157	96.06
623.364	91.06
623.571	88.06
623.778	92.06
623.985	94.06
624.192	104.06
624.399	104.06
624.606	107.06
624.812	101.06
625.019	91.06
625.226	93.06
625.433	105.06
625.639	95.06
625.846	84.06
626.053	94.06
626.259	97.06
626.466	84.06
626.673	92.06
626.879	96.06
627.086	88.06
627.293	107.06
627.499	97.06
627.706	96.06
627.912	79.06
628.119	94.06
628.325	87.06
628.532	82.06
628.738	90.06
628.945	101.06
629.151	72.06
629.357	86.06
629.564	86.06
629.77	95.06
629.976	92.06
630.183	85.06
630.389	84.06
630.595	96.06
630.802	87.06
631.008	76.06
631.214	80.06
631.42	89.06
631.627	93.06
631.833	101.06
632.039	78.06
632.245	78.06
632.451	80.06
632.657	95.06
632.863	88.06
633.069	92.06
633.275	103.06
633.481	88.06
633.688	96.06
633.893	85.06
634.099	80.06
634.305	92.06
634.511	81.06
634.717	79.06
634.923	80.06
635.129	82.06
635.335	73.06
635.541	81.06
635.747	72.06
635.952	89.06
636.158	90.06
636.364	87.06
636.57	75.06
636.775	90.06
636.981	84.06
637.187	83.06
637.392	88.06
637.598	85.06
637.804	85.06
638.009	85.06
638.215	89.06
638.421	76.06
638.626	86.06
638.832	88.06
639.037	96.06
639.243	80.06
639.448	90.06
639.654	77.06
639.859	100.06
640.065	94.06
640.27	82.06
640.475	77.06
640.681	71.06
640.886	83.06
641.091	79.06
641.297	90.06
641.502	88.06
641.707	86.06
641.913	91.06
642.118	82.06
642.323	81.06
642.528	94.06
642.733	92.06
642.939	80.06
643.144	92.06
643.349	86.06
643.554	82.06
643.759	86.06
643.964	84.06
644.169	94.06
644.374	73.06
644.579	81.06
644.784	82.06
644.989	102.06
645.194	76.06
645.399	92.06
645.604	96.06
645.809	65.06
646.014	75.06
646.219	86.06
646.423	97.06
646.628	96.06
646.833	97.06
647.038	84.06
647.243	83.06
647.447	86.06
647.652	80.06
647.857	88.06
648.062	89.06
648.266	88.06
648.471	91.06
648.676	92.06
648.88	85.06
649.085	72.06
649.289	75.06
649.494	75.06
649.698	86.06
649.903	79.06
650.107	86.06
650.312	80.06
650.516	84.06
650.721	80.06
650.925	93.06
651.13	66.06
651.334	84.06
651.539	84.06
651.743	80.06
651.947	84.06
652.152	78.06
652.356	99.06
652.56	98.06
652.764	74.06
652.969	80.06
653.173	62.06
653.377	74.06
653.581	73.06
653.785	84.06
653.99	95.06
654.194	91.06
654.398	89.06
654.602	88.06
654.806	69.06
655.01	72.06
655.214	79.06
655.418	74.06
655.622	78.06
655.826	77.06
656.03	82.06
656.234	77.06
656.438	86.06
656.642	81.06
656.846	76.06
657.049	84.06
657.253	77.06
657.457	69.06
657.661	90.06
657.865	93.06
658.068	66.06
658.272	64.06
658.476	90.06
658.68	79.06
658.883	68.06
659.087	80.06
659.291	92.06
659.494	84.06
659.698	73.06
659.901	80.06
660.105	78.06
660.309	78.06
660.512	94.06
660.716	85.06
660.919	81.06
661.123	82.06
661.326	89.06
661.53	86.06
661.733	80.06
661.936	78.06
662.14	73.06
662.343	76.06
662.546	62.06
662.75	71.06
662.953	91.06
663.156	88.06
663.36	74.06
663.563	75.06
663.766	84.06
663.969	70.06
664.173	71.06
664.376	79.06
664.579	73.06
664.782	89.06
664.985	84.06
665.188	97.06
665.391	95.06
665.594	78.06
665.797	68.06
666	85.06
666.203	91.06
666.406	80.06
666.609	84.06
666.812	93.06
667.015	78.06
667.218	74.06
667.421	94.06
667.624	77.06
667.827	71.06
668.03	79.06
668.232	77.06
668.435	79.06
668.638	87.06
668.841	80.06
669.043	89.06
669.246	99.06
669.449	86.06
669.651	73.06
669.854	89.06
670.057	79.06
670.259	84.06
670.462	92.06
670.665	72.06
670.867	86.06
671.07	77.06
671.272	64.06
671.475	88.06
671.677	66.06
671.88	75.06
672.082	77.06
672.284	90.06
672.487	90.06
672.689	82.06
672.892	73.06
