Data from Cut_Leaves_25_2_HRD10591_00004.txt Node
Date: Wed Dec 03 14:13:38 EST 2025
User: Yrep
Spectrometer: HR+D1059
Trigger mode: 1
Integration Time (sec): 1.000000E-1
Scans to average: 1
Electric dark correction enabled: true
Nonlinearity correction enabled: false
Boxcar width: 0
XAxis mode: Wavelengths
Number of Pixels in Spectrum: 2048
>>>>>Begin Spectral Data<<<<<
223.165	-17.19
223.4	-17.19
223.635	-17.19
223.869	-8.19
224.104	-11.19
224.338	-16.19
224.573	-19.19
224.808	-16.19
225.042	3.81
225.277	-14.19
225.511	-11.19
225.746	4.81
225.98	-6.19
226.215	10.81
226.449	30.81
226.683	21.81
226.918	21.81
227.152	25.81
227.387	22.81
227.621	39.81
227.856	45.81
228.09	42.81
228.324	36.81
228.559	37.81
228.793	39.81
229.027	55.81
229.262	56.81
229.496	60.81
229.73	70.81
229.964	66.81
230.199	56.81
230.433	68.81
230.667	75.81
230.901	76.81
231.136	72.81
231.37	73.81
231.604	73.81
231.838	69.81
232.072	80.81
232.306	77.81
232.541	76.81
232.775	86.81
233.009	73.81
233.243	78.81
233.477	84.81
233.711	91.81
233.945	69.81
234.179	78.81
234.413	87.81
234.647	72.81
234.881	75.81
235.115	69.81
235.349	78.81
235.583	78.81
235.817	74.81
236.051	69.81
236.285	83.81
236.519	87.81
236.753	86.81
236.987	75.81
237.221	70.81
237.455	62.81
237.689	77.81
237.922	79.81
238.156	87.81
238.39	87.81
238.624	64.81
238.858	73.81
239.091	73.81
239.325	72.81
239.559	77.81
239.793	84.81
240.027	83.81
240.26	71.81
240.494	71.81
240.728	75.81
240.961	81.81
241.195	80.81
241.429	74.81
241.662	62.81
241.896	81.81
242.13	87.81
242.363	75.81
242.597	66.81
242.83	80.81
243.064	70.81
243.298	64.81
243.531	73.81
243.765	88.81
243.998	70.81
244.232	80.81
244.465	85.81
244.699	79.81
244.932	67.81
245.166	60.81
245.399	70.81
245.633	77.81
245.866	57.81
246.099	76.81
246.333	73.81
246.566	78.81
246.8	72.81
247.033	63.81
247.266	71.81
247.5	77.81
247.733	88.81
247.966	75.81
248.2	83.81
248.433	89.81
248.666	71.81
248.899	81.81
249.133	69.81
249.366	76.81
249.599	84.81
249.832	79.81
250.066	83.81
250.299	80.81
250.532	83.81
250.765	75.81
250.998	77.81
251.231	74.81
251.465	79.81
251.698	74.81
251.931	71.81
252.164	67.81
252.397	86.81
252.63	88.81
252.863	74.81
253.096	71.81
253.329	79.81
253.562	78.81
253.795	71.81
254.028	87.81
254.261	85.81
254.494	75.81
254.727	83.81
254.96	77.81
255.193	75.81
255.426	83.81
255.659	87.81
255.892	89.81
256.124	67.81
256.357	80.81
256.59	77.81
256.823	80.81
257.056	84.81
257.289	74.81
257.521	87.81
257.754	70.81
257.987	67.81
258.22	78.81
258.452	76.81
258.685	75.81
258.918	72.81
259.151	64.81
259.383	77.81
259.616	77.81
259.849	76.81
260.081	73.81
260.314	68.81
260.547	68.81
260.779	72.81
261.012	80.81
261.244	93.81
261.477	77.81
261.71	80.81
261.942	85.81
262.175	71.81
262.407	79.81
262.64	85.81
262.872	81.81
263.105	80.81
263.337	84.81
263.57	74.81
263.802	96.81
264.035	72.81
264.267	71.81
264.499	79.81
264.732	80.81
264.964	79.81
265.197	72.81
265.429	83.81
265.661	66.81
265.894	93.81
266.126	87.81
266.358	88.81
266.591	82.81
266.823	92.81
267.055	78.81
267.287	70.81
267.52	80.81
267.752	70.81
267.984	75.81
268.216	74.81
268.448	77.81
268.681	86.81
268.913	71.81
269.145	86.81
269.377	91.81
269.609	89.81
269.841	80.81
270.073	80.81
270.306	75.81
270.538	83.81
270.77	74.81
271.002	67.81
271.234	77.81
271.466	80.81
271.698	73.81
271.93	80.81
272.162	83.81
272.394	73.81
272.626	87.81
272.858	79.81
273.09	73.81
273.322	82.81
273.553	78.81
273.785	77.81
274.017	72.81
274.249	71.81
274.481	79.81
274.713	72.81
274.945	85.81
275.176	76.81
275.408	71.81
275.64	69.81
275.872	78.81
276.104	71.81
276.335	87.81
276.567	92.81
276.799	80.81
277.031	91.81
277.262	68.81
277.494	77.81
277.726	91.81
277.957	85.81
278.189	66.81
278.421	72.81
278.652	85.81
278.884	67.81
279.115	68.81
279.347	67.81
279.579	64.81
279.81	73.81
280.042	87.81
280.273	79.81
280.505	76.81
280.736	83.81
280.968	91.81
281.199	76.81
281.431	68.81
281.662	65.81
281.894	76.81
282.125	90.81
282.356	83.81
282.588	86.81
282.819	69.81
283.051	79.81
283.282	78.81
283.513	89.81
283.745	79.81
283.976	68.81
284.207	77.81
284.439	77.81
284.67	89.81
284.901	86.81
285.132	83.81
285.364	73.81
285.595	76.81
285.826	57.81
286.057	79.81
286.288	103.81
286.52	80.81
286.751	80.81
286.982	88.81
287.213	79.81
287.444	83.81
287.675	87.81
287.906	93.81
288.138	83.81
288.369	94.81
288.6	79.81
288.831	88.81
289.062	85.81
289.293	75.81
289.524	90.81
289.755	75.81
289.986	67.81
290.217	73.81
290.448	83.81
290.679	77.81
290.91	77.81
291.141	73.81
291.371	83.81
291.602	78.81
291.833	84.81
292.064	77.81
292.295	76.81
292.526	85.81
292.757	88.81
292.987	76.81
293.218	73.81
293.449	81.81
293.68	90.81
293.91	76.81
294.141	76.81
294.372	77.81
294.603	68.81
294.833	92.81
295.064	89.81
295.295	91.81
295.525	81.81
295.756	75.81
295.987	83.81
296.217	89.81
296.448	94.81
296.679	79.81
296.909	84.81
297.14	83.81
297.37	92.81
297.601	77.81
297.831	90.81
298.062	78.81
298.292	77.81
298.523	69.81
298.753	87.81
298.984	87.81
299.214	78.81
299.445	76.81
299.675	85.81
299.905	83.81
300.136	67.81
300.366	87.81
300.597	83.81
300.827	96.81
301.057	87.81
301.288	87.81
301.518	79.81
301.748	83.81
301.979	93.81
302.209	80.81
302.439	67.81
302.669	79.81
302.9	97.81
303.13	85.81
303.36	87.81
303.59	88.81
303.82	81.81
304.051	87.81
304.281	85.81
304.511	93.81
304.741	85.81
304.971	74.81
305.201	83.81
305.431	94.81
305.661	91.81
305.891	75.81
306.121	76.81
306.352	71.81
306.582	75.81
306.812	71.81
307.042	78.81
307.272	77.81
307.502	79.81
307.731	79.81
307.961	77.81
308.191	71.81
308.421	84.81
308.651	86.81
308.881	97.81
309.111	93.81
309.341	75.81
309.571	96.81
309.8	98.81
310.03	83.81
310.26	80.81
310.49	89.81
310.72	91.81
310.949	98.81
311.179	90.81
311.409	77.81
311.639	88.81
311.868	91.81
312.098	95.81
312.328	82.81
312.557	88.81
312.787	57.81
313.017	88.81
313.246	77.81
313.476	79.81
313.706	87.81
313.935	87.81
314.165	71.81
314.394	79.81
314.624	89.81
314.853	89.81
315.083	72.81
315.312	91.81
315.542	79.81
315.771	82.81
316.001	80.81
316.23	81.81
316.46	82.81
316.689	64.81
316.919	94.81
317.148	81.81
317.377	88.81
317.607	79.81
317.836	83.81
318.065	80.81
318.295	75.81
318.524	83.81
318.753	79.81
318.983	83.81
319.212	79.81
319.441	92.81
319.67	90.81
319.9	80.81
320.129	70.81
320.358	84.81
320.587	83.81
320.816	74.81
321.046	89.81
321.275	91.81
321.504	92.81
321.733	94.81
321.962	85.81
322.191	94.81
322.42	92.81
322.649	78.81
322.878	80.81
323.108	83.81
323.337	81.81
323.566	74.81
323.795	84.81
324.024	75.81
324.253	73.81
324.482	83.81
324.71	76.81
324.939	102.81
325.168	90.81
325.397	83.81
325.626	81.81
325.855	59.81
326.084	72.81
326.313	84.81
326.542	94.81
326.77	85.81
326.999	81.81
327.228	81.81
327.457	78.81
327.686	85.81
327.914	90.81
328.143	88.81
328.372	81.81
328.6	83.81
328.829	87.81
329.058	74.81
329.287	73.81
329.515	98.81
329.744	78.81
329.972	94.81
330.201	64.81
330.43	88.81
330.658	73.81
330.887	84.81
331.115	89.81
331.344	90.81
331.572	71.81
331.801	92.81
332.03	81.81
332.258	74.81
332.486	74.81
332.715	84.81
332.943	83.81
333.172	70.81
333.4	85.81
333.629	73.81
333.857	77.81
334.085	77.81
334.314	83.81
334.542	75.81
334.771	63.81
334.999	85.81
335.227	87.81
335.455	76.81
335.684	83.81
335.912	91.81
336.14	76.81
336.369	79.81
336.597	88.81
336.825	93.81
337.053	93.81
337.281	88.81
337.51	83.81
337.738	85.81
337.966	84.81
338.194	79.81
338.422	70.81
338.65	79.81
338.878	96.81
339.106	86.81
339.334	82.81
339.562	72.81
339.79	89.81
340.018	67.81
340.246	92.81
340.474	83.81
340.702	83.81
340.93	80.81
341.158	80.81
341.386	80.81
341.614	80.81
341.842	83.81
342.07	88.81
342.298	97.81
342.526	87.81
342.754	86.81
342.981	99.81
343.209	84.81
343.437	94.81
343.665	79.81
343.893	80.81
344.12	70.81
344.348	81.81
344.576	85.81
344.804	79.81
345.031	83.81
345.259	88.81
345.487	80.81
345.714	78.81
345.942	79.81
346.17	86.81
346.397	86.81
346.625	77.81
346.853	87.81
347.08	83.81
347.308	87.81
347.535	74.81
347.763	81.81
347.99	86.81
348.218	62.81
348.445	64.81
348.673	76.81
348.9	94.81
349.128	92.81
349.355	88.81
349.583	82.81
349.81	91.81
350.037	72.81
350.265	75.81
350.492	76.81
350.72	77.81
350.947	87.81
351.174	80.81
351.402	85.81
351.629	77.81
351.856	83.81
352.083	70.81
352.311	78.81
352.538	89.81
352.765	83.81
352.992	92.81
353.22	81.81
353.447	85.81
353.674	100.81
353.901	77.81
354.128	97.81
354.355	77.81
354.583	79.81
354.81	83.81
355.037	87.81
355.264	82.81
355.491	93.81
355.718	85.81
355.945	84.81
356.172	95.81
356.399	88.81
356.626	76.81
356.853	81.81
357.08	92.81
357.307	83.81
357.534	77.81
357.761	86.81
357.988	89.81
358.215	92.81
358.441	82.81
358.668	83.81
358.895	78.81
359.122	83.81
359.349	85.81
359.576	77.81
359.802	71.81
360.029	85.81
360.256	89.81
360.483	92.81
360.709	63.81
360.936	80.81
361.163	90.81
361.39	83.81
361.616	93.81
361.843	87.81
362.07	82.81
362.296	77.81
362.523	65.81
362.749	88.81
362.976	85.81
363.203	83.81
363.429	81.81
363.656	79.81
363.882	81.81
364.109	75.81
364.335	80.81
364.562	76.81
364.788	83.81
365.015	90.81
365.241	81.81
365.468	85.81
365.694	77.81
365.92	99.81
366.147	79.81
366.373	95.81
366.599	74.81
366.826	88.81
367.052	98.81
367.278	78.81
367.505	89.81
367.731	90.81
367.957	88.81
368.184	87.81
368.41	68.81
368.636	85.81
368.862	75.81
369.089	74.81
369.315	76.81
369.541	86.81
369.767	93.81
369.993	74.81
370.219	69.81
370.445	77.81
370.672	77.81
370.898	94.81
371.124	91.81
371.35	83.81
371.576	96.81
371.802	78.81
372.028	83.81
372.254	72.81
372.48	78.81
372.706	78.81
372.932	91.81
373.158	86.81
373.384	97.81
373.61	91.81
373.835	71.81
374.061	73.81
374.287	87.81
374.513	92.81
374.739	76.81
374.965	84.81
375.191	77.81
375.416	89.81
375.642	83.81
375.868	73.81
376.094	83.81
376.319	76.81
376.545	80.81
376.771	79.81
376.997	79.81
377.222	85.81
377.448	71.81
377.674	76.81
377.899	78.81
378.125	88.81
378.35	74.81
378.576	79.81
378.802	76.81
379.027	78.81
379.253	72.81
379.478	80.81
379.704	83.81
379.929	88.81
380.155	81.81
380.38	78.81
380.606	92.81
380.831	86.81
381.057	87.81
381.282	84.81
381.507	93.81
381.733	88.81
381.958	79.81
382.184	86.81
382.409	89.81
382.634	75.81
382.86	80.81
383.085	88.81
383.31	102.81
383.535	77.81
383.761	88.81
383.986	67.81
384.211	72.81
384.436	86.81
384.662	93.81
384.887	92.81
385.112	87.81
385.337	83.81
385.562	88.81
385.787	74.81
386.013	79.81
386.238	78.81
386.463	72.81
386.688	87.81
386.913	91.81
387.138	83.81
387.363	86.81
387.588	93.81
387.813	75.81
388.038	81.81
388.263	75.81
388.488	90.81
388.713	96.81
388.938	93.81
389.163	84.81
389.387	78.81
389.612	79.81
389.837	72.81
390.062	80.81
390.287	83.81
390.512	95.81
390.736	72.81
390.961	88.81
391.186	73.81
391.411	77.81
391.636	85.81
391.86	91.81
392.085	90.81
392.31	75.81
392.534	75.81
392.759	86.81
392.984	86.81
393.208	95.81
393.433	96.81
393.658	92.81
393.882	87.81
394.107	77.81
394.331	67.81
394.556	70.81
394.78	80.81
395.005	77.81
395.229	78.81
395.454	81.81
395.678	85.81
395.903	97.81
396.127	91.81
396.352	78.81
396.576	93.81
396.801	81.81
397.025	80.81
397.249	71.81
397.474	86.81
397.698	84.81
397.922	87.81
398.147	89.81
398.371	86.81
398.595	92.81
398.82	85.81
399.044	77.81
399.268	83.81
399.492	81.81
399.717	80.81
399.941	94.81
400.165	76.81
400.389	81.81
400.613	77.81
400.837	82.81
401.062	85.81
401.286	87.81
401.51	99.81
401.734	68.81
401.958	83.81
402.182	76.81
402.406	89.81
402.63	91.81
402.854	76.81
403.078	82.81
403.302	77.81
403.526	77.81
403.75	71.81
403.974	71.81
404.198	81.81
404.422	72.81
404.645	78.81
404.869	75.81
405.093	75.81
405.317	84.81
405.541	79.81
405.765	83.81
405.988	80.81
406.212	85.81
406.436	91.81
406.66	93.81
406.883	76.81
407.107	81.81
407.331	78.81
407.555	77.81
407.778	60.81
408.002	85.81
408.226	92.81
408.449	71.81
408.673	72.81
408.896	84.81
409.12	77.81
409.344	70.81
409.567	88.81
409.791	78.81
410.014	78.81
410.238	77.81
410.461	101.81
410.685	72.81
410.908	82.81
411.132	91.81
411.355	67.81
411.578	73.81
411.802	63.81
412.025	88.81
412.249	78.81
412.472	71.81
412.695	90.81
412.919	91.81
413.142	79.81
413.365	71.81
413.589	80.81
413.812	83.81
414.035	75.81
414.258	85.81
414.482	78.81
414.705	67.81
414.928	83.81
415.151	73.81
415.374	83.81
415.597	70.81
415.821	75.81
416.044	85.81
416.267	70.81
416.49	84.81
416.713	80.81
416.936	89.81
417.159	83.81
417.382	87.81
417.605	75.81
417.828	67.81
418.051	74.81
418.274	76.81
418.497	70.81
418.72	76.81
418.943	85.81
419.166	83.81
419.389	81.81
419.611	77.81
419.834	75.81
420.057	76.81
420.28	69.81
420.503	92.81
420.726	80.81
420.948	78.81
421.171	74.81
421.394	87.81
421.617	81.81
421.839	85.81
422.062	74.81
422.285	94.81
422.507	108.81
422.73	79.81
422.953	76.81
423.175	89.81
423.398	77.81
423.621	89.81
423.843	65.81
424.066	76.81
424.288	71.81
424.511	85.81
424.733	70.81
424.956	77.81
425.178	77.81
425.401	73.81
425.623	75.81
425.846	99.81
426.068	85.81
426.291	79.81
426.513	90.81
426.735	69.81
426.958	75.81
427.18	76.81
427.402	63.81
427.625	68.81
427.847	84.81
428.069	87.81
428.292	77.81
428.514	95.81
428.736	77.81
428.958	87.81
429.181	70.81
429.403	90.81
429.625	78.81
429.847	87.81
430.069	84.81
430.292	88.81
430.514	90.81
430.736	77.81
430.958	76.81
431.18	78.81
431.402	65.81
431.624	88.81
431.846	84.81
432.068	83.81
432.29	69.81
432.512	89.81
432.734	71.81
432.956	63.81
433.178	75.81
433.4	77.81
433.622	80.81
433.844	72.81
434.066	83.81
434.287	77.81
434.509	75.81
434.731	85.81
434.953	67.81
435.175	78.81
435.397	80.81
435.618	73.81
435.84	70.81
436.062	85.81
436.284	99.81
436.505	80.81
436.727	95.81
436.949	77.81
437.17	89.81
437.392	91.81
437.614	79.81
437.835	77.81
438.057	84.81
438.278	77.81
438.5	80.81
438.721	83.81
438.943	79.81
439.165	77.81
439.386	79.81
439.608	66.81
439.829	83.81
440.05	88.81
440.272	85.81
440.493	72.81
440.715	75.81
440.936	83.81
441.158	87.81
441.379	80.81
441.6	71.81
441.822	81.81
442.043	78.81
442.264	83.81
442.486	67.81
442.707	87.81
442.928	75.81
443.149	87.81
443.371	83.81
443.592	85.81
443.813	84.81
444.034	74.81
444.255	83.81
444.476	77.81
444.698	72.81
444.919	75.81
445.14	153.81
445.361	117.81
445.582	96.81
445.803	61.81
446.024	85.81
446.245	69.81
446.466	76.81
446.687	80.81
446.908	88.81
447.129	85.81
447.35	71.81
447.571	69.81
447.792	78.81
448.013	72.81
448.234	92.81
448.455	76.81
448.675	86.81
448.896	85.81
449.117	81.81
449.338	67.81
449.559	60.81
449.779	88.81
450	87.81
450.221	76.81
450.442	79.81
450.662	91.81
450.883	75.81
451.104	80.81
451.324	84.81
451.545	83.81
451.766	70.81
451.986	69.81
452.207	67.81
452.428	58.81
452.648	89.81
452.869	69.81
453.089	82.81
453.31	87.81
453.53	85.81
453.751	87.81
453.971	83.81
454.192	76.81
454.412	78.81
454.633	86.81
454.853	72.81
455.073	79.81
455.294	85.81
455.514	82.81
455.734	67.81
455.955	76.81
456.175	79.81
456.395	58.81
456.616	87.81
456.836	85.81
457.056	69.81
457.276	70.81
457.497	88.81
457.717	97.81
457.937	78.81
458.157	67.81
458.377	76.81
458.598	83.81
458.818	73.81
459.038	79.81
459.258	76.81
459.478	83.81
459.698	85.81
459.918	64.81
460.138	71.81
460.358	67.81
460.578	95.81
460.798	72.81
461.018	85.81
461.238	80.81
461.458	72.81
461.678	72.81
461.898	85.81
462.118	80.81
462.338	79.81
462.558	79.81
462.777	91.81
462.997	94.81
463.217	81.81
463.437	91.81
463.657	71.81
463.876	67.81
464.096	80.81
464.316	83.81
464.536	80.81
464.755	85.81
464.975	77.81
465.195	78.81
465.414	75.81
465.634	83.81
465.854	63.81
466.073	75.81
466.293	83.81
466.512	75.81
466.732	86.81
466.951	81.81
467.171	79.81
467.391	85.81
467.61	79.81
467.829	80.81
468.049	77.81
468.268	67.81
468.488	79.81
468.707	87.81
468.927	80.81
469.146	75.81
469.365	69.81
469.585	87.81
469.804	76.81
470.023	75.81
470.243	64.81
470.462	78.81
470.681	77.81
470.901	90.81
471.12	87.81
471.339	79.81
471.558	84.81
471.777	87.81
471.997	95.81
472.216	94.81
472.435	73.81
472.654	86.81
472.873	84.81
473.092	85.81
473.311	70.81
473.53	67.81
473.749	91.81
473.968	72.81
474.187	88.81
474.406	67.81
474.625	80.81
474.844	101.81
475.063	98.81
475.282	78.81
475.501	91.81
475.72	72.81
475.939	64.81
476.158	75.81
476.377	67.81
476.596	83.81
476.814	87.81
477.033	89.81
477.252	90.81
477.471	78.81
477.69	77.81
477.908	76.81
478.127	91.81
478.346	67.81
478.564	67.81
478.783	95.81
479.002	89.81
479.22	78.81
479.439	87.81
479.658	83.81
479.876	73.81
480.095	85.81
480.313	79.81
480.532	91.81
480.751	69.81
480.969	90.81
481.188	79.81
481.406	67.81
481.624	79.81
481.843	77.81
482.061	80.81
482.28	89.81
482.498	76.81
482.717	89.81
482.935	82.81
483.153	80.81
483.372	87.81
483.59	89.81
483.808	73.81
484.027	79.81
484.245	79.81
484.463	76.81
484.681	79.81
484.9	85.81
485.118	75.81
485.336	76.81
485.554	92.81
485.772	88.81
485.99	75.81
486.209	85.81
486.427	67.81
486.645	78.81
486.863	66.81
487.081	78.81
487.299	92.81
487.517	86.81
487.735	91.81
487.953	78.81
488.171	79.81
488.389	73.81
488.607	79.81
488.825	88.81
489.043	87.81
489.261	78.81
489.479	87.81
489.696	69.81
489.914	99.81
490.132	78.81
490.35	74.81
490.568	84.81
490.786	85.81
491.003	83.81
491.221	76.81
491.439	85.81
491.657	69.81
491.874	71.81
492.092	96.81
492.31	75.81
492.527	71.81
492.745	68.81
492.963	75.81
493.18	85.81
493.398	95.81
493.615	84.81
493.833	73.81
494.05	83.81
494.268	70.81
494.485	61.81
494.703	79.81
494.92	72.81
495.138	77.81
495.355	86.81
495.573	74.81
495.79	100.81
496.008	76.81
496.225	65.81
496.442	88.81
496.66	71.81
496.877	81.81
497.094	79.81
497.312	95.81
497.529	94.81
497.746	75.81
497.963	78.81
498.181	75.81
498.398	69.81
498.615	85.81
498.832	73.81
499.049	91.81
499.267	76.81
499.484	76.81
499.701	70.81
499.918	86.81
500.135	64.81
500.352	67.81
500.569	67.81
500.786	85.81
501.003	70.81
501.22	77.81
501.437	92.81
501.654	91.81
501.871	83.81
502.088	81.81
502.305	80.81
502.522	81.81
502.739	78.81
502.956	85.81
503.172	87.81
503.389	83.81
503.606	62.81
503.823	74.81
504.04	78.81
504.256	88.81
504.473	93.81
504.69	78.81
504.907	77.81
505.123	85.81
505.34	95.81
505.557	87.81
505.773	85.81
505.99	87.81
506.207	93.81
506.423	79.81
506.64	87.81
506.856	79.81
507.073	85.81
507.289	100.81
507.506	71.81
507.722	83.81
507.939	76.81
508.155	94.81
508.372	79.81
508.588	91.81
508.805	73.81
509.021	80.81
509.238	78.81
509.454	79.81
509.67	75.81
509.887	76.81
510.103	76.81
510.319	78.81
510.536	83.81
510.752	65.81
510.968	86.81
511.184	81.81
511.401	72.81
511.617	59.81
511.833	77.81
512.049	76.81
512.265	79.81
512.481	79.81
512.698	75.81
512.914	85.81
513.13	97.81
513.346	83.81
513.562	70.81
513.778	87.81
513.994	64.81
514.21	71.81
514.426	80.81
514.642	90.81
514.858	78.81
515.074	79.81
515.29	84.81
515.506	79.81
515.721	89.81
515.937	82.81
516.153	69.81
516.369	88.81
516.585	91.81
516.801	81.81
517.016	77.81
517.232	68.81
517.448	80.81
517.664	88.81
517.879	85.81
518.095	85.81
518.311	76.81
518.527	92.81
518.742	79.81
518.958	93.81
519.173	78.81
519.389	75.81
519.605	75.81
519.82	73.81
520.036	71.81
520.251	83.81
520.467	77.81
520.682	84.81
520.898	81.81
521.113	83.81
521.329	71.81
521.544	86.81
521.76	71.81
521.975	88.81
522.19	90.81
522.406	84.81
522.621	84.81
522.836	84.81
523.052	78.81
523.267	69.81
523.482	75.81
523.698	77.81
523.913	80.81
524.128	79.81
524.343	85.81
524.559	74.81
524.774	80.81
524.989	72.81
525.204	80.81
525.419	83.81
525.634	79.81
525.849	80.81
526.064	82.81
526.28	78.81
526.495	89.81
526.71	92.81
526.925	77.81
527.14	84.81
527.355	70.81
527.57	91.81
527.785	79.81
527.999	83.81
528.214	83.81
528.429	87.81
528.644	85.81
528.859	89.81
529.074	90.81
529.289	83.81
529.503	79.81
529.718	81.81
529.933	86.81
530.148	89.81
530.363	89.81
530.577	83.81
530.792	84.81
531.007	71.81
531.221	76.81
531.436	83.81
531.651	74.81
531.865	88.81
532.08	85.81
532.295	96.81
532.509	93.81
532.724	87.81
532.938	67.81
533.153	90.81
533.367	80.81
533.582	84.81
533.796	77.81
534.011	82.81
534.225	81.81
534.44	72.81
534.654	88.81
534.868	87.81
535.083	91.81
535.297	83.81
535.511	101.81
535.726	81.81
535.94	95.81
536.154	87.81
536.369	81.81
536.583	83.81
536.797	76.81
537.011	75.81
537.225	76.81
537.44	83.81
537.654	81.81
537.868	94.81
538.082	91.81
538.296	81.81
538.51	100.81
538.724	91.81
538.938	78.81
539.153	86.81
539.367	91.81
539.581	90.81
539.795	76.81
540.009	81.81
540.222	80.81
540.436	95.81
540.65	87.81
540.864	79.81
541.078	77.81
541.292	91.81
541.506	85.81
541.72	89.81
541.934	69.81
542.147	89.81
542.361	72.81
542.575	89.81
542.789	85.81
543.002	84.81
543.216	75.81
543.43	87.81
543.644	75.81
543.857	70.81
544.071	73.81
544.285	80.81
544.498	97.81
544.712	87.81
544.925	78.81
545.139	95.81
545.352	91.81
545.566	75.81
545.779	83.81
545.993	100.81
546.206	69.81
546.42	80.81
546.633	96.81
546.847	86.81
547.06	76.81
547.274	88.81
547.487	76.81
547.7	88.81
547.914	79.81
548.127	95.81
548.34	96.81
548.554	84.81
548.767	86.81
548.98	96.81
549.193	73.81
549.407	87.81
549.62	65.81
549.833	93.81
550.046	77.81
550.259	102.81
550.473	72.81
550.686	83.81
550.899	71.81
551.112	91.81
551.325	91.81
551.538	96.81
551.751	93.81
551.964	86.81
552.177	98.81
552.39	103.81
552.603	95.81
552.816	92.81
553.029	96.81
553.242	97.81
553.455	81.81
553.667	106.81
553.88	114.81
554.093	107.81
554.306	108.81
554.519	103.81
554.732	105.81
554.944	101.81
555.157	107.81
555.37	100.81
555.583	103.81
555.795	104.81
556.008	86.81
556.221	97.81
556.433	94.81
556.646	105.81
556.859	103.81
557.071	88.81
557.284	73.81
557.496	85.81
557.709	72.81
557.921	95.81
558.134	85.81
558.346	101.81
558.559	92.81
558.771	90.81
558.984	80.81
559.196	83.81
559.409	83.81
559.621	89.81
559.833	95.81
560.046	91.81
560.258	84.81
560.47	76.81
560.683	93.81
560.895	93.81
561.107	83.81
561.32	87.81
561.532	92.81
561.744	74.81
561.956	82.81
562.168	99.81
562.381	65.81
562.593	88.81
562.805	80.81
563.017	72.81
563.229	76.81
563.441	90.81
563.653	75.81
563.865	73.81
564.077	74.81
564.289	83.81
564.501	87.81
564.713	75.81
564.925	81.81
565.137	80.81
565.349	73.81
565.561	78.81
565.773	85.81
565.985	94.81
566.197	80.81
566.408	75.81
566.62	74.81
566.832	77.81
567.044	81.81
567.255	92.81
567.467	87.81
567.679	90.81
567.891	87.81
568.102	84.81
568.314	80.81
568.526	87.81
568.737	91.81
568.949	68.81
569.161	91.81
569.372	74.81
569.584	69.81
569.795	84.81
570.007	73.81
570.218	80.81
570.43	71.81
570.641	80.81
570.853	84.81
571.064	95.81
571.276	75.81
571.487	92.81
571.698	79.81
571.91	85.81
572.121	87.81
572.333	100.81
572.544	79.81
572.755	88.81
572.966	83.81
573.178	87.81
573.389	96.81
573.6	91.81
573.811	79.81
574.023	84.81
574.234	85.81
574.445	78.81
574.656	91.81
574.867	83.81
575.078	87.81
575.289	60.81
575.501	89.81
575.712	77.81
575.923	91.81
576.134	80.81
576.345	81.81
576.556	80.81
576.767	85.81
576.978	86.81
577.188	85.81
577.399	86.81
577.61	86.81
577.821	87.81
578.032	87.81
578.243	76.81
578.454	87.81
578.665	80.81
578.875	85.81
579.086	83.81
579.297	79.81
579.508	106.81
579.718	84.81
579.929	89.81
580.14	96.81
580.35	80.81
580.561	83.81
580.772	92.81
580.982	91.81
581.193	67.81
581.403	78.81
581.614	76.81
581.825	71.81
582.035	87.81
582.246	89.81
582.456	84.81
582.667	60.81
582.877	89.81
583.087	91.81
583.298	81.81
583.508	76.81
583.719	73.81
583.929	103.81
584.139	74.81
584.35	89.81
584.56	79.81
584.77	87.81
584.981	77.81
585.191	91.81
585.401	104.81
585.611	89.81
585.821	86.81
586.032	103.81
586.242	80.81
586.452	77.81
586.662	71.81
586.872	77.81
587.082	85.81
587.292	85.81
587.502	81.81
587.713	100.81
587.923	74.81
588.133	83.81
588.343	91.81
588.553	95.81
588.762	107.81
588.972	145.81
589.182	276.81
589.392	183.81
589.602	163.81
589.812	239.81
590.022	148.81
590.232	87.81
590.441	90.81
590.651	89.81
590.861	94.81
591.071	91.81
591.281	95.81
591.49	84.81
591.7	88.81
591.91	76.81
592.119	96.81
592.329	94.81
592.539	87.81
592.748	93.81
592.958	93.81
593.167	80.81
593.377	88.81
593.587	97.81
593.796	83.81
594.006	89.81
594.215	86.81
594.424	88.81
594.634	99.81
594.843	91.81
595.053	95.81
595.262	82.81
595.472	77.81
595.681	93.81
595.89	91.81
596.1	80.81
596.309	77.81
596.518	93.81
596.727	87.81
596.937	95.81
597.146	85.81
597.355	94.81
597.564	87.81
597.774	78.81
597.983	65.81
598.192	92.81
598.401	87.81
598.61	84.81
598.819	87.81
599.028	86.81
599.237	87.81
599.446	92.81
599.655	77.81
599.864	99.81
600.073	97.81
600.282	95.81
600.491	89.81
600.7	85.81
600.909	85.81
601.118	93.81
601.327	87.81
601.536	78.81
601.745	87.81
601.953	110.81
602.162	95.81
602.371	88.81
602.58	79.81
602.789	99.81
602.997	85.81
603.206	94.81
603.415	93.81
603.623	91.81
603.832	84.81
604.041	95.81
604.249	74.81
604.458	91.81
604.666	94.81
604.875	87.81
605.084	99.81
605.292	87.81
605.501	79.81
605.709	99.81
605.918	106.81
606.126	105.81
606.334	103.81
606.543	93.81
606.751	96.81
606.96	83.81
607.168	78.81
607.376	76.81
607.585	96.81
607.793	96.81
608.001	94.81
608.21	90.81
608.418	85.81
608.626	89.81
608.834	100.81
609.043	91.81
609.251	93.81
609.459	97.81
609.667	96.81
609.875	92.81
610.083	95.81
610.291	83.81
610.499	97.81
610.707	90.81
610.916	87.81
611.124	85.81
611.332	91.81
611.54	96.81
611.748	100.81
611.955	105.81
612.163	94.81
612.371	105.81
612.579	93.81
612.787	90.81
612.995	106.81
613.203	104.81
613.411	104.81
613.618	93.81
613.826	92.81
614.034	99.81
614.242	96.81
614.449	95.81
614.657	100.81
614.865	100.81
615.072	103.81
615.28	91.81
615.488	87.81
615.695	76.81
615.903	99.81
616.111	73.81
616.318	125.81
616.526	109.81
616.733	103.81
616.941	105.81
617.148	97.81
617.356	101.81
617.563	96.81
617.771	85.81
617.978	100.81
618.185	100.81
618.393	112.81
618.6	105.81
618.807	98.81
619.015	95.81
619.222	105.81
619.429	109.81
619.637	94.81
619.844	106.81
620.051	109.81
620.258	101.81
620.466	113.81
620.673	103.81
620.88	99.81
621.087	99.81
621.294	94.81
621.501	103.81
621.708	102.81
621.915	80.81
622.122	94.81
622.329	89.81
622.536	80.81
622.743	112.81
622.95	96.81
623.157	97.81
623.364	92.81
623.571	89.81
623.778	104.81
623.985	91.81
624.192	104.81
624.399	80.81
624.606	91.81
624.812	79.81
625.019	96.81
625.226	101.81
625.433	88.81
625.639	90.81
625.846	99.81
626.053	83.81
626.259	95.81
626.466	92.81
626.673	87.81
626.879	97.81
627.086	95.81
627.293	83.81
627.499	81.81
627.706	85.81
627.912	80.81
628.119	79.81
628.325	96.81
628.532	83.81
628.738	96.81
628.945	73.81
629.151	77.81
629.357	75.81
629.564	77.81
629.77	84.81
629.976	88.81
630.183	86.81
630.389	79.81
630.595	75.81
630.802	87.81
631.008	80.81
631.214	86.81
631.42	80.81
631.627	80.81
631.833	85.81
632.039	85.81
632.245	98.81
632.451	81.81
632.657	110.81
632.863	83.81
633.069	91.81
633.275	92.81
633.481	81.81
633.688	69.81
633.893	82.81
634.099	83.81
634.305	89.81
634.511	82.81
634.717	94.81
634.923	80.81
635.129	85.81
635.335	76.81
635.541	93.81
635.747	78.81
635.952	93.81
636.158	87.81
636.364	82.81
636.57	86.81
636.775	77.81
636.981	85.81
637.187	91.81
637.392	84.81
637.598	69.81
637.804	96.81
638.009	85.81
638.215	88.81
638.421	70.81
638.626	75.81
638.832	84.81
639.037	98.81
639.243	73.81
639.448	93.81
639.654	80.81
639.859	88.81
640.065	91.81
640.27	89.81
640.475	79.81
640.681	77.81
640.886	88.81
641.091	59.81
641.297	88.81
641.502	91.81
641.707	87.81
641.913	79.81
642.118	87.81
642.323	88.81
642.528	81.81
642.733	84.81
642.939	88.81
643.144	84.81
643.349	84.81
643.554	88.81
643.759	73.81
643.964	84.81
644.169	84.81
644.374	80.81
644.579	98.81
644.784	79.81
644.989	85.81
645.194	89.81
645.399	89.81
645.604	81.81
645.809	84.81
646.014	75.81
646.219	79.81
646.423	97.81
646.628	73.81
646.833	90.81
647.038	79.81
647.243	84.81
647.447	88.81
647.652	83.81
647.857	86.81
648.062	90.81
648.266	79.81
648.471	92.81
648.676	92.81
648.88	92.81
649.085	71.81
649.289	77.81
649.494	79.81
649.698	88.81
649.903	77.81
650.107	90.81
650.312	88.81
650.516	87.81
650.721	77.81
650.925	85.81
651.13	74.81
651.334	87.81
651.539	75.81
651.743	80.81
651.947	95.81
652.152	83.81
652.356	75.81
652.56	77.81
652.764	76.81
652.969	88.81
653.173	72.81
653.377	84.81
653.581	68.81
653.785	93.81
653.99	87.81
654.194	86.81
654.398	73.81
654.602	75.81
654.806	83.81
655.01	87.81
655.214	78.81
655.418	77.81
655.622	71.81
655.826	60.81
656.03	76.81
656.234	77.81
656.438	72.81
656.642	74.81
656.846	80.81
657.049	91.81
657.253	79.81
657.457	84.81
657.661	75.81
657.865	67.81
658.068	83.81
658.272	96.81
658.476	83.81
658.68	83.81
658.883	80.81
659.087	67.81
659.291	83.81
659.494	94.81
659.698	95.81
659.901	83.81
660.105	82.81
660.309	88.81
660.512	82.81
660.716	86.81
660.919	83.81
661.123	76.81
661.326	80.81
661.53	79.81
661.733	85.81
661.936	89.81
662.14	88.81
662.343	83.81
662.546	78.81
662.75	79.81
662.953	89.81
663.156	89.81
663.36	78.81
663.563	63.81
663.766	80.81
663.969	78.81
664.173	68.81
664.376	76.81
664.579	80.81
664.782	83.81
664.985	78.81
665.188	87.81
665.391	80.81
665.594	78.81
665.797	85.81
666	78.81
666.203	83.81
666.406	83.81
666.609	86.81
666.812	78.81
667.015	98.81
667.218	92.81
667.421	77.81
667.624	70.81
667.827	79.81
668.03	70.81
668.232	75.81
668.435	92.81
668.638	77.81
668.841	78.81
669.043	76.81
669.246	85.81
669.449	81.81
669.651	73.81
669.854	78.81
670.057	80.81
670.259	61.81
670.462	83.81
670.665	74.81
670.867	84.81
671.07	69.81
671.272	94.81
671.475	77.81
671.677	102.81
671.88	89.81
672.082	77.81
672.284	83.81
672.487	87.81
672.689	83.81
672.892	76.81
