Data from Uncirc_1984_H10_HRD10591_00011.txt Node
Date: Wed Jan 03 12:21:39 EST 2024
User: Yrep
Spectrometer: HR+D1059
Trigger mode: 1
Integration Time (sec): 1.000000E-1
Scans to average: 1
Electric dark correction enabled: true
Nonlinearity correction enabled: false
Boxcar width: 0
XAxis mode: Wavelengths
Number of Pixels in Spectrum: 2048
>>>>>Begin Spectral Data<<<<<
223.165	-13.75
223.4	-13.75
223.635	-13.75
223.869	-27.75
224.104	-28.75
224.338	-22.75
224.573	-1.75
224.808	-8.75
225.042	-14.75
225.277	0.25
225.511	5.25
225.746	-1.75
225.98	0.25
226.215	13.25
226.449	11.25
226.683	26.25
226.918	33.25
227.152	30.25
227.387	34.25
227.621	29.25
227.856	49.25
228.09	41.25
228.324	62.25
228.559	60.25
228.793	55.25
229.027	64.25
229.262	64.25
229.496	60.25
229.73	82.25
229.964	93.25
230.199	73.25
230.433	85.25
230.667	81.25
230.901	86.25
231.136	85.25
231.37	84.25
231.604	84.25
231.838	79.25
232.072	77.25
232.306	75.25
232.541	78.25
232.775	81.25
233.009	78.25
233.243	72.25
233.477	74.25
233.711	88.25
233.945	88.25
234.179	88.25
234.413	78.25
234.647	83.25
234.881	95.25
235.115	76.25
235.349	91.25
235.583	86.25
235.817	86.25
236.051	80.25
236.285	72.25
236.519	84.25
236.753	77.25
236.987	79.25
237.221	84.25
237.455	91.25
237.689	83.25
237.922	84.25
238.156	76.25
238.39	82.25
238.624	87.25
238.858	67.25
239.091	83.25
239.325	68.25
239.559	72.25
239.793	70.25
240.027	74.25
240.26	72.25
240.494	76.25
240.728	82.25
240.961	65.25
241.195	92.25
241.429	85.25
241.662	75.25
241.896	80.25
242.13	73.25
242.363	82.25
242.597	76.25
242.83	69.25
243.064	92.25
243.298	75.25
243.531	77.25
243.765	74.25
243.998	88.25
244.232	77.25
244.465	96.25
244.699	81.25
244.932	76.25
245.166	71.25
245.399	83.25
245.633	98.25
245.866	84.25
246.099	89.25
246.333	85.25
246.566	60.25
246.8	84.25
247.033	90.25
247.266	87.25
247.5	78.25
247.733	92.25
247.966	87.25
248.2	83.25
248.433	90.25
248.666	83.25
248.899	71.25
249.133	77.25
249.366	74.25
249.599	91.25
249.832	86.25
250.066	64.25
250.299	86.25
250.532	97.25
250.765	75.25
250.998	92.25
251.231	82.25
251.465	82.25
251.698	86.25
251.931	73.25
252.164	76.25
252.397	92.25
252.63	82.25
252.863	89.25
253.096	100.25
253.329	59.25
253.562	82.25
253.795	90.25
254.028	94.25
254.261	85.25
254.494	76.25
254.727	90.25
254.96	80.25
255.193	87.25
255.426	91.25
255.659	66.25
255.892	84.25
256.124	86.25
256.357	88.25
256.59	72.25
256.823	80.25
257.056	78.25
257.289	90.25
257.521	89.25
257.754	77.25
257.987	85.25
258.22	86.25
258.452	98.25
258.685	95.25
258.918	85.25
259.151	85.25
259.383	81.25
259.616	88.25
259.849	86.25
260.081	66.25
260.314	87.25
260.547	94.25
260.779	75.25
261.012	90.25
261.244	91.25
261.477	94.25
261.71	98.25
261.942	100.25
262.175	100.25
262.407	93.25
262.64	99.25
262.872	92.25
263.105	96.25
263.337	70.25
263.57	84.25
263.802	86.25
264.035	80.25
264.267	88.25
264.499	68.25
264.732	89.25
264.964	72.25
265.197	90.25
265.429	90.25
265.661	86.25
265.894	80.25
266.126	96.25
266.358	91.25
266.591	90.25
266.823	93.25
267.055	66.25
267.287	87.25
267.52	89.25
267.752	98.25
267.984	83.25
268.216	85.25
268.448	75.25
268.681	88.25
268.913	88.25
269.145	81.25
269.377	78.25
269.609	85.25
269.841	80.25
270.073	92.25
270.306	87.25
270.538	75.25
270.77	84.25
271.002	86.25
271.234	74.25
271.466	94.25
271.698	92.25
271.93	91.25
272.162	77.25
272.394	88.25
272.626	79.25
272.858	81.25
273.09	77.25
273.322	74.25
273.553	76.25
273.785	82.25
274.017	92.25
274.249	86.25
274.481	73.25
274.713	88.25
274.945	83.25
275.176	81.25
275.408	86.25
275.64	107.25
275.872	80.25
276.104	76.25
276.335	96.25
276.567	92.25
276.799	93.25
277.031	84.25
277.262	97.25
277.494	84.25
277.726	77.25
277.957	82.25
278.189	91.25
278.421	99.25
278.652	94.25
278.884	89.25
279.115	74.25
279.347	88.25
279.579	88.25
279.81	82.25
280.042	86.25
280.273	80.25
280.505	90.25
280.736	82.25
280.968	66.25
281.199	81.25
281.431	80.25
281.662	90.25
281.894	98.25
282.125	87.25
282.356	114.25
282.588	115.25
282.819	110.25
283.051	95.25
283.282	84.25
283.513	80.25
283.745	80.25
283.976	81.25
284.207	85.25
284.439	89.25
284.67	92.25
284.901	75.25
285.132	88.25
285.364	73.25
285.595	84.25
285.826	88.25
286.057	93.25
286.288	63.25
286.52	85.25
286.751	80.25
286.982	89.25
287.213	85.25
287.444	77.25
287.675	103.25
287.906	97.25
288.138	86.25
288.369	103.25
288.6	97.25
288.831	101.25
289.062	99.25
289.293	90.25
289.524	92.25
289.755	88.25
289.986	86.25
290.217	101.25
290.448	79.25
290.679	92.25
290.91	92.25
291.141	70.25
291.371	94.25
291.602	81.25
291.833	75.25
292.064	91.25
292.295	78.25
292.526	94.25
292.757	84.25
292.987	95.25
293.218	91.25
293.449	96.25
293.68	83.25
293.91	96.25
294.141	75.25
294.372	82.25
294.603	77.25
294.833	96.25
295.064	89.25
295.295	77.25
295.525	88.25
295.756	112.25
295.987	116.25
296.217	119.25
296.448	100.25
296.679	99.25
296.909	74.25
297.14	108.25
297.37	88.25
297.601	97.25
297.831	89.25
298.062	89.25
298.292	94.25
298.523	94.25
298.753	90.25
298.984	83.25
299.214	81.25
299.445	100.25
299.675	76.25
299.905	75.25
300.136	92.25
300.366	97.25
300.597	92.25
300.827	104.25
301.057	90.25
301.288	87.25
301.518	89.25
301.748	90.25
301.979	115.25
302.209	101.25
302.439	100.25
302.669	107.25
302.9	98.25
303.13	112.25
303.36	96.25
303.59	94.25
303.82	99.25
304.051	86.25
304.281	66.25
304.511	101.25
304.741	84.25
304.971	94.25
305.201	84.25
305.431	92.25
305.661	97.25
305.891	93.25
306.121	88.25
306.352	100.25
306.582	109.25
306.812	106.25
307.042	85.25
307.272	96.25
307.502	102.25
307.731	93.25
307.961	95.25
308.191	73.25
308.421	82.25
308.651	91.25
308.881	90.25
309.111	93.25
309.341	106.25
309.571	86.25
309.8	88.25
310.03	80.25
310.26	92.25
310.49	94.25
310.72	80.25
310.949	84.25
311.179	106.25
311.409	90.25
311.639	99.25
311.868	82.25
312.098	101.25
312.328	105.25
312.557	103.25
312.787	80.25
313.017	102.25
313.246	93.25
313.476	88.25
313.706	104.25
313.935	75.25
314.165	88.25
314.394	101.25
314.624	86.25
314.853	95.25
315.083	84.25
315.312	96.25
315.542	99.25
315.771	101.25
316.001	93.25
316.23	87.25
316.46	90.25
316.689	75.25
316.919	89.25
317.148	97.25
317.377	84.25
317.607	91.25
317.836	102.25
318.065	94.25
318.295	93.25
318.524	78.25
318.753	80.25
318.983	90.25
319.212	89.25
319.441	90.25
319.67	101.25
319.9	92.25
320.129	101.25
320.358	95.25
320.587	92.25
320.816	109.25
321.046	83.25
321.275	85.25
321.504	97.25
321.733	86.25
321.962	98.25
322.191	104.25
322.42	114.25
322.649	93.25
322.878	109.25
323.108	101.25
323.337	103.25
323.566	118.25
323.795	132.25
324.024	178.25
324.253	326.25
324.482	652.25
324.71	1274.25
324.939	1698.25
325.168	620.25
325.397	211.25
325.626	125.25
325.855	123.25
326.084	116.25
326.313	124.25
326.542	127.25
326.77	188.25
326.999	368.25
327.228	737.25
327.457	1384.25
327.686	1050.25
327.914	300.25
328.143	162.25
328.372	132.25
328.6	113.25
328.829	104.25
329.058	130.25
329.287	106.25
329.515	96.25
329.744	72.25
329.972	94.25
330.201	92.25
330.43	100.25
330.658	106.25
330.887	117.25
331.115	113.25
331.344	101.25
331.572	102.25
331.801	98.25
332.03	83.25
332.258	94.25
332.486	101.25
332.715	86.25
332.943	96.25
333.172	99.25
333.4	94.25
333.629	104.25
333.857	106.25
334.085	116.25
334.314	92.25
334.542	101.25
334.771	86.25
334.999	92.25
335.227	97.25
335.455	94.25
335.684	87.25
335.912	85.25
336.14	94.25
336.369	98.25
336.597	96.25
336.825	87.25
337.053	100.25
337.281	92.25
337.51	99.25
337.738	102.25
337.966	102.25
338.194	85.25
338.422	113.25
338.65	84.25
338.878	94.25
339.106	82.25
339.334	111.25
339.562	77.25
339.79	99.25
340.018	100.25
340.246	98.25
340.474	98.25
340.702	92.25
340.93	99.25
341.158	95.25
341.386	94.25
341.614	91.25
341.842	98.25
342.07	77.25
342.298	87.25
342.526	100.25
342.754	90.25
342.981	94.25
343.209	87.25
343.437	114.25
343.665	100.25
343.893	88.25
344.12	99.25
344.348	77.25
344.576	87.25
344.804	93.25
345.031	96.25
345.259	102.25
345.487	96.25
345.714	92.25
345.942	91.25
346.17	92.25
346.397	87.25
346.625	96.25
346.853	101.25
347.08	86.25
347.308	88.25
347.535	108.25
347.763	95.25
347.99	97.25
348.218	105.25
348.445	101.25
348.673	105.25
348.9	101.25
349.128	98.25
349.355	103.25
349.583	94.25
349.81	88.25
350.037	87.25
350.265	84.25
350.492	93.25
350.72	101.25
350.947	107.25
351.174	117.25
351.402	104.25
351.629	116.25
351.856	101.25
352.083	96.25
352.311	111.25
352.538	101.25
352.765	92.25
352.992	108.25
353.22	98.25
353.447	104.25
353.674	83.25
353.901	103.25
354.128	78.25
354.355	92.25
354.583	93.25
354.81	99.25
355.037	96.25
355.264	90.25
355.491	93.25
355.718	93.25
355.945	90.25
356.172	90.25
356.399	91.25
356.626	98.25
356.853	84.25
357.08	87.25
357.307	101.25
357.534	94.25
357.761	98.25
357.988	104.25
358.215	104.25
358.441	95.25
358.668	76.25
358.895	107.25
359.122	113.25
359.349	87.25
359.576	82.25
359.802	99.25
360.029	116.25
360.256	90.25
360.483	87.25
360.709	86.25
360.936	85.25
361.163	85.25
361.39	87.25
361.616	86.25
361.843	87.25
362.07	93.25
362.296	82.25
362.523	88.25
362.749	92.25
362.976	84.25
363.203	105.25
363.429	91.25
363.656	99.25
363.882	88.25
364.109	92.25
364.335	90.25
364.562	97.25
364.788	100.25
365.015	88.25
365.241	106.25
365.468	96.25
365.694	83.25
365.92	84.25
366.147	84.25
366.373	87.25
366.599	92.25
366.826	88.25
367.052	97.25
367.278	98.25
367.505	78.25
367.731	77.25
367.957	90.25
368.184	89.25
368.41	88.25
368.636	102.25
368.862	109.25
369.089	100.25
369.315	84.25
369.541	94.25
369.767	84.25
369.993	91.25
370.219	84.25
370.445	94.25
370.672	93.25
370.898	96.25
371.124	92.25
371.35	84.25
371.576	100.25
371.802	91.25
372.028	91.25
372.254	96.25
372.48	96.25
372.706	92.25
372.932	77.25
373.158	96.25
373.384	107.25
373.61	84.25
373.835	98.25
374.061	102.25
374.287	92.25
374.513	89.25
374.739	86.25
374.965	94.25
375.191	96.25
375.416	89.25
375.642	89.25
375.868	94.25
376.094	80.25
376.319	84.25
376.545	91.25
376.771	97.25
376.997	92.25
377.222	93.25
377.448	100.25
377.674	80.25
377.899	102.25
378.125	84.25
378.35	98.25
378.576	99.25
378.802	96.25
379.027	91.25
379.253	101.25
379.478	99.25
379.704	97.25
379.929	92.25
380.155	84.25
380.38	104.25
380.606	97.25
380.831	97.25
381.057	87.25
381.282	100.25
381.507	90.25
381.733	102.25
381.958	86.25
382.184	100.25
382.409	95.25
382.634	112.25
382.86	100.25
383.085	106.25
383.31	103.25
383.535	108.25
383.761	102.25
383.986	93.25
384.211	92.25
384.436	108.25
384.662	98.25
384.887	99.25
385.112	108.25
385.337	110.25
385.562	110.25
385.787	106.25
386.013	112.25
386.238	98.25
386.463	106.25
386.688	123.25
386.913	96.25
387.138	107.25
387.363	99.25
387.588	104.25
387.813	88.25
388.038	100.25
388.263	108.25
388.488	119.25
388.713	109.25
388.938	98.25
389.163	91.25
389.387	103.25
389.612	93.25
389.837	98.25
390.062	107.25
390.287	100.25
390.512	104.25
390.736	91.25
390.961	99.25
391.186	87.25
391.411	100.25
391.636	101.25
391.86	97.25
392.085	93.25
392.31	97.25
392.534	99.25
392.759	100.25
392.984	87.25
393.208	102.25
393.433	108.25
393.658	89.25
393.882	77.25
394.107	80.25
394.331	101.25
394.556	90.25
394.78	91.25
395.005	91.25
395.229	89.25
395.454	85.25
395.678	79.25
395.903	84.25
396.127	85.25
396.352	83.25
396.576	84.25
396.801	93.25
397.025	90.25
397.249	89.25
397.474	87.25
397.698	93.25
397.922	95.25
398.147	86.25
398.371	74.25
398.595	88.25
398.82	88.25
399.044	86.25
399.268	92.25
399.492	91.25
399.717	93.25
399.941	108.25
400.165	90.25
400.389	82.25
400.613	98.25
400.837	102.25
401.062	84.25
401.286	111.25
401.51	98.25
401.734	89.25
401.958	87.25
402.182	113.25
402.406	130.25
402.63	109.25
402.854	85.25
403.078	83.25
403.302	90.25
403.526	92.25
403.75	100.25
403.974	88.25
404.198	85.25
404.422	88.25
404.645	87.25
404.869	82.25
405.093	101.25
405.317	97.25
405.541	100.25
405.765	94.25
405.988	109.25
406.212	135.25
406.436	177.25
406.66	118.25
406.883	105.25
407.107	108.25
407.331	90.25
407.555	95.25
407.778	92.25
408.002	93.25
408.226	88.25
408.449	82.25
408.673	88.25
408.896	80.25
409.12	100.25
409.344	85.25
409.567	103.25
409.791	104.25
410.014	85.25
410.238	99.25
410.461	101.25
410.685	99.25
410.908	98.25
411.132	108.25
411.355	87.25
411.578	86.25
411.802	87.25
412.025	80.25
412.249	86.25
412.472	90.25
412.695	89.25
412.919	93.25
413.142	93.25
413.365	84.25
413.589	83.25
413.812	103.25
414.035	86.25
414.258	92.25
414.482	95.25
414.705	94.25
414.928	88.25
415.151	89.25
415.374	109.25
415.597	99.25
415.821	90.25
416.044	93.25
416.267	93.25
416.49	99.25
416.713	88.25
416.936	85.25
417.159	87.25
417.382	83.25
417.605	87.25
417.828	93.25
418.051	104.25
418.274	88.25
418.497	97.25
418.72	93.25
418.943	102.25
419.166	95.25
419.389	93.25
419.611	106.25
419.834	98.25
420.057	101.25
420.28	90.25
420.503	92.25
420.726	89.25
420.948	89.25
421.171	76.25
421.394	88.25
421.617	92.25
421.839	73.25
422.062	94.25
422.285	108.25
422.507	114.25
422.73	110.25
422.953	100.25
423.175	73.25
423.398	101.25
423.621	77.25
423.843	88.25
424.066	83.25
424.288	86.25
424.511	97.25
424.733	100.25
424.956	99.25
425.178	92.25
425.401	104.25
425.623	105.25
425.846	105.25
426.068	105.25
426.291	90.25
426.513	95.25
426.735	87.25
426.958	108.25
427.18	93.25
427.402	131.25
427.625	133.25
427.847	104.25
428.069	98.25
428.292	82.25
428.514	77.25
428.736	74.25
428.958	77.25
429.181	89.25
429.403	82.25
429.625	92.25
429.847	100.25
430.069	85.25
430.292	89.25
430.514	78.25
430.736	89.25
430.958	83.25
431.18	94.25
431.402	95.25
431.624	100.25
431.846	95.25
432.068	98.25
432.29	93.25
432.512	101.25
432.734	89.25
432.956	100.25
433.178	104.25
433.4	101.25
433.622	97.25
433.844	87.25
434.066	88.25
434.287	104.25
434.509	80.25
434.731	91.25
434.953	84.25
435.175	91.25
435.397	92.25
435.618	75.25
435.84	97.25
436.062	113.25
436.284	120.25
436.505	92.25
436.727	105.25
436.949	102.25
437.17	85.25
437.392	92.25
437.614	96.25
437.835	104.25
438.057	113.25
438.278	99.25
438.5	106.25
438.721	110.25
438.943	99.25
439.165	80.25
439.386	87.25
439.608	94.25
439.829	101.25
440.05	105.25
440.272	122.25
440.493	88.25
440.715	100.25
440.936	103.25
441.158	85.25
441.379	77.25
441.6	80.25
441.822	90.25
442.043	88.25
442.264	113.25
442.486	88.25
442.707	85.25
442.928	96.25
443.149	117.25
443.371	129.25
443.592	103.25
443.813	109.25
444.034	98.25
444.255	94.25
444.476	69.25
444.698	94.25
444.919	82.25
445.14	125.25
445.361	110.25
445.582	101.25
445.803	133.25
446.024	130.25
446.245	118.25
446.466	109.25
446.687	84.25
446.908	96.25
447.129	96.25
447.35	91.25
447.571	100.25
447.792	89.25
448.013	101.25
448.234	119.25
448.455	96.25
448.675	107.25
448.896	119.25
449.117	100.25
449.338	98.25
449.559	117.25
449.779	117.25
450	103.25
450.221	100.25
450.442	84.25
450.662	93.25
450.883	85.25
451.104	108.25
451.324	86.25
451.545	97.25
451.766	90.25
451.986	77.25
452.207	89.25
452.428	78.25
452.648	97.25
452.869	101.25
453.089	111.25
453.31	106.25
453.53	82.25
453.751	87.25
453.971	99.25
454.192	108.25
454.412	92.25
454.633	77.25
454.853	80.25
455.073	88.25
455.294	95.25
455.514	104.25
455.734	97.25
455.955	85.25
456.175	88.25
456.395	88.25
456.616	85.25
456.836	87.25
457.056	84.25
457.276	77.25
457.497	88.25
457.717	90.25
457.937	94.25
458.157	87.25
458.377	82.25
458.598	101.25
458.818	119.25
459.038	147.25
459.258	113.25
459.478	94.25
459.698	90.25
459.918	93.25
460.138	92.25
460.358	88.25
460.578	96.25
460.798	92.25
461.018	90.25
461.238	77.25
461.458	92.25
461.678	95.25
461.898	73.25
462.118	95.25
462.338	80.25
462.558	83.25
462.777	91.25
462.997	76.25
463.217	82.25
463.437	84.25
463.657	80.25
463.876	84.25
464.096	90.25
464.316	87.25
464.536	88.25
464.755	89.25
464.975	94.25
465.195	122.25
465.414	131.25
465.634	97.25
465.854	93.25
466.073	88.25
466.293	77.25
466.512	96.25
466.732	83.25
466.951	91.25
467.171	102.25
467.391	88.25
467.61	101.25
467.829	88.25
468.049	90.25
468.268	94.25
468.488	110.25
468.707	93.25
468.927	81.25
469.146	82.25
469.365	88.25
469.585	83.25
469.804	105.25
470.023	89.25
470.243	87.25
470.462	95.25
470.681	90.25
470.901	90.25
471.12	84.25
471.339	88.25
471.558	94.25
471.777	88.25
471.997	80.25
472.216	86.25
472.435	92.25
472.654	98.25
472.873	83.25
473.092	96.25
473.311	92.25
473.53	81.25
473.749	102.25
473.968	87.25
474.187	97.25
474.406	99.25
474.625	85.25
474.844	90.25
475.063	95.25
475.282	102.25
475.501	91.25
475.72	84.25
475.939	81.25
476.158	96.25
476.377	92.25
476.596	92.25
476.814	84.25
477.033	97.25
477.252	89.25
477.471	104.25
477.69	90.25
477.908	93.25
478.127	93.25
478.346	95.25
478.564	84.25
478.783	117.25
479.002	100.25
479.22	84.25
479.439	100.25
479.658	104.25
479.876	77.25
480.095	99.25
480.313	91.25
480.532	83.25
480.751	105.25
480.969	90.25
481.188	104.25
481.406	101.25
481.624	101.25
481.843	90.25
482.061	90.25
482.28	99.25
482.498	99.25
482.717	93.25
482.935	86.25
483.153	96.25
483.372	104.25
483.59	106.25
483.808	105.25
484.027	86.25
484.245	86.25
484.463	94.25
484.681	102.25
484.9	103.25
485.118	103.25
485.336	98.25
485.554	105.25
485.772	102.25
485.99	101.25
486.209	105.25
486.427	100.25
486.645	110.25
486.863	100.25
487.081	109.25
487.299	108.25
487.517	107.25
487.735	77.25
487.953	91.25
488.171	102.25
488.389	92.25
488.607	92.25
488.825	98.25
489.043	102.25
489.261	114.25
489.479	93.25
489.696	110.25
489.914	93.25
490.132	91.25
490.35	99.25
490.568	92.25
490.786	85.25
491.003	80.25
491.221	86.25
491.439	89.25
491.657	91.25
491.874	85.25
492.092	85.25
492.31	101.25
492.527	98.25
492.745	103.25
492.963	79.25
493.18	98.25
493.398	88.25
493.615	98.25
493.833	102.25
494.05	78.25
494.268	92.25
494.485	91.25
494.703	93.25
494.92	83.25
495.138	86.25
495.355	105.25
495.573	93.25
495.79	91.25
496.008	92.25
496.225	95.25
496.442	92.25
496.66	105.25
496.877	97.25
497.094	93.25
497.312	97.25
497.529	98.25
497.746	90.25
497.963	96.25
498.181	82.25
498.398	86.25
498.615	110.25
498.832	108.25
499.049	81.25
499.267	78.25
499.484	95.25
499.701	92.25
499.918	100.25
500.135	99.25
500.352	91.25
500.569	93.25
500.786	90.25
501.003	96.25
501.22	80.25
501.437	95.25
501.654	92.25
501.871	92.25
502.088	85.25
502.305	77.25
502.522	104.25
502.739	97.25
502.956	73.25
503.172	73.25
503.389	90.25
503.606	102.25
503.823	117.25
504.04	102.25
504.256	98.25
504.473	94.25
504.69	97.25
504.907	93.25
505.123	94.25
505.34	85.25
505.557	98.25
505.773	103.25
505.99	87.25
506.207	76.25
506.423	88.25
506.64	84.25
506.856	86.25
507.073	81.25
507.289	99.25
507.506	88.25
507.722	109.25
507.939	109.25
508.155	106.25
508.372	93.25
508.588	86.25
508.805	97.25
509.021	117.25
509.238	89.25
509.454	95.25
509.67	103.25
509.887	113.25
510.103	123.25
510.319	193.25
510.536	625.25
510.752	1833.25
510.968	515.25
511.184	146.25
511.401	106.25
511.617	93.25
511.833	104.25
512.049	101.25
512.265	90.25
512.481	90.25
512.698	85.25
512.914	84.25
513.13	90.25
513.346	73.25
513.562	99.25
513.778	108.25
513.994	97.25
514.21	99.25
514.426	119.25
514.642	114.25
514.858	103.25
515.074	137.25
515.29	359.25
515.506	1036.25
515.721	398.25
515.937	133.25
516.153	97.25
516.369	91.25
516.585	92.25
516.801	101.25
517.016	94.25
517.232	105.25
517.448	101.25
517.664	97.25
517.879	90.25
518.095	102.25
518.311	97.25
518.527	91.25
518.742	95.25
518.958	94.25
519.173	93.25
519.389	78.25
519.605	86.25
519.82	98.25
520.036	89.25
520.251	117.25
520.467	109.25
520.682	106.25
520.898	107.25
521.113	119.25
521.329	118.25
521.544	150.25
521.76	424.25
521.975	1711.25
522.19	1027.25
522.406	258.25
522.621	102.25
522.836	105.25
523.052	99.25
523.267	78.25
523.482	93.25
523.698	91.25
523.913	104.25
524.128	105.25
524.343	95.25
524.559	91.25
524.774	93.25
524.989	108.25
525.204	104.25
525.419	100.25
525.634	104.25
525.849	79.25
526.064	84.25
526.28	96.25
526.495	86.25
526.71	82.25
526.925	98.25
527.14	84.25
527.355	82.25
527.57	93.25
527.785	92.25
527.999	89.25
528.214	91.25
528.429	93.25
528.644	100.25
528.859	93.25
529.074	83.25
529.289	117.25
529.503	143.25
529.718	83.25
529.933	97.25
530.148	64.25
530.363	76.25
530.577	86.25
530.792	78.25
531.007	101.25
531.221	100.25
531.436	91.25
531.651	84.25
531.865	88.25
532.08	104.25
532.295	81.25
532.509	94.25
532.724	101.25
532.938	92.25
533.153	98.25
533.367	99.25
533.582	104.25
533.796	100.25
534.011	100.25
534.225	98.25
534.44	88.25
534.654	97.25
534.868	94.25
535.083	92.25
535.297	95.25
535.511	100.25
535.726	95.25
535.94	93.25
536.154	105.25
536.369	88.25
536.583	89.25
536.797	96.25
537.011	92.25
537.225	102.25
537.44	94.25
537.654	107.25
537.868	86.25
538.082	86.25
538.296	88.25
538.51	82.25
538.724	88.25
538.938	101.25
539.153	97.25
539.367	109.25
539.581	101.25
539.795	96.25
540.009	92.25
540.222	96.25
540.436	84.25
540.65	94.25
540.864	88.25
541.078	87.25
541.292	94.25
541.506	87.25
541.72	82.25
541.934	70.25
542.147	74.25
542.361	83.25
542.575	84.25
542.789	83.25
543.002	83.25
543.216	93.25
543.43	88.25
543.644	86.25
543.857	83.25
544.071	86.25
544.285	94.25
544.498	96.25
544.712	86.25
544.925	81.25
545.139	88.25
545.352	86.25
545.566	108.25
545.779	82.25
545.993	87.25
546.206	98.25
546.42	96.25
546.633	90.25
546.847	92.25
547.06	90.25
547.274	92.25
547.487	99.25
547.7	80.25
547.914	98.25
548.127	95.25
548.34	98.25
548.554	104.25
548.767	97.25
548.98	85.25
549.193	98.25
549.407	95.25
549.62	79.25
549.833	86.25
550.046	93.25
550.259	85.25
550.473	85.25
550.686	78.25
550.899	89.25
551.112	100.25
551.325	92.25
551.538	93.25
551.751	88.25
551.964	76.25
552.177	96.25
552.39	87.25
552.603	84.25
552.816	89.25
553.029	89.25
553.242	89.25
553.455	93.25
553.667	85.25
553.88	102.25
554.093	90.25
554.306	92.25
554.519	81.25
554.732	97.25
554.944	83.25
555.157	97.25
555.37	101.25
555.583	95.25
555.795	96.25
556.008	90.25
556.221	97.25
556.433	94.25
556.646	94.25
556.859	78.25
557.071	94.25
557.284	89.25
557.496	75.25
557.709	94.25
557.921	84.25
558.134	86.25
558.346	87.25
558.559	98.25
558.771	104.25
558.984	89.25
559.196	96.25
559.409	88.25
559.621	98.25
559.833	99.25
560.046	81.25
560.258	97.25
560.47	89.25
560.683	90.25
560.895	85.25
561.107	89.25
561.32	97.25
561.532	89.25
561.744	103.25
561.956	100.25
562.168	90.25
562.381	104.25
562.593	96.25
562.805	80.25
563.017	90.25
563.229	96.25
563.441	88.25
563.653	94.25
563.865	90.25
564.077	85.25
564.289	90.25
564.501	94.25
564.713	107.25
564.925	82.25
565.137	96.25
565.349	80.25
565.561	89.25
565.773	86.25
565.985	81.25
566.197	87.25
566.408	80.25
566.62	96.25
566.832	81.25
567.044	75.25
567.255	87.25
567.467	91.25
567.679	92.25
567.891	92.25
568.102	83.25
568.314	89.25
568.526	80.25
568.737	96.25
568.949	92.25
569.161	75.25
569.372	81.25
569.584	75.25
569.795	92.25
570.007	103.25
570.218	224.25
570.43	119.25
570.641	90.25
570.853	88.25
571.064	72.25
571.276	86.25
571.487	84.25
571.698	93.25
571.91	87.25
572.121	82.25
572.333	97.25
572.544	90.25
572.755	97.25
572.966	93.25
573.178	92.25
573.389	105.25
573.6	88.25
573.811	87.25
574.023	97.25
574.234	92.25
574.445	94.25
574.656	98.25
574.867	81.25
575.078	84.25
575.289	92.25
575.501	105.25
575.712	92.25
575.923	82.25
576.134	82.25
576.345	83.25
576.556	93.25
576.767	88.25
576.978	107.25
577.188	101.25
577.399	98.25
577.61	104.25
577.821	94.25
578.032	122.25
578.243	253.25
578.454	621.25
578.665	203.25
578.875	124.25
579.086	84.25
579.297	92.25
579.508	85.25
579.718	96.25
579.929	87.25
580.14	90.25
580.35	86.25
580.561	83.25
580.772	91.25
580.982	86.25
581.193	96.25
581.403	93.25
581.614	98.25
581.825	86.25
582.035	87.25
582.246	101.25
582.456	84.25
582.667	75.25
582.877	90.25
583.087	96.25
583.298	96.25
583.508	93.25
583.719	85.25
583.929	81.25
584.139	99.25
584.35	90.25
584.56	84.25
584.77	94.25
584.981	80.25
585.191	97.25
585.401	89.25
585.611	97.25
585.821	100.25
586.032	100.25
586.242	88.25
586.452	96.25
586.662	88.25
586.872	86.25
587.082	80.25
587.292	78.25
587.502	89.25
587.713	88.25
587.923	94.25
588.133	88.25
588.343	99.25
588.553	95.25
588.762	107.25
588.972	97.25
589.182	111.25
589.392	97.25
589.602	101.25
589.812	122.25
590.022	97.25
590.232	103.25
590.441	84.25
590.651	86.25
590.861	87.25
591.071	81.25
591.281	108.25
591.49	78.25
591.7	76.25
591.91	77.25
592.119	85.25
592.329	89.25
592.539	88.25
592.748	85.25
592.958	88.25
593.167	88.25
593.377	77.25
593.587	108.25
593.796	82.25
594.006	101.25
594.215	87.25
594.424	102.25
594.634	99.25
594.843	97.25
595.053	82.25
595.262	94.25
595.472	91.25
595.681	87.25
595.89	77.25
596.1	97.25
596.309	91.25
596.518	83.25
596.727	94.25
596.937	95.25
597.146	81.25
597.355	106.25
597.564	88.25
597.774	94.25
597.983	82.25
598.192	85.25
598.401	95.25
598.61	91.25
598.819	103.25
599.028	101.25
599.237	85.25
599.446	93.25
599.655	99.25
599.864	92.25
600.073	85.25
600.282	77.25
600.491	89.25
600.7	86.25
600.909	79.25
601.118	85.25
601.327	90.25
601.536	82.25
601.745	94.25
601.953	89.25
602.162	96.25
602.371	96.25
602.58	84.25
602.789	92.25
602.997	93.25
603.206	97.25
603.415	86.25
603.623	91.25
603.832	84.25
604.041	95.25
604.249	85.25
604.458	96.25
604.666	88.25
604.875	88.25
605.084	94.25
605.292	85.25
605.501	88.25
605.709	96.25
605.918	85.25
606.126	82.25
606.334	94.25
606.543	102.25
606.751	99.25
606.96	86.25
607.168	92.25
607.376	88.25
607.585	82.25
607.793	91.25
608.001	71.25
608.21	77.25
608.418	83.25
608.626	92.25
608.834	87.25
609.043	93.25
609.251	95.25
609.459	84.25
609.667	78.25
609.875	78.25
610.083	82.25
610.291	97.25
610.499	71.25
610.707	85.25
610.916	92.25
611.124	74.25
611.332	83.25
611.54	86.25
611.748	73.25
611.955	93.25
612.163	93.25
612.371	90.25
612.579	95.25
612.787	88.25
612.995	81.25
613.203	82.25
613.411	77.25
613.618	89.25
613.826	81.25
614.034	100.25
614.242	83.25
614.449	88.25
614.657	93.25
614.865	92.25
615.072	92.25
615.28	101.25
615.488	72.25
615.695	107.25
615.903	100.25
616.111	98.25
616.318	109.25
616.526	98.25
616.733	87.25
616.941	96.25
617.148	99.25
617.356	98.25
617.563	86.25
617.771	88.25
617.978	93.25
618.185	98.25
618.393	83.25
618.6	94.25
618.807	69.25
619.015	84.25
619.222	83.25
619.429	96.25
619.637	101.25
619.844	99.25
620.051	84.25
620.258	83.25
620.466	77.25
620.673	86.25
620.88	73.25
621.087	89.25
621.294	88.25
621.501	96.25
621.708	84.25
621.915	90.25
622.122	84.25
622.329	85.25
622.536	76.25
622.743	69.25
622.95	79.25
623.157	92.25
623.364	92.25
623.571	92.25
623.778	93.25
623.985	93.25
624.192	97.25
624.399	93.25
624.606	90.25
624.812	83.25
625.019	78.25
625.226	78.25
625.433	100.25
625.639	91.25
625.846	90.25
626.053	79.25
626.259	78.25
626.466	95.25
626.673	83.25
626.879	96.25
627.086	99.25
627.293	92.25
627.499	82.25
627.706	83.25
627.912	77.25
628.119	83.25
628.325	88.25
628.532	84.25
628.738	80.25
628.945	85.25
629.151	86.25
629.357	94.25
629.564	78.25
629.77	98.25
629.976	84.25
630.183	86.25
630.389	84.25
630.595	89.25
630.802	72.25
631.008	81.25
631.214	80.25
631.42	83.25
631.627	75.25
631.833	84.25
632.039	97.25
632.245	84.25
632.451	82.25
632.657	75.25
632.863	73.25
633.069	75.25
633.275	79.25
633.481	77.25
633.688	72.25
633.893	83.25
634.099	84.25
634.305	70.25
634.511	86.25
634.717	86.25
634.923	91.25
635.129	89.25
635.335	76.25
635.541	73.25
635.747	74.25
635.952	76.25
636.158	80.25
636.364	86.25
636.57	91.25
636.775	87.25
636.981	89.25
637.187	93.25
637.392	83.25
637.598	84.25
637.804	84.25
638.009	86.25
638.215	88.25
638.421	98.25
638.626	94.25
638.832	88.25
639.037	97.25
639.243	86.25
639.448	89.25
639.654	87.25
639.859	81.25
640.065	86.25
640.27	90.25
640.475	84.25
640.681	88.25
640.886	78.25
641.091	88.25
641.297	88.25
641.502	83.25
641.707	89.25
641.913	85.25
642.118	85.25
642.323	86.25
642.528	85.25
642.733	87.25
642.939	96.25
643.144	86.25
643.349	88.25
643.554	94.25
643.759	87.25
643.964	83.25
644.169	85.25
644.374	100.25
644.579	86.25
644.784	84.25
644.989	82.25
645.194	74.25
645.399	91.25
645.604	104.25
645.809	97.25
646.014	98.25
646.219	93.25
646.423	86.25
646.628	86.25
646.833	77.25
647.038	89.25
647.243	92.25
647.447	90.25
647.652	92.25
647.857	90.25
648.062	76.25
648.266	88.25
648.471	86.25
648.676	98.25
648.88	84.25
649.085	105.25
649.289	91.25
649.494	102.25
649.698	143.25
649.903	96.25
650.107	88.25
650.312	94.25
650.516	64.25
650.721	86.25
650.925	86.25
651.13	97.25
651.334	71.25
651.539	85.25
651.743	79.25
651.947	91.25
652.152	72.25
652.356	87.25
652.56	90.25
652.764	93.25
652.969	86.25
653.173	76.25
653.377	80.25
653.581	81.25
653.785	75.25
653.99	85.25
654.194	92.25
654.398	88.25
654.602	86.25
654.806	87.25
655.01	92.25
655.214	98.25
655.418	92.25
655.622	94.25
655.826	85.25
656.03	61.25
656.234	93.25
656.438	115.25
656.642	95.25
656.846	80.25
657.049	81.25
657.253	84.25
657.457	83.25
657.661	105.25
657.865	69.25
658.068	94.25
658.272	91.25
658.476	93.25
658.68	66.25
658.883	69.25
659.087	81.25
659.291	89.25
659.494	76.25
659.698	90.25
659.901	89.25
660.105	94.25
660.309	81.25
660.512	92.25
660.716	83.25
660.919	89.25
661.123	98.25
661.326	94.25
661.53	88.25
661.733	89.25
661.936	96.25
662.14	90.25
662.343	80.25
662.546	80.25
662.75	88.25
662.953	82.25
663.156	92.25
663.36	87.25
663.563	93.25
663.766	84.25
663.969	89.25
664.173	94.25
664.376	75.25
664.579	81.25
664.782	90.25
664.985	92.25
665.188	80.25
665.391	76.25
665.594	82.25
665.797	87.25
666	80.25
666.203	84.25
666.406	84.25
666.609	88.25
666.812	93.25
667.015	82.25
667.218	86.25
667.421	86.25
667.624	86.25
667.827	63.25
668.03	68.25
668.232	62.25
668.435	92.25
668.638	80.25
668.841	82.25
669.043	80.25
669.246	88.25
669.449	75.25
669.651	78.25
669.854	80.25
670.057	81.25
670.259	85.25
670.462	78.25
670.665	77.25
670.867	90.25
671.07	84.25
671.272	88.25
671.475	87.25
671.677	78.25
671.88	82.25
672.082	84.25
672.284	96.25
672.487	90.25
672.689	93.25
672.892	75.25
