Data from Uncirc_1984_H10_HRD10591_00089.txt Node
Date: Wed Jan 03 12:21:55 EST 2024
User: Yrep
Spectrometer: HR+D1059
Trigger mode: 1
Integration Time (sec): 1.000000E-1
Scans to average: 1
Electric dark correction enabled: true
Nonlinearity correction enabled: false
Boxcar width: 0
XAxis mode: Wavelengths
Number of Pixels in Spectrum: 2048
>>>>>Begin Spectral Data<<<<<
223.165	-19.25
223.4	-19.25
223.635	-19.25
223.869	-19.25
224.104	-19.25
224.338	-14.25
224.573	-13.25
224.808	-2.25
225.042	-3.25
225.277	3.75
225.511	10.75
225.746	-5.25
225.98	4.75
226.215	6.75
226.449	-7.25
226.683	15.75
226.918	23.75
227.152	37.75
227.387	25.75
227.621	41.75
227.856	43.75
228.09	34.75
228.324	52.75
228.559	40.75
228.793	51.75
229.027	60.75
229.262	62.75
229.496	71.75
229.73	85.75
229.964	87.75
230.199	87.75
230.433	85.75
230.667	76.75
230.901	74.75
231.136	74.75
231.37	77.75
231.604	79.75
231.838	88.75
232.072	71.75
232.306	77.75
232.541	72.75
232.775	67.75
233.009	87.75
233.243	83.75
233.477	92.75
233.711	75.75
233.945	68.75
234.179	82.75
234.413	74.75
234.647	88.75
234.881	84.75
235.115	83.75
235.349	67.75
235.583	76.75
235.817	80.75
236.051	79.75
236.285	92.75
236.519	93.75
236.753	88.75
236.987	81.75
237.221	79.75
237.455	76.75
237.689	87.75
237.922	81.75
238.156	79.75
238.39	72.75
238.624	86.75
238.858	93.75
239.091	88.75
239.325	78.75
239.559	84.75
239.793	73.75
240.027	83.75
240.26	81.75
240.494	69.75
240.728	83.75
240.961	81.75
241.195	80.75
241.429	68.75
241.662	88.75
241.896	87.75
242.13	70.75
242.363	79.75
242.597	75.75
242.83	77.75
243.064	70.75
243.298	75.75
243.531	75.75
243.765	87.75
243.998	87.75
244.232	69.75
244.465	71.75
244.699	73.75
244.932	64.75
245.166	89.75
245.399	71.75
245.633	77.75
245.866	76.75
246.099	79.75
246.333	84.75
246.566	70.75
246.8	77.75
247.033	94.75
247.266	84.75
247.5	79.75
247.733	61.75
247.966	91.75
248.2	81.75
248.433	84.75
248.666	75.75
248.899	71.75
249.133	67.75
249.366	84.75
249.599	87.75
249.832	88.75
250.066	71.75
250.299	89.75
250.532	84.75
250.765	67.75
250.998	68.75
251.231	74.75
251.465	83.75
251.698	92.75
251.931	84.75
252.164	70.75
252.397	81.75
252.63	76.75
252.863	68.75
253.096	82.75
253.329	80.75
253.562	72.75
253.795	85.75
254.028	77.75
254.261	74.75
254.494	79.75
254.727	93.75
254.96	98.75
255.193	86.75
255.426	76.75
255.659	81.75
255.892	92.75
256.124	71.75
256.357	79.75
256.59	90.75
256.823	75.75
257.056	55.75
257.289	89.75
257.521	85.75
257.754	83.75
257.987	68.75
258.22	90.75
258.452	92.75
258.685	85.75
258.918	72.75
259.151	73.75
259.383	96.75
259.616	84.75
259.849	85.75
260.081	71.75
260.314	87.75
260.547	78.75
260.779	88.75
261.012	99.75
261.244	90.75
261.477	95.75
261.71	99.75
261.942	99.75
262.175	95.75
262.407	70.75
262.64	79.75
262.872	72.75
263.105	83.75
263.337	80.75
263.57	75.75
263.802	89.75
264.035	89.75
264.267	74.75
264.499	84.75
264.732	86.75
264.964	84.75
265.197	74.75
265.429	72.75
265.661	69.75
265.894	85.75
266.126	74.75
266.358	92.75
266.591	74.75
266.823	97.75
267.055	74.75
267.287	79.75
267.52	74.75
267.752	69.75
267.984	89.75
268.216	76.75
268.448	79.75
268.681	85.75
268.913	88.75
269.145	91.75
269.377	72.75
269.609	85.75
269.841	68.75
270.073	95.75
270.306	77.75
270.538	97.75
270.77	86.75
271.002	84.75
271.234	79.75
271.466	90.75
271.698	77.75
271.93	90.75
272.162	96.75
272.394	97.75
272.626	108.75
272.858	85.75
273.09	70.75
273.322	83.75
273.553	91.75
273.785	76.75
274.017	87.75
274.249	93.75
274.481	92.75
274.713	89.75
274.945	81.75
275.176	84.75
275.408	97.75
275.64	77.75
275.872	71.75
276.104	96.75
276.335	83.75
276.567	93.75
276.799	108.75
277.031	106.75
277.262	88.75
277.494	80.75
277.726	90.75
277.957	100.75
278.189	93.75
278.421	84.75
278.652	90.75
278.884	95.75
279.115	98.75
279.347	90.75
279.579	75.75
279.81	68.75
280.042	87.75
280.273	73.75
280.505	93.75
280.736	86.75
280.968	83.75
281.199	85.75
281.431	85.75
281.662	91.75
281.894	94.75
282.125	92.75
282.356	105.75
282.588	116.75
282.819	106.75
283.051	92.75
283.282	83.75
283.513	91.75
283.745	79.75
283.976	95.75
284.207	88.75
284.439	86.75
284.67	103.75
284.901	91.75
285.132	87.75
285.364	83.75
285.595	82.75
285.826	69.75
286.057	95.75
286.288	79.75
286.52	86.75
286.751	89.75
286.982	83.75
287.213	76.75
287.444	83.75
287.675	93.75
287.906	92.75
288.138	99.75
288.369	99.75
288.6	88.75
288.831	76.75
289.062	99.75
289.293	85.75
289.524	86.75
289.755	90.75
289.986	73.75
290.217	87.75
290.448	97.75
290.679	104.75
290.91	92.75
291.141	90.75
291.371	70.75
291.602	84.75
291.833	84.75
292.064	91.75
292.295	75.75
292.526	100.75
292.757	95.75
292.987	67.75
293.218	84.75
293.449	84.75
293.68	99.75
293.91	78.75
294.141	75.75
294.372	90.75
294.603	93.75
294.833	85.75
295.064	82.75
295.295	90.75
295.525	87.75
295.756	97.75
295.987	100.75
296.217	127.75
296.448	103.75
296.679	102.75
296.909	86.75
297.14	90.75
297.37	89.75
297.601	87.75
297.831	88.75
298.062	87.75
298.292	87.75
298.523	98.75
298.753	86.75
298.984	87.75
299.214	85.75
299.445	93.75
299.675	90.75
299.905	87.75
300.136	85.75
300.366	87.75
300.597	81.75
300.827	77.75
301.057	96.75
301.288	110.75
301.518	97.75
301.748	84.75
301.979	104.75
302.209	93.75
302.439	91.75
302.669	91.75
302.9	82.75
303.13	79.75
303.36	103.75
303.59	97.75
303.82	90.75
304.051	87.75
304.281	98.75
304.511	80.75
304.741	86.75
304.971	91.75
305.201	92.75
305.431	72.75
305.661	98.75
305.891	87.75
306.121	85.75
306.352	82.75
306.582	98.75
306.812	97.75
307.042	95.75
307.272	87.75
307.502	98.75
307.731	86.75
307.961	95.75
308.191	96.75
308.421	91.75
308.651	81.75
308.881	97.75
309.111	88.75
309.341	104.75
309.571	87.75
309.8	97.75
310.03	100.75
310.26	81.75
310.49	100.75
310.72	105.75
310.949	91.75
311.179	108.75
311.409	97.75
311.639	101.75
311.868	118.75
312.098	93.75
312.328	69.75
312.557	93.75
312.787	105.75
313.017	103.75
313.246	88.75
313.476	100.75
313.706	83.75
313.935	91.75
314.165	101.75
314.394	106.75
314.624	91.75
314.853	87.75
315.083	95.75
315.312	81.75
315.542	79.75
315.771	88.75
316.001	80.75
316.23	89.75
316.46	98.75
316.689	87.75
316.919	93.75
317.148	96.75
317.377	101.75
317.607	102.75
317.836	106.75
318.065	96.75
318.295	89.75
318.524	97.75
318.753	83.75
318.983	100.75
319.212	106.75
319.441	100.75
319.67	103.75
319.9	99.75
320.129	86.75
320.358	109.75
320.587	95.75
320.816	101.75
321.046	90.75
321.275	92.75
321.504	99.75
321.733	94.75
321.962	95.75
322.191	97.75
322.42	122.75
322.649	100.75
322.878	113.75
323.108	114.75
323.337	109.75
323.566	135.75
323.795	151.75
324.024	196.75
324.253	359.75
324.482	748.75
324.71	1499.75
324.939	1994.75
325.168	743.75
325.397	232.75
325.626	139.75
325.855	135.75
326.084	123.75
326.313	133.75
326.542	137.75
326.77	203.75
326.999	440.75
327.228	834.75
327.457	1540.75
327.686	1269.75
327.914	349.75
328.143	167.75
328.372	127.75
328.6	116.75
328.829	101.75
329.058	103.75
329.287	126.75
329.515	113.75
329.744	104.75
329.972	98.75
330.201	99.75
330.43	99.75
330.658	121.75
330.887	119.75
331.115	116.75
331.344	97.75
331.572	95.75
331.801	99.75
332.03	122.75
332.258	98.75
332.486	96.75
332.715	107.75
332.943	95.75
333.172	84.75
333.4	102.75
333.629	95.75
333.857	99.75
334.085	112.75
334.314	91.75
334.542	87.75
334.771	110.75
334.999	104.75
335.227	93.75
335.455	96.75
335.684	94.75
335.912	106.75
336.14	84.75
336.369	97.75
336.597	96.75
336.825	95.75
337.053	101.75
337.281	96.75
337.51	95.75
337.738	104.75
337.966	111.75
338.194	101.75
338.422	99.75
338.65	85.75
338.878	96.75
339.106	73.75
339.334	104.75
339.562	90.75
339.79	107.75
340.018	75.75
340.246	96.75
340.474	103.75
340.702	91.75
340.93	72.75
341.158	92.75
341.386	98.75
341.614	90.75
341.842	108.75
342.07	86.75
342.298	91.75
342.526	86.75
342.754	84.75
342.981	81.75
343.209	88.75
343.437	91.75
343.665	77.75
343.893	99.75
344.12	95.75
344.348	103.75
344.576	83.75
344.804	97.75
345.031	88.75
345.259	95.75
345.487	91.75
345.714	93.75
345.942	98.75
346.17	97.75
346.397	87.75
346.625	97.75
346.853	94.75
347.08	94.75
347.308	92.75
347.535	110.75
347.763	99.75
347.99	91.75
348.218	97.75
348.445	111.75
348.673	86.75
348.9	94.75
349.128	79.75
349.355	88.75
349.583	105.75
349.81	96.75
350.037	97.75
350.265	100.75
350.492	107.75
350.72	89.75
350.947	119.75
351.174	117.75
351.402	108.75
351.629	109.75
351.856	96.75
352.083	97.75
352.311	101.75
352.538	99.75
352.765	101.75
352.992	105.75
353.22	113.75
353.447	100.75
353.674	98.75
353.901	87.75
354.128	83.75
354.355	101.75
354.583	84.75
354.81	92.75
355.037	103.75
355.264	112.75
355.491	103.75
355.718	109.75
355.945	91.75
356.172	89.75
356.399	83.75
356.626	95.75
356.853	95.75
357.08	94.75
357.307	79.75
357.534	86.75
357.761	104.75
357.988	96.75
358.215	102.75
358.441	85.75
358.668	91.75
358.895	90.75
359.122	80.75
359.349	88.75
359.576	89.75
359.802	91.75
360.029	101.75
360.256	97.75
360.483	89.75
360.709	87.75
360.936	89.75
361.163	101.75
361.39	88.75
361.616	85.75
361.843	96.75
362.07	97.75
362.296	93.75
362.523	95.75
362.749	92.75
362.976	103.75
363.203	81.75
363.429	86.75
363.656	80.75
363.882	100.75
364.109	95.75
364.335	88.75
364.562	94.75
364.788	91.75
365.015	84.75
365.241	98.75
365.468	95.75
365.694	101.75
365.92	102.75
366.147	80.75
366.373	93.75
366.599	79.75
366.826	98.75
367.052	86.75
367.278	82.75
367.505	69.75
367.731	104.75
367.957	93.75
368.184	89.75
368.41	88.75
368.636	113.75
368.862	104.75
369.089	118.75
369.315	88.75
369.541	99.75
369.767	88.75
369.993	96.75
370.219	91.75
370.445	95.75
370.672	97.75
370.898	86.75
371.124	92.75
371.35	69.75
371.576	85.75
371.802	91.75
372.028	101.75
372.254	92.75
372.48	90.75
372.706	97.75
372.932	81.75
373.158	95.75
373.384	100.75
373.61	100.75
373.835	83.75
374.061	79.75
374.287	88.75
374.513	107.75
374.739	99.75
374.965	79.75
375.191	97.75
375.416	89.75
375.642	83.75
375.868	90.75
376.094	95.75
376.319	80.75
376.545	83.75
376.771	93.75
376.997	92.75
377.222	86.75
377.448	103.75
377.674	99.75
377.899	90.75
378.125	88.75
378.35	101.75
378.576	101.75
378.802	92.75
379.027	96.75
379.253	89.75
379.478	89.75
379.704	77.75
379.929	77.75
380.155	99.75
380.38	100.75
380.606	95.75
380.831	87.75
381.057	100.75
381.282	98.75
381.507	92.75
381.733	92.75
381.958	102.75
382.184	90.75
382.409	96.75
382.634	89.75
382.86	96.75
383.085	106.75
383.31	98.75
383.535	99.75
383.761	103.75
383.986	101.75
384.211	101.75
384.436	96.75
384.662	99.75
384.887	100.75
385.112	95.75
385.337	104.75
385.562	91.75
385.787	108.75
386.013	115.75
386.238	107.75
386.463	111.75
386.688	96.75
386.913	96.75
387.138	115.75
387.363	108.75
387.588	106.75
387.813	93.75
388.038	98.75
388.263	108.75
388.488	105.75
388.713	95.75
388.938	91.75
389.163	109.75
389.387	92.75
389.612	92.75
389.837	99.75
390.062	103.75
390.287	93.75
390.512	97.75
390.736	95.75
390.961	84.75
391.186	96.75
391.411	95.75
391.636	104.75
391.86	100.75
392.085	89.75
392.31	94.75
392.534	89.75
392.759	87.75
392.984	72.75
393.208	77.75
393.433	80.75
393.658	97.75
393.882	88.75
394.107	91.75
394.331	92.75
394.556	86.75
394.78	76.75
395.005	83.75
395.229	93.75
395.454	87.75
395.678	91.75
395.903	92.75
396.127	87.75
396.352	83.75
396.576	76.75
396.801	85.75
397.025	81.75
397.249	94.75
397.474	77.75
397.698	89.75
397.922	88.75
398.147	85.75
398.371	89.75
398.595	92.75
398.82	76.75
399.044	91.75
399.268	90.75
399.492	88.75
399.717	91.75
399.941	107.75
400.165	98.75
400.389	83.75
400.613	81.75
400.837	83.75
401.062	84.75
401.286	99.75
401.51	90.75
401.734	88.75
401.958	111.75
402.182	118.75
402.406	145.75
402.63	117.75
402.854	101.75
403.078	87.75
403.302	100.75
403.526	99.75
403.75	95.75
403.974	95.75
404.198	104.75
404.422	55.75
404.645	91.75
404.869	78.75
405.093	96.75
405.317	108.75
405.541	96.75
405.765	95.75
405.988	114.75
406.212	156.75
406.436	217.75
406.66	125.75
406.883	88.75
407.107	86.75
407.331	79.75
407.555	108.75
407.778	87.75
408.002	98.75
408.226	87.75
408.449	98.75
408.673	106.75
408.896	92.75
409.12	101.75
409.344	90.75
409.567	99.75
409.791	90.75
410.014	88.75
410.238	105.75
410.461	92.75
410.685	101.75
410.908	94.75
411.132	113.75
411.355	82.75
411.578	87.75
411.802	85.75
412.025	92.75
412.249	88.75
412.472	98.75
412.695	95.75
412.919	96.75
413.142	88.75
413.365	104.75
413.589	102.75
413.812	104.75
414.035	83.75
414.258	91.75
414.482	91.75
414.705	90.75
414.928	92.75
415.151	94.75
415.374	85.75
415.597	91.75
415.821	88.75
416.044	92.75
416.267	92.75
416.49	93.75
416.713	92.75
416.936	101.75
417.159	97.75
417.382	87.75
417.605	99.75
417.828	80.75
418.051	89.75
418.274	83.75
418.497	92.75
418.72	91.75
418.943	99.75
419.166	84.75
419.389	100.75
419.611	93.75
419.834	83.75
420.057	100.75
420.28	81.75
420.503	100.75
420.726	87.75
420.948	99.75
421.171	100.75
421.394	101.75
421.617	85.75
421.839	95.75
422.062	78.75
422.285	93.75
422.507	95.75
422.73	100.75
422.953	91.75
423.175	92.75
423.398	97.75
423.621	92.75
423.843	83.75
424.066	93.75
424.288	99.75
424.511	98.75
424.733	93.75
424.956	117.75
425.178	99.75
425.401	98.75
425.623	85.75
425.846	89.75
426.068	94.75
426.291	79.75
426.513	97.75
426.735	93.75
426.958	100.75
427.18	111.75
427.402	127.75
427.625	143.75
427.847	113.75
428.069	103.75
428.292	87.75
428.514	81.75
428.736	95.75
428.958	85.75
429.181	83.75
429.403	92.75
429.625	87.75
429.847	95.75
430.069	99.75
430.292	89.75
430.514	85.75
430.736	104.75
430.958	88.75
431.18	88.75
431.402	98.75
431.624	86.75
431.846	92.75
432.068	73.75
432.29	99.75
432.512	90.75
432.734	78.75
432.956	85.75
433.178	91.75
433.4	97.75
433.622	94.75
433.844	94.75
434.066	82.75
434.287	102.75
434.509	92.75
434.731	95.75
434.953	96.75
435.175	87.75
435.397	90.75
435.618	87.75
435.84	96.75
436.062	120.75
436.284	97.75
436.505	104.75
436.727	89.75
436.949	89.75
437.17	99.75
437.392	96.75
437.614	100.75
437.835	91.75
438.057	127.75
438.278	101.75
438.5	95.75
438.721	136.75
438.943	108.75
439.165	85.75
439.386	88.75
439.608	86.75
439.829	79.75
440.05	120.75
440.272	117.75
440.493	90.75
440.715	85.75
440.936	96.75
441.158	102.75
441.379	98.75
441.6	95.75
441.822	101.75
442.043	89.75
442.264	85.75
442.486	90.75
442.707	89.75
442.928	89.75
443.149	128.75
443.371	121.75
443.592	120.75
443.813	107.75
444.034	100.75
444.255	97.75
444.476	93.75
444.698	94.75
444.919	93.75
445.14	157.75
445.361	119.75
445.582	122.75
445.803	136.75
446.024	143.75
446.245	155.75
446.466	102.75
446.687	90.75
446.908	105.75
447.129	97.75
447.35	98.75
447.571	77.75
447.792	102.75
448.013	93.75
448.234	93.75
448.455	100.75
448.675	111.75
448.896	109.75
449.117	100.75
449.338	115.75
449.559	133.75
449.779	139.75
450	91.75
450.221	90.75
450.442	87.75
450.662	96.75
450.883	99.75
451.104	105.75
451.324	93.75
451.545	79.75
451.766	91.75
451.986	81.75
452.207	105.75
452.428	91.75
452.648	99.75
452.869	86.75
453.089	113.75
453.31	113.75
453.53	113.75
453.751	96.75
453.971	93.75
454.192	97.75
454.412	89.75
454.633	97.75
454.853	96.75
455.073	94.75
455.294	94.75
455.514	81.75
455.734	98.75
455.955	95.75
456.175	95.75
456.395	89.75
456.616	91.75
456.836	80.75
457.056	72.75
457.276	85.75
457.497	90.75
457.717	85.75
457.937	80.75
458.157	84.75
458.377	94.75
458.598	109.75
458.818	143.75
459.038	143.75
459.258	101.75
459.478	105.75
459.698	89.75
459.918	101.75
460.138	101.75
460.358	88.75
460.578	94.75
460.798	92.75
461.018	103.75
461.238	79.75
461.458	87.75
461.678	88.75
461.898	88.75
462.118	98.75
462.338	88.75
462.558	97.75
462.777	96.75
462.997	96.75
463.217	92.75
463.437	73.75
463.657	90.75
463.876	92.75
464.096	96.75
464.316	96.75
464.536	96.75
464.755	88.75
464.975	106.75
465.195	146.75
465.414	153.75
465.634	99.75
465.854	94.75
466.073	99.75
466.293	91.75
466.512	83.75
466.732	87.75
466.951	97.75
467.171	93.75
467.391	89.75
467.61	97.75
467.829	105.75
468.049	94.75
468.268	91.75
468.488	94.75
468.707	101.75
468.927	72.75
469.146	83.75
469.365	77.75
469.585	85.75
469.804	96.75
470.023	92.75
470.243	100.75
470.462	100.75
470.681	107.75
470.901	95.75
471.12	91.75
471.339	88.75
471.558	86.75
471.777	96.75
471.997	100.75
472.216	98.75
472.435	92.75
472.654	83.75
472.873	90.75
473.092	86.75
473.311	83.75
473.53	99.75
473.749	94.75
473.968	92.75
474.187	93.75
474.406	79.75
474.625	94.75
474.844	81.75
475.063	86.75
475.282	93.75
475.501	88.75
475.72	95.75
475.939	87.75
476.158	90.75
476.377	80.75
476.596	90.75
476.814	96.75
477.033	96.75
477.252	101.75
477.471	85.75
477.69	96.75
477.908	104.75
478.127	91.75
478.346	89.75
478.564	91.75
478.783	84.75
479.002	89.75
479.22	96.75
479.439	88.75
479.658	89.75
479.876	96.75
480.095	107.75
480.313	103.75
480.532	97.75
480.751	105.75
480.969	109.75
481.188	111.75
481.406	97.75
481.624	92.75
481.843	85.75
482.061	93.75
482.28	87.75
482.498	97.75
482.717	85.75
482.935	88.75
483.153	86.75
483.372	89.75
483.59	96.75
483.808	87.75
484.027	90.75
484.245	94.75
484.463	87.75
484.681	89.75
484.9	90.75
485.118	98.75
485.336	108.75
485.554	101.75
485.772	96.75
485.99	103.75
486.209	92.75
486.427	98.75
486.645	115.75
486.863	102.75
487.081	79.75
487.299	108.75
487.517	89.75
487.735	93.75
487.953	93.75
488.171	101.75
488.389	92.75
488.607	89.75
488.825	87.75
489.043	82.75
489.261	95.75
489.479	87.75
489.696	98.75
489.914	86.75
490.132	74.75
490.35	92.75
490.568	84.75
490.786	96.75
491.003	89.75
491.221	83.75
491.439	89.75
491.657	90.75
491.874	91.75
492.092	93.75
492.31	97.75
492.527	98.75
492.745	95.75
492.963	89.75
493.18	101.75
493.398	87.75
493.615	93.75
493.833	101.75
494.05	77.75
494.268	91.75
494.485	97.75
494.703	105.75
494.92	79.75
495.138	108.75
495.355	87.75
495.573	87.75
495.79	96.75
496.008	83.75
496.225	104.75
496.442	86.75
496.66	92.75
496.877	108.75
497.094	95.75
497.312	97.75
497.529	97.75
497.746	91.75
497.963	105.75
498.181	97.75
498.398	101.75
498.615	108.75
498.832	102.75
499.049	111.75
499.267	105.75
499.484	91.75
499.701	88.75
499.918	77.75
500.135	80.75
500.352	94.75
500.569	97.75
500.786	98.75
501.003	84.75
501.22	87.75
501.437	88.75
501.654	82.75
501.871	108.75
502.088	88.75
502.305	90.75
502.522	87.75
502.739	93.75
502.956	88.75
503.172	104.75
503.389	91.75
503.606	99.75
503.823	88.75
504.04	93.75
504.256	82.75
504.473	82.75
504.69	96.75
504.907	99.75
505.123	93.75
505.34	75.75
505.557	90.75
505.773	98.75
505.99	77.75
506.207	95.75
506.423	85.75
506.64	96.75
506.856	99.75
507.073	91.75
507.289	85.75
507.506	96.75
507.722	101.75
507.939	105.75
508.155	94.75
508.372	88.75
508.588	80.75
508.805	109.75
509.021	90.75
509.238	97.75
509.454	111.75
509.67	98.75
509.887	111.75
510.103	118.75
510.319	200.75
510.536	687.75
510.752	2133.75
510.968	603.75
511.184	152.75
511.401	111.75
511.617	103.75
511.833	107.75
512.049	99.75
512.265	101.75
512.481	108.75
512.698	92.75
512.914	100.75
513.13	92.75
513.346	91.75
513.562	89.75
513.778	104.75
513.994	99.75
514.21	100.75
514.426	115.75
514.642	124.75
514.858	119.75
515.074	152.75
515.29	385.75
515.506	1284.75
515.721	487.75
515.937	144.75
516.153	113.75
516.369	94.75
516.585	97.75
516.801	103.75
517.016	95.75
517.232	79.75
517.448	92.75
517.664	91.75
517.879	87.75
518.095	102.75
518.311	91.75
518.527	84.75
518.742	96.75
518.958	84.75
519.173	95.75
519.389	99.75
519.605	119.75
519.82	83.75
520.036	101.75
520.251	105.75
520.467	113.75
520.682	102.75
520.898	108.75
521.113	116.75
521.329	136.75
521.544	192.75
521.76	479.75
521.975	2131.75
522.19	1263.75
522.406	272.75
522.621	123.75
522.836	96.75
523.052	99.75
523.267	100.75
523.482	97.75
523.698	99.75
523.913	109.75
524.128	88.75
524.343	84.75
524.559	102.75
524.774	95.75
524.989	92.75
525.204	105.75
525.419	103.75
525.634	99.75
525.849	101.75
526.064	91.75
526.28	88.75
526.495	82.75
526.71	100.75
526.925	83.75
527.14	98.75
527.355	85.75
527.57	111.75
527.785	85.75
527.999	89.75
528.214	85.75
528.429	83.75
528.644	101.75
528.859	89.75
529.074	103.75
529.289	125.75
529.503	165.75
529.718	107.75
529.933	92.75
530.148	84.75
530.363	79.75
530.577	97.75
530.792	92.75
531.007	83.75
531.221	85.75
531.436	88.75
531.651	101.75
531.865	91.75
532.08	84.75
532.295	95.75
532.509	83.75
532.724	95.75
532.938	84.75
533.153	101.75
533.367	99.75
533.582	77.75
533.796	99.75
534.011	91.75
534.225	72.75
534.44	95.75
534.654	88.75
534.868	102.75
535.083	83.75
535.297	87.75
535.511	112.75
535.726	100.75
535.94	88.75
536.154	93.75
536.369	95.75
536.583	88.75
536.797	100.75
537.011	85.75
537.225	86.75
537.44	87.75
537.654	94.75
537.868	86.75
538.082	100.75
538.296	89.75
538.51	92.75
538.724	90.75
538.938	103.75
539.153	90.75
539.367	109.75
539.581	88.75
539.795	99.75
540.009	83.75
540.222	96.75
540.436	104.75
540.65	90.75
540.864	88.75
541.078	90.75
541.292	89.75
541.506	98.75
541.72	96.75
541.934	91.75
542.147	92.75
542.361	89.75
542.575	89.75
542.789	92.75
543.002	84.75
543.216	75.75
543.43	96.75
543.644	93.75
543.857	103.75
544.071	90.75
544.285	91.75
544.498	98.75
544.712	106.75
544.925	79.75
545.139	84.75
545.352	84.75
545.566	86.75
545.779	85.75
545.993	91.75
546.206	81.75
546.42	88.75
546.633	83.75
546.847	90.75
547.06	76.75
547.274	90.75
547.487	98.75
547.7	81.75
547.914	86.75
548.127	79.75
548.34	98.75
548.554	93.75
548.767	81.75
548.98	91.75
549.193	93.75
549.407	92.75
549.62	81.75
549.833	76.75
550.046	93.75
550.259	99.75
550.473	99.75
550.686	94.75
550.899	81.75
551.112	80.75
551.325	105.75
551.538	93.75
551.751	93.75
551.964	98.75
552.177	86.75
552.39	89.75
552.603	95.75
552.816	81.75
553.029	84.75
553.242	104.75
553.455	96.75
553.667	119.75
553.88	90.75
554.093	82.75
554.306	99.75
554.519	94.75
554.732	97.75
554.944	89.75
555.157	88.75
555.37	87.75
555.583	90.75
555.795	95.75
556.008	98.75
556.221	100.75
556.433	89.75
556.646	81.75
556.859	78.75
557.071	81.75
557.284	88.75
557.496	93.75
557.709	90.75
557.921	96.75
558.134	82.75
558.346	95.75
558.559	92.75
558.771	86.75
558.984	88.75
559.196	82.75
559.409	96.75
559.621	94.75
559.833	90.75
560.046	83.75
560.258	85.75
560.47	90.75
560.683	90.75
560.895	89.75
561.107	107.75
561.32	96.75
561.532	98.75
561.744	84.75
561.956	81.75
562.168	99.75
562.381	97.75
562.593	91.75
562.805	104.75
563.017	77.75
563.229	97.75
563.441	108.75
563.653	101.75
563.865	93.75
564.077	105.75
564.289	86.75
564.501	89.75
564.713	81.75
564.925	88.75
565.137	117.75
565.349	93.75
565.561	81.75
565.773	93.75
565.985	79.75
566.197	91.75
566.408	90.75
566.62	82.75
566.832	95.75
567.044	95.75
567.255	100.75
567.467	84.75
567.679	88.75
567.891	100.75
568.102	91.75
568.314	88.75
568.526	88.75
568.737	92.75
568.949	88.75
569.161	80.75
569.372	83.75
569.584	83.75
569.795	97.75
570.007	104.75
570.218	214.75
570.43	139.75
570.641	81.75
570.853	85.75
571.064	80.75
571.276	88.75
571.487	94.75
571.698	91.75
571.91	103.75
572.121	81.75
572.333	91.75
572.544	72.75
572.755	84.75
572.966	92.75
573.178	84.75
573.389	82.75
573.6	83.75
573.811	95.75
574.023	92.75
574.234	75.75
574.445	88.75
574.656	85.75
574.867	82.75
575.078	92.75
575.289	85.75
575.501	79.75
575.712	83.75
575.923	87.75
576.134	104.75
576.345	84.75
576.556	102.75
576.767	92.75
576.978	94.75
577.188	86.75
577.399	91.75
577.61	82.75
577.821	87.75
578.032	100.75
578.243	259.75
578.454	703.75
578.665	199.75
578.875	109.75
579.086	87.75
579.297	86.75
579.508	97.75
579.718	94.75
579.929	76.75
580.14	104.75
580.35	81.75
580.561	89.75
580.772	78.75
580.982	76.75
581.193	97.75
581.403	97.75
581.614	81.75
581.825	86.75
582.035	95.75
582.246	83.75
582.456	82.75
582.667	86.75
582.877	77.75
583.087	81.75
583.298	87.75
583.508	91.75
583.719	79.75
583.929	82.75
584.139	78.75
584.35	92.75
584.56	83.75
584.77	87.75
584.981	85.75
585.191	99.75
585.401	88.75
585.611	99.75
585.821	92.75
586.032	85.75
586.242	89.75
586.452	80.75
586.662	108.75
586.872	89.75
587.082	84.75
587.292	89.75
587.502	91.75
587.713	90.75
587.923	85.75
588.133	93.75
588.343	91.75
588.553	86.75
588.762	100.75
588.972	89.75
589.182	84.75
589.392	84.75
589.602	75.75
589.812	87.75
590.022	75.75
590.232	83.75
590.441	71.75
590.651	93.75
590.861	81.75
591.071	74.75
591.281	99.75
591.49	79.75
591.7	87.75
591.91	81.75
592.119	93.75
592.329	101.75
592.539	94.75
592.748	100.75
592.958	87.75
593.167	80.75
593.377	84.75
593.587	83.75
593.796	88.75
594.006	81.75
594.215	73.75
594.424	91.75
594.634	79.75
594.843	81.75
595.053	88.75
595.262	91.75
595.472	93.75
595.681	91.75
595.89	81.75
596.1	84.75
596.309	75.75
596.518	90.75
596.727	96.75
596.937	100.75
597.146	92.75
597.355	82.75
597.564	75.75
597.774	93.75
597.983	88.75
598.192	96.75
598.401	86.75
598.61	77.75
598.819	90.75
599.028	91.75
599.237	88.75
599.446	81.75
599.655	95.75
599.864	82.75
600.073	89.75
600.282	88.75
600.491	96.75
600.7	90.75
600.909	83.75
601.118	97.75
601.327	82.75
601.536	84.75
601.745	89.75
601.953	76.75
602.162	81.75
602.371	95.75
602.58	96.75
602.789	80.75
602.997	78.75
603.206	83.75
603.415	87.75
603.623	84.75
603.832	89.75
604.041	84.75
604.249	77.75
604.458	71.75
604.666	77.75
604.875	81.75
605.084	70.75
605.292	90.75
605.501	85.75
605.709	94.75
605.918	101.75
606.126	93.75
606.334	89.75
606.543	89.75
606.751	84.75
606.96	81.75
607.168	85.75
607.376	92.75
607.585	73.75
607.793	80.75
608.001	85.75
608.21	76.75
608.418	76.75
608.626	79.75
608.834	89.75
609.043	88.75
609.251	79.75
609.459	82.75
609.667	81.75
609.875	87.75
610.083	84.75
610.291	87.75
610.499	86.75
610.707	81.75
610.916	79.75
611.124	81.75
611.332	66.75
611.54	85.75
611.748	91.75
611.955	79.75
612.163	68.75
612.371	79.75
612.579	81.75
612.787	73.75
612.995	83.75
613.203	88.75
613.411	91.75
613.618	82.75
613.826	86.75
614.034	76.75
614.242	90.75
614.449	93.75
614.657	96.75
614.865	82.75
615.072	87.75
615.28	84.75
615.488	97.75
615.695	89.75
615.903	81.75
616.111	93.75
616.318	96.75
616.526	85.75
616.733	99.75
616.941	83.75
617.148	79.75
617.356	80.75
617.563	82.75
617.771	79.75
617.978	82.75
618.185	86.75
618.393	99.75
618.6	85.75
618.807	76.75
619.015	101.75
619.222	83.75
619.429	77.75
619.637	71.75
619.844	76.75
620.051	88.75
620.258	89.75
620.466	67.75
620.673	72.75
620.88	91.75
621.087	85.75
621.294	91.75
621.501	68.75
621.708	85.75
621.915	80.75
622.122	81.75
622.329	74.75
622.536	95.75
622.743	68.75
622.95	85.75
623.157	70.75
623.364	81.75
623.571	93.75
623.778	93.75
623.985	96.75
624.192	96.75
624.399	86.75
624.606	91.75
624.812	90.75
625.019	86.75
625.226	86.75
625.433	91.75
625.639	82.75
625.846	78.75
626.053	76.75
626.259	88.75
626.466	69.75
626.673	95.75
626.879	85.75
627.086	68.75
627.293	85.75
627.499	99.75
627.706	95.75
627.912	87.75
628.119	76.75
628.325	79.75
628.532	79.75
628.738	95.75
628.945	82.75
629.151	72.75
629.357	79.75
629.564	94.75
629.77	90.75
629.976	89.75
630.183	82.75
630.389	86.75
630.595	88.75
630.802	79.75
631.008	85.75
631.214	82.75
631.42	74.75
631.627	84.75
631.833	81.75
632.039	80.75
632.245	74.75
632.451	89.75
632.657	81.75
632.863	88.75
633.069	83.75
633.275	90.75
633.481	71.75
633.688	94.75
633.893	84.75
634.099	75.75
634.305	75.75
634.511	69.75
634.717	91.75
634.923	79.75
635.129	91.75
635.335	82.75
635.541	85.75
635.747	85.75
635.952	91.75
636.158	74.75
636.364	81.75
636.57	87.75
636.775	80.75
636.981	61.75
637.187	81.75
637.392	85.75
637.598	70.75
637.804	85.75
638.009	89.75
638.215	85.75
638.421	77.75
638.626	90.75
638.832	85.75
639.037	91.75
639.243	89.75
639.448	91.75
639.654	90.75
639.859	81.75
640.065	81.75
640.27	84.75
640.475	73.75
640.681	85.75
640.886	87.75
641.091	97.75
641.297	95.75
641.502	88.75
641.707	84.75
641.913	88.75
642.118	88.75
642.323	81.75
642.528	96.75
642.733	94.75
642.939	91.75
643.144	91.75
643.349	85.75
643.554	80.75
643.759	86.75
643.964	65.75
644.169	79.75
644.374	93.75
644.579	84.75
644.784	83.75
644.989	83.75
645.194	85.75
645.399	87.75
645.604	81.75
645.809	76.75
646.014	76.75
646.219	96.75
646.423	86.75
646.628	84.75
646.833	89.75
647.038	91.75
647.243	81.75
647.447	83.75
647.652	95.75
647.857	89.75
648.062	94.75
648.266	69.75
648.471	85.75
648.676	84.75
648.88	85.75
649.085	86.75
649.289	88.75
649.494	107.75
649.698	140.75
649.903	115.75
650.107	89.75
650.312	81.75
650.516	100.75
650.721	87.75
650.925	77.75
651.13	79.75
651.334	86.75
651.539	82.75
651.743	86.75
651.947	83.75
652.152	87.75
652.356	86.75
652.56	76.75
652.764	78.75
652.969	86.75
653.173	74.75
653.377	92.75
653.581	83.75
653.785	72.75
653.99	85.75
654.194	93.75
654.398	88.75
654.602	95.75
654.806	100.75
655.01	107.75
655.214	92.75
655.418	101.75
655.622	83.75
655.826	99.75
656.03	70.75
656.234	92.75
656.438	93.75
656.642	94.75
656.846	91.75
657.049	89.75
657.253	88.75
657.457	90.75
657.661	88.75
657.865	75.75
658.068	79.75
658.272	65.75
658.476	80.75
658.68	83.75
658.883	79.75
659.087	82.75
659.291	94.75
659.494	85.75
659.698	81.75
659.901	85.75
660.105	92.75
660.309	76.75
660.512	86.75
660.716	72.75
660.919	89.75
661.123	66.75
661.326	79.75
661.53	76.75
661.733	87.75
661.936	70.75
662.14	86.75
662.343	99.75
662.546	70.75
662.75	74.75
662.953	72.75
663.156	76.75
663.36	89.75
663.563	93.75
663.766	66.75
663.969	81.75
664.173	85.75
664.376	88.75
664.579	84.75
664.782	74.75
664.985	82.75
665.188	81.75
665.391	82.75
665.594	66.75
665.797	86.75
666	81.75
666.203	80.75
666.406	96.75
666.609	87.75
666.812	70.75
667.015	77.75
667.218	84.75
667.421	82.75
667.624	77.75
667.827	80.75
668.03	83.75
668.232	81.75
668.435	77.75
668.638	80.75
668.841	91.75
669.043	85.75
669.246	81.75
669.449	67.75
669.651	89.75
669.854	80.75
670.057	89.75
670.259	94.75
670.462	81.75
670.665	65.75
670.867	85.75
671.07	82.75
671.272	90.75
671.475	95.75
671.677	69.75
671.88	87.75
672.082	65.75
672.284	96.75
672.487	75.75
672.689	68.75
672.892	74.75
