Data from Uncirc_1984_H10_HRD10591_00055.txt Node
Date: Wed Jan 03 12:21:48 EST 2024
User: Yrep
Spectrometer: HR+D1059
Trigger mode: 1
Integration Time (sec): 1.000000E-1
Scans to average: 1
Electric dark correction enabled: true
Nonlinearity correction enabled: false
Boxcar width: 0
XAxis mode: Wavelengths
Number of Pixels in Spectrum: 2048
>>>>>Begin Spectral Data<<<<<
223.165	-16.19
223.4	-16.19
223.635	-16.19
223.869	-9.19
224.104	-4.19
224.338	-14.19
224.573	-23.19
224.808	-14.19
225.042	-7.19
225.277	-11.19
225.511	2.81
225.746	11.81
225.98	12.81
226.215	10.81
226.449	-0.19
226.683	22.81
226.918	19.81
227.152	18.81
227.387	17.81
227.621	50.81
227.856	44.81
228.09	55.81
228.324	30.81
228.559	53.81
228.793	53.81
229.027	61.81
229.262	72.81
229.496	57.81
229.73	82.81
229.964	82.81
230.199	74.81
230.433	71.81
230.667	82.81
230.901	70.81
231.136	70.81
231.37	70.81
231.604	74.81
231.838	74.81
232.072	74.81
232.306	81.81
232.541	74.81
232.775	78.81
233.009	86.81
233.243	80.81
233.477	82.81
233.711	75.81
233.945	71.81
234.179	90.81
234.413	80.81
234.647	66.81
234.881	67.81
235.115	77.81
235.349	72.81
235.583	75.81
235.817	84.81
236.051	84.81
236.285	78.81
236.519	75.81
236.753	82.81
236.987	80.81
237.221	77.81
237.455	62.81
237.689	86.81
237.922	79.81
238.156	73.81
238.39	71.81
238.624	75.81
238.858	76.81
239.091	64.81
239.325	72.81
239.559	75.81
239.793	76.81
240.027	78.81
240.26	66.81
240.494	67.81
240.728	71.81
240.961	73.81
241.195	73.81
241.429	65.81
241.662	65.81
241.896	82.81
242.13	78.81
242.363	72.81
242.597	78.81
242.83	72.81
243.064	82.81
243.298	73.81
243.531	78.81
243.765	76.81
243.998	68.81
244.232	76.81
244.465	70.81
244.699	68.81
244.932	78.81
245.166	82.81
245.399	78.81
245.633	93.81
245.866	60.81
246.099	56.81
246.333	72.81
246.566	71.81
246.8	70.81
247.033	83.81
247.266	75.81
247.5	80.81
247.733	78.81
247.966	79.81
248.2	82.81
248.433	70.81
248.666	78.81
248.899	66.81
249.133	82.81
249.366	81.81
249.599	83.81
249.832	80.81
250.066	87.81
250.299	74.81
250.532	68.81
250.765	80.81
250.998	92.81
251.231	93.81
251.465	87.81
251.698	68.81
251.931	84.81
252.164	78.81
252.397	67.81
252.63	90.81
252.863	73.81
253.096	69.81
253.329	87.81
253.562	77.81
253.795	92.81
254.028	79.81
254.261	86.81
254.494	75.81
254.727	86.81
254.96	82.81
255.193	75.81
255.426	83.81
255.659	72.81
255.892	91.81
256.124	74.81
256.357	92.81
256.59	97.81
256.823	83.81
257.056	83.81
257.289	83.81
257.521	70.81
257.754	84.81
257.987	73.81
258.22	90.81
258.452	79.81
258.685	68.81
258.918	80.81
259.151	85.81
259.383	85.81
259.616	82.81
259.849	79.81
260.081	75.81
260.314	91.81
260.547	84.81
260.779	78.81
261.012	84.81
261.244	78.81
261.477	94.81
261.71	94.81
261.942	86.81
262.175	96.81
262.407	98.81
262.64	93.81
262.872	78.81
263.105	83.81
263.337	74.81
263.57	81.81
263.802	72.81
264.035	67.81
264.267	68.81
264.499	87.81
264.732	80.81
264.964	74.81
265.197	78.81
265.429	83.81
265.661	92.81
265.894	71.81
266.126	86.81
266.358	97.81
266.591	83.81
266.823	80.81
267.055	75.81
267.287	79.81
267.52	84.81
267.752	78.81
267.984	87.81
268.216	82.81
268.448	80.81
268.681	100.81
268.913	96.81
269.145	89.81
269.377	76.81
269.609	78.81
269.841	84.81
270.073	71.81
270.306	87.81
270.538	81.81
270.77	69.81
271.002	89.81
271.234	86.81
271.466	68.81
271.698	80.81
271.93	87.81
272.162	87.81
272.394	89.81
272.626	91.81
272.858	79.81
273.09	84.81
273.322	71.81
273.553	74.81
273.785	80.81
274.017	82.81
274.249	75.81
274.481	80.81
274.713	90.81
274.945	85.81
275.176	84.81
275.408	86.81
275.64	75.81
275.872	71.81
276.104	92.81
276.335	86.81
276.567	91.81
276.799	100.81
277.031	98.81
277.262	84.81
277.494	94.81
277.726	85.81
277.957	87.81
278.189	76.81
278.421	79.81
278.652	87.81
278.884	71.81
279.115	84.81
279.347	76.81
279.579	88.81
279.81	93.81
280.042	89.81
280.273	75.81
280.505	80.81
280.736	91.81
280.968	86.81
281.199	81.81
281.431	86.81
281.662	94.81
281.894	87.81
282.125	105.81
282.356	115.81
282.588	124.81
282.819	99.81
283.051	96.81
283.282	80.81
283.513	80.81
283.745	93.81
283.976	80.81
284.207	94.81
284.439	84.81
284.67	86.81
284.901	83.81
285.132	88.81
285.364	86.81
285.595	89.81
285.826	81.81
286.057	86.81
286.288	78.81
286.52	89.81
286.751	82.81
286.982	94.81
287.213	87.81
287.444	91.81
287.675	93.81
287.906	85.81
288.138	86.81
288.369	100.81
288.6	98.81
288.831	82.81
289.062	80.81
289.293	90.81
289.524	88.81
289.755	98.81
289.986	88.81
290.217	91.81
290.448	82.81
290.679	87.81
290.91	73.81
291.141	88.81
291.371	88.81
291.602	85.81
291.833	87.81
292.064	84.81
292.295	64.81
292.526	94.81
292.757	89.81
292.987	85.81
293.218	91.81
293.449	84.81
293.68	82.81
293.91	81.81
294.141	84.81
294.372	92.81
294.603	88.81
294.833	76.81
295.064	86.81
295.295	89.81
295.525	91.81
295.756	108.81
295.987	103.81
296.217	128.81
296.448	96.81
296.679	90.81
296.909	73.81
297.14	84.81
297.37	82.81
297.601	89.81
297.831	85.81
298.062	89.81
298.292	78.81
298.523	82.81
298.753	74.81
298.984	90.81
299.214	87.81
299.445	69.81
299.675	87.81
299.905	88.81
300.136	86.81
300.366	79.81
300.597	85.81
300.827	90.81
301.057	90.81
301.288	92.81
301.518	96.81
301.748	94.81
301.979	111.81
302.209	102.81
302.439	91.81
302.669	88.81
302.9	91.81
303.13	90.81
303.36	98.81
303.59	94.81
303.82	102.81
304.051	91.81
304.281	86.81
304.511	99.81
304.741	92.81
304.971	70.81
305.201	84.81
305.431	93.81
305.661	101.81
305.891	86.81
306.121	100.81
306.352	94.81
306.582	97.81
306.812	91.81
307.042	90.81
307.272	98.81
307.502	98.81
307.731	90.81
307.961	90.81
308.191	81.81
308.421	86.81
308.651	88.81
308.881	84.81
309.111	94.81
309.341	91.81
309.571	84.81
309.8	95.81
310.03	109.81
310.26	106.81
310.49	88.81
310.72	85.81
310.949	84.81
311.179	102.81
311.409	96.81
311.639	96.81
311.868	98.81
312.098	89.81
312.328	85.81
312.557	110.81
312.787	104.81
313.017	94.81
313.246	86.81
313.476	109.81
313.706	96.81
313.935	96.81
314.165	94.81
314.394	96.81
314.624	83.81
314.853	94.81
315.083	93.81
315.312	87.81
315.542	102.81
315.771	107.81
316.001	91.81
316.23	89.81
316.46	87.81
316.689	81.81
316.919	90.81
317.148	88.81
317.377	110.81
317.607	82.81
317.836	98.81
318.065	78.81
318.295	96.81
318.524	83.81
318.753	64.81
318.983	96.81
319.212	88.81
319.441	92.81
319.67	97.81
319.9	90.81
320.129	108.81
320.358	100.81
320.587	94.81
320.816	84.81
321.046	84.81
321.275	106.81
321.504	94.81
321.733	79.81
321.962	86.81
322.191	87.81
322.42	96.81
322.649	105.81
322.878	112.81
323.108	105.81
323.337	103.81
323.566	130.81
323.795	136.81
324.024	172.81
324.253	327.81
324.482	661.81
324.71	1369.81
324.939	1832.81
325.168	682.81
325.397	229.81
325.626	130.81
325.855	111.81
326.084	123.81
326.313	124.81
326.542	148.81
326.77	188.81
326.999	372.81
327.228	783.81
327.457	1425.81
327.686	1143.81
327.914	320.81
328.143	179.81
328.372	130.81
328.6	126.81
328.829	117.81
329.058	111.81
329.287	117.81
329.515	109.81
329.744	87.81
329.972	99.81
330.201	99.81
330.43	89.81
330.658	107.81
330.887	120.81
331.115	104.81
331.344	101.81
331.572	97.81
331.801	100.81
332.03	94.81
332.258	95.81
332.486	75.81
332.715	76.81
332.943	88.81
333.172	84.81
333.4	95.81
333.629	103.81
333.857	103.81
334.085	113.81
334.314	104.81
334.542	91.81
334.771	90.81
334.999	92.81
335.227	99.81
335.455	103.81
335.684	102.81
335.912	87.81
336.14	91.81
336.369	98.81
336.597	97.81
336.825	91.81
337.053	86.81
337.281	82.81
337.51	86.81
337.738	96.81
337.966	91.81
338.194	104.81
338.422	90.81
338.65	90.81
338.878	76.81
339.106	91.81
339.334	90.81
339.562	89.81
339.79	89.81
340.018	90.81
340.246	106.81
340.474	86.81
340.702	87.81
340.93	105.81
341.158	91.81
341.386	94.81
341.614	99.81
341.842	85.81
342.07	103.81
342.298	88.81
342.526	99.81
342.754	90.81
342.981	73.81
343.209	82.81
343.437	92.81
343.665	78.81
343.893	72.81
344.12	94.81
344.348	80.81
344.576	100.81
344.804	96.81
345.031	96.81
345.259	95.81
345.487	98.81
345.714	93.81
345.942	86.81
346.17	101.81
346.397	91.81
346.625	92.81
346.853	99.81
347.08	85.81
347.308	86.81
347.535	105.81
347.763	92.81
347.99	99.81
348.218	83.81
348.445	103.81
348.673	103.81
348.9	95.81
349.128	71.81
349.355	95.81
349.583	92.81
349.81	82.81
350.037	95.81
350.265	93.81
350.492	99.81
350.72	97.81
350.947	86.81
351.174	98.81
351.402	112.81
351.629	96.81
351.856	97.81
352.083	104.81
352.311	100.81
352.538	123.81
352.765	106.81
352.992	99.81
353.22	99.81
353.447	100.81
353.674	98.81
353.901	88.81
354.128	95.81
354.355	96.81
354.583	99.81
354.81	91.81
355.037	99.81
355.264	99.81
355.491	90.81
355.718	84.81
355.945	95.81
356.172	103.81
356.399	96.81
356.626	102.81
356.853	75.81
357.08	97.81
357.307	80.81
357.534	99.81
357.761	106.81
357.988	114.81
358.215	98.81
358.441	111.81
358.668	82.81
358.895	78.81
359.122	84.81
359.349	98.81
359.576	98.81
359.802	90.81
360.029	112.81
360.256	101.81
360.483	85.81
360.709	76.81
360.936	97.81
361.163	86.81
361.39	91.81
361.616	98.81
361.843	98.81
362.07	98.81
362.296	87.81
362.523	96.81
362.749	110.81
362.976	72.81
363.203	102.81
363.429	89.81
363.656	86.81
363.882	99.81
364.109	82.81
364.335	87.81
364.562	95.81
364.788	104.81
365.015	90.81
365.241	108.81
365.468	96.81
365.694	112.81
365.92	88.81
366.147	102.81
366.373	93.81
366.599	88.81
366.826	88.81
367.052	97.81
367.278	84.81
367.505	73.81
367.731	99.81
367.957	107.81
368.184	100.81
368.41	86.81
368.636	87.81
368.862	106.81
369.089	91.81
369.315	90.81
369.541	91.81
369.767	91.81
369.993	86.81
370.219	89.81
370.445	85.81
370.672	83.81
370.898	93.81
371.124	99.81
371.35	75.81
371.576	98.81
371.802	96.81
372.028	84.81
372.254	99.81
372.48	94.81
372.706	90.81
372.932	90.81
373.158	86.81
373.384	100.81
373.61	96.81
373.835	92.81
374.061	76.81
374.287	88.81
374.513	97.81
374.739	86.81
374.965	89.81
375.191	96.81
375.416	86.81
375.642	104.81
375.868	98.81
376.094	97.81
376.319	91.81
376.545	80.81
376.771	105.81
376.997	94.81
377.222	86.81
377.448	92.81
377.674	76.81
377.899	72.81
378.125	90.81
378.35	92.81
378.576	91.81
378.802	96.81
379.027	86.81
379.253	94.81
379.478	102.81
379.704	92.81
379.929	90.81
380.155	98.81
380.38	88.81
380.606	100.81
380.831	85.81
381.057	102.81
381.282	105.81
381.507	101.81
381.733	99.81
381.958	101.81
382.184	82.81
382.409	100.81
382.634	102.81
382.86	103.81
383.085	103.81
383.31	114.81
383.535	98.81
383.761	96.81
383.986	95.81
384.211	87.81
384.436	104.81
384.662	98.81
384.887	86.81
385.112	100.81
385.337	93.81
385.562	94.81
385.787	105.81
386.013	105.81
386.238	106.81
386.463	100.81
386.688	99.81
386.913	97.81
387.138	88.81
387.363	98.81
387.588	90.81
387.813	105.81
388.038	104.81
388.263	98.81
388.488	108.81
388.713	108.81
388.938	98.81
389.163	92.81
389.387	84.81
389.612	101.81
389.837	110.81
390.062	106.81
390.287	95.81
390.512	91.81
390.736	88.81
390.961	100.81
391.186	94.81
391.411	93.81
391.636	89.81
391.86	72.81
392.085	86.81
392.31	88.81
392.534	96.81
392.759	90.81
392.984	91.81
393.208	89.81
393.433	100.81
393.658	93.81
393.882	91.81
394.107	84.81
394.331	84.81
394.556	89.81
394.78	96.81
395.005	97.81
395.229	83.81
395.454	84.81
395.678	96.81
395.903	79.81
396.127	97.81
396.352	88.81
396.576	88.81
396.801	85.81
397.025	83.81
397.249	72.81
397.474	88.81
397.698	88.81
397.922	89.81
398.147	100.81
398.371	88.81
398.595	76.81
398.82	84.81
399.044	83.81
399.268	82.81
399.492	88.81
399.717	90.81
399.941	86.81
400.165	107.81
400.389	91.81
400.613	83.81
400.837	81.81
401.062	81.81
401.286	84.81
401.51	106.81
401.734	84.81
401.958	87.81
402.182	109.81
402.406	146.81
402.63	110.81
402.854	83.81
403.078	72.81
403.302	94.81
403.526	85.81
403.75	82.81
403.974	89.81
404.198	85.81
404.422	90.81
404.645	94.81
404.869	96.81
405.093	89.81
405.317	88.81
405.541	109.81
405.765	89.81
405.988	105.81
406.212	141.81
406.436	185.81
406.66	115.81
406.883	92.81
407.107	94.81
407.331	96.81
407.555	110.81
407.778	97.81
408.002	88.81
408.226	79.81
408.449	88.81
408.673	89.81
408.896	98.81
409.12	98.81
409.344	97.81
409.567	94.81
409.791	89.81
410.014	92.81
410.238	96.81
410.461	80.81
410.685	85.81
410.908	97.81
411.132	119.81
411.355	100.81
411.578	88.81
411.802	93.81
412.025	98.81
412.249	90.81
412.472	86.81
412.695	75.81
412.919	88.81
413.142	99.81
413.365	88.81
413.589	84.81
413.812	97.81
414.035	74.81
414.258	77.81
414.482	101.81
414.705	103.81
414.928	91.81
415.151	73.81
415.374	89.81
415.597	84.81
415.821	86.81
416.044	77.81
416.267	98.81
416.49	88.81
416.713	80.81
416.936	81.81
417.159	99.81
417.382	86.81
417.605	67.81
417.828	86.81
418.051	88.81
418.274	100.81
418.497	100.81
418.72	96.81
418.943	102.81
419.166	79.81
419.389	88.81
419.611	92.81
419.834	89.81
420.057	90.81
420.28	73.81
420.503	91.81
420.726	78.81
420.948	87.81
421.171	90.81
421.394	95.81
421.617	74.81
421.839	96.81
422.062	96.81
422.285	117.81
422.507	96.81
422.73	94.81
422.953	97.81
423.175	107.81
423.398	91.81
423.621	90.81
423.843	91.81
424.066	88.81
424.288	86.81
424.511	90.81
424.733	92.81
424.956	88.81
425.178	95.81
425.401	108.81
425.623	97.81
425.846	92.81
426.068	95.81
426.291	82.81
426.513	82.81
426.735	90.81
426.958	80.81
427.18	101.81
427.402	122.81
427.625	147.81
427.847	108.81
428.069	102.81
428.292	76.81
428.514	90.81
428.736	81.81
428.958	90.81
429.181	85.81
429.403	82.81
429.625	80.81
429.847	102.81
430.069	96.81
430.292	91.81
430.514	95.81
430.736	87.81
430.958	82.81
431.18	86.81
431.402	74.81
431.624	98.81
431.846	111.81
432.068	98.81
432.29	79.81
432.512	93.81
432.734	82.81
432.956	94.81
433.178	96.81
433.4	107.81
433.622	104.81
433.844	98.81
434.066	88.81
434.287	95.81
434.509	96.81
434.731	96.81
434.953	87.81
435.175	86.81
435.397	96.81
435.618	100.81
435.84	108.81
436.062	115.81
436.284	105.81
436.505	99.81
436.727	100.81
436.949	105.81
437.17	91.81
437.392	83.81
437.614	87.81
437.835	105.81
438.057	107.81
438.278	101.81
438.5	101.81
438.721	105.81
438.943	109.81
439.165	86.81
439.386	96.81
439.608	78.81
439.829	91.81
440.05	114.81
440.272	125.81
440.493	96.81
440.715	90.81
440.936	86.81
441.158	94.81
441.379	86.81
441.6	87.81
441.822	82.81
442.043	98.81
442.264	99.81
442.486	101.81
442.707	86.81
442.928	98.81
443.149	103.81
443.371	114.81
443.592	105.81
443.813	108.81
444.034	98.81
444.255	92.81
444.476	71.81
444.698	86.81
444.919	88.81
445.14	127.81
445.361	130.81
445.582	97.81
445.803	113.81
446.024	128.81
446.245	114.81
446.466	94.81
446.687	90.81
446.908	94.81
447.129	98.81
447.35	91.81
447.571	91.81
447.792	90.81
448.013	94.81
448.234	107.81
448.455	100.81
448.675	110.81
448.896	124.81
449.117	94.81
449.338	106.81
449.559	119.81
449.779	108.81
450	91.81
450.221	84.81
450.442	83.81
450.662	92.81
450.883	97.81
451.104	99.81
451.324	88.81
451.545	83.81
451.766	94.81
451.986	98.81
452.207	95.81
452.428	104.81
452.648	98.81
452.869	105.81
453.089	107.81
453.31	96.81
453.53	92.81
453.751	84.81
453.971	95.81
454.192	106.81
454.412	95.81
454.633	74.81
454.853	78.81
455.073	76.81
455.294	88.81
455.514	102.81
455.734	89.81
455.955	81.81
456.175	82.81
456.395	79.81
456.616	89.81
456.836	86.81
457.056	82.81
457.276	82.81
457.497	88.81
457.717	81.81
457.937	98.81
458.157	86.81
458.377	89.81
458.598	104.81
458.818	126.81
459.038	140.81
459.258	101.81
459.478	84.81
459.698	87.81
459.918	84.81
460.138	83.81
460.358	84.81
460.578	73.81
460.798	93.81
461.018	84.81
461.238	82.81
461.458	92.81
461.678	85.81
461.898	73.81
462.118	95.81
462.338	87.81
462.558	103.81
462.777	90.81
462.997	83.81
463.217	83.81
463.437	83.81
463.657	71.81
463.876	100.81
464.096	94.81
464.316	86.81
464.536	81.81
464.755	83.81
464.975	106.81
465.195	137.81
465.414	128.81
465.634	100.81
465.854	88.81
466.073	83.81
466.293	89.81
466.512	95.81
466.732	83.81
466.951	95.81
467.171	75.81
467.391	97.81
467.61	98.81
467.829	96.81
468.049	88.81
468.268	85.81
468.488	81.81
468.707	90.81
468.927	92.81
469.146	79.81
469.365	84.81
469.585	98.81
469.804	88.81
470.023	99.81
470.243	95.81
470.462	97.81
470.681	96.81
470.901	91.81
471.12	85.81
471.339	90.81
471.558	78.81
471.777	90.81
471.997	86.81
472.216	83.81
472.435	110.81
472.654	88.81
472.873	88.81
473.092	68.81
473.311	95.81
473.53	84.81
473.749	85.81
473.968	94.81
474.187	101.81
474.406	98.81
474.625	91.81
474.844	82.81
475.063	96.81
475.282	95.81
475.501	86.81
475.72	95.81
475.939	89.81
476.158	94.81
476.377	93.81
476.596	92.81
476.814	78.81
477.033	97.81
477.252	82.81
477.471	82.81
477.69	91.81
477.908	87.81
478.127	77.81
478.346	87.81
478.564	88.81
478.783	97.81
479.002	75.81
479.22	89.81
479.439	105.81
479.658	82.81
479.876	78.81
480.095	80.81
480.313	94.81
480.532	90.81
480.751	101.81
480.969	89.81
481.188	88.81
481.406	95.81
481.624	85.81
481.843	87.81
482.061	99.81
482.28	78.81
482.498	87.81
482.717	74.81
482.935	84.81
483.153	81.81
483.372	76.81
483.59	88.81
483.808	94.81
484.027	93.81
484.245	92.81
484.463	91.81
484.681	79.81
484.9	96.81
485.118	95.81
485.336	88.81
485.554	99.81
485.772	91.81
485.99	101.81
486.209	104.81
486.427	100.81
486.645	123.81
486.863	103.81
487.081	104.81
487.299	94.81
487.517	96.81
487.735	90.81
487.953	90.81
488.171	82.81
488.389	99.81
488.607	96.81
488.825	81.81
489.043	86.81
489.261	92.81
489.479	69.81
489.696	86.81
489.914	83.81
490.132	96.81
490.35	90.81
490.568	94.81
490.786	97.81
491.003	84.81
491.221	92.81
491.439	84.81
491.657	84.81
491.874	97.81
492.092	92.81
492.31	88.81
492.527	89.81
492.745	89.81
492.963	92.81
493.18	96.81
493.398	88.81
493.615	99.81
493.833	104.81
494.05	98.81
494.268	96.81
494.485	91.81
494.703	83.81
494.92	89.81
495.138	97.81
495.355	91.81
495.573	90.81
495.79	86.81
496.008	98.81
496.225	73.81
496.442	91.81
496.66	89.81
496.877	90.81
497.094	87.81
497.312	91.81
497.529	97.81
497.746	98.81
497.963	87.81
498.181	86.81
498.398	98.81
498.615	113.81
498.832	104.81
499.049	90.81
499.267	104.81
499.484	88.81
499.701	74.81
499.918	82.81
500.135	97.81
500.352	85.81
500.569	87.81
500.786	95.81
501.003	96.81
501.22	82.81
501.437	93.81
501.654	95.81
501.871	92.81
502.088	86.81
502.305	86.81
502.522	90.81
502.739	78.81
502.956	72.81
503.172	91.81
503.389	94.81
503.606	94.81
503.823	87.81
504.04	98.81
504.256	98.81
504.473	80.81
504.69	90.81
504.907	96.81
505.123	91.81
505.34	90.81
505.557	92.81
505.773	88.81
505.99	99.81
506.207	96.81
506.423	87.81
506.64	82.81
506.856	82.81
507.073	89.81
507.289	94.81
507.506	88.81
507.722	97.81
507.939	98.81
508.155	84.81
508.372	97.81
508.588	86.81
508.805	90.81
509.021	96.81
509.238	103.81
509.454	89.81
509.67	92.81
509.887	116.81
510.103	114.81
510.319	199.81
510.536	664.81
510.752	1923.81
510.968	540.81
511.184	131.81
511.401	90.81
511.617	82.81
511.833	89.81
512.049	96.81
512.265	90.81
512.481	102.81
512.698	99.81
512.914	100.81
513.13	94.81
513.346	72.81
513.562	92.81
513.778	87.81
513.994	100.81
514.21	111.81
514.426	100.81
514.642	115.81
514.858	118.81
515.074	153.81
515.29	341.81
515.506	1129.81
515.721	406.81
515.937	148.81
516.153	113.81
516.369	92.81
516.585	90.81
516.801	90.81
517.016	101.81
517.232	96.81
517.448	96.81
517.664	89.81
517.879	90.81
518.095	93.81
518.311	107.81
518.527	85.81
518.742	89.81
518.958	84.81
519.173	77.81
519.389	90.81
519.605	98.81
519.82	94.81
520.036	93.81
520.251	124.81
520.467	103.81
520.682	101.81
520.898	97.81
521.113	102.81
521.329	119.81
521.544	167.81
521.76	413.81
521.975	1819.81
522.19	1086.81
522.406	255.81
522.621	109.81
522.836	113.81
523.052	84.81
523.267	87.81
523.482	91.81
523.698	94.81
523.913	107.81
524.128	95.81
524.343	89.81
524.559	83.81
524.774	95.81
524.989	97.81
525.204	95.81
525.419	91.81
525.634	104.81
525.849	93.81
526.064	92.81
526.28	90.81
526.495	78.81
526.71	96.81
526.925	89.81
527.14	89.81
527.355	104.81
527.57	98.81
527.785	88.81
527.999	82.81
528.214	80.81
528.429	98.81
528.644	97.81
528.859	83.81
529.074	90.81
529.289	131.81
529.503	162.81
529.718	107.81
529.933	97.81
530.148	88.81
530.363	96.81
530.577	95.81
530.792	82.81
531.007	82.81
531.221	85.81
531.436	97.81
531.651	100.81
531.865	83.81
532.08	86.81
532.295	82.81
532.509	90.81
532.724	97.81
532.938	83.81
533.153	98.81
533.367	86.81
533.582	91.81
533.796	87.81
534.011	87.81
534.225	93.81
534.44	87.81
534.654	87.81
534.868	96.81
535.083	86.81
535.297	101.81
535.511	113.81
535.726	76.81
535.94	103.81
536.154	92.81
536.369	90.81
536.583	89.81
536.797	103.81
537.011	84.81
537.225	99.81
537.44	85.81
537.654	92.81
537.868	83.81
538.082	75.81
538.296	78.81
538.51	80.81
538.724	86.81
538.938	100.81
539.153	92.81
539.367	91.81
539.581	96.81
539.795	88.81
540.009	89.81
540.222	91.81
540.436	90.81
540.65	91.81
540.864	79.81
541.078	99.81
541.292	88.81
541.506	78.81
541.72	92.81
541.934	75.81
542.147	88.81
542.361	98.81
542.575	82.81
542.789	94.81
543.002	91.81
543.216	83.81
543.43	92.81
543.644	84.81
543.857	93.81
544.071	90.81
544.285	92.81
544.498	90.81
544.712	88.81
544.925	90.81
545.139	86.81
545.352	87.81
545.566	85.81
545.779	102.81
545.993	90.81
546.206	81.81
546.42	76.81
546.633	66.81
546.847	82.81
547.06	74.81
547.274	78.81
547.487	82.81
547.7	89.81
547.914	81.81
548.127	100.81
548.34	84.81
548.554	75.81
548.767	88.81
548.98	80.81
549.193	91.81
549.407	90.81
549.62	87.81
549.833	84.81
550.046	98.81
550.259	92.81
550.473	81.81
550.686	90.81
550.899	87.81
551.112	88.81
551.325	91.81
551.538	69.81
551.751	90.81
551.964	93.81
552.177	88.81
552.39	101.81
552.603	97.81
552.816	89.81
553.029	75.81
553.242	74.81
553.455	85.81
553.667	102.81
553.88	104.81
554.093	101.81
554.306	88.81
554.519	84.81
554.732	75.81
554.944	74.81
555.157	74.81
555.37	94.81
555.583	93.81
555.795	89.81
556.008	98.81
556.221	82.81
556.433	89.81
556.646	86.81
556.859	100.81
557.071	83.81
557.284	92.81
557.496	86.81
557.709	90.81
557.921	92.81
558.134	94.81
558.346	82.81
558.559	75.81
558.771	94.81
558.984	86.81
559.196	95.81
559.409	95.81
559.621	87.81
559.833	80.81
560.046	77.81
560.258	76.81
560.47	95.81
560.683	79.81
560.895	89.81
561.107	90.81
561.32	90.81
561.532	83.81
561.744	97.81
561.956	86.81
562.168	91.81
562.381	100.81
562.593	86.81
562.805	98.81
563.017	99.81
563.229	90.81
563.441	90.81
563.653	96.81
563.865	79.81
564.077	94.81
564.289	83.81
564.501	82.81
564.713	90.81
564.925	94.81
565.137	119.81
565.349	97.81
565.561	94.81
565.773	100.81
565.985	84.81
566.197	86.81
566.408	81.81
566.62	99.81
566.832	82.81
567.044	80.81
567.255	83.81
567.467	89.81
567.679	90.81
567.891	72.81
568.102	80.81
568.314	88.81
568.526	78.81
568.737	91.81
568.949	90.81
569.161	87.81
569.372	98.81
569.584	89.81
569.795	83.81
570.007	109.81
570.218	210.81
570.43	120.81
570.641	90.81
570.853	85.81
571.064	105.81
571.276	82.81
571.487	99.81
571.698	89.81
571.91	76.81
572.121	70.81
572.333	83.81
572.544	78.81
572.755	89.81
572.966	73.81
573.178	83.81
573.389	86.81
573.6	96.81
573.811	80.81
574.023	95.81
574.234	80.81
574.445	93.81
574.656	101.81
574.867	88.81
575.078	93.81
575.289	88.81
575.501	90.81
575.712	77.81
575.923	75.81
576.134	82.81
576.345	94.81
576.556	97.81
576.767	90.81
576.978	86.81
577.188	84.81
577.399	98.81
577.61	102.81
577.821	103.81
578.032	110.81
578.243	235.81
578.454	613.81
578.665	176.81
578.875	93.81
579.086	94.81
579.297	86.81
579.508	75.81
579.718	87.81
579.929	96.81
580.14	84.81
580.35	94.81
580.561	89.81
580.772	81.81
580.982	91.81
581.193	90.81
581.403	95.81
581.614	90.81
581.825	91.81
582.035	108.81
582.246	98.81
582.456	78.81
582.667	85.81
582.877	94.81
583.087	79.81
583.298	76.81
583.508	82.81
583.719	89.81
583.929	92.81
584.139	88.81
584.35	109.81
584.56	88.81
584.77	78.81
584.981	98.81
585.191	88.81
585.401	97.81
585.611	82.81
585.821	86.81
586.032	88.81
586.242	104.81
586.452	85.81
586.662	82.81
586.872	87.81
587.082	80.81
587.292	80.81
587.502	91.81
587.713	87.81
587.923	81.81
588.133	94.81
588.343	78.81
588.553	88.81
588.762	94.81
588.972	105.81
589.182	102.81
589.392	88.81
589.602	72.81
589.812	97.81
590.022	99.81
590.232	83.81
590.441	92.81
590.651	61.81
590.861	85.81
591.071	96.81
591.281	81.81
591.49	85.81
591.7	87.81
591.91	86.81
592.119	88.81
592.329	87.81
592.539	87.81
592.748	85.81
592.958	85.81
593.167	84.81
593.377	88.81
593.587	80.81
593.796	97.81
594.006	90.81
594.215	81.81
594.424	88.81
594.634	91.81
594.843	96.81
595.053	94.81
595.262	100.81
595.472	90.81
595.681	92.81
595.89	79.81
596.1	102.81
596.309	89.81
596.518	94.81
596.727	88.81
596.937	83.81
597.146	82.81
597.355	82.81
597.564	56.81
597.774	103.81
597.983	91.81
598.192	80.81
598.401	72.81
598.61	96.81
598.819	82.81
599.028	81.81
599.237	97.81
599.446	91.81
599.655	83.81
599.864	88.81
600.073	75.81
600.282	86.81
600.491	83.81
600.7	96.81
600.909	98.81
601.118	80.81
601.327	103.81
601.536	88.81
601.745	86.81
601.953	91.81
602.162	90.81
602.371	91.81
602.58	75.81
602.789	84.81
602.997	88.81
603.206	87.81
603.415	80.81
603.623	71.81
603.832	98.81
604.041	63.81
604.249	85.81
604.458	85.81
604.666	84.81
604.875	90.81
605.084	88.81
605.292	81.81
605.501	90.81
605.709	83.81
605.918	80.81
606.126	101.81
606.334	75.81
606.543	100.81
606.751	90.81
606.96	89.81
607.168	86.81
607.376	96.81
607.585	84.81
607.793	98.81
608.001	86.81
608.21	102.81
608.418	84.81
608.626	83.81
608.834	83.81
609.043	81.81
609.251	88.81
609.459	91.81
609.667	80.81
609.875	100.81
610.083	74.81
610.291	83.81
610.499	72.81
610.707	87.81
610.916	83.81
611.124	83.81
611.332	91.81
611.54	91.81
611.748	91.81
611.955	85.81
612.163	102.81
612.371	101.81
612.579	95.81
612.787	103.81
612.995	91.81
613.203	86.81
613.411	102.81
613.618	85.81
613.826	84.81
614.034	91.81
614.242	83.81
614.449	90.81
614.657	82.81
614.865	97.81
615.072	86.81
615.28	83.81
615.488	94.81
615.695	89.81
615.903	101.81
616.111	96.81
616.318	87.81
616.526	90.81
616.733	101.81
616.941	103.81
617.148	87.81
617.356	82.81
617.563	96.81
617.771	92.81
617.978	73.81
618.185	90.81
618.393	79.81
618.6	97.81
618.807	87.81
619.015	86.81
619.222	91.81
619.429	82.81
619.637	74.81
619.844	73.81
620.051	82.81
620.258	87.81
620.466	91.81
620.673	86.81
620.88	90.81
621.087	75.81
621.294	95.81
621.501	84.81
621.708	89.81
621.915	86.81
622.122	89.81
622.329	78.81
622.536	90.81
622.743	76.81
622.95	84.81
623.157	79.81
623.364	94.81
623.571	82.81
623.778	87.81
623.985	70.81
624.192	83.81
624.399	67.81
624.606	94.81
624.812	90.81
625.019	88.81
625.226	89.81
625.433	95.81
625.639	78.81
625.846	91.81
626.053	89.81
626.259	83.81
626.466	89.81
626.673	74.81
626.879	89.81
627.086	91.81
627.293	73.81
627.499	79.81
627.706	94.81
627.912	71.81
628.119	82.81
628.325	81.81
628.532	80.81
628.738	79.81
628.945	90.81
629.151	77.81
629.357	79.81
629.564	84.81
629.77	82.81
629.976	84.81
630.183	89.81
630.389	78.81
630.595	71.81
630.802	99.81
631.008	82.81
631.214	86.81
631.42	86.81
631.627	88.81
631.833	95.81
632.039	78.81
632.245	78.81
632.451	72.81
632.657	92.81
632.863	92.81
633.069	92.81
633.275	76.81
633.481	83.81
633.688	79.81
633.893	79.81
634.099	95.81
634.305	94.81
634.511	72.81
634.717	78.81
634.923	67.81
635.129	89.81
635.335	91.81
635.541	82.81
635.747	73.81
635.952	72.81
636.158	72.81
636.364	97.81
636.57	89.81
636.775	83.81
636.981	70.81
637.187	87.81
637.392	84.81
637.598	90.81
637.804	88.81
638.009	91.81
638.215	89.81
638.421	84.81
638.626	88.81
638.832	88.81
639.037	84.81
639.243	87.81
639.448	88.81
639.654	82.81
639.859	76.81
640.065	78.81
640.27	89.81
640.475	76.81
640.681	89.81
640.886	82.81
641.091	80.81
641.297	82.81
641.502	76.81
641.707	74.81
641.913	82.81
642.118	100.81
642.323	76.81
642.528	94.81
642.733	97.81
642.939	87.81
643.144	78.81
643.349	82.81
643.554	83.81
643.759	83.81
643.964	86.81
644.169	92.81
644.374	88.81
644.579	84.81
644.784	87.81
644.989	86.81
645.194	87.81
645.399	79.81
645.604	86.81
645.809	79.81
646.014	91.81
646.219	79.81
646.423	93.81
646.628	100.81
646.833	88.81
647.038	95.81
647.243	71.81
647.447	80.81
647.652	70.81
647.857	76.81
648.062	96.81
648.266	86.81
648.471	93.81
648.676	90.81
648.88	97.81
649.085	88.81
649.289	93.81
649.494	117.81
649.698	123.81
649.903	104.81
650.107	86.81
650.312	85.81
650.516	87.81
650.721	80.81
650.925	81.81
651.13	84.81
651.334	64.81
651.539	84.81
651.743	88.81
651.947	91.81
652.152	86.81
652.356	94.81
652.56	94.81
652.764	93.81
652.969	75.81
653.173	86.81
653.377	86.81
653.581	87.81
653.785	94.81
653.99	80.81
654.194	82.81
654.398	97.81
654.602	80.81
654.806	81.81
655.01	106.81
655.214	91.81
655.418	88.81
655.622	72.81
655.826	78.81
656.03	84.81
656.234	89.81
656.438	88.81
656.642	86.81
656.846	91.81
657.049	86.81
657.253	87.81
657.457	75.81
657.661	91.81
657.865	88.81
658.068	85.81
658.272	74.81
658.476	69.81
658.68	77.81
658.883	80.81
659.087	73.81
659.291	74.81
659.494	83.81
659.698	84.81
659.901	94.81
660.105	76.81
660.309	86.81
660.512	92.81
660.716	70.81
660.919	78.81
661.123	92.81
661.326	82.81
661.53	82.81
661.733	81.81
661.936	97.81
662.14	68.81
662.343	76.81
662.546	84.81
662.75	91.81
662.953	88.81
663.156	84.81
663.36	81.81
663.563	69.81
663.766	89.81
663.969	81.81
664.173	78.81
664.376	98.81
664.579	75.81
664.782	88.81
664.985	90.81
665.188	80.81
665.391	80.81
665.594	86.81
665.797	74.81
666	83.81
666.203	87.81
666.406	86.81
666.609	63.81
666.812	74.81
667.015	74.81
667.218	80.81
667.421	86.81
667.624	81.81
667.827	76.81
668.03	78.81
668.232	79.81
668.435	91.81
668.638	66.81
668.841	91.81
669.043	91.81
669.246	87.81
669.449	80.81
669.651	74.81
669.854	80.81
670.057	67.81
670.259	79.81
670.462	85.81
670.665	79.81
670.867	87.81
671.07	89.81
671.272	76.81
671.475	88.81
671.677	103.81
671.88	92.81
672.082	80.81
672.284	83.81
672.487	79.81
672.689	83.81
672.892	78.81
