Data from Propagules_50_2_HRD10591_00020.txt Node
Date: Thu Feb 19 11:08:03 EST 2026
User: Yrep
Spectrometer: HR+D1059
Trigger mode: 1
Integration Time (sec): 1.000000E-1
Scans to average: 1
Electric dark correction enabled: true
Nonlinearity correction enabled: false
Boxcar width: 0
XAxis mode: Wavelengths
Number of Pixels in Spectrum: 2048
>>>>>Begin Spectral Data<<<<<
223.165	-18.62
223.4	-18.62
223.635	-18.62
223.869	-12.62
224.104	-20.62
224.338	-21.62
224.573	-16.62
224.808	-6.62
225.042	-1.62
225.277	-3.62
225.511	-3.62
225.746	6.38
225.98	3.38
226.215	8.38
226.449	13.38
226.683	18.38
226.918	27.38
227.152	28.38
227.387	26.38
227.621	40.38
227.856	45.38
228.09	44.38
228.324	45.38
228.559	60.38
228.793	58.38
229.027	52.38
229.262	71.38
229.496	68.38
229.73	68.38
229.964	73.38
230.199	78.38
230.433	78.38
230.667	78.38
230.901	73.38
231.136	82.38
231.37	76.38
231.604	76.38
231.838	73.38
232.072	79.38
232.306	80.38
232.541	75.38
232.775	71.38
233.009	72.38
233.243	79.38
233.477	81.38
233.711	70.38
233.945	64.38
234.179	73.38
234.413	84.38
234.647	78.38
234.881	73.38
235.115	83.38
235.349	65.38
235.583	62.38
235.817	62.38
236.051	87.38
236.285	71.38
236.519	78.38
236.753	74.38
236.987	61.38
237.221	72.38
237.455	82.38
237.689	80.38
237.922	73.38
238.156	76.38
238.39	72.38
238.624	56.38
238.858	66.38
239.091	62.38
239.325	80.38
239.559	83.38
239.793	64.38
240.027	83.38
240.26	54.38
240.494	78.38
240.728	72.38
240.961	69.38
241.195	65.38
241.429	60.38
241.662	65.38
241.896	62.38
242.13	77.38
242.363	66.38
242.597	67.38
242.83	62.38
243.064	72.38
243.298	89.38
243.531	74.38
243.765	93.38
243.998	76.38
244.232	72.38
244.465	66.38
244.699	72.38
244.932	70.38
245.166	77.38
245.399	65.38
245.633	80.38
245.866	63.38
246.099	67.38
246.333	68.38
246.566	76.38
246.8	65.38
247.033	72.38
247.266	69.38
247.5	66.38
247.733	77.38
247.966	64.38
248.2	79.38
248.433	72.38
248.666	69.38
248.899	69.38
249.133	74.38
249.366	83.38
249.599	79.38
249.832	77.38
250.066	80.38
250.299	82.38
250.532	72.38
250.765	92.38
250.998	74.38
251.231	72.38
251.465	78.38
251.698	80.38
251.931	86.38
252.164	77.38
252.397	65.38
252.63	80.38
252.863	64.38
253.096	76.38
253.329	78.38
253.562	58.38
253.795	69.38
254.028	84.38
254.261	77.38
254.494	76.38
254.727	81.38
254.96	76.38
255.193	74.38
255.426	77.38
255.659	71.38
255.892	89.38
256.124	86.38
256.357	86.38
256.59	76.38
256.823	74.38
257.056	83.38
257.289	71.38
257.521	69.38
257.754	74.38
257.987	70.38
258.22	85.38
258.452	79.38
258.685	80.38
258.918	82.38
259.151	80.38
259.383	68.38
259.616	75.38
259.849	82.38
260.081	82.38
260.314	72.38
260.547	59.38
260.779	71.38
261.012	75.38
261.244	58.38
261.477	75.38
261.71	76.38
261.942	73.38
262.175	78.38
262.407	64.38
262.64	67.38
262.872	84.38
263.105	81.38
263.337	83.38
263.57	81.38
263.802	62.38
264.035	83.38
264.267	84.38
264.499	83.38
264.732	79.38
264.964	81.38
265.197	88.38
265.429	85.38
265.661	70.38
265.894	87.38
266.126	84.38
266.358	85.38
266.591	68.38
266.823	72.38
267.055	81.38
267.287	81.38
267.52	72.38
267.752	72.38
267.984	58.38
268.216	70.38
268.448	78.38
268.681	88.38
268.913	72.38
269.145	79.38
269.377	70.38
269.609	76.38
269.841	83.38
270.073	76.38
270.306	84.38
270.538	78.38
270.77	85.38
271.002	67.38
271.234	86.38
271.466	59.38
271.698	73.38
271.93	74.38
272.162	73.38
272.394	68.38
272.626	74.38
272.858	81.38
273.09	80.38
273.322	64.38
273.553	64.38
273.785	75.38
274.017	91.38
274.249	73.38
274.481	64.38
274.713	78.38
274.945	84.38
275.176	69.38
275.408	74.38
275.64	87.38
275.872	76.38
276.104	86.38
276.335	78.38
276.567	75.38
276.799	91.38
277.031	79.38
277.262	76.38
277.494	70.38
277.726	76.38
277.957	92.38
278.189	79.38
278.421	71.38
278.652	72.38
278.884	81.38
279.115	82.38
279.347	82.38
279.579	73.38
279.81	72.38
280.042	71.38
280.273	76.38
280.505	88.38
280.736	83.38
280.968	82.38
281.199	84.38
281.431	83.38
281.662	66.38
281.894	90.38
282.125	72.38
282.356	86.38
282.588	80.38
282.819	74.38
283.051	82.38
283.282	78.38
283.513	85.38
283.745	77.38
283.976	81.38
284.207	82.38
284.439	64.38
284.67	81.38
284.901	79.38
285.132	75.38
285.364	83.38
285.595	89.38
285.826	68.38
286.057	94.38
286.288	81.38
286.52	84.38
286.751	78.38
286.982	71.38
287.213	76.38
287.444	79.38
287.675	87.38
287.906	90.38
288.138	88.38
288.369	78.38
288.6	71.38
288.831	75.38
289.062	76.38
289.293	86.38
289.524	73.38
289.755	75.38
289.986	85.38
290.217	69.38
290.448	74.38
290.679	70.38
290.91	88.38
291.141	91.38
291.371	86.38
291.602	82.38
291.833	77.38
292.064	72.38
292.295	80.38
292.526	73.38
292.757	80.38
292.987	65.38
293.218	70.38
293.449	84.38
293.68	85.38
293.91	72.38
294.141	85.38
294.372	86.38
294.603	80.38
294.833	65.38
295.064	73.38
295.295	66.38
295.525	85.38
295.756	95.38
295.987	83.38
296.217	86.38
296.448	94.38
296.679	62.38
296.909	86.38
297.14	76.38
297.37	85.38
297.601	75.38
297.831	78.38
298.062	90.38
298.292	92.38
298.523	74.38
298.753	73.38
298.984	80.38
299.214	66.38
299.445	85.38
299.675	76.38
299.905	69.38
300.136	84.38
300.366	92.38
300.597	79.38
300.827	84.38
301.057	73.38
301.288	75.38
301.518	74.38
301.748	88.38
301.979	92.38
302.209	79.38
302.439	76.38
302.669	74.38
302.9	81.38
303.13	93.38
303.36	76.38
303.59	76.38
303.82	85.38
304.051	92.38
304.281	77.38
304.511	84.38
304.741	80.38
304.971	97.38
305.201	86.38
305.431	77.38
305.661	94.38
305.891	78.38
306.121	76.38
306.352	78.38
306.582	68.38
306.812	83.38
307.042	66.38
307.272	81.38
307.502	81.38
307.731	76.38
307.961	83.38
308.191	80.38
308.421	85.38
308.651	83.38
308.881	84.38
309.111	71.38
309.341	78.38
309.571	94.38
309.8	77.38
310.03	80.38
310.26	68.38
310.49	95.38
310.72	82.38
310.949	67.38
311.179	91.38
311.409	68.38
311.639	70.38
311.868	82.38
312.098	68.38
312.328	75.38
312.557	79.38
312.787	91.38
313.017	91.38
313.246	82.38
313.476	98.38
313.706	78.38
313.935	98.38
314.165	94.38
314.394	83.38
314.624	81.38
314.853	74.38
315.083	83.38
315.312	70.38
315.542	87.38
315.771	88.38
316.001	84.38
316.23	86.38
316.46	81.38
316.689	68.38
316.919	68.38
317.148	79.38
317.377	81.38
317.607	87.38
317.836	79.38
318.065	87.38
318.295	74.38
318.524	79.38
318.753	73.38
318.983	89.38
319.212	78.38
319.441	74.38
319.67	92.38
319.9	86.38
320.129	74.38
320.358	79.38
320.587	69.38
320.816	72.38
321.046	76.38
321.275	85.38
321.504	86.38
321.733	99.38
321.962	98.38
322.191	74.38
322.42	72.38
322.649	93.38
322.878	85.38
323.108	84.38
323.337	83.38
323.566	77.38
323.795	84.38
324.024	88.38
324.253	74.38
324.482	88.38
324.71	84.38
324.939	88.38
325.168	64.38
325.397	81.38
325.626	80.38
325.855	87.38
326.084	80.38
326.313	82.38
326.542	80.38
326.77	92.38
326.999	81.38
327.228	71.38
327.457	64.38
327.686	65.38
327.914	78.38
328.143	87.38
328.372	86.38
328.6	76.38
328.829	90.38
329.058	77.38
329.287	71.38
329.515	87.38
329.744	90.38
329.972	80.38
330.201	90.38
330.43	94.38
330.658	83.38
330.887	82.38
331.115	71.38
331.344	77.38
331.572	82.38
331.801	71.38
332.03	85.38
332.258	80.38
332.486	92.38
332.715	77.38
332.943	93.38
333.172	96.38
333.4	76.38
333.629	73.38
333.857	86.38
334.085	79.38
334.314	75.38
334.542	91.38
334.771	82.38
334.999	78.38
335.227	89.38
335.455	79.38
335.684	74.38
335.912	77.38
336.14	94.38
336.369	68.38
336.597	96.38
336.825	86.38
337.053	78.38
337.281	70.38
337.51	82.38
337.738	83.38
337.966	72.38
338.194	71.38
338.422	64.38
338.65	86.38
338.878	83.38
339.106	92.38
339.334	80.38
339.562	86.38
339.79	78.38
340.018	82.38
340.246	78.38
340.474	84.38
340.702	85.38
340.93	86.38
341.158	91.38
341.386	82.38
341.614	80.38
341.842	80.38
342.07	76.38
342.298	91.38
342.526	78.38
342.754	93.38
342.981	62.38
343.209	78.38
343.437	112.38
343.665	75.38
343.893	84.38
344.12	84.38
344.348	84.38
344.576	77.38
344.804	81.38
345.031	83.38
345.259	82.38
345.487	76.38
345.714	83.38
345.942	74.38
346.17	93.38
346.397	85.38
346.625	85.38
346.853	76.38
347.08	70.38
347.308	94.38
347.535	91.38
347.763	79.38
347.99	76.38
348.218	82.38
348.445	78.38
348.673	78.38
348.9	77.38
349.128	80.38
349.355	92.38
349.583	76.38
349.81	84.38
350.037	87.38
350.265	93.38
350.492	82.38
350.72	74.38
350.947	88.38
351.174	78.38
351.402	74.38
351.629	52.38
351.856	86.38
352.083	87.38
352.311	74.38
352.538	78.38
352.765	76.38
352.992	77.38
353.22	82.38
353.447	75.38
353.674	69.38
353.901	88.38
354.128	94.38
354.355	86.38
354.583	90.38
354.81	75.38
355.037	80.38
355.264	83.38
355.491	78.38
355.718	73.38
355.945	66.38
356.172	96.38
356.399	89.38
356.626	76.38
356.853	92.38
357.08	89.38
357.307	96.38
357.534	84.38
357.761	82.38
357.988	82.38
358.215	93.38
358.441	89.38
358.668	81.38
358.895	80.38
359.122	76.38
359.349	77.38
359.576	76.38
359.802	88.38
360.029	75.38
360.256	83.38
360.483	83.38
360.709	86.38
360.936	92.38
361.163	76.38
361.39	79.38
361.616	81.38
361.843	80.38
362.07	89.38
362.296	96.38
362.523	81.38
362.749	83.38
362.976	70.38
363.203	78.38
363.429	78.38
363.656	77.38
363.882	78.38
364.109	78.38
364.335	82.38
364.562	72.38
364.788	82.38
365.015	78.38
365.241	81.38
365.468	63.38
365.694	79.38
365.92	88.38
366.147	76.38
366.373	80.38
366.599	83.38
366.826	76.38
367.052	82.38
367.278	78.38
367.505	94.38
367.731	82.38
367.957	88.38
368.184	69.38
368.41	69.38
368.636	72.38
368.862	75.38
369.089	83.38
369.315	86.38
369.541	90.38
369.767	77.38
369.993	86.38
370.219	85.38
370.445	72.38
370.672	92.38
370.898	68.38
371.124	65.38
371.35	65.38
371.576	83.38
371.802	75.38
372.028	74.38
372.254	68.38
372.48	78.38
372.706	91.38
372.932	72.38
373.158	89.38
373.384	89.38
373.61	75.38
373.835	67.38
374.061	78.38
374.287	84.38
374.513	82.38
374.739	66.38
374.965	68.38
375.191	61.38
375.416	93.38
375.642	84.38
375.868	86.38
376.094	78.38
376.319	78.38
376.545	81.38
376.771	91.38
376.997	74.38
377.222	86.38
377.448	78.38
377.674	83.38
377.899	75.38
378.125	80.38
378.35	76.38
378.576	66.38
378.802	77.38
379.027	82.38
379.253	68.38
379.478	71.38
379.704	86.38
379.929	80.38
380.155	50.38
380.38	76.38
380.606	66.38
380.831	88.38
381.057	90.38
381.282	70.38
381.507	90.38
381.733	78.38
381.958	81.38
382.184	78.38
382.409	74.38
382.634	89.38
382.86	75.38
383.085	90.38
383.31	90.38
383.535	86.38
383.761	78.38
383.986	82.38
384.211	75.38
384.436	76.38
384.662	68.38
384.887	94.38
385.112	88.38
385.337	77.38
385.562	64.38
385.787	74.38
386.013	86.38
386.238	70.38
386.463	73.38
386.688	97.38
386.913	73.38
387.138	72.38
387.363	76.38
387.588	81.38
387.813	84.38
388.038	83.38
388.263	81.38
388.488	77.38
388.713	65.38
388.938	72.38
389.163	80.38
389.387	66.38
389.612	86.38
389.837	87.38
390.062	74.38
390.287	73.38
390.512	72.38
390.736	86.38
390.961	84.38
391.186	80.38
391.411	91.38
391.636	85.38
391.86	88.38
392.085	76.38
392.31	72.38
392.534	84.38
392.759	81.38
392.984	79.38
393.208	91.38
393.433	82.38
393.658	83.38
393.882	70.38
394.107	80.38
394.331	82.38
394.556	76.38
394.78	77.38
395.005	66.38
395.229	85.38
395.454	85.38
395.678	72.38
395.903	76.38
396.127	77.38
396.352	84.38
396.576	70.38
396.801	99.38
397.025	83.38
397.249	82.38
397.474	72.38
397.698	83.38
397.922	72.38
398.147	67.38
398.371	72.38
398.595	83.38
398.82	78.38
399.044	83.38
399.268	68.38
399.492	85.38
399.717	90.38
399.941	73.38
400.165	72.38
400.389	75.38
400.613	80.38
400.837	70.38
401.062	79.38
401.286	79.38
401.51	89.38
401.734	69.38
401.958	79.38
402.182	78.38
402.406	84.38
402.63	81.38
402.854	77.38
403.078	83.38
403.302	86.38
403.526	73.38
403.75	77.38
403.974	72.38
404.198	92.38
404.422	100.38
404.645	96.38
404.869	100.38
405.093	77.38
405.317	88.38
405.541	84.38
405.765	85.38
405.988	77.38
406.212	79.38
406.436	70.38
406.66	69.38
406.883	72.38
407.107	68.38
407.331	67.38
407.555	75.38
407.778	93.38
408.002	82.38
408.226	78.38
408.449	77.38
408.673	70.38
408.896	76.38
409.12	90.38
409.344	81.38
409.567	69.38
409.791	70.38
410.014	80.38
410.238	78.38
410.461	79.38
410.685	68.38
410.908	67.38
411.132	84.38
411.355	78.38
411.578	84.38
411.802	91.38
412.025	83.38
412.249	82.38
412.472	82.38
412.695	72.38
412.919	96.38
413.142	79.38
413.365	74.38
413.589	83.38
413.812	68.38
414.035	61.38
414.258	73.38
414.482	69.38
414.705	66.38
414.928	70.38
415.151	82.38
415.374	69.38
415.597	76.38
415.821	70.38
416.044	73.38
416.267	98.38
416.49	83.38
416.713	76.38
416.936	78.38
417.159	87.38
417.382	61.38
417.605	68.38
417.828	69.38
418.051	60.38
418.274	76.38
418.497	86.38
418.72	76.38
418.943	90.38
419.166	68.38
419.389	74.38
419.611	78.38
419.834	81.38
420.057	78.38
420.28	72.38
420.503	84.38
420.726	74.38
420.948	80.38
421.171	73.38
421.394	93.38
421.617	72.38
421.839	63.38
422.062	82.38
422.285	78.38
422.507	80.38
422.73	83.38
422.953	92.38
423.175	95.38
423.398	74.38
423.621	74.38
423.843	70.38
424.066	83.38
424.288	68.38
424.511	66.38
424.733	81.38
424.956	67.38
425.178	74.38
425.401	85.38
425.623	75.38
425.846	85.38
426.068	78.38
426.291	80.38
426.513	81.38
426.735	73.38
426.958	78.38
427.18	81.38
427.402	79.38
427.625	72.38
427.847	74.38
428.069	77.38
428.292	71.38
428.514	82.38
428.736	80.38
428.958	64.38
429.181	89.38
429.403	81.38
429.625	85.38
429.847	75.38
430.069	80.38
430.292	83.38
430.514	76.38
430.736	79.38
430.958	86.38
431.18	84.38
431.402	79.38
431.624	92.38
431.846	73.38
432.068	86.38
432.29	70.38
432.512	73.38
432.734	98.38
432.956	79.38
433.178	81.38
433.4	86.38
433.622	72.38
433.844	78.38
434.066	58.38
434.287	73.38
434.509	75.38
434.731	82.38
434.953	70.38
435.175	72.38
435.397	72.38
435.618	80.38
435.84	67.38
436.062	73.38
436.284	81.38
436.505	82.38
436.727	67.38
436.949	75.38
437.17	76.38
437.392	82.38
437.614	73.38
437.835	77.38
438.057	80.38
438.278	72.38
438.5	77.38
438.721	78.38
438.943	74.38
439.165	73.38
439.386	85.38
439.608	72.38
439.829	73.38
440.05	73.38
440.272	74.38
440.493	76.38
440.715	86.38
440.936	76.38
441.158	82.38
441.379	86.38
441.6	86.38
441.822	78.38
442.043	67.38
442.264	75.38
442.486	80.38
442.707	70.38
442.928	83.38
443.149	76.38
443.371	71.38
443.592	77.38
443.813	90.38
444.034	78.38
444.255	78.38
444.476	72.38
444.698	85.38
444.919	70.38
445.14	181.38
445.361	117.38
445.582	86.38
445.803	65.38
446.024	79.38
446.245	69.38
446.466	80.38
446.687	73.38
446.908	78.38
447.129	84.38
447.35	81.38
447.571	84.38
447.792	72.38
448.013	92.38
448.234	88.38
448.455	69.38
448.675	78.38
448.896	80.38
449.117	91.38
449.338	72.38
449.559	71.38
449.779	77.38
450	79.38
450.221	74.38
450.442	87.38
450.662	84.38
450.883	92.38
451.104	92.38
451.324	87.38
451.545	72.38
451.766	82.38
451.986	83.38
452.207	69.38
452.428	77.38
452.648	70.38
452.869	77.38
453.089	81.38
453.31	72.38
453.53	72.38
453.751	106.38
453.971	77.38
454.192	69.38
454.412	72.38
454.633	86.38
454.853	86.38
455.073	76.38
455.294	84.38
455.514	66.38
455.734	76.38
455.955	77.38
456.175	80.38
456.395	92.38
456.616	69.38
456.836	84.38
457.056	74.38
457.276	80.38
457.497	73.38
457.717	77.38
457.937	68.38
458.157	84.38
458.377	87.38
458.598	66.38
458.818	75.38
459.038	83.38
459.258	74.38
459.478	87.38
459.698	70.38
459.918	88.38
460.138	70.38
460.358	69.38
460.578	85.38
460.798	69.38
461.018	67.38
461.238	69.38
461.458	80.38
461.678	73.38
461.898	85.38
462.118	75.38
462.338	78.38
462.558	78.38
462.777	86.38
462.997	85.38
463.217	71.38
463.437	86.38
463.657	67.38
463.876	72.38
464.096	69.38
464.316	68.38
464.536	74.38
464.755	77.38
464.975	77.38
465.195	79.38
465.414	86.38
465.634	66.38
465.854	83.38
466.073	87.38
466.293	72.38
466.512	72.38
466.732	74.38
466.951	77.38
467.171	80.38
467.391	68.38
467.61	77.38
467.829	73.38
468.049	72.38
468.268	83.38
468.488	79.38
468.707	76.38
468.927	85.38
469.146	75.38
469.365	81.38
469.585	82.38
469.804	76.38
470.023	68.38
470.243	76.38
470.462	74.38
470.681	84.38
470.901	68.38
471.12	70.38
471.339	90.38
471.558	73.38
471.777	76.38
471.997	67.38
472.216	82.38
472.435	77.38
472.654	78.38
472.873	68.38
473.092	81.38
473.311	84.38
473.53	77.38
473.749	84.38
473.968	72.38
474.187	77.38
474.406	78.38
474.625	83.38
474.844	65.38
475.063	81.38
475.282	74.38
475.501	84.38
475.72	87.38
475.939	85.38
476.158	80.38
476.377	73.38
476.596	81.38
476.814	76.38
477.033	84.38
477.252	68.38
477.471	75.38
477.69	86.38
477.908	82.38
478.127	79.38
478.346	87.38
478.564	87.38
478.783	73.38
479.002	95.38
479.22	75.38
479.439	92.38
479.658	78.38
479.876	73.38
480.095	75.38
480.313	86.38
480.532	80.38
480.751	85.38
480.969	85.38
481.188	76.38
481.406	86.38
481.624	73.38
481.843	82.38
482.061	79.38
482.28	87.38
482.498	74.38
482.717	77.38
482.935	72.38
483.153	66.38
483.372	79.38
483.59	87.38
483.808	79.38
484.027	79.38
484.245	79.38
484.463	75.38
484.681	81.38
484.9	87.38
485.118	81.38
485.336	69.38
485.554	67.38
485.772	98.38
485.99	88.38
486.209	88.38
486.427	65.38
486.645	90.38
486.863	86.38
487.081	82.38
487.299	76.38
487.517	81.38
487.735	94.38
487.953	68.38
488.171	76.38
488.389	84.38
488.607	85.38
488.825	81.38
489.043	67.38
489.261	74.38
489.479	73.38
489.696	75.38
489.914	75.38
490.132	67.38
490.35	85.38
490.568	86.38
490.786	86.38
491.003	76.38
491.221	80.38
491.439	80.38
491.657	76.38
491.874	77.38
492.092	83.38
492.31	77.38
492.527	90.38
492.745	92.38
492.963	73.38
493.18	62.38
493.398	82.38
493.615	71.38
493.833	94.38
494.05	94.38
494.268	69.38
494.485	74.38
494.703	81.38
494.92	81.38
495.138	83.38
495.355	78.38
495.573	85.38
495.79	78.38
496.008	76.38
496.225	71.38
496.442	76.38
496.66	68.38
496.877	85.38
497.094	84.38
497.312	78.38
497.529	66.38
497.746	84.38
497.963	73.38
498.181	69.38
498.398	67.38
498.615	80.38
498.832	84.38
499.049	78.38
499.267	82.38
499.484	81.38
499.701	79.38
499.918	73.38
500.135	89.38
500.352	77.38
500.569	73.38
500.786	83.38
501.003	77.38
501.22	85.38
501.437	88.38
501.654	80.38
501.871	86.38
502.088	75.38
502.305	84.38
502.522	69.38
502.739	79.38
502.956	75.38
503.172	65.38
503.389	83.38
503.606	86.38
503.823	77.38
504.04	90.38
504.256	84.38
504.473	84.38
504.69	82.38
504.907	77.38
505.123	81.38
505.34	74.38
505.557	75.38
505.773	74.38
505.99	75.38
506.207	80.38
506.423	69.38
506.64	92.38
506.856	84.38
507.073	74.38
507.289	92.38
507.506	78.38
507.722	78.38
507.939	79.38
508.155	78.38
508.372	70.38
508.588	84.38
508.805	84.38
509.021	77.38
509.238	78.38
509.454	97.38
509.67	89.38
509.887	79.38
510.103	83.38
510.319	84.38
510.536	92.38
510.752	82.38
510.968	72.38
511.184	67.38
511.401	79.38
511.617	86.38
511.833	77.38
512.049	72.38
512.265	82.38
512.481	82.38
512.698	83.38
512.914	80.38
513.13	70.38
513.346	66.38
513.562	83.38
513.778	71.38
513.994	84.38
514.21	70.38
514.426	93.38
514.642	90.38
514.858	85.38
515.074	81.38
515.29	83.38
515.506	84.38
515.721	85.38
515.937	89.38
516.153	85.38
516.369	76.38
516.585	86.38
516.801	84.38
517.016	79.38
517.232	77.38
517.448	85.38
517.664	80.38
517.879	75.38
518.095	83.38
518.311	80.38
518.527	88.38
518.742	67.38
518.958	84.38
519.173	88.38
519.389	82.38
519.605	80.38
519.82	85.38
520.036	90.38
520.251	95.38
520.467	78.38
520.682	86.38
520.898	76.38
521.113	83.38
521.329	86.38
521.544	69.38
521.76	69.38
521.975	77.38
522.19	69.38
522.406	57.38
522.621	66.38
522.836	66.38
523.052	74.38
523.267	86.38
523.482	81.38
523.698	86.38
523.913	90.38
524.128	86.38
524.343	87.38
524.559	95.38
524.774	86.38
524.989	94.38
525.204	76.38
525.419	88.38
525.634	74.38
525.849	98.38
526.064	73.38
526.28	86.38
526.495	85.38
526.71	78.38
526.925	73.38
527.14	63.38
527.355	82.38
527.57	86.38
527.785	91.38
527.999	94.38
528.214	84.38
528.429	90.38
528.644	76.38
528.859	77.38
529.074	73.38
529.289	77.38
529.503	81.38
529.718	73.38
529.933	65.38
530.148	70.38
530.363	70.38
530.577	66.38
530.792	77.38
531.007	80.38
531.221	73.38
531.436	70.38
531.651	78.38
531.865	96.38
532.08	75.38
532.295	71.38
532.509	84.38
532.724	81.38
532.938	93.38
533.153	80.38
533.367	81.38
533.582	76.38
533.796	78.38
534.011	92.38
534.225	90.38
534.44	81.38
534.654	79.38
534.868	77.38
535.083	72.38
535.297	83.38
535.511	91.38
535.726	82.38
535.94	85.38
536.154	96.38
536.369	72.38
536.583	78.38
536.797	80.38
537.011	65.38
537.225	70.38
537.44	84.38
537.654	78.38
537.868	88.38
538.082	80.38
538.296	69.38
538.51	85.38
538.724	76.38
538.938	64.38
539.153	78.38
539.367	86.38
539.581	81.38
539.795	93.38
540.009	78.38
540.222	87.38
540.436	86.38
540.65	95.38
540.864	89.38
541.078	78.38
541.292	75.38
541.506	84.38
541.72	89.38
541.934	87.38
542.147	86.38
542.361	80.38
542.575	76.38
542.789	91.38
543.002	80.38
543.216	86.38
543.43	84.38
543.644	76.38
543.857	93.38
544.071	74.38
544.285	72.38
544.498	71.38
544.712	84.38
544.925	81.38
545.139	77.38
545.352	82.38
545.566	82.38
545.779	86.38
545.993	73.38
546.206	78.38
546.42	78.38
546.633	84.38
546.847	77.38
547.06	90.38
547.274	88.38
547.487	88.38
547.7	87.38
547.914	90.38
548.127	80.38
548.34	76.38
548.554	76.38
548.767	69.38
548.98	93.38
549.193	84.38
549.407	86.38
549.62	73.38
549.833	85.38
550.046	60.38
550.259	78.38
550.473	88.38
550.686	99.38
550.899	84.38
551.112	89.38
551.325	101.38
551.538	81.38
551.751	92.38
551.964	92.38
552.177	82.38
552.39	81.38
552.603	77.38
552.816	79.38
553.029	83.38
553.242	72.38
553.455	89.38
553.667	67.38
553.88	72.38
554.093	73.38
554.306	92.38
554.519	80.38
554.732	77.38
554.944	71.38
555.157	87.38
555.37	75.38
555.583	78.38
555.795	91.38
556.008	82.38
556.221	80.38
556.433	69.38
556.646	82.38
556.859	73.38
557.071	74.38
557.284	80.38
557.496	84.38
557.709	59.38
557.921	81.38
558.134	74.38
558.346	82.38
558.559	79.38
558.771	72.38
558.984	67.38
559.196	86.38
559.409	80.38
559.621	90.38
559.833	69.38
560.046	80.38
560.258	85.38
560.47	82.38
560.683	91.38
560.895	88.38
561.107	69.38
561.32	72.38
561.532	61.38
561.744	75.38
561.956	86.38
562.168	72.38
562.381	79.38
562.593	74.38
562.805	76.38
563.017	77.38
563.229	76.38
563.441	72.38
563.653	86.38
563.865	85.38
564.077	84.38
564.289	93.38
564.501	72.38
564.713	90.38
564.925	92.38
565.137	69.38
565.349	80.38
565.561	84.38
565.773	102.38
565.985	86.38
566.197	94.38
566.408	81.38
566.62	83.38
566.832	84.38
567.044	69.38
567.255	76.38
567.467	78.38
567.679	69.38
567.891	79.38
568.102	81.38
568.314	79.38
568.526	83.38
568.737	91.38
568.949	92.38
569.161	89.38
569.372	79.38
569.584	83.38
569.795	87.38
570.007	83.38
570.218	81.38
570.43	93.38
570.641	78.38
570.853	86.38
571.064	75.38
571.276	84.38
571.487	81.38
571.698	87.38
571.91	84.38
572.121	83.38
572.333	83.38
572.544	77.38
572.755	73.38
572.966	86.38
573.178	77.38
573.389	74.38
573.6	82.38
573.811	69.38
574.023	85.38
574.234	90.38
574.445	76.38
574.656	76.38
574.867	92.38
575.078	82.38
575.289	72.38
575.501	61.38
575.712	81.38
575.923	69.38
576.134	65.38
576.345	76.38
576.556	66.38
576.767	82.38
576.978	67.38
577.188	73.38
577.399	84.38
577.61	87.38
577.821	76.38
578.032	79.38
578.243	81.38
578.454	78.38
578.665	71.38
578.875	78.38
579.086	85.38
579.297	78.38
579.508	94.38
579.718	92.38
579.929	73.38
580.14	73.38
580.35	73.38
580.561	84.38
580.772	85.38
580.982	87.38
581.193	80.38
581.403	84.38
581.614	93.38
581.825	88.38
582.035	85.38
582.246	83.38
582.456	94.38
582.667	72.38
582.877	88.38
583.087	84.38
583.298	71.38
583.508	82.38
583.719	81.38
583.929	92.38
584.139	86.38
584.35	88.38
584.56	85.38
584.77	87.38
584.981	84.38
585.191	80.38
585.401	79.38
585.611	77.38
585.821	89.38
586.032	84.38
586.242	78.38
586.452	87.38
586.662	89.38
586.872	73.38
587.082	82.38
587.292	79.38
587.502	82.38
587.713	80.38
587.923	87.38
588.133	92.38
588.343	84.38
588.553	107.38
588.762	115.38
588.972	187.38
589.182	345.38
589.392	254.38
589.602	210.38
589.812	318.38
590.022	166.38
590.232	93.38
590.441	86.38
590.651	90.38
590.861	79.38
591.071	78.38
591.281	75.38
591.49	76.38
591.7	80.38
591.91	84.38
592.119	89.38
592.329	69.38
592.539	79.38
592.748	87.38
592.958	87.38
593.167	74.38
593.377	79.38
593.587	96.38
593.796	82.38
594.006	80.38
594.215	77.38
594.424	79.38
594.634	81.38
594.843	85.38
595.053	92.38
595.262	65.38
595.472	75.38
595.681	91.38
595.89	74.38
596.1	85.38
596.309	81.38
596.518	82.38
596.727	81.38
596.937	85.38
597.146	100.38
597.355	94.38
597.564	80.38
597.774	98.38
597.983	72.38
598.192	73.38
598.401	78.38
598.61	74.38
598.819	85.38
599.028	73.38
599.237	78.38
599.446	87.38
599.655	64.38
599.864	84.38
600.073	78.38
600.282	78.38
600.491	78.38
600.7	81.38
600.909	78.38
601.118	90.38
601.327	88.38
601.536	86.38
601.745	86.38
601.953	82.38
602.162	80.38
602.371	79.38
602.58	72.38
602.789	86.38
602.997	85.38
603.206	83.38
603.415	84.38
603.623	81.38
603.832	77.38
604.041	77.38
604.249	72.38
604.458	80.38
604.666	77.38
604.875	84.38
605.084	71.38
605.292	78.38
605.501	81.38
605.709	92.38
605.918	84.38
606.126	99.38
606.334	78.38
606.543	90.38
606.751	85.38
606.96	80.38
607.168	81.38
607.376	84.38
607.585	77.38
607.793	89.38
608.001	68.38
608.21	82.38
608.418	84.38
608.626	91.38
608.834	82.38
609.043	82.38
609.251	86.38
609.459	81.38
609.667	85.38
609.875	72.38
610.083	80.38
610.291	74.38
610.499	85.38
610.707	80.38
610.916	103.38
611.124	80.38
611.332	80.38
611.54	79.38
611.748	88.38
611.955	83.38
612.163	80.38
612.371	83.38
612.579	76.38
612.787	80.38
612.995	80.38
613.203	86.38
613.411	93.38
613.618	85.38
613.826	80.38
614.034	68.38
614.242	90.38
614.449	82.38
614.657	79.38
614.865	77.38
615.072	79.38
615.28	81.38
615.488	74.38
615.695	77.38
615.903	76.38
616.111	78.38
616.318	89.38
616.526	76.38
616.733	83.38
616.941	85.38
617.148	80.38
617.356	69.38
617.563	78.38
617.771	86.38
617.978	78.38
618.185	85.38
618.393	74.38
618.6	76.38
618.807	82.38
619.015	72.38
619.222	78.38
619.429	75.38
619.637	79.38
619.844	84.38
620.051	77.38
620.258	85.38
620.466	84.38
620.673	90.38
620.88	91.38
621.087	74.38
621.294	77.38
621.501	78.38
621.708	80.38
621.915	82.38
622.122	89.38
622.329	97.38
622.536	84.38
622.743	96.38
622.95	77.38
623.157	77.38
623.364	86.38
623.571	84.38
623.778	89.38
623.985	86.38
624.192	76.38
624.399	75.38
624.606	102.38
624.812	89.38
625.019	75.38
625.226	76.38
625.433	85.38
625.639	78.38
625.846	92.38
626.053	77.38
626.259	80.38
626.466	90.38
626.673	72.38
626.879	88.38
627.086	79.38
627.293	75.38
627.499	80.38
627.706	89.38
627.912	75.38
628.119	94.38
628.325	84.38
628.532	78.38
628.738	69.38
628.945	64.38
629.151	77.38
629.357	89.38
629.564	86.38
629.77	62.38
629.976	75.38
630.183	88.38
630.389	74.38
630.595	73.38
630.802	83.38
631.008	78.38
631.214	82.38
631.42	82.38
631.627	88.38
631.833	90.38
632.039	80.38
632.245	84.38
632.451	89.38
632.657	80.38
632.863	70.38
633.069	77.38
633.275	85.38
633.481	85.38
633.688	89.38
633.893	94.38
634.099	82.38
634.305	62.38
634.511	79.38
634.717	72.38
634.923	87.38
635.129	69.38
635.335	72.38
635.541	84.38
635.747	84.38
635.952	69.38
636.158	83.38
636.364	89.38
636.57	68.38
636.775	76.38
636.981	90.38
637.187	78.38
637.392	80.38
637.598	76.38
637.804	80.38
638.009	90.38
638.215	69.38
638.421	82.38
638.626	66.38
638.832	93.38
639.037	78.38
639.243	86.38
639.448	71.38
639.654	80.38
639.859	81.38
640.065	81.38
640.27	88.38
640.475	83.38
640.681	69.38
640.886	88.38
641.091	88.38
641.297	96.38
641.502	79.38
641.707	81.38
641.913	72.38
642.118	68.38
642.323	77.38
642.528	85.38
642.733	71.38
642.939	65.38
643.144	64.38
643.349	92.38
643.554	78.38
643.759	71.38
643.964	92.38
644.169	78.38
644.374	69.38
644.579	96.38
644.784	66.38
644.989	68.38
645.194	76.38
645.399	78.38
645.604	74.38
645.809	75.38
646.014	74.38
646.219	81.38
646.423	72.38
646.628	65.38
646.833	77.38
647.038	94.38
647.243	88.38
647.447	93.38
647.652	83.38
647.857	75.38
648.062	78.38
648.266	76.38
648.471	81.38
648.676	82.38
648.88	74.38
649.085	79.38
649.289	80.38
649.494	86.38
649.698	89.38
649.903	82.38
650.107	68.38
650.312	84.38
650.516	87.38
650.721	72.38
650.925	75.38
651.13	66.38
651.334	93.38
651.539	72.38
651.743	89.38
651.947	87.38
652.152	77.38
652.356	78.38
652.56	75.38
652.764	64.38
652.969	62.38
653.173	78.38
653.377	70.38
653.581	88.38
653.785	75.38
653.99	93.38
654.194	88.38
654.398	80.38
654.602	75.38
654.806	72.38
655.01	92.38
655.214	92.38
655.418	77.38
655.622	72.38
655.826	80.38
656.03	87.38
656.234	85.38
656.438	88.38
656.642	74.38
656.846	76.38
657.049	74.38
657.253	82.38
657.457	81.38
657.661	68.38
657.865	82.38
658.068	69.38
658.272	86.38
658.476	85.38
658.68	79.38
658.883	92.38
659.087	75.38
659.291	80.38
659.494	90.38
659.698	72.38
659.901	78.38
660.105	75.38
660.309	79.38
660.512	75.38
660.716	84.38
660.919	77.38
661.123	56.38
661.326	74.38
661.53	61.38
661.733	81.38
661.936	75.38
662.14	73.38
662.343	79.38
662.546	72.38
662.75	80.38
662.953	87.38
663.156	83.38
663.36	94.38
663.563	66.38
663.766	88.38
663.969	81.38
664.173	76.38
664.376	82.38
664.579	69.38
664.782	82.38
664.985	77.38
665.188	67.38
665.391	70.38
665.594	67.38
665.797	67.38
666	72.38
666.203	71.38
666.406	77.38
666.609	87.38
666.812	84.38
667.015	72.38
667.218	85.38
667.421	79.38
667.624	78.38
667.827	87.38
668.03	80.38
668.232	71.38
668.435	75.38
668.638	74.38
668.841	85.38
669.043	65.38
669.246	76.38
669.449	80.38
669.651	80.38
669.854	85.38
670.057	96.38
670.259	65.38
670.462	73.38
670.665	70.38
670.867	82.38
671.07	75.38
671.272	78.38
671.475	83.38
671.677	72.38
671.88	70.38
672.082	62.38
672.284	74.38
672.487	82.38
672.689	81.38
672.892	85.38
