Data from Propagules_50_2_HRD10591_00014.txt Node
Date: Thu Feb 19 11:08:01 EST 2026
User: Yrep
Spectrometer: HR+D1059
Trigger mode: 1
Integration Time (sec): 1.000000E-1
Scans to average: 1
Electric dark correction enabled: true
Nonlinearity correction enabled: false
Boxcar width: 0
XAxis mode: Wavelengths
Number of Pixels in Spectrum: 2048
>>>>>Begin Spectral Data<<<<<
223.165	-12.19
223.4	-12.19
223.635	-12.19
223.869	-19.19
224.104	-14.19
224.338	-28.19
224.573	-31.19
224.808	-7.19
225.042	-1.19
225.277	-2.19
225.511	-2.19
225.746	-5.19
225.98	14.81
226.215	7.81
226.449	26.81
226.683	19.81
226.918	23.81
227.152	29.81
227.387	31.81
227.621	43.81
227.856	51.81
228.09	43.81
228.324	70.81
228.559	60.81
228.793	52.81
229.027	53.81
229.262	51.81
229.496	69.81
229.73	72.81
229.964	76.81
230.199	80.81
230.433	67.81
230.667	68.81
230.901	63.81
231.136	66.81
231.37	72.81
231.604	74.81
231.838	89.81
232.072	63.81
232.306	80.81
232.541	80.81
232.775	84.81
233.009	85.81
233.243	75.81
233.477	82.81
233.711	94.81
233.945	78.81
234.179	72.81
234.413	79.81
234.647	76.81
234.881	91.81
235.115	72.81
235.349	65.81
235.583	70.81
235.817	84.81
236.051	85.81
236.285	65.81
236.519	78.81
236.753	73.81
236.987	73.81
237.221	69.81
237.455	67.81
237.689	72.81
237.922	81.81
238.156	73.81
238.39	78.81
238.624	63.81
238.858	68.81
239.091	75.81
239.325	83.81
239.559	83.81
239.793	75.81
240.027	76.81
240.26	66.81
240.494	64.81
240.728	73.81
240.961	73.81
241.195	65.81
241.429	72.81
241.662	76.81
241.896	79.81
242.13	66.81
242.363	77.81
242.597	86.81
242.83	81.81
243.064	89.81
243.298	68.81
243.531	68.81
243.765	58.81
243.998	68.81
244.232	80.81
244.465	69.81
244.699	65.81
244.932	70.81
245.166	72.81
245.399	57.81
245.633	72.81
245.866	70.81
246.099	74.81
246.333	77.81
246.566	83.81
246.8	56.81
247.033	76.81
247.266	69.81
247.5	72.81
247.733	66.81
247.966	81.81
248.2	74.81
248.433	87.81
248.666	67.81
248.899	69.81
249.133	72.81
249.366	77.81
249.599	68.81
249.832	78.81
250.066	74.81
250.299	68.81
250.532	66.81
250.765	74.81
250.998	58.81
251.231	74.81
251.465	72.81
251.698	64.81
251.931	71.81
252.164	76.81
252.397	67.81
252.63	70.81
252.863	86.81
253.096	79.81
253.329	72.81
253.562	69.81
253.795	82.81
254.028	76.81
254.261	84.81
254.494	75.81
254.727	61.81
254.96	75.81
255.193	71.81
255.426	75.81
255.659	84.81
255.892	80.81
256.124	57.81
256.357	71.81
256.59	73.81
256.823	78.81
257.056	75.81
257.289	74.81
257.521	73.81
257.754	87.81
257.987	78.81
258.22	76.81
258.452	94.81
258.685	74.81
258.918	82.81
259.151	75.81
259.383	84.81
259.616	65.81
259.849	78.81
260.081	72.81
260.314	61.81
260.547	91.81
260.779	75.81
261.012	79.81
261.244	78.81
261.477	78.81
261.71	95.81
261.942	85.81
262.175	97.81
262.407	83.81
262.64	77.81
262.872	69.81
263.105	90.81
263.337	68.81
263.57	77.81
263.802	68.81
264.035	92.81
264.267	81.81
264.499	76.81
264.732	77.81
264.964	75.81
265.197	80.81
265.429	83.81
265.661	69.81
265.894	93.81
266.126	76.81
266.358	70.81
266.591	72.81
266.823	80.81
267.055	82.81
267.287	75.81
267.52	85.81
267.752	91.81
267.984	78.81
268.216	82.81
268.448	72.81
268.681	98.81
268.913	79.81
269.145	81.81
269.377	86.81
269.609	75.81
269.841	80.81
270.073	84.81
270.306	89.81
270.538	74.81
270.77	69.81
271.002	82.81
271.234	64.81
271.466	74.81
271.698	80.81
271.93	74.81
272.162	81.81
272.394	80.81
272.626	75.81
272.858	80.81
273.09	85.81
273.322	82.81
273.553	76.81
273.785	82.81
274.017	81.81
274.249	75.81
274.481	67.81
274.713	79.81
274.945	80.81
275.176	73.81
275.408	72.81
275.64	87.81
275.872	76.81
276.104	87.81
276.335	69.81
276.567	71.81
276.799	70.81
277.031	80.81
277.262	70.81
277.494	77.81
277.726	93.81
277.957	93.81
278.189	69.81
278.421	80.81
278.652	70.81
278.884	79.81
279.115	85.81
279.347	68.81
279.579	80.81
279.81	77.81
280.042	81.81
280.273	88.81
280.505	88.81
280.736	71.81
280.968	78.81
281.199	76.81
281.431	81.81
281.662	64.81
281.894	67.81
282.125	76.81
282.356	73.81
282.588	75.81
282.819	83.81
283.051	74.81
283.282	81.81
283.513	68.81
283.745	86.81
283.976	94.81
284.207	87.81
284.439	69.81
284.67	81.81
284.901	78.81
285.132	80.81
285.364	81.81
285.595	89.81
285.826	86.81
286.057	79.81
286.288	79.81
286.52	95.81
286.751	85.81
286.982	80.81
287.213	71.81
287.444	76.81
287.675	84.81
287.906	90.81
288.138	73.81
288.369	77.81
288.6	93.81
288.831	70.81
289.062	81.81
289.293	58.81
289.524	74.81
289.755	83.81
289.986	78.81
290.217	92.81
290.448	87.81
290.679	73.81
290.91	79.81
291.141	69.81
291.371	88.81
291.602	87.81
291.833	79.81
292.064	76.81
292.295	78.81
292.526	74.81
292.757	72.81
292.987	80.81
293.218	68.81
293.449	72.81
293.68	81.81
293.91	85.81
294.141	60.81
294.372	83.81
294.603	68.81
294.833	80.81
295.064	82.81
295.295	90.81
295.525	67.81
295.756	80.81
295.987	65.81
296.217	70.81
296.448	80.81
296.679	87.81
296.909	78.81
297.14	74.81
297.37	83.81
297.601	77.81
297.831	84.81
298.062	95.81
298.292	76.81
298.523	74.81
298.753	72.81
298.984	71.81
299.214	85.81
299.445	81.81
299.675	81.81
299.905	68.81
300.136	80.81
300.366	73.81
300.597	82.81
300.827	73.81
301.057	93.81
301.288	73.81
301.518	66.81
301.748	88.81
301.979	83.81
302.209	92.81
302.439	86.81
302.669	87.81
302.9	104.81
303.13	86.81
303.36	78.81
303.59	71.81
303.82	85.81
304.051	83.81
304.281	70.81
304.511	80.81
304.741	87.81
304.971	80.81
305.201	79.81
305.431	78.81
305.661	91.81
305.891	87.81
306.121	79.81
306.352	77.81
306.582	77.81
306.812	73.81
307.042	87.81
307.272	71.81
307.502	71.81
307.731	86.81
307.961	82.81
308.191	81.81
308.421	88.81
308.651	69.81
308.881	85.81
309.111	74.81
309.341	84.81
309.571	69.81
309.8	88.81
310.03	86.81
310.26	87.81
310.49	83.81
310.72	72.81
310.949	84.81
311.179	71.81
311.409	85.81
311.639	65.81
311.868	73.81
312.098	67.81
312.328	80.81
312.557	92.81
312.787	72.81
313.017	79.81
313.246	78.81
313.476	76.81
313.706	79.81
313.935	73.81
314.165	83.81
314.394	82.81
314.624	72.81
314.853	67.81
315.083	74.81
315.312	80.81
315.542	65.81
315.771	90.81
316.001	88.81
316.23	63.81
316.46	76.81
316.689	72.81
316.919	70.81
317.148	78.81
317.377	74.81
317.607	79.81
317.836	77.81
318.065	92.81
318.295	83.81
318.524	81.81
318.753	87.81
318.983	89.81
319.212	76.81
319.441	72.81
319.67	71.81
319.9	67.81
320.129	69.81
320.358	89.81
320.587	74.81
320.816	79.81
321.046	65.81
321.275	77.81
321.504	84.81
321.733	78.81
321.962	82.81
322.191	80.81
322.42	76.81
322.649	80.81
322.878	76.81
323.108	101.81
323.337	80.81
323.566	84.81
323.795	89.81
324.024	70.81
324.253	70.81
324.482	76.81
324.71	81.81
324.939	78.81
325.168	76.81
325.397	77.81
325.626	85.81
325.855	91.81
326.084	96.81
326.313	80.81
326.542	80.81
326.77	84.81
326.999	94.81
327.228	80.81
327.457	77.81
327.686	79.81
327.914	85.81
328.143	81.81
328.372	109.81
328.6	77.81
328.829	80.81
329.058	71.81
329.287	74.81
329.515	73.81
329.744	68.81
329.972	71.81
330.201	77.81
330.43	73.81
330.658	71.81
330.887	66.81
331.115	85.81
331.344	70.81
331.572	71.81
331.801	84.81
332.03	78.81
332.258	84.81
332.486	82.81
332.715	92.81
332.943	84.81
333.172	82.81
333.4	72.81
333.629	74.81
333.857	81.81
334.085	72.81
334.314	86.81
334.542	75.81
334.771	80.81
334.999	75.81
335.227	96.81
335.455	86.81
335.684	78.81
335.912	87.81
336.14	85.81
336.369	72.81
336.597	69.81
336.825	79.81
337.053	75.81
337.281	83.81
337.51	71.81
337.738	90.81
337.966	90.81
338.194	73.81
338.422	72.81
338.65	74.81
338.878	87.81
339.106	80.81
339.334	62.81
339.562	80.81
339.79	73.81
340.018	75.81
340.246	85.81
340.474	74.81
340.702	74.81
340.93	74.81
341.158	75.81
341.386	73.81
341.614	83.81
341.842	83.81
342.07	75.81
342.298	73.81
342.526	73.81
342.754	64.81
342.981	87.81
343.209	74.81
343.437	94.81
343.665	89.81
343.893	77.81
344.12	85.81
344.348	71.81
344.576	72.81
344.804	86.81
345.031	75.81
345.259	78.81
345.487	66.81
345.714	69.81
345.942	87.81
346.17	68.81
346.397	71.81
346.625	58.81
346.853	68.81
347.08	84.81
347.308	86.81
347.535	88.81
347.763	85.81
347.99	84.81
348.218	76.81
348.445	70.81
348.673	67.81
348.9	79.81
349.128	79.81
349.355	70.81
349.583	80.81
349.81	80.81
350.037	81.81
350.265	64.81
350.492	85.81
350.72	68.81
350.947	73.81
351.174	83.81
351.402	72.81
351.629	74.81
351.856	77.81
352.083	65.81
352.311	90.81
352.538	79.81
352.765	79.81
352.992	82.81
353.22	73.81
353.447	77.81
353.674	75.81
353.901	80.81
354.128	82.81
354.355	75.81
354.583	78.81
354.81	78.81
355.037	81.81
355.264	75.81
355.491	78.81
355.718	77.81
355.945	80.81
356.172	76.81
356.399	71.81
356.626	72.81
356.853	86.81
357.08	72.81
357.307	85.81
357.534	74.81
357.761	85.81
357.988	57.81
358.215	76.81
358.441	76.81
358.668	85.81
358.895	84.81
359.122	85.81
359.349	70.81
359.576	78.81
359.802	76.81
360.029	81.81
360.256	86.81
360.483	72.81
360.709	65.81
360.936	78.81
361.163	83.81
361.39	92.81
361.616	78.81
361.843	78.81
362.07	89.81
362.296	80.81
362.523	90.81
362.749	74.81
362.976	77.81
363.203	90.81
363.429	54.81
363.656	68.81
363.882	80.81
364.109	80.81
364.335	72.81
364.562	83.81
364.788	83.81
365.015	81.81
365.241	77.81
365.468	77.81
365.694	78.81
365.92	72.81
366.147	69.81
366.373	76.81
366.599	82.81
366.826	79.81
367.052	80.81
367.278	86.81
367.505	84.81
367.731	90.81
367.957	72.81
368.184	58.81
368.41	78.81
368.636	80.81
368.862	72.81
369.089	91.81
369.315	72.81
369.541	77.81
369.767	81.81
369.993	77.81
370.219	86.81
370.445	69.81
370.672	82.81
370.898	81.81
371.124	84.81
371.35	84.81
371.576	78.81
371.802	85.81
372.028	84.81
372.254	85.81
372.48	83.81
372.706	85.81
372.932	70.81
373.158	100.81
373.384	70.81
373.61	72.81
373.835	79.81
374.061	77.81
374.287	80.81
374.513	73.81
374.739	87.81
374.965	88.81
375.191	68.81
375.416	76.81
375.642	87.81
375.868	91.81
376.094	75.81
376.319	82.81
376.545	75.81
376.771	64.81
376.997	62.81
377.222	66.81
377.448	68.81
377.674	81.81
377.899	86.81
378.125	68.81
378.35	81.81
378.576	80.81
378.802	95.81
379.027	70.81
379.253	82.81
379.478	68.81
379.704	68.81
379.929	76.81
380.155	75.81
380.38	78.81
380.606	64.81
380.831	81.81
381.057	86.81
381.282	85.81
381.507	66.81
381.733	84.81
381.958	79.81
382.184	85.81
382.409	80.81
382.634	71.81
382.86	79.81
383.085	73.81
383.31	86.81
383.535	99.81
383.761	84.81
383.986	71.81
384.211	68.81
384.436	77.81
384.662	74.81
384.887	87.81
385.112	88.81
385.337	73.81
385.562	91.81
385.787	97.81
386.013	94.81
386.238	69.81
386.463	70.81
386.688	95.81
386.913	76.81
387.138	72.81
387.363	82.81
387.588	72.81
387.813	80.81
388.038	82.81
388.263	81.81
388.488	71.81
388.713	83.81
388.938	82.81
389.163	75.81
389.387	88.81
389.612	80.81
389.837	76.81
390.062	76.81
390.287	77.81
390.512	77.81
390.736	74.81
390.961	74.81
391.186	67.81
391.411	65.81
391.636	78.81
391.86	57.81
392.085	70.81
392.31	67.81
392.534	71.81
392.759	70.81
392.984	91.81
393.208	64.81
393.433	82.81
393.658	79.81
393.882	75.81
394.107	69.81
394.331	90.81
394.556	85.81
394.78	95.81
395.005	77.81
395.229	76.81
395.454	77.81
395.678	90.81
395.903	77.81
396.127	90.81
396.352	80.81
396.576	82.81
396.801	70.81
397.025	61.81
397.249	69.81
397.474	77.81
397.698	83.81
397.922	85.81
398.147	76.81
398.371	78.81
398.595	76.81
398.82	79.81
399.044	80.81
399.268	68.81
399.492	67.81
399.717	74.81
399.941	82.81
400.165	76.81
400.389	63.81
400.613	76.81
400.837	82.81
401.062	70.81
401.286	65.81
401.51	94.81
401.734	77.81
401.958	76.81
402.182	73.81
402.406	79.81
402.63	69.81
402.854	78.81
403.078	88.81
403.302	73.81
403.526	75.81
403.75	75.81
403.974	71.81
404.198	76.81
404.422	88.81
404.645	62.81
404.869	72.81
405.093	74.81
405.317	84.81
405.541	82.81
405.765	74.81
405.988	77.81
406.212	74.81
406.436	81.81
406.66	78.81
406.883	81.81
407.107	73.81
407.331	75.81
407.555	66.81
407.778	74.81
408.002	76.81
408.226	70.81
408.449	82.81
408.673	69.81
408.896	67.81
409.12	88.81
409.344	81.81
409.567	86.81
409.791	82.81
410.014	73.81
410.238	68.81
410.461	79.81
410.685	91.81
410.908	79.81
411.132	88.81
411.355	65.81
411.578	68.81
411.802	76.81
412.025	86.81
412.249	84.81
412.472	65.81
412.695	55.81
412.919	73.81
413.142	71.81
413.365	79.81
413.589	69.81
413.812	81.81
414.035	77.81
414.258	91.81
414.482	74.81
414.705	80.81
414.928	82.81
415.151	79.81
415.374	70.81
415.597	80.81
415.821	75.81
416.044	82.81
416.267	94.81
416.49	71.81
416.713	79.81
416.936	74.81
417.159	75.81
417.382	75.81
417.605	69.81
417.828	68.81
418.051	65.81
418.274	93.81
418.497	86.81
418.72	70.81
418.943	78.81
419.166	89.81
419.389	67.81
419.611	74.81
419.834	91.81
420.057	76.81
420.28	73.81
420.503	77.81
420.726	72.81
420.948	83.81
421.171	78.81
421.394	71.81
421.617	75.81
421.839	76.81
422.062	83.81
422.285	85.81
422.507	81.81
422.73	84.81
422.953	86.81
423.175	75.81
423.398	70.81
423.621	74.81
423.843	69.81
424.066	67.81
424.288	86.81
424.511	79.81
424.733	69.81
424.956	56.81
425.178	83.81
425.401	81.81
425.623	75.81
425.846	66.81
426.068	84.81
426.291	69.81
426.513	62.81
426.735	72.81
426.958	65.81
427.18	80.81
427.402	81.81
427.625	72.81
427.847	73.81
428.069	77.81
428.292	73.81
428.514	80.81
428.736	78.81
428.958	82.81
429.181	77.81
429.403	75.81
429.625	65.81
429.847	78.81
430.069	76.81
430.292	67.81
430.514	72.81
430.736	69.81
430.958	65.81
431.18	77.81
431.402	79.81
431.624	69.81
431.846	73.81
432.068	79.81
432.29	78.81
432.512	68.81
432.734	80.81
432.956	73.81
433.178	66.81
433.4	78.81
433.622	74.81
433.844	70.81
434.066	60.81
434.287	83.81
434.509	83.81
434.731	82.81
434.953	64.81
435.175	71.81
435.397	70.81
435.618	73.81
435.84	79.81
436.062	78.81
436.284	73.81
436.505	72.81
436.727	74.81
436.949	73.81
437.17	77.81
437.392	83.81
437.614	73.81
437.835	87.81
438.057	76.81
438.278	70.81
438.5	75.81
438.721	70.81
438.943	83.81
439.165	90.81
439.386	77.81
439.608	76.81
439.829	83.81
440.05	84.81
440.272	69.81
440.493	80.81
440.715	70.81
440.936	81.81
441.158	84.81
441.379	79.81
441.6	69.81
441.822	83.81
442.043	90.81
442.264	85.81
442.486	77.81
442.707	89.81
442.928	89.81
443.149	101.81
443.371	93.81
443.592	66.81
443.813	78.81
444.034	77.81
444.255	79.81
444.476	80.81
444.698	77.81
444.919	76.81
445.14	144.81
445.361	90.81
445.582	74.81
445.803	69.81
446.024	86.81
446.245	80.81
446.466	89.81
446.687	89.81
446.908	69.81
447.129	85.81
447.35	69.81
447.571	81.81
447.792	72.81
448.013	77.81
448.234	76.81
448.455	65.81
448.675	72.81
448.896	78.81
449.117	91.81
449.338	75.81
449.559	85.81
449.779	89.81
450	85.81
450.221	76.81
450.442	59.81
450.662	75.81
450.883	68.81
451.104	81.81
451.324	80.81
451.545	77.81
451.766	65.81
451.986	83.81
452.207	75.81
452.428	86.81
452.648	78.81
452.869	82.81
453.089	79.81
453.31	72.81
453.53	80.81
453.751	74.81
453.971	91.81
454.192	68.81
454.412	79.81
454.633	56.81
454.853	72.81
455.073	77.81
455.294	81.81
455.514	78.81
455.734	91.81
455.955	79.81
456.175	64.81
456.395	72.81
456.616	67.81
456.836	73.81
457.056	79.81
457.276	85.81
457.497	80.81
457.717	78.81
457.937	71.81
458.157	72.81
458.377	69.81
458.598	72.81
458.818	81.81
459.038	81.81
459.258	73.81
459.478	74.81
459.698	75.81
459.918	74.81
460.138	74.81
460.358	67.81
460.578	86.81
460.798	72.81
461.018	92.81
461.238	81.81
461.458	84.81
461.678	77.81
461.898	69.81
462.118	85.81
462.338	85.81
462.558	68.81
462.777	85.81
462.997	78.81
463.217	95.81
463.437	76.81
463.657	72.81
463.876	67.81
464.096	74.81
464.316	70.81
464.536	87.81
464.755	80.81
464.975	81.81
465.195	77.81
465.414	74.81
465.634	72.81
465.854	69.81
466.073	75.81
466.293	74.81
466.512	78.81
466.732	67.81
466.951	66.81
467.171	74.81
467.391	65.81
467.61	75.81
467.829	82.81
468.049	92.81
468.268	71.81
468.488	76.81
468.707	73.81
468.927	48.81
469.146	80.81
469.365	85.81
469.585	72.81
469.804	80.81
470.023	81.81
470.243	83.81
470.462	66.81
470.681	88.81
470.901	76.81
471.12	67.81
471.339	74.81
471.558	81.81
471.777	71.81
471.997	96.81
472.216	79.81
472.435	81.81
472.654	69.81
472.873	77.81
473.092	78.81
473.311	81.81
473.53	68.81
473.749	72.81
473.968	67.81
474.187	69.81
474.406	76.81
474.625	84.81
474.844	82.81
475.063	76.81
475.282	77.81
475.501	76.81
475.72	84.81
475.939	79.81
476.158	66.81
476.377	80.81
476.596	89.81
476.814	82.81
477.033	73.81
477.252	81.81
477.471	74.81
477.69	54.81
477.908	80.81
478.127	82.81
478.346	73.81
478.564	82.81
478.783	77.81
479.002	74.81
479.22	84.81
479.439	73.81
479.658	88.81
479.876	70.81
480.095	68.81
480.313	70.81
480.532	81.81
480.751	82.81
480.969	74.81
481.188	80.81
481.406	64.81
481.624	79.81
481.843	74.81
482.061	72.81
482.28	87.81
482.498	82.81
482.717	72.81
482.935	85.81
483.153	73.81
483.372	84.81
483.59	92.81
483.808	80.81
484.027	76.81
484.245	78.81
484.463	77.81
484.681	78.81
484.9	83.81
485.118	88.81
485.336	74.81
485.554	78.81
485.772	72.81
485.99	69.81
486.209	80.81
486.427	85.81
486.645	87.81
486.863	78.81
487.081	69.81
487.299	79.81
487.517	91.81
487.735	80.81
487.953	93.81
488.171	81.81
488.389	69.81
488.607	76.81
488.825	89.81
489.043	86.81
489.261	84.81
489.479	67.81
489.696	70.81
489.914	79.81
490.132	74.81
490.35	84.81
490.568	89.81
490.786	91.81
491.003	86.81
491.221	72.81
491.439	77.81
491.657	80.81
491.874	85.81
492.092	76.81
492.31	72.81
492.527	91.81
492.745	84.81
492.963	76.81
493.18	82.81
493.398	80.81
493.615	69.81
493.833	74.81
494.05	84.81
494.268	77.81
494.485	81.81
494.703	83.81
494.92	66.81
495.138	77.81
495.355	71.81
495.573	75.81
495.79	72.81
496.008	80.81
496.225	72.81
496.442	76.81
496.66	78.81
496.877	82.81
497.094	85.81
497.312	69.81
497.529	70.81
497.746	75.81
497.963	74.81
498.181	81.81
498.398	79.81
498.615	80.81
498.832	83.81
499.049	70.81
499.267	78.81
499.484	78.81
499.701	81.81
499.918	72.81
500.135	79.81
500.352	93.81
500.569	88.81
500.786	80.81
501.003	84.81
501.22	58.81
501.437	85.81
501.654	85.81
501.871	76.81
502.088	77.81
502.305	78.81
502.522	73.81
502.739	92.81
502.956	101.81
503.172	91.81
503.389	70.81
503.606	65.81
503.823	76.81
504.04	90.81
504.256	68.81
504.473	67.81
504.69	84.81
504.907	86.81
505.123	77.81
505.34	81.81
505.557	80.81
505.773	68.81
505.99	72.81
506.207	85.81
506.423	68.81
506.64	81.81
506.856	87.81
507.073	86.81
507.289	74.81
507.506	88.81
507.722	76.81
507.939	80.81
508.155	66.81
508.372	82.81
508.588	70.81
508.805	79.81
509.021	79.81
509.238	75.81
509.454	67.81
509.67	78.81
509.887	85.81
510.103	80.81
510.319	81.81
510.536	83.81
510.752	76.81
510.968	68.81
511.184	82.81
511.401	82.81
511.617	77.81
511.833	85.81
512.049	96.81
512.265	79.81
512.481	72.81
512.698	77.81
512.914	91.81
513.13	69.81
513.346	87.81
513.562	84.81
513.778	88.81
513.994	80.81
514.21	78.81
514.426	80.81
514.642	78.81
514.858	73.81
515.074	64.81
515.29	66.81
515.506	82.81
515.721	80.81
515.937	77.81
516.153	76.81
516.369	88.81
516.585	76.81
516.801	72.81
517.016	77.81
517.232	72.81
517.448	73.81
517.664	89.81
517.879	84.81
518.095	85.81
518.311	87.81
518.527	74.81
518.742	82.81
518.958	74.81
519.173	91.81
519.389	70.81
519.605	78.81
519.82	83.81
520.036	88.81
520.251	70.81
520.467	80.81
520.682	76.81
520.898	79.81
521.113	73.81
521.329	81.81
521.544	75.81
521.76	71.81
521.975	83.81
522.19	70.81
522.406	84.81
522.621	84.81
522.836	80.81
523.052	78.81
523.267	87.81
523.482	66.81
523.698	65.81
523.913	75.81
524.128	69.81
524.343	79.81
524.559	79.81
524.774	81.81
524.989	85.81
525.204	82.81
525.419	77.81
525.634	74.81
525.849	76.81
526.064	83.81
526.28	79.81
526.495	87.81
526.71	84.81
526.925	89.81
527.14	81.81
527.355	82.81
527.57	77.81
527.785	89.81
527.999	78.81
528.214	73.81
528.429	81.81
528.644	80.81
528.859	93.81
529.074	82.81
529.289	83.81
529.503	74.81
529.718	90.81
529.933	97.81
530.148	70.81
530.363	83.81
530.577	76.81
530.792	74.81
531.007	72.81
531.221	77.81
531.436	84.81
531.651	71.81
531.865	67.81
532.08	88.81
532.295	80.81
532.509	71.81
532.724	86.81
532.938	84.81
533.153	82.81
533.367	69.81
533.582	82.81
533.796	79.81
534.011	81.81
534.225	84.81
534.44	72.81
534.654	76.81
534.868	81.81
535.083	81.81
535.297	69.81
535.511	72.81
535.726	89.81
535.94	80.81
536.154	92.81
536.369	81.81
536.583	75.81
536.797	78.81
537.011	74.81
537.225	85.81
537.44	86.81
537.654	79.81
537.868	84.81
538.082	78.81
538.296	71.81
538.51	86.81
538.724	69.81
538.938	74.81
539.153	82.81
539.367	84.81
539.581	84.81
539.795	70.81
540.009	76.81
540.222	73.81
540.436	73.81
540.65	74.81
540.864	78.81
541.078	84.81
541.292	75.81
541.506	95.81
541.72	82.81
541.934	84.81
542.147	68.81
542.361	90.81
542.575	83.81
542.789	72.81
543.002	70.81
543.216	77.81
543.43	79.81
543.644	75.81
543.857	86.81
544.071	78.81
544.285	78.81
544.498	80.81
544.712	80.81
544.925	69.81
545.139	70.81
545.352	77.81
545.566	87.81
545.779	77.81
545.993	79.81
546.206	92.81
546.42	72.81
546.633	82.81
546.847	68.81
547.06	77.81
547.274	77.81
547.487	80.81
547.7	76.81
547.914	94.81
548.127	78.81
548.34	74.81
548.554	86.81
548.767	74.81
548.98	75.81
549.193	81.81
549.407	84.81
549.62	70.81
549.833	79.81
550.046	66.81
550.259	85.81
550.473	74.81
550.686	82.81
550.899	75.81
551.112	90.81
551.325	84.81
551.538	75.81
551.751	60.81
551.964	69.81
552.177	79.81
552.39	72.81
552.603	79.81
552.816	84.81
553.029	83.81
553.242	82.81
553.455	78.81
553.667	77.81
553.88	86.81
554.093	92.81
554.306	83.81
554.519	78.81
554.732	87.81
554.944	80.81
555.157	73.81
555.37	83.81
555.583	78.81
555.795	73.81
556.008	87.81
556.221	84.81
556.433	79.81
556.646	74.81
556.859	83.81
557.071	63.81
557.284	68.81
557.496	80.81
557.709	79.81
557.921	73.81
558.134	84.81
558.346	81.81
558.559	81.81
558.771	75.81
558.984	79.81
559.196	79.81
559.409	81.81
559.621	82.81
559.833	97.81
560.046	79.81
560.258	83.81
560.47	73.81
560.683	79.81
560.895	73.81
561.107	74.81
561.32	74.81
561.532	72.81
561.744	65.81
561.956	85.81
562.168	82.81
562.381	75.81
562.593	86.81
562.805	82.81
563.017	87.81
563.229	85.81
563.441	74.81
563.653	74.81
563.865	78.81
564.077	83.81
564.289	92.81
564.501	74.81
564.713	80.81
564.925	71.81
565.137	87.81
565.349	81.81
565.561	78.81
565.773	81.81
565.985	85.81
566.197	78.81
566.408	79.81
566.62	69.81
566.832	79.81
567.044	75.81
567.255	90.81
567.467	92.81
567.679	89.81
567.891	73.81
568.102	90.81
568.314	89.81
568.526	72.81
568.737	78.81
568.949	77.81
569.161	71.81
569.372	81.81
569.584	74.81
569.795	85.81
570.007	93.81
570.218	79.81
570.43	67.81
570.641	83.81
570.853	85.81
571.064	77.81
571.276	74.81
571.487	66.81
571.698	74.81
571.91	87.81
572.121	76.81
572.333	82.81
572.544	74.81
572.755	78.81
572.966	80.81
573.178	80.81
573.389	65.81
573.6	75.81
573.811	76.81
574.023	78.81
574.234	72.81
574.445	78.81
574.656	86.81
574.867	80.81
575.078	85.81
575.289	80.81
575.501	75.81
575.712	72.81
575.923	73.81
576.134	76.81
576.345	88.81
576.556	87.81
576.767	80.81
576.978	81.81
577.188	78.81
577.399	76.81
577.61	87.81
577.821	84.81
578.032	87.81
578.243	78.81
578.454	71.81
578.665	81.81
578.875	73.81
579.086	81.81
579.297	86.81
579.508	75.81
579.718	83.81
579.929	89.81
580.14	79.81
580.35	86.81
580.561	94.81
580.772	85.81
580.982	74.81
581.193	65.81
581.403	70.81
581.614	77.81
581.825	80.81
582.035	78.81
582.246	69.81
582.456	66.81
582.667	87.81
582.877	85.81
583.087	75.81
583.298	73.81
583.508	74.81
583.719	87.81
583.929	93.81
584.139	72.81
584.35	81.81
584.56	76.81
584.77	75.81
584.981	77.81
585.191	66.81
585.401	93.81
585.611	80.81
585.821	69.81
586.032	88.81
586.242	65.81
586.452	77.81
586.662	81.81
586.872	84.81
587.082	62.81
587.292	79.81
587.502	88.81
587.713	77.81
587.923	78.81
588.133	87.81
588.343	68.81
588.553	89.81
588.762	95.81
588.972	106.81
589.182	142.81
589.392	108.81
589.602	102.81
589.812	125.81
590.022	103.81
590.232	56.81
590.441	78.81
590.651	89.81
590.861	91.81
591.071	90.81
591.281	92.81
591.49	85.81
591.7	87.81
591.91	91.81
592.119	71.81
592.329	76.81
592.539	74.81
592.748	84.81
592.958	79.81
593.167	79.81
593.377	82.81
593.587	91.81
593.796	77.81
594.006	74.81
594.215	77.81
594.424	76.81
594.634	76.81
594.843	80.81
595.053	80.81
595.262	100.81
595.472	80.81
595.681	67.81
595.89	76.81
596.1	82.81
596.309	84.81
596.518	72.81
596.727	76.81
596.937	70.81
597.146	77.81
597.355	91.81
597.564	81.81
597.774	84.81
597.983	72.81
598.192	86.81
598.401	84.81
598.61	80.81
598.819	93.81
599.028	78.81
599.237	85.81
599.446	85.81
599.655	76.81
599.864	80.81
600.073	70.81
600.282	86.81
600.491	84.81
600.7	80.81
600.909	75.81
601.118	88.81
601.327	83.81
601.536	89.81
601.745	104.81
601.953	73.81
602.162	80.81
602.371	82.81
602.58	77.81
602.789	84.81
602.997	86.81
603.206	81.81
603.415	92.81
603.623	82.81
603.832	86.81
604.041	88.81
604.249	74.81
604.458	71.81
604.666	77.81
604.875	82.81
605.084	81.81
605.292	71.81
605.501	70.81
605.709	78.81
605.918	62.81
606.126	79.81
606.334	72.81
606.543	65.81
606.751	75.81
606.96	88.81
607.168	85.81
607.376	68.81
607.585	74.81
607.793	72.81
608.001	77.81
608.21	81.81
608.418	81.81
608.626	82.81
608.834	76.81
609.043	79.81
609.251	68.81
609.459	76.81
609.667	87.81
609.875	85.81
610.083	80.81
610.291	81.81
610.499	69.81
610.707	74.81
610.916	81.81
611.124	69.81
611.332	69.81
611.54	82.81
611.748	67.81
611.955	82.81
612.163	83.81
612.371	70.81
612.579	79.81
612.787	86.81
612.995	80.81
613.203	77.81
613.411	84.81
613.618	72.81
613.826	70.81
614.034	66.81
614.242	80.81
614.449	73.81
614.657	77.81
614.865	86.81
615.072	102.81
615.28	91.81
615.488	66.81
615.695	73.81
615.903	74.81
616.111	74.81
616.318	81.81
616.526	81.81
616.733	85.81
616.941	84.81
617.148	93.81
617.356	78.81
617.563	88.81
617.771	64.81
617.978	78.81
618.185	72.81
618.393	86.81
618.6	87.81
618.807	74.81
619.015	84.81
619.222	74.81
619.429	79.81
619.637	82.81
619.844	79.81
620.051	76.81
620.258	72.81
620.466	73.81
620.673	69.81
620.88	69.81
621.087	81.81
621.294	77.81
621.501	75.81
621.708	78.81
621.915	85.81
622.122	75.81
622.329	72.81
622.536	78.81
622.743	92.81
622.95	70.81
623.157	86.81
623.364	83.81
623.571	83.81
623.778	68.81
623.985	84.81
624.192	66.81
624.399	77.81
624.606	78.81
624.812	98.81
625.019	88.81
625.226	72.81
625.433	85.81
625.639	74.81
625.846	69.81
626.053	75.81
626.259	81.81
626.466	82.81
626.673	70.81
626.879	87.81
627.086	72.81
627.293	79.81
627.499	78.81
627.706	67.81
627.912	82.81
628.119	76.81
628.325	76.81
628.532	70.81
628.738	83.81
628.945	66.81
629.151	74.81
629.357	82.81
629.564	96.81
629.77	80.81
629.976	71.81
630.183	80.81
630.389	75.81
630.595	77.81
630.802	76.81
631.008	71.81
631.214	62.81
631.42	76.81
631.627	81.81
631.833	60.81
632.039	78.81
632.245	93.81
632.451	88.81
632.657	69.81
632.863	73.81
633.069	73.81
633.275	74.81
633.481	86.81
633.688	76.81
633.893	75.81
634.099	73.81
634.305	72.81
634.511	71.81
634.717	83.81
634.923	95.81
635.129	62.81
635.335	74.81
635.541	78.81
635.747	78.81
635.952	75.81
636.158	76.81
636.364	78.81
636.57	77.81
636.775	81.81
636.981	84.81
637.187	80.81
637.392	60.81
637.598	67.81
637.804	82.81
638.009	74.81
638.215	79.81
638.421	68.81
638.626	67.81
638.832	73.81
639.037	85.81
639.243	83.81
639.448	94.81
639.654	76.81
639.859	76.81
640.065	78.81
640.27	89.81
640.475	95.81
640.681	77.81
640.886	87.81
641.091	85.81
641.297	78.81
641.502	78.81
641.707	80.81
641.913	66.81
642.118	81.81
642.323	67.81
642.528	68.81
642.733	83.81
642.939	76.81
643.144	83.81
643.349	73.81
643.554	60.81
643.759	91.81
643.964	89.81
644.169	84.81
644.374	74.81
644.579	60.81
644.784	77.81
644.989	97.81
645.194	80.81
645.399	76.81
645.604	73.81
645.809	84.81
646.014	80.81
646.219	94.81
646.423	82.81
646.628	70.81
646.833	92.81
647.038	84.81
647.243	76.81
647.447	83.81
647.652	96.81
647.857	75.81
648.062	86.81
648.266	80.81
648.471	70.81
648.676	83.81
648.88	86.81
649.085	70.81
649.289	80.81
649.494	76.81
649.698	77.81
649.903	90.81
650.107	68.81
650.312	85.81
650.516	63.81
650.721	72.81
650.925	72.81
651.13	78.81
651.334	66.81
651.539	84.81
651.743	67.81
651.947	71.81
652.152	82.81
652.356	81.81
652.56	83.81
652.764	75.81
652.969	77.81
653.173	73.81
653.377	77.81
653.581	75.81
653.785	82.81
653.99	82.81
654.194	84.81
654.398	74.81
654.602	87.81
654.806	70.81
655.01	92.81
655.214	68.81
655.418	82.81
655.622	61.81
655.826	58.81
656.03	73.81
656.234	72.81
656.438	73.81
656.642	73.81
656.846	79.81
657.049	72.81
657.253	79.81
657.457	75.81
657.661	83.81
657.865	71.81
658.068	77.81
658.272	69.81
658.476	77.81
658.68	94.81
658.883	69.81
659.087	91.81
659.291	81.81
659.494	71.81
659.698	71.81
659.901	88.81
660.105	68.81
660.309	80.81
660.512	84.81
660.716	80.81
660.919	80.81
661.123	88.81
661.326	74.81
661.53	70.81
661.733	90.81
661.936	70.81
662.14	68.81
662.343	82.81
662.546	76.81
662.75	69.81
662.953	61.81
663.156	88.81
663.36	69.81
663.563	79.81
663.766	81.81
663.969	66.81
664.173	73.81
664.376	84.81
664.579	78.81
664.782	66.81
664.985	86.81
665.188	79.81
665.391	72.81
665.594	74.81
665.797	70.81
666	76.81
666.203	75.81
666.406	77.81
666.609	82.81
666.812	72.81
667.015	71.81
667.218	90.81
667.421	80.81
667.624	82.81
667.827	91.81
668.03	80.81
668.232	66.81
668.435	85.81
668.638	79.81
668.841	78.81
669.043	90.81
669.246	79.81
669.449	88.81
669.651	83.81
669.854	68.81
670.057	71.81
670.259	74.81
670.462	87.81
670.665	74.81
670.867	82.81
671.07	82.81
671.272	84.81
671.475	83.81
671.677	70.81
671.88	67.81
672.082	70.81
672.284	92.81
672.487	52.81
672.689	71.81
672.892	72.81
