Data from Dirtnoheat2_HRD10591_00014.txt Node
Date: Fri Dec 27 15:19:52 EST 2024
User: Yrep
Spectrometer: HR+D1059
Trigger mode: 1
Integration Time (sec): 1.000000E-1
Scans to average: 1
Electric dark correction enabled: true
Nonlinearity correction enabled: false
Boxcar width: 0
XAxis mode: Wavelengths
Number of Pixels in Spectrum: 2048
>>>>>Begin Spectral Data<<<<<
223.165	-30.31
223.4	-30.31
223.635	-30.31
223.869	-16.31
224.104	-18.31
224.338	-19.31
224.573	-3.31
224.808	-11.31
225.042	-13.31
225.277	12.69
225.511	1.69
225.746	-0.31
225.98	11.69
226.215	3.69
226.449	11.69
226.683	19.69
226.918	17.69
227.152	33.69
227.387	30.69
227.621	32.69
227.856	40.69
228.09	30.69
228.324	49.69
228.559	54.69
228.793	77.69
229.027	65.69
229.262	59.69
229.496	53.69
229.73	61.69
229.964	82.69
230.199	70.69
230.433	69.69
230.667	85.69
230.901	80.69
231.136	58.69
231.37	73.69
231.604	91.69
231.838	87.69
232.072	88.69
232.306	75.69
232.541	89.69
232.775	83.69
233.009	97.69
233.243	79.69
233.477	77.69
233.711	69.69
233.945	79.69
234.179	71.69
234.413	78.69
234.647	78.69
234.881	89.69
235.115	81.69
235.349	79.69
235.583	67.69
235.817	73.69
236.051	68.69
236.285	75.69
236.519	73.69
236.753	81.69
236.987	66.69
237.221	79.69
237.455	85.69
237.689	72.69
237.922	80.69
238.156	77.69
238.39	81.69
238.624	75.69
238.858	75.69
239.091	79.69
239.325	68.69
239.559	67.69
239.793	91.69
240.027	67.69
240.26	85.69
240.494	88.69
240.728	83.69
240.961	78.69
241.195	87.69
241.429	68.69
241.662	77.69
241.896	75.69
242.13	73.69
242.363	87.69
242.597	79.69
242.83	83.69
243.064	79.69
243.298	81.69
243.531	61.69
243.765	79.69
243.998	94.69
244.232	71.69
244.465	92.69
244.699	79.69
244.932	74.69
245.166	69.69
245.399	75.69
245.633	81.69
245.866	78.69
246.099	84.69
246.333	74.69
246.566	76.69
246.8	80.69
247.033	78.69
247.266	74.69
247.5	64.69
247.733	88.69
247.966	77.69
248.2	87.69
248.433	88.69
248.666	79.69
248.899	62.69
249.133	83.69
249.366	82.69
249.599	63.69
249.832	89.69
250.066	85.69
250.299	69.69
250.532	85.69
250.765	80.69
250.998	81.69
251.231	80.69
251.465	73.69
251.698	63.69
251.931	82.69
252.164	60.69
252.397	81.69
252.63	75.69
252.863	76.69
253.096	92.69
253.329	77.69
253.562	74.69
253.795	78.69
254.028	71.69
254.261	58.69
254.494	92.69
254.727	82.69
254.96	75.69
255.193	88.69
255.426	77.69
255.659	76.69
255.892	90.69
256.124	60.69
256.357	72.69
256.59	84.69
256.823	81.69
257.056	82.69
257.289	80.69
257.521	69.69
257.754	78.69
257.987	97.69
258.22	80.69
258.452	79.69
258.685	74.69
258.918	76.69
259.151	93.69
259.383	94.69
259.616	70.69
259.849	94.69
260.081	99.69
260.314	84.69
260.547	79.69
260.779	76.69
261.012	88.69
261.244	81.69
261.477	84.69
261.71	88.69
261.942	82.69
262.175	85.69
262.407	79.69
262.64	68.69
262.872	79.69
263.105	81.69
263.337	83.69
263.57	89.69
263.802	75.69
264.035	104.69
264.267	87.69
264.499	86.69
264.732	78.69
264.964	65.69
265.197	84.69
265.429	91.69
265.661	81.69
265.894	82.69
266.126	84.69
266.358	74.69
266.591	80.69
266.823	94.69
267.055	90.69
267.287	81.69
267.52	75.69
267.752	76.69
267.984	84.69
268.216	82.69
268.448	96.69
268.681	88.69
268.913	88.69
269.145	73.69
269.377	87.69
269.609	86.69
269.841	68.69
270.073	86.69
270.306	79.69
270.538	68.69
270.77	81.69
271.002	88.69
271.234	92.69
271.466	91.69
271.698	82.69
271.93	82.69
272.162	88.69
272.394	78.69
272.626	71.69
272.858	90.69
273.09	75.69
273.322	79.69
273.553	85.69
273.785	75.69
274.017	91.69
274.249	95.69
274.481	94.69
274.713	87.69
274.945	92.69
275.176	81.69
275.408	79.69
275.64	100.69
275.872	70.69
276.104	70.69
276.335	77.69
276.567	84.69
276.799	86.69
277.031	80.69
277.262	69.69
277.494	79.69
277.726	71.69
277.957	73.69
278.189	86.69
278.421	94.69
278.652	91.69
278.884	83.69
279.115	80.69
279.347	83.69
279.579	72.69
279.81	86.69
280.042	83.69
280.273	79.69
280.505	80.69
280.736	73.69
280.968	92.69
281.199	90.69
281.431	80.69
281.662	65.69
281.894	83.69
282.125	81.69
282.356	88.69
282.588	91.69
282.819	78.69
283.051	78.69
283.282	90.69
283.513	79.69
283.745	94.69
283.976	86.69
284.207	80.69
284.439	79.69
284.67	70.69
284.901	88.69
285.132	96.69
285.364	82.69
285.595	86.69
285.826	93.69
286.057	79.69
286.288	90.69
286.52	78.69
286.751	88.69
286.982	96.69
287.213	72.69
287.444	89.69
287.675	94.69
287.906	92.69
288.138	83.69
288.369	84.69
288.6	95.69
288.831	77.69
289.062	96.69
289.293	85.69
289.524	81.69
289.755	69.69
289.986	84.69
290.217	80.69
290.448	82.69
290.679	81.69
290.91	84.69
291.141	89.69
291.371	80.69
291.602	86.69
291.833	88.69
292.064	81.69
292.295	74.69
292.526	87.69
292.757	97.69
292.987	78.69
293.218	86.69
293.449	82.69
293.68	76.69
293.91	79.69
294.141	78.69
294.372	83.69
294.603	89.69
294.833	77.69
295.064	80.69
295.295	71.69
295.525	91.69
295.756	80.69
295.987	82.69
296.217	78.69
296.448	82.69
296.679	76.69
296.909	100.69
297.14	82.69
297.37	81.69
297.601	78.69
297.831	76.69
298.062	87.69
298.292	93.69
298.523	81.69
298.753	82.69
298.984	90.69
299.214	88.69
299.445	89.69
299.675	85.69
299.905	106.69
300.136	69.69
300.366	85.69
300.597	97.69
300.827	96.69
301.057	83.69
301.288	105.69
301.518	81.69
301.748	85.69
301.979	106.69
302.209	87.69
302.439	101.69
302.669	86.69
302.9	81.69
303.13	82.69
303.36	77.69
303.59	87.69
303.82	84.69
304.051	82.69
304.281	74.69
304.511	92.69
304.741	88.69
304.971	83.69
305.201	83.69
305.431	85.69
305.661	82.69
305.891	89.69
306.121	88.69
306.352	91.69
306.582	80.69
306.812	65.69
307.042	77.69
307.272	77.69
307.502	76.69
307.731	107.69
307.961	82.69
308.191	82.69
308.421	87.69
308.651	75.69
308.881	87.69
309.111	81.69
309.341	82.69
309.571	68.69
309.8	82.69
310.03	86.69
310.26	87.69
310.49	88.69
310.72	85.69
310.949	91.69
311.179	76.69
311.409	74.69
311.639	69.69
311.868	87.69
312.098	91.69
312.328	79.69
312.557	78.69
312.787	83.69
313.017	87.69
313.246	71.69
313.476	83.69
313.706	79.69
313.935	66.69
314.165	88.69
314.394	78.69
314.624	82.69
314.853	87.69
315.083	88.69
315.312	82.69
315.542	75.69
315.771	84.69
316.001	79.69
316.23	80.69
316.46	81.69
316.689	91.69
316.919	90.69
317.148	93.69
317.377	90.69
317.607	87.69
317.836	89.69
318.065	93.69
318.295	89.69
318.524	79.69
318.753	95.69
318.983	75.69
319.212	84.69
319.441	84.69
319.67	96.69
319.9	72.69
320.129	73.69
320.358	84.69
320.587	82.69
320.816	83.69
321.046	77.69
321.275	92.69
321.504	75.69
321.733	89.69
321.962	91.69
322.191	90.69
322.42	85.69
322.649	95.69
322.878	92.69
323.108	100.69
323.337	90.69
323.566	100.69
323.795	88.69
324.024	90.69
324.253	71.69
324.482	80.69
324.71	90.69
324.939	101.69
325.168	90.69
325.397	81.69
325.626	71.69
325.855	77.69
326.084	74.69
326.313	87.69
326.542	84.69
326.77	77.69
326.999	83.69
327.228	85.69
327.457	77.69
327.686	85.69
327.914	85.69
328.143	100.69
328.372	84.69
328.6	89.69
328.829	74.69
329.058	85.69
329.287	84.69
329.515	80.69
329.744	80.69
329.972	103.69
330.201	90.69
330.43	91.69
330.658	90.69
330.887	82.69
331.115	86.69
331.344	68.69
331.572	88.69
331.801	95.69
332.03	92.69
332.258	91.69
332.486	104.69
332.715	83.69
332.943	87.69
333.172	82.69
333.4	81.69
333.629	97.69
333.857	100.69
334.085	76.69
334.314	79.69
334.542	83.69
334.771	88.69
334.999	82.69
335.227	77.69
335.455	82.69
335.684	88.69
335.912	83.69
336.14	73.69
336.369	80.69
336.597	84.69
336.825	92.69
337.053	94.69
337.281	79.69
337.51	71.69
337.738	85.69
337.966	88.69
338.194	90.69
338.422	85.69
338.65	87.69
338.878	95.69
339.106	79.69
339.334	79.69
339.562	98.69
339.79	85.69
340.018	87.69
340.246	76.69
340.474	77.69
340.702	80.69
340.93	93.69
341.158	92.69
341.386	98.69
341.614	83.69
341.842	78.69
342.07	93.69
342.298	91.69
342.526	76.69
342.754	82.69
342.981	77.69
343.209	86.69
343.437	117.69
343.665	97.69
343.893	84.69
344.12	83.69
344.348	84.69
344.576	87.69
344.804	95.69
345.031	96.69
345.259	92.69
345.487	89.69
345.714	88.69
345.942	80.69
346.17	77.69
346.397	82.69
346.625	79.69
346.853	75.69
347.08	92.69
347.308	83.69
347.535	90.69
347.763	74.69
347.99	76.69
348.218	87.69
348.445	75.69
348.673	68.69
348.9	95.69
349.128	95.69
349.355	90.69
349.583	87.69
349.81	87.69
350.037	91.69
350.265	80.69
350.492	83.69
350.72	65.69
350.947	80.69
351.174	91.69
351.402	88.69
351.629	76.69
351.856	79.69
352.083	82.69
352.311	95.69
352.538	87.69
352.765	74.69
352.992	93.69
353.22	90.69
353.447	71.69
353.674	92.69
353.901	91.69
354.128	96.69
354.355	84.69
354.583	83.69
354.81	74.69
355.037	92.69
355.264	83.69
355.491	84.69
355.718	76.69
355.945	89.69
356.172	84.69
356.399	87.69
356.626	85.69
356.853	77.69
357.08	82.69
357.307	92.69
357.534	84.69
357.761	84.69
357.988	98.69
358.215	99.69
358.441	100.69
358.668	74.69
358.895	88.69
359.122	81.69
359.349	89.69
359.576	95.69
359.802	84.69
360.029	79.69
360.256	81.69
360.483	99.69
360.709	89.69
360.936	92.69
361.163	74.69
361.39	75.69
361.616	83.69
361.843	85.69
362.07	104.69
362.296	97.69
362.523	85.69
362.749	79.69
362.976	81.69
363.203	88.69
363.429	77.69
363.656	85.69
363.882	88.69
364.109	81.69
364.335	92.69
364.562	88.69
364.788	95.69
365.015	88.69
365.241	85.69
365.468	88.69
365.694	77.69
365.92	79.69
366.147	84.69
366.373	89.69
366.599	86.69
366.826	83.69
367.052	85.69
367.278	76.69
367.505	99.69
367.731	91.69
367.957	75.69
368.184	82.69
368.41	81.69
368.636	82.69
368.862	84.69
369.089	84.69
369.315	74.69
369.541	101.69
369.767	94.69
369.993	85.69
370.219	88.69
370.445	83.69
370.672	72.69
370.898	88.69
371.124	70.69
371.35	74.69
371.576	94.69
371.802	72.69
372.028	75.69
372.254	84.69
372.48	80.69
372.706	79.69
372.932	83.69
373.158	89.69
373.384	89.69
373.61	106.69
373.835	87.69
374.061	95.69
374.287	98.69
374.513	88.69
374.739	79.69
374.965	95.69
375.191	90.69
375.416	83.69
375.642	87.69
375.868	103.69
376.094	77.69
376.319	87.69
376.545	77.69
376.771	85.69
376.997	88.69
377.222	83.69
377.448	91.69
377.674	88.69
377.899	87.69
378.125	91.69
378.35	69.69
378.576	84.69
378.802	88.69
379.027	86.69
379.253	91.69
379.478	91.69
379.704	72.69
379.929	68.69
380.155	86.69
380.38	88.69
380.606	80.69
380.831	69.69
381.057	84.69
381.282	80.69
381.507	87.69
381.733	83.69
381.958	92.69
382.184	81.69
382.409	77.69
382.634	87.69
382.86	91.69
383.085	84.69
383.31	81.69
383.535	88.69
383.761	77.69
383.986	88.69
384.211	87.69
384.436	81.69
384.662	98.69
384.887	74.69
385.112	89.69
385.337	93.69
385.562	88.69
385.787	90.69
386.013	93.69
386.238	80.69
386.463	86.69
386.688	97.69
386.913	84.69
387.138	87.69
387.363	88.69
387.588	83.69
387.813	79.69
388.038	96.69
388.263	83.69
388.488	92.69
388.713	74.69
388.938	75.69
389.163	77.69
389.387	85.69
389.612	83.69
389.837	72.69
390.062	95.69
390.287	75.69
390.512	89.69
390.736	87.69
390.961	76.69
391.186	76.69
391.411	82.69
391.636	87.69
391.86	88.69
392.085	82.69
392.31	75.69
392.534	76.69
392.759	89.69
392.984	75.69
393.208	90.69
393.433	80.69
393.658	84.69
393.882	87.69
394.107	77.69
394.331	87.69
394.556	81.69
394.78	83.69
395.005	89.69
395.229	75.69
395.454	92.69
395.678	82.69
395.903	90.69
396.127	89.69
396.352	76.69
396.576	100.69
396.801	93.69
397.025	84.69
397.249	83.69
397.474	85.69
397.698	68.69
397.922	109.69
398.147	77.69
398.371	72.69
398.595	80.69
398.82	68.69
399.044	97.69
399.268	78.69
399.492	81.69
399.717	77.69
399.941	83.69
400.165	93.69
400.389	92.69
400.613	88.69
400.837	83.69
401.062	85.69
401.286	87.69
401.51	92.69
401.734	93.69
401.958	89.69
402.182	84.69
402.406	82.69
402.63	81.69
402.854	93.69
403.078	86.69
403.302	75.69
403.526	70.69
403.75	84.69
403.974	88.69
404.198	89.69
404.422	87.69
404.645	76.69
404.869	98.69
405.093	83.69
405.317	70.69
405.541	83.69
405.765	88.69
405.988	89.69
406.212	84.69
406.436	88.69
406.66	84.69
406.883	74.69
407.107	75.69
407.331	82.69
407.555	83.69
407.778	76.69
408.002	107.69
408.226	81.69
408.449	79.69
408.673	72.69
408.896	80.69
409.12	83.69
409.344	97.69
409.567	79.69
409.791	80.69
410.014	78.69
410.238	79.69
410.461	84.69
410.685	73.69
410.908	86.69
411.132	83.69
411.355	84.69
411.578	82.69
411.802	74.69
412.025	82.69
412.249	93.69
412.472	75.69
412.695	81.69
412.919	76.69
413.142	68.69
413.365	87.69
413.589	89.69
413.812	80.69
414.035	72.69
414.258	82.69
414.482	88.69
414.705	79.69
414.928	81.69
415.151	68.69
415.374	77.69
415.597	94.69
415.821	89.69
416.044	90.69
416.267	76.69
416.49	73.69
416.713	93.69
416.936	86.69
417.159	70.69
417.382	92.69
417.605	72.69
417.828	75.69
418.051	87.69
418.274	85.69
418.497	76.69
418.72	73.69
418.943	94.69
419.166	81.69
419.389	93.69
419.611	80.69
419.834	75.69
420.057	82.69
420.28	89.69
420.503	94.69
420.726	80.69
420.948	80.69
421.171	90.69
421.394	98.69
421.617	78.69
421.839	78.69
422.062	89.69
422.285	89.69
422.507	85.69
422.73	81.69
422.953	98.69
423.175	98.69
423.398	84.69
423.621	92.69
423.843	80.69
424.066	87.69
424.288	89.69
424.511	91.69
424.733	94.69
424.956	71.69
425.178	80.69
425.401	86.69
425.623	76.69
425.846	79.69
426.068	88.69
426.291	89.69
426.513	68.69
426.735	87.69
426.958	79.69
427.18	77.69
427.402	89.69
427.625	77.69
427.847	72.69
428.069	72.69
428.292	92.69
428.514	85.69
428.736	83.69
428.958	69.69
429.181	75.69
429.403	84.69
429.625	92.69
429.847	81.69
430.069	91.69
430.292	89.69
430.514	98.69
430.736	80.69
430.958	77.69
431.18	78.69
431.402	67.69
431.624	77.69
431.846	84.69
432.068	91.69
432.29	84.69
432.512	72.69
432.734	77.69
432.956	87.69
433.178	88.69
433.4	68.69
433.622	80.69
433.844	84.69
434.066	93.69
434.287	105.69
434.509	89.69
434.731	78.69
434.953	79.69
435.175	92.69
435.397	79.69
435.618	74.69
435.84	82.69
436.062	84.69
436.284	69.69
436.505	86.69
436.727	85.69
436.949	87.69
437.17	75.69
437.392	80.69
437.614	83.69
437.835	83.69
438.057	84.69
438.278	82.69
438.5	83.69
438.721	76.69
438.943	89.69
439.165	94.69
439.386	76.69
439.608	92.69
439.829	84.69
440.05	88.69
440.272	97.69
440.493	91.69
440.715	82.69
440.936	94.69
441.158	84.69
441.379	72.69
441.6	85.69
441.822	76.69
442.043	94.69
442.264	95.69
442.486	93.69
442.707	69.69
442.928	79.69
443.149	96.69
443.371	85.69
443.592	77.69
443.813	87.69
444.034	77.69
444.255	86.69
444.476	84.69
444.698	79.69
444.919	77.69
445.14	141.69
445.361	115.69
445.582	91.69
445.803	86.69
446.024	87.69
446.245	108.69
446.466	85.69
446.687	93.69
446.908	80.69
447.129	88.69
447.35	86.69
447.571	82.69
447.792	74.69
448.013	74.69
448.234	80.69
448.455	82.69
448.675	86.69
448.896	73.69
449.117	77.69
449.338	81.69
449.559	94.69
449.779	89.69
450	87.69
450.221	91.69
450.442	97.69
450.662	76.69
450.883	73.69
451.104	80.69
451.324	81.69
451.545	84.69
451.766	83.69
451.986	76.69
452.207	86.69
452.428	85.69
452.648	84.69
452.869	78.69
453.089	79.69
453.31	73.69
453.53	76.69
453.751	92.69
453.971	73.69
454.192	98.69
454.412	86.69
454.633	89.69
454.853	89.69
455.073	75.69
455.294	83.69
455.514	96.69
455.734	100.69
455.955	90.69
456.175	87.69
456.395	80.69
456.616	81.69
456.836	70.69
457.056	80.69
457.276	82.69
457.497	79.69
457.717	87.69
457.937	97.69
458.157	70.69
458.377	75.69
458.598	84.69
458.818	83.69
459.038	73.69
459.258	82.69
459.478	75.69
459.698	85.69
459.918	81.69
460.138	83.69
460.358	94.69
460.578	91.69
460.798	83.69
461.018	89.69
461.238	79.69
461.458	84.69
461.678	78.69
461.898	90.69
462.118	82.69
462.338	87.69
462.558	88.69
462.777	94.69
462.997	84.69
463.217	68.69
463.437	86.69
463.657	70.69
463.876	97.69
464.096	84.69
464.316	67.69
464.536	85.69
464.755	89.69
464.975	91.69
465.195	70.69
465.414	93.69
465.634	81.69
465.854	84.69
466.073	86.69
466.293	75.69
466.512	87.69
466.732	80.69
466.951	75.69
467.171	77.69
467.391	90.69
467.61	68.69
467.829	82.69
468.049	80.69
468.268	86.69
468.488	85.69
468.707	95.69
468.927	81.69
469.146	87.69
469.365	79.69
469.585	99.69
469.804	91.69
470.023	76.69
470.243	73.69
470.462	82.69
470.681	75.69
470.901	91.69
471.12	85.69
471.339	90.69
471.558	95.69
471.777	94.69
471.997	76.69
472.216	85.69
472.435	79.69
472.654	83.69
472.873	75.69
473.092	89.69
473.311	89.69
473.53	94.69
473.749	94.69
473.968	99.69
474.187	77.69
474.406	73.69
474.625	85.69
474.844	91.69
475.063	81.69
475.282	103.69
475.501	79.69
475.72	80.69
475.939	80.69
476.158	76.69
476.377	72.69
476.596	75.69
476.814	80.69
477.033	83.69
477.252	92.69
477.471	80.69
477.69	74.69
477.908	75.69
478.127	95.69
478.346	75.69
478.564	73.69
478.783	82.69
479.002	82.69
479.22	77.69
479.439	94.69
479.658	89.69
479.876	89.69
480.095	88.69
480.313	83.69
480.532	85.69
480.751	80.69
480.969	86.69
481.188	81.69
481.406	84.69
481.624	82.69
481.843	84.69
482.061	89.69
482.28	82.69
482.498	80.69
482.717	73.69
482.935	85.69
483.153	89.69
483.372	96.69
483.59	85.69
483.808	71.69
484.027	90.69
484.245	81.69
484.463	95.69
484.681	81.69
484.9	74.69
485.118	87.69
485.336	79.69
485.554	84.69
485.772	82.69
485.99	99.69
486.209	66.69
486.427	76.69
486.645	79.69
486.863	81.69
487.081	91.69
487.299	93.69
487.517	81.69
487.735	85.69
487.953	88.69
488.171	90.69
488.389	88.69
488.607	84.69
488.825	86.69
489.043	74.69
489.261	84.69
489.479	87.69
489.696	89.69
489.914	68.69
490.132	79.69
490.35	83.69
490.568	87.69
490.786	98.69
491.003	84.69
491.221	80.69
491.439	86.69
491.657	88.69
491.874	101.69
492.092	90.69
492.31	78.69
492.527	84.69
492.745	92.69
492.963	101.69
493.18	85.69
493.398	90.69
493.615	70.69
493.833	90.69
494.05	90.69
494.268	87.69
494.485	82.69
494.703	87.69
494.92	83.69
495.138	81.69
495.355	82.69
495.573	89.69
495.79	84.69
496.008	73.69
496.225	95.69
496.442	92.69
496.66	94.69
496.877	96.69
497.094	85.69
497.312	73.69
497.529	81.69
497.746	77.69
497.963	85.69
498.181	84.69
498.398	74.69
498.615	93.69
498.832	91.69
499.049	68.69
499.267	87.69
499.484	87.69
499.701	92.69
499.918	90.69
500.135	87.69
500.352	87.69
500.569	90.69
500.786	86.69
501.003	77.69
501.22	79.69
501.437	82.69
501.654	97.69
501.871	87.69
502.088	74.69
502.305	93.69
502.522	94.69
502.739	96.69
502.956	73.69
503.172	79.69
503.389	88.69
503.606	91.69
503.823	91.69
504.04	59.69
504.256	85.69
504.473	81.69
504.69	78.69
504.907	89.69
505.123	69.69
505.34	90.69
505.557	91.69
505.773	85.69
505.99	80.69
506.207	73.69
506.423	102.69
506.64	91.69
506.856	94.69
507.073	87.69
507.289	83.69
507.506	89.69
507.722	88.69
507.939	73.69
508.155	92.69
508.372	89.69
508.588	88.69
508.805	98.69
509.021	82.69
509.238	99.69
509.454	83.69
509.67	81.69
509.887	85.69
510.103	80.69
510.319	89.69
510.536	99.69
510.752	78.69
510.968	89.69
511.184	79.69
511.401	77.69
511.617	87.69
511.833	77.69
512.049	92.69
512.265	81.69
512.481	89.69
512.698	88.69
512.914	84.69
513.13	92.69
513.346	93.69
513.562	77.69
513.778	78.69
513.994	80.69
514.21	80.69
514.426	80.69
514.642	76.69
514.858	89.69
515.074	89.69
515.29	85.69
515.506	75.69
515.721	76.69
515.937	75.69
516.153	75.69
516.369	82.69
516.585	85.69
516.801	79.69
517.016	85.69
517.232	89.69
517.448	85.69
517.664	86.69
517.879	74.69
518.095	80.69
518.311	75.69
518.527	87.69
518.742	79.69
518.958	78.69
519.173	88.69
519.389	73.69
519.605	99.69
519.82	79.69
520.036	77.69
520.251	86.69
520.467	88.69
520.682	90.69
520.898	83.69
521.113	84.69
521.329	87.69
521.544	79.69
521.76	80.69
521.975	84.69
522.19	89.69
522.406	79.69
522.621	86.69
522.836	81.69
523.052	87.69
523.267	81.69
523.482	87.69
523.698	80.69
523.913	99.69
524.128	76.69
524.343	71.69
524.559	77.69
524.774	94.69
524.989	84.69
525.204	91.69
525.419	105.69
525.634	84.69
525.849	81.69
526.064	77.69
526.28	93.69
526.495	92.69
526.71	87.69
526.925	92.69
527.14	74.69
527.355	92.69
527.57	88.69
527.785	81.69
527.999	81.69
528.214	88.69
528.429	89.69
528.644	77.69
528.859	80.69
529.074	77.69
529.289	78.69
529.503	83.69
529.718	87.69
529.933	85.69
530.148	100.69
530.363	91.69
530.577	82.69
530.792	98.69
531.007	78.69
531.221	99.69
531.436	89.69
531.651	96.69
531.865	87.69
532.08	83.69
532.295	81.69
532.509	84.69
532.724	77.69
532.938	70.69
533.153	91.69
533.367	86.69
533.582	83.69
533.796	96.69
534.011	86.69
534.225	96.69
534.44	84.69
534.654	91.69
534.868	89.69
535.083	99.69
535.297	83.69
535.511	88.69
535.726	82.69
535.94	101.69
536.154	83.69
536.369	94.69
536.583	87.69
536.797	86.69
537.011	74.69
537.225	81.69
537.44	85.69
537.654	75.69
537.868	89.69
538.082	85.69
538.296	97.69
538.51	80.69
538.724	91.69
538.938	79.69
539.153	87.69
539.367	98.69
539.581	94.69
539.795	78.69
540.009	84.69
540.222	84.69
540.436	83.69
540.65	83.69
540.864	98.69
541.078	94.69
541.292	79.69
541.506	84.69
541.72	89.69
541.934	81.69
542.147	88.69
542.361	86.69
542.575	66.69
542.789	89.69
543.002	97.69
543.216	89.69
543.43	86.69
543.644	98.69
543.857	76.69
544.071	98.69
544.285	90.69
544.498	105.69
544.712	106.69
544.925	80.69
545.139	74.69
545.352	91.69
545.566	93.69
545.779	87.69
545.993	97.69
546.206	91.69
546.42	88.69
546.633	94.69
546.847	99.69
547.06	98.69
547.274	93.69
547.487	106.69
547.7	88.69
547.914	115.69
548.127	95.69
548.34	112.69
548.554	97.69
548.767	119.69
548.98	90.69
549.193	95.69
549.407	105.69
549.62	103.69
549.833	89.69
550.046	95.69
550.259	95.69
550.473	109.69
550.686	107.69
550.899	99.69
551.112	123.69
551.325	106.69
551.538	104.69
551.751	109.69
551.964	103.69
552.177	125.69
552.39	114.69
552.603	113.69
552.816	114.69
553.029	105.69
553.242	114.69
553.455	130.69
553.667	106.69
553.88	120.69
554.093	116.69
554.306	105.69
554.519	123.69
554.732	115.69
554.944	104.69
555.157	109.69
555.37	116.69
555.583	108.69
555.795	105.69
556.008	118.69
556.221	104.69
556.433	102.69
556.646	112.69
556.859	103.69
557.071	90.69
557.284	81.69
557.496	92.69
557.709	95.69
557.921	87.69
558.134	97.69
558.346	93.69
558.559	107.69
558.771	97.69
558.984	99.69
559.196	92.69
559.409	94.69
559.621	90.69
559.833	83.69
560.046	91.69
560.258	95.69
560.47	103.69
560.683	93.69
560.895	92.69
561.107	107.69
561.32	95.69
561.532	111.69
561.744	92.69
561.956	85.69
562.168	86.69
562.381	85.69
562.593	92.69
562.805	86.69
563.017	97.69
563.229	85.69
563.441	92.69
563.653	90.69
563.865	82.69
564.077	83.69
564.289	92.69
564.501	95.69
564.713	96.69
564.925	90.69
565.137	102.69
565.349	84.69
565.561	92.69
565.773	83.69
565.985	91.69
566.197	89.69
566.408	78.69
566.62	75.69
566.832	83.69
567.044	99.69
567.255	85.69
567.467	85.69
567.679	81.69
567.891	103.69
568.102	83.69
568.314	83.69
568.526	84.69
568.737	76.69
568.949	73.69
569.161	90.69
569.372	94.69
569.584	95.69
569.795	78.69
570.007	78.69
570.218	98.69
570.43	83.69
570.641	79.69
570.853	86.69
571.064	85.69
571.276	93.69
571.487	101.69
571.698	90.69
571.91	96.69
572.121	86.69
572.333	87.69
572.544	94.69
572.755	78.69
572.966	87.69
573.178	81.69
573.389	87.69
573.6	85.69
573.811	101.69
574.023	77.69
574.234	73.69
574.445	83.69
574.656	68.69
574.867	96.69
575.078	88.69
575.289	98.69
575.501	95.69
575.712	93.69
575.923	108.69
576.134	87.69
576.345	84.69
576.556	79.69
576.767	91.69
576.978	88.69
577.188	84.69
577.399	97.69
577.61	97.69
577.821	91.69
578.032	86.69
578.243	94.69
578.454	79.69
578.665	78.69
578.875	84.69
579.086	90.69
579.297	84.69
579.508	71.69
579.718	91.69
579.929	84.69
580.14	80.69
580.35	82.69
580.561	88.69
580.772	87.69
580.982	86.69
581.193	95.69
581.403	88.69
581.614	89.69
581.825	89.69
582.035	91.69
582.246	98.69
582.456	100.69
582.667	94.69
582.877	88.69
583.087	85.69
583.298	70.69
583.508	81.69
583.719	97.69
583.929	91.69
584.139	98.69
584.35	78.69
584.56	84.69
584.77	76.69
584.981	81.69
585.191	85.69
585.401	87.69
585.611	87.69
585.821	102.69
586.032	95.69
586.242	84.69
586.452	103.69
586.662	69.69
586.872	81.69
587.082	96.69
587.292	100.69
587.502	86.69
587.713	79.69
587.923	92.69
588.133	84.69
588.343	81.69
588.553	85.69
588.762	77.69
588.972	98.69
589.182	91.69
589.392	95.69
589.602	88.69
589.812	93.69
590.022	96.69
590.232	85.69
590.441	81.69
590.651	100.69
590.861	98.69
591.071	85.69
591.281	86.69
591.49	82.69
591.7	104.69
591.91	91.69
592.119	81.69
592.329	99.69
592.539	96.69
592.748	96.69
592.958	99.69
593.167	96.69
593.377	83.69
593.587	99.69
593.796	103.69
594.006	77.69
594.215	85.69
594.424	97.69
594.634	100.69
594.843	78.69
595.053	92.69
595.262	92.69
595.472	92.69
595.681	96.69
595.89	98.69
596.1	97.69
596.309	83.69
596.518	94.69
596.727	94.69
596.937	87.69
597.146	93.69
597.355	107.69
597.564	103.69
597.774	102.69
597.983	98.69
598.192	89.69
598.401	99.69
598.61	97.69
598.819	98.69
599.028	88.69
599.237	94.69
599.446	108.69
599.655	99.69
599.864	88.69
600.073	110.69
600.282	94.69
600.491	94.69
600.7	87.69
600.909	83.69
601.118	98.69
601.327	101.69
601.536	91.69
601.745	105.69
601.953	88.69
602.162	117.69
602.371	93.69
602.58	95.69
602.789	92.69
602.997	91.69
603.206	103.69
603.415	85.69
603.623	96.69
603.832	94.69
604.041	94.69
604.249	95.69
604.458	88.69
604.666	90.69
604.875	101.69
605.084	104.69
605.292	84.69
605.501	98.69
605.709	104.69
605.918	95.69
606.126	103.69
606.334	103.69
606.543	92.69
606.751	101.69
606.96	89.69
607.168	91.69
607.376	108.69
607.585	99.69
607.793	102.69
608.001	100.69
608.21	94.69
608.418	94.69
608.626	95.69
608.834	85.69
609.043	93.69
609.251	108.69
609.459	91.69
609.667	103.69
609.875	95.69
610.083	99.69
610.291	79.69
610.499	98.69
610.707	102.69
610.916	98.69
611.124	100.69
611.332	95.69
611.54	90.69
611.748	107.69
611.955	92.69
612.163	103.69
612.371	115.69
612.579	110.69
612.787	112.69
612.995	105.69
613.203	113.69
613.411	110.69
613.618	106.69
613.826	93.69
614.034	113.69
614.242	110.69
614.449	103.69
614.657	115.69
614.865	102.69
615.072	89.69
615.28	113.69
615.488	104.69
615.695	117.69
615.903	103.69
616.111	101.69
616.318	110.69
616.526	102.69
616.733	111.69
616.941	108.69
617.148	115.69
617.356	99.69
617.563	106.69
617.771	95.69
617.978	111.69
618.185	114.69
618.393	110.69
618.6	100.69
618.807	102.69
619.015	96.69
619.222	101.69
619.429	96.69
619.637	125.69
619.844	113.69
620.051	96.69
620.258	96.69
620.466	109.69
620.673	105.69
620.88	96.69
621.087	105.69
621.294	112.69
621.501	100.69
621.708	99.69
621.915	99.69
622.122	105.69
622.329	109.69
622.536	100.69
622.743	100.69
622.95	89.69
623.157	103.69
623.364	99.69
623.571	108.69
623.778	109.69
623.985	116.69
624.192	110.69
624.399	109.69
624.606	111.69
624.812	101.69
625.019	109.69
625.226	111.69
625.433	83.69
625.639	100.69
625.846	103.69
626.053	104.69
626.259	109.69
626.466	107.69
626.673	104.69
626.879	93.69
627.086	100.69
627.293	104.69
627.499	87.69
627.706	97.69
627.912	81.69
628.119	82.69
628.325	81.69
628.532	85.69
628.738	90.69
628.945	80.69
629.151	88.69
629.357	84.69
629.564	94.69
629.77	97.69
629.976	95.69
630.183	93.69
630.389	84.69
630.595	65.69
630.802	80.69
631.008	97.69
631.214	86.69
631.42	103.69
631.627	77.69
631.833	92.69
632.039	89.69
632.245	96.69
632.451	106.69
632.657	102.69
632.863	100.69
633.069	77.69
633.275	94.69
633.481	88.69
633.688	90.69
633.893	99.69
634.099	92.69
634.305	82.69
634.511	84.69
634.717	82.69
634.923	64.69
635.129	94.69
635.335	82.69
635.541	90.69
635.747	89.69
635.952	100.69
636.158	103.69
636.364	103.69
636.57	85.69
636.775	83.69
636.981	100.69
637.187	97.69
637.392	97.69
637.598	90.69
637.804	87.69
638.009	84.69
638.215	84.69
638.421	76.69
638.626	82.69
638.832	85.69
639.037	93.69
639.243	79.69
639.448	96.69
639.654	91.69
639.859	110.69
640.065	81.69
640.27	86.69
640.475	87.69
640.681	84.69
640.886	98.69
641.091	87.69
641.297	79.69
641.502	82.69
641.707	82.69
641.913	83.69
642.118	85.69
642.323	93.69
642.528	84.69
642.733	81.69
642.939	89.69
643.144	80.69
643.349	81.69
643.554	92.69
643.759	85.69
643.964	75.69
644.169	89.69
644.374	89.69
644.579	89.69
644.784	93.69
644.989	82.69
645.194	86.69
645.399	87.69
645.604	91.69
645.809	87.69
646.014	92.69
646.219	82.69
646.423	91.69
646.628	98.69
646.833	87.69
647.038	73.69
647.243	89.69
647.447	75.69
647.652	101.69
647.857	92.69
648.062	104.69
648.266	84.69
648.471	96.69
648.676	81.69
648.88	78.69
649.085	73.69
649.289	78.69
649.494	75.69
649.698	85.69
649.903	80.69
650.107	84.69
650.312	89.69
650.516	89.69
650.721	98.69
650.925	88.69
651.13	84.69
651.334	65.69
651.539	91.69
651.743	88.69
651.947	85.69
652.152	86.69
652.356	95.69
652.56	74.69
652.764	84.69
652.969	82.69
653.173	76.69
653.377	75.69
653.581	81.69
653.785	76.69
653.99	80.69
654.194	85.69
654.398	80.69
654.602	75.69
654.806	88.69
655.01	82.69
655.214	70.69
655.418	98.69
655.622	95.69
655.826	80.69
656.03	88.69
656.234	86.69
656.438	78.69
656.642	88.69
656.846	82.69
657.049	73.69
657.253	82.69
657.457	89.69
657.661	87.69
657.865	91.69
658.068	75.69
658.272	68.69
658.476	90.69
658.68	94.69
658.883	81.69
659.087	94.69
659.291	95.69
659.494	74.69
659.698	89.69
659.901	100.69
660.105	79.69
660.309	96.69
660.512	88.69
660.716	89.69
660.919	75.69
661.123	73.69
661.326	81.69
661.53	83.69
661.733	74.69
661.936	91.69
662.14	69.69
662.343	84.69
662.546	88.69
662.75	92.69
662.953	87.69
663.156	87.69
663.36	88.69
663.563	91.69
663.766	92.69
663.969	98.69
664.173	93.69
664.376	83.69
664.579	77.69
664.782	92.69
664.985	91.69
665.188	84.69
665.391	90.69
665.594	84.69
665.797	69.69
666	68.69
666.203	98.69
666.406	89.69
666.609	91.69
666.812	95.69
667.015	88.69
667.218	88.69
667.421	91.69
667.624	80.69
667.827	89.69
668.03	88.69
668.232	79.69
668.435	94.69
668.638	87.69
668.841	90.69
669.043	78.69
669.246	84.69
669.449	84.69
669.651	88.69
669.854	83.69
670.057	83.69
670.259	92.69
670.462	81.69
670.665	78.69
670.867	76.69
671.07	75.69
671.272	96.69
671.475	101.69
671.677	83.69
671.88	88.69
672.082	84.69
672.284	96.69
672.487	84.69
672.689	78.69
672.892	93.69
