Data from Uncirc_1983_H10_HRD10591_00082.txt Node
Date: Wed Jan 03 12:25:48 EST 2024
User: Yrep
Spectrometer: HR+D1059
Trigger mode: 1
Integration Time (sec): 1.000000E-1
Scans to average: 1
Electric dark correction enabled: true
Nonlinearity correction enabled: false
Boxcar width: 0
XAxis mode: Wavelengths
Number of Pixels in Spectrum: 2048
>>>>>Begin Spectral Data<<<<<
223.165	-11.44
223.4	-11.44
223.635	-11.44
223.869	-30.44
224.104	-11.44
224.338	-15.44
224.573	-22.44
224.808	-25.44
225.042	-14.44
225.277	-10.44
225.511	2.56
225.746	4.56
225.98	17.56
226.215	27.56
226.449	14.56
226.683	25.56
226.918	17.56
227.152	31.56
227.387	31.56
227.621	28.56
227.856	35.56
228.09	42.56
228.324	46.56
228.559	53.56
228.793	61.56
229.027	54.56
229.262	57.56
229.496	67.56
229.73	79.56
229.964	68.56
230.199	77.56
230.433	56.56
230.667	66.56
230.901	70.56
231.136	60.56
231.37	77.56
231.604	70.56
231.838	74.56
232.072	84.56
232.306	84.56
232.541	88.56
232.775	93.56
233.009	95.56
233.243	83.56
233.477	80.56
233.711	81.56
233.945	87.56
234.179	83.56
234.413	74.56
234.647	82.56
234.881	71.56
235.115	72.56
235.349	84.56
235.583	52.56
235.817	82.56
236.051	85.56
236.285	76.56
236.519	72.56
236.753	74.56
236.987	70.56
237.221	80.56
237.455	82.56
237.689	83.56
237.922	73.56
238.156	70.56
238.39	72.56
238.624	80.56
238.858	83.56
239.091	72.56
239.325	58.56
239.559	79.56
239.793	88.56
240.027	73.56
240.26	83.56
240.494	74.56
240.728	84.56
240.961	75.56
241.195	83.56
241.429	77.56
241.662	81.56
241.896	78.56
242.13	74.56
242.363	81.56
242.597	87.56
242.83	72.56
243.064	73.56
243.298	80.56
243.531	86.56
243.765	83.56
243.998	81.56
244.232	86.56
244.465	70.56
244.699	85.56
244.932	79.56
245.166	85.56
245.399	74.56
245.633	71.56
245.866	75.56
246.099	92.56
246.333	81.56
246.566	71.56
246.8	79.56
247.033	81.56
247.266	84.56
247.5	90.56
247.733	66.56
247.966	88.56
248.2	69.56
248.433	82.56
248.666	73.56
248.899	86.56
249.133	79.56
249.366	95.56
249.599	101.56
249.832	85.56
250.066	93.56
250.299	83.56
250.532	84.56
250.765	76.56
250.998	87.56
251.231	78.56
251.465	72.56
251.698	83.56
251.931	80.56
252.164	92.56
252.397	81.56
252.63	69.56
252.863	71.56
253.096	77.56
253.329	74.56
253.562	71.56
253.795	72.56
254.028	85.56
254.261	74.56
254.494	79.56
254.727	82.56
254.96	79.56
255.193	84.56
255.426	86.56
255.659	83.56
255.892	81.56
256.124	89.56
256.357	93.56
256.59	88.56
256.823	89.56
257.056	71.56
257.289	71.56
257.521	93.56
257.754	76.56
257.987	81.56
258.22	82.56
258.452	74.56
258.685	96.56
258.918	75.56
259.151	89.56
259.383	84.56
259.616	85.56
259.849	75.56
260.081	94.56
260.314	97.56
260.547	86.56
260.779	92.56
261.012	75.56
261.244	93.56
261.477	85.56
261.71	92.56
261.942	87.56
262.175	95.56
262.407	89.56
262.64	88.56
262.872	77.56
263.105	77.56
263.337	91.56
263.57	81.56
263.802	87.56
264.035	82.56
264.267	68.56
264.499	73.56
264.732	92.56
264.964	75.56
265.197	81.56
265.429	68.56
265.661	94.56
265.894	91.56
266.126	79.56
266.358	84.56
266.591	74.56
266.823	82.56
267.055	75.56
267.287	68.56
267.52	72.56
267.752	89.56
267.984	89.56
268.216	80.56
268.448	76.56
268.681	89.56
268.913	89.56
269.145	82.56
269.377	101.56
269.609	79.56
269.841	71.56
270.073	74.56
270.306	77.56
270.538	89.56
270.77	83.56
271.002	75.56
271.234	79.56
271.466	81.56
271.698	91.56
271.93	81.56
272.162	84.56
272.394	79.56
272.626	80.56
272.858	71.56
273.09	91.56
273.322	86.56
273.553	90.56
273.785	60.56
274.017	72.56
274.249	105.56
274.481	83.56
274.713	79.56
274.945	103.56
275.176	92.56
275.408	90.56
275.64	87.56
275.872	82.56
276.104	95.56
276.335	83.56
276.567	85.56
276.799	92.56
277.031	105.56
277.262	79.56
277.494	98.56
277.726	93.56
277.957	69.56
278.189	87.56
278.421	89.56
278.652	91.56
278.884	97.56
279.115	93.56
279.347	93.56
279.579	94.56
279.81	103.56
280.042	93.56
280.273	89.56
280.505	71.56
280.736	87.56
280.968	94.56
281.199	83.56
281.431	98.56
281.662	93.56
281.894	89.56
282.125	107.56
282.356	110.56
282.588	136.56
282.819	113.56
283.051	93.56
283.282	88.56
283.513	91.56
283.745	82.56
283.976	90.56
284.207	80.56
284.439	96.56
284.67	77.56
284.901	83.56
285.132	82.56
285.364	104.56
285.595	97.56
285.826	82.56
286.057	94.56
286.288	99.56
286.52	87.56
286.751	93.56
286.982	99.56
287.213	90.56
287.444	79.56
287.675	95.56
287.906	73.56
288.138	91.56
288.369	93.56
288.6	95.56
288.831	81.56
289.062	88.56
289.293	85.56
289.524	88.56
289.755	88.56
289.986	89.56
290.217	81.56
290.448	97.56
290.679	95.56
290.91	83.56
291.141	87.56
291.371	90.56
291.602	89.56
291.833	81.56
292.064	84.56
292.295	95.56
292.526	90.56
292.757	93.56
292.987	90.56
293.218	107.56
293.449	95.56
293.68	91.56
293.91	93.56
294.141	84.56
294.372	86.56
294.603	99.56
294.833	97.56
295.064	79.56
295.295	97.56
295.525	93.56
295.756	94.56
295.987	113.56
296.217	130.56
296.448	98.56
296.679	85.56
296.909	90.56
297.14	91.56
297.37	81.56
297.601	76.56
297.831	84.56
298.062	109.56
298.292	87.56
298.523	89.56
298.753	90.56
298.984	96.56
299.214	90.56
299.445	96.56
299.675	97.56
299.905	103.56
300.136	100.56
300.366	83.56
300.597	92.56
300.827	95.56
301.057	98.56
301.288	107.56
301.518	92.56
301.748	91.56
301.979	103.56
302.209	90.56
302.439	81.56
302.669	96.56
302.9	88.56
303.13	88.56
303.36	98.56
303.59	97.56
303.82	103.56
304.051	99.56
304.281	88.56
304.511	90.56
304.741	94.56
304.971	97.56
305.201	96.56
305.431	103.56
305.661	93.56
305.891	95.56
306.121	82.56
306.352	98.56
306.582	103.56
306.812	94.56
307.042	89.56
307.272	95.56
307.502	87.56
307.731	103.56
307.961	87.56
308.191	88.56
308.421	88.56
308.651	89.56
308.881	90.56
309.111	97.56
309.341	97.56
309.571	93.56
309.8	94.56
310.03	92.56
310.26	92.56
310.49	112.56
310.72	88.56
310.949	91.56
311.179	89.56
311.409	101.56
311.639	90.56
311.868	100.56
312.098	83.56
312.328	93.56
312.557	98.56
312.787	88.56
313.017	104.56
313.246	88.56
313.476	105.56
313.706	81.56
313.935	87.56
314.165	88.56
314.394	85.56
314.624	92.56
314.853	95.56
315.083	100.56
315.312	87.56
315.542	91.56
315.771	84.56
316.001	93.56
316.23	100.56
316.46	76.56
316.689	74.56
316.919	89.56
317.148	109.56
317.377	99.56
317.607	98.56
317.836	87.56
318.065	99.56
318.295	99.56
318.524	88.56
318.753	93.56
318.983	87.56
319.212	101.56
319.441	105.56
319.67	97.56
319.9	104.56
320.129	88.56
320.358	106.56
320.587	83.56
320.816	100.56
321.046	90.56
321.275	100.56
321.504	82.56
321.733	92.56
321.962	77.56
322.191	91.56
322.42	104.56
322.649	103.56
322.878	100.56
323.108	119.56
323.337	114.56
323.566	128.56
323.795	152.56
324.024	181.56
324.253	364.56
324.482	721.56
324.71	1460.56
324.939	1944.56
325.168	721.56
325.397	243.56
325.626	138.56
325.855	125.56
326.084	107.56
326.313	126.56
326.542	135.56
326.77	223.56
326.999	389.56
327.228	849.56
327.457	1522.56
327.686	1197.56
327.914	327.56
328.143	191.56
328.372	141.56
328.6	127.56
328.829	104.56
329.058	102.56
329.287	127.56
329.515	129.56
329.744	103.56
329.972	111.56
330.201	129.56
330.43	149.56
330.658	130.56
330.887	134.56
331.115	108.56
331.344	99.56
331.572	113.56
331.801	104.56
332.03	105.56
332.258	90.56
332.486	89.56
332.715	100.56
332.943	92.56
333.172	111.56
333.4	101.56
333.629	103.56
333.857	108.56
334.085	118.56
334.314	127.56
334.542	165.56
334.771	147.56
334.999	90.56
335.227	94.56
335.455	94.56
335.684	91.56
335.912	105.56
336.14	95.56
336.369	99.56
336.597	91.56
336.825	90.56
337.053	94.56
337.281	97.56
337.51	95.56
337.738	89.56
337.966	106.56
338.194	106.56
338.422	99.56
338.65	93.56
338.878	93.56
339.106	92.56
339.334	93.56
339.562	88.56
339.79	79.56
340.018	83.56
340.246	81.56
340.474	105.56
340.702	93.56
340.93	98.56
341.158	94.56
341.386	99.56
341.614	101.56
341.842	104.56
342.07	94.56
342.298	72.56
342.526	97.56
342.754	103.56
342.981	85.56
343.209	101.56
343.437	104.56
343.665	85.56
343.893	101.56
344.12	99.56
344.348	93.56
344.576	93.56
344.804	85.56
345.031	96.56
345.259	96.56
345.487	96.56
345.714	89.56
345.942	101.56
346.17	91.56
346.397	88.56
346.625	100.56
346.853	87.56
347.08	83.56
347.308	81.56
347.535	105.56
347.763	70.56
347.99	111.56
348.218	107.56
348.445	91.56
348.673	100.56
348.9	83.56
349.128	92.56
349.355	103.56
349.583	108.56
349.81	87.56
350.037	98.56
350.265	97.56
350.492	78.56
350.72	96.56
350.947	108.56
351.174	97.56
351.402	103.56
351.629	94.56
351.856	96.56
352.083	93.56
352.311	121.56
352.538	112.56
352.765	101.56
352.992	107.56
353.22	114.56
353.447	85.56
353.674	107.56
353.901	92.56
354.128	116.56
354.355	94.56
354.583	92.56
354.81	84.56
355.037	100.56
355.264	90.56
355.491	94.56
355.718	81.56
355.945	100.56
356.172	87.56
356.399	97.56
356.626	106.56
356.853	86.56
357.08	93.56
357.307	86.56
357.534	89.56
357.761	87.56
357.988	106.56
358.215	87.56
358.441	90.56
358.668	88.56
358.895	99.56
359.122	99.56
359.349	84.56
359.576	94.56
359.802	98.56
360.029	113.56
360.256	98.56
360.483	104.56
360.709	85.56
360.936	97.56
361.163	98.56
361.39	81.56
361.616	86.56
361.843	89.56
362.07	92.56
362.296	111.56
362.523	99.56
362.749	90.56
362.976	92.56
363.203	80.56
363.429	83.56
363.656	94.56
363.882	81.56
364.109	83.56
364.335	88.56
364.562	91.56
364.788	95.56
365.015	100.56
365.241	96.56
365.468	94.56
365.694	92.56
365.92	88.56
366.147	107.56
366.373	82.56
366.599	82.56
366.826	82.56
367.052	75.56
367.278	87.56
367.505	95.56
367.731	108.56
367.957	97.56
368.184	91.56
368.41	97.56
368.636	97.56
368.862	106.56
369.089	105.56
369.315	85.56
369.541	88.56
369.767	98.56
369.993	98.56
370.219	87.56
370.445	81.56
370.672	87.56
370.898	96.56
371.124	77.56
371.35	89.56
371.576	88.56
371.802	93.56
372.028	89.56
372.254	80.56
372.48	71.56
372.706	89.56
372.932	85.56
373.158	91.56
373.384	95.56
373.61	86.56
373.835	89.56
374.061	89.56
374.287	91.56
374.513	84.56
374.739	91.56
374.965	105.56
375.191	104.56
375.416	80.56
375.642	91.56
375.868	113.56
376.094	87.56
376.319	81.56
376.545	86.56
376.771	90.56
376.997	92.56
377.222	92.56
377.448	84.56
377.674	98.56
377.899	77.56
378.125	99.56
378.35	102.56
378.576	100.56
378.802	97.56
379.027	96.56
379.253	92.56
379.478	91.56
379.704	92.56
379.929	91.56
380.155	69.56
380.38	79.56
380.606	102.56
380.831	88.56
381.057	87.56
381.282	101.56
381.507	92.56
381.733	84.56
381.958	104.56
382.184	90.56
382.409	92.56
382.634	108.56
382.86	98.56
383.085	105.56
383.31	90.56
383.535	93.56
383.761	113.56
383.986	91.56
384.211	95.56
384.436	92.56
384.662	83.56
384.887	101.56
385.112	93.56
385.337	91.56
385.562	99.56
385.787	99.56
386.013	100.56
386.238	85.56
386.463	100.56
386.688	105.56
386.913	97.56
387.138	100.56
387.363	113.56
387.588	112.56
387.813	95.56
388.038	93.56
388.263	97.56
388.488	119.56
388.713	101.56
388.938	84.56
389.163	91.56
389.387	106.56
389.612	89.56
389.837	89.56
390.062	102.56
390.287	85.56
390.512	106.56
390.736	79.56
390.961	101.56
391.186	90.56
391.411	102.56
391.636	72.56
391.86	85.56
392.085	85.56
392.31	99.56
392.534	85.56
392.759	88.56
392.984	71.56
393.208	95.56
393.433	90.56
393.658	83.56
393.882	89.56
394.107	99.56
394.331	71.56
394.556	93.56
394.78	84.56
395.005	84.56
395.229	81.56
395.454	91.56
395.678	80.56
395.903	83.56
396.127	92.56
396.352	91.56
396.576	79.56
396.801	84.56
397.025	88.56
397.249	89.56
397.474	90.56
397.698	105.56
397.922	91.56
398.147	89.56
398.371	80.56
398.595	84.56
398.82	92.56
399.044	83.56
399.268	83.56
399.492	79.56
399.717	87.56
399.941	82.56
400.165	92.56
400.389	76.56
400.613	88.56
400.837	79.56
401.062	84.56
401.286	72.56
401.51	87.56
401.734	81.56
401.958	95.56
402.182	117.56
402.406	124.56
402.63	88.56
402.854	97.56
403.078	91.56
403.302	93.56
403.526	84.56
403.75	93.56
403.974	97.56
404.198	92.56
404.422	88.56
404.645	95.56
404.869	77.56
405.093	104.56
405.317	117.56
405.541	93.56
405.765	109.56
405.988	117.56
406.212	159.56
406.436	200.56
406.66	139.56
406.883	103.56
407.107	88.56
407.331	93.56
407.555	86.56
407.778	86.56
408.002	82.56
408.226	95.56
408.449	97.56
408.673	91.56
408.896	89.56
409.12	96.56
409.344	75.56
409.567	94.56
409.791	87.56
410.014	78.56
410.238	107.56
410.461	100.56
410.685	87.56
410.908	92.56
411.132	121.56
411.355	96.56
411.578	97.56
411.802	101.56
412.025	78.56
412.249	108.56
412.472	93.56
412.695	120.56
412.919	92.56
413.142	103.56
413.365	86.56
413.589	85.56
413.812	99.56
414.035	104.56
414.258	103.56
414.482	90.56
414.705	86.56
414.928	83.56
415.151	89.56
415.374	88.56
415.597	87.56
415.821	88.56
416.044	84.56
416.267	87.56
416.49	89.56
416.713	81.56
416.936	85.56
417.159	89.56
417.382	87.56
417.605	84.56
417.828	96.56
418.051	98.56
418.274	85.56
418.497	74.56
418.72	75.56
418.943	83.56
419.166	81.56
419.389	91.56
419.611	75.56
419.834	87.56
420.057	78.56
420.28	87.56
420.503	76.56
420.726	84.56
420.948	78.56
421.171	92.56
421.394	87.56
421.617	104.56
421.839	86.56
422.062	97.56
422.285	111.56
422.507	95.56
422.73	99.56
422.953	87.56
423.175	77.56
423.398	90.56
423.621	83.56
423.843	72.56
424.066	73.56
424.288	92.56
424.511	100.56
424.733	90.56
424.956	94.56
425.178	98.56
425.401	97.56
425.623	90.56
425.846	74.56
426.068	91.56
426.291	91.56
426.513	96.56
426.735	92.56
426.958	91.56
427.18	91.56
427.402	114.56
427.625	137.56
427.847	135.56
428.069	108.56
428.292	100.56
428.514	87.56
428.736	85.56
428.958	94.56
429.181	78.56
429.403	71.56
429.625	87.56
429.847	100.56
430.069	93.56
430.292	88.56
430.514	97.56
430.736	76.56
430.958	73.56
431.18	92.56
431.402	91.56
431.624	71.56
431.846	71.56
432.068	89.56
432.29	75.56
432.512	89.56
432.734	86.56
432.956	91.56
433.178	88.56
433.4	98.56
433.622	89.56
433.844	105.56
434.066	88.56
434.287	88.56
434.509	97.56
434.731	97.56
434.953	86.56
435.175	106.56
435.397	103.56
435.618	104.56
435.84	102.56
436.062	103.56
436.284	105.56
436.505	99.56
436.727	96.56
436.949	83.56
437.17	90.56
437.392	104.56
437.614	94.56
437.835	93.56
438.057	121.56
438.278	112.56
438.5	104.56
438.721	110.56
438.943	95.56
439.165	83.56
439.386	83.56
439.608	96.56
439.829	105.56
440.05	114.56
440.272	122.56
440.493	92.56
440.715	89.56
440.936	79.56
441.158	90.56
441.379	104.56
441.6	95.56
441.822	91.56
442.043	92.56
442.264	100.56
442.486	101.56
442.707	91.56
442.928	88.56
443.149	123.56
443.371	122.56
443.592	91.56
443.813	111.56
444.034	122.56
444.255	103.56
444.476	93.56
444.698	92.56
444.919	85.56
445.14	135.56
445.361	119.56
445.582	115.56
445.803	115.56
446.024	113.56
446.245	123.56
446.466	112.56
446.687	92.56
446.908	80.56
447.129	103.56
447.35	96.56
447.571	97.56
447.792	100.56
448.013	106.56
448.234	96.56
448.455	84.56
448.675	107.56
448.896	109.56
449.117	90.56
449.338	105.56
449.559	109.56
449.779	107.56
450	87.56
450.221	90.56
450.442	93.56
450.662	89.56
450.883	90.56
451.104	107.56
451.324	101.56
451.545	89.56
451.766	83.56
451.986	99.56
452.207	85.56
452.428	86.56
452.648	99.56
452.869	108.56
453.089	110.56
453.31	113.56
453.53	86.56
453.751	109.56
453.971	107.56
454.192	114.56
454.412	88.56
454.633	98.56
454.853	87.56
455.073	84.56
455.294	70.56
455.514	86.56
455.734	81.56
455.955	85.56
456.175	84.56
456.395	82.56
456.616	94.56
456.836	76.56
457.056	92.56
457.276	99.56
457.497	93.56
457.717	80.56
457.937	90.56
458.157	83.56
458.377	104.56
458.598	103.56
458.818	141.56
459.038	130.56
459.258	117.56
459.478	90.56
459.698	83.56
459.918	81.56
460.138	71.56
460.358	77.56
460.578	83.56
460.798	87.56
461.018	103.56
461.238	87.56
461.458	80.56
461.678	70.56
461.898	94.56
462.118	96.56
462.338	68.56
462.558	79.56
462.777	99.56
462.997	77.56
463.217	84.56
463.437	91.56
463.657	91.56
463.876	103.56
464.096	89.56
464.316	89.56
464.536	90.56
464.755	93.56
464.975	111.56
465.195	138.56
465.414	135.56
465.634	90.56
465.854	89.56
466.073	97.56
466.293	92.56
466.512	74.56
466.732	74.56
466.951	75.56
467.171	76.56
467.391	104.56
467.61	100.56
467.829	95.56
468.049	113.56
468.268	115.56
468.488	97.56
468.707	89.56
468.927	88.56
469.146	86.56
469.365	76.56
469.585	96.56
469.804	98.56
470.023	102.56
470.243	91.56
470.462	102.56
470.681	103.56
470.901	96.56
471.12	80.56
471.339	88.56
471.558	96.56
471.777	91.56
471.997	90.56
472.216	129.56
472.435	152.56
472.654	83.56
472.873	79.56
473.092	77.56
473.311	81.56
473.53	84.56
473.749	87.56
473.968	110.56
474.187	89.56
474.406	88.56
474.625	93.56
474.844	87.56
475.063	97.56
475.282	89.56
475.501	93.56
475.72	95.56
475.939	93.56
476.158	92.56
476.377	83.56
476.596	87.56
476.814	97.56
477.033	93.56
477.252	84.56
477.471	87.56
477.69	83.56
477.908	84.56
478.127	96.56
478.346	86.56
478.564	98.56
478.783	99.56
479.002	93.56
479.22	108.56
479.439	81.56
479.658	91.56
479.876	96.56
480.095	85.56
480.313	78.56
480.532	91.56
480.751	98.56
480.969	120.56
481.188	231.56
481.406	171.56
481.624	92.56
481.843	75.56
482.061	89.56
482.28	85.56
482.498	91.56
482.717	81.56
482.935	91.56
483.153	89.56
483.372	88.56
483.59	75.56
483.808	91.56
484.027	94.56
484.245	85.56
484.463	87.56
484.681	80.56
484.9	93.56
485.118	93.56
485.336	92.56
485.554	97.56
485.772	91.56
485.99	100.56
486.209	95.56
486.427	106.56
486.645	98.56
486.863	103.56
487.081	97.56
487.299	114.56
487.517	108.56
487.735	90.56
487.953	87.56
488.171	93.56
488.389	89.56
488.607	92.56
488.825	74.56
489.043	80.56
489.261	85.56
489.479	81.56
489.696	91.56
489.914	90.56
490.132	87.56
490.35	83.56
490.568	83.56
490.786	95.56
491.003	100.56
491.221	97.56
491.439	92.56
491.657	105.56
491.874	95.56
492.092	91.56
492.31	85.56
492.527	78.56
492.745	89.56
492.963	88.56
493.18	73.56
493.398	101.56
493.615	83.56
493.833	105.56
494.05	82.56
494.268	84.56
494.485	88.56
494.703	91.56
494.92	95.56
495.138	97.56
495.355	98.56
495.573	91.56
495.79	96.56
496.008	103.56
496.225	81.56
496.442	99.56
496.66	87.56
496.877	86.56
497.094	102.56
497.312	89.56
497.529	104.56
497.746	102.56
497.963	90.56
498.181	88.56
498.398	105.56
498.615	102.56
498.832	91.56
499.049	104.56
499.267	86.56
499.484	88.56
499.701	84.56
499.918	90.56
500.135	97.56
500.352	95.56
500.569	76.56
500.786	96.56
501.003	91.56
501.22	103.56
501.437	67.56
501.654	103.56
501.871	99.56
502.088	90.56
502.305	95.56
502.522	95.56
502.739	93.56
502.956	94.56
503.172	79.56
503.389	90.56
503.606	110.56
503.823	81.56
504.04	102.56
504.256	90.56
504.473	89.56
504.69	84.56
504.907	83.56
505.123	87.56
505.34	74.56
505.557	90.56
505.773	82.56
505.99	104.56
506.207	92.56
506.423	95.56
506.64	79.56
506.856	98.56
507.073	99.56
507.289	89.56
507.506	91.56
507.722	100.56
507.939	102.56
508.155	94.56
508.372	98.56
508.588	86.56
508.805	87.56
509.021	91.56
509.238	104.56
509.454	94.56
509.67	93.56
509.887	114.56
510.103	129.56
510.319	212.56
510.536	705.56
510.752	2261.56
510.968	608.56
511.184	142.56
511.401	113.56
511.617	106.56
511.833	109.56
512.049	83.56
512.265	83.56
512.481	92.56
512.698	100.56
512.914	83.56
513.13	91.56
513.346	86.56
513.562	99.56
513.778	103.56
513.994	103.56
514.21	102.56
514.426	115.56
514.642	139.56
514.858	120.56
515.074	139.56
515.29	404.56
515.506	1315.56
515.721	478.56
515.937	147.56
516.153	111.56
516.369	93.56
516.585	101.56
516.801	92.56
517.016	100.56
517.232	93.56
517.448	105.56
517.664	93.56
517.879	84.56
518.095	82.56
518.311	100.56
518.527	97.56
518.742	88.56
518.958	99.56
519.173	105.56
519.389	111.56
519.605	91.56
519.82	88.56
520.036	98.56
520.251	109.56
520.467	105.56
520.682	98.56
520.898	101.56
521.113	106.56
521.329	134.56
521.544	207.56
521.76	505.56
521.975	2207.56
522.19	1305.56
522.406	272.56
522.621	116.56
522.836	99.56
523.052	95.56
523.267	103.56
523.482	101.56
523.698	90.56
523.913	119.56
524.128	98.56
524.343	109.56
524.559	103.56
524.774	88.56
524.989	90.56
525.204	113.56
525.419	106.56
525.634	94.56
525.849	88.56
526.064	96.56
526.28	82.56
526.495	97.56
526.71	91.56
526.925	76.56
527.14	103.56
527.355	103.56
527.57	86.56
527.785	92.56
527.999	87.56
528.214	91.56
528.429	104.56
528.644	85.56
528.859	105.56
529.074	102.56
529.289	114.56
529.503	154.56
529.718	77.56
529.933	90.56
530.148	84.56
530.363	90.56
530.577	90.56
530.792	92.56
531.007	89.56
531.221	104.56
531.436	80.56
531.651	84.56
531.865	89.56
532.08	89.56
532.295	100.56
532.509	84.56
532.724	84.56
532.938	104.56
533.153	92.56
533.367	94.56
533.582	97.56
533.796	89.56
534.011	93.56
534.225	75.56
534.44	83.56
534.654	91.56
534.868	99.56
535.083	84.56
535.297	101.56
535.511	93.56
535.726	91.56
535.94	89.56
536.154	97.56
536.369	86.56
536.583	79.56
536.797	86.56
537.011	87.56
537.225	92.56
537.44	93.56
537.654	94.56
537.868	83.56
538.082	73.56
538.296	88.56
538.51	102.56
538.724	76.56
538.938	85.56
539.153	89.56
539.367	88.56
539.581	96.56
539.795	81.56
540.009	84.56
540.222	95.56
540.436	103.56
540.65	89.56
540.864	92.56
541.078	97.56
541.292	101.56
541.506	92.56
541.72	89.56
541.934	97.56
542.147	105.56
542.361	98.56
542.575	92.56
542.789	90.56
543.002	87.56
543.216	91.56
543.43	83.56
543.644	97.56
543.857	100.56
544.071	101.56
544.285	93.56
544.498	81.56
544.712	80.56
544.925	102.56
545.139	93.56
545.352	72.56
545.566	91.56
545.779	74.56
545.993	87.56
546.206	101.56
546.42	87.56
546.633	89.56
546.847	94.56
547.06	84.56
547.274	99.56
547.487	74.56
547.7	85.56
547.914	97.56
548.127	102.56
548.34	84.56
548.554	99.56
548.767	93.56
548.98	105.56
549.193	90.56
549.407	76.56
549.62	84.56
549.833	83.56
550.046	70.56
550.259	86.56
550.473	103.56
550.686	87.56
550.899	91.56
551.112	82.56
551.325	91.56
551.538	82.56
551.751	96.56
551.964	99.56
552.177	88.56
552.39	83.56
552.603	99.56
552.816	104.56
553.029	95.56
553.242	87.56
553.455	85.56
553.667	111.56
553.88	101.56
554.093	87.56
554.306	101.56
554.519	88.56
554.732	88.56
554.944	96.56
555.157	100.56
555.37	108.56
555.583	105.56
555.795	107.56
556.008	93.56
556.221	86.56
556.433	80.56
556.646	95.56
556.859	84.56
557.071	110.56
557.284	96.56
557.496	86.56
557.709	93.56
557.921	98.56
558.134	91.56
558.346	94.56
558.559	91.56
558.771	85.56
558.984	95.56
559.196	97.56
559.409	97.56
559.621	83.56
559.833	88.56
560.046	85.56
560.258	92.56
560.47	91.56
560.683	85.56
560.895	100.56
561.107	99.56
561.32	76.56
561.532	90.56
561.744	91.56
561.956	93.56
562.168	108.56
562.381	92.56
562.593	83.56
562.805	89.56
563.017	101.56
563.229	89.56
563.441	96.56
563.653	92.56
563.865	68.56
564.077	80.56
564.289	99.56
564.501	92.56
564.713	81.56
564.925	99.56
565.137	113.56
565.349	89.56
565.561	90.56
565.773	91.56
565.985	95.56
566.197	98.56
566.408	97.56
566.62	91.56
566.832	93.56
567.044	98.56
567.255	72.56
567.467	86.56
567.679	76.56
567.891	88.56
568.102	71.56
568.314	68.56
568.526	90.56
568.737	99.56
568.949	83.56
569.161	87.56
569.372	66.56
569.584	92.56
569.795	87.56
570.007	120.56
570.218	226.56
570.43	138.56
570.641	93.56
570.853	94.56
571.064	96.56
571.276	89.56
571.487	93.56
571.698	85.56
571.91	95.56
572.121	104.56
572.333	101.56
572.544	86.56
572.755	93.56
572.966	87.56
573.178	84.56
573.389	92.56
573.6	87.56
573.811	97.56
574.023	101.56
574.234	86.56
574.445	111.56
574.656	92.56
574.867	86.56
575.078	101.56
575.289	95.56
575.501	100.56
575.712	102.56
575.923	82.56
576.134	98.56
576.345	95.56
576.556	89.56
576.767	92.56
576.978	86.56
577.188	85.56
577.399	77.56
577.61	102.56
577.821	95.56
578.032	124.56
578.243	265.56
578.454	723.56
578.665	211.56
578.875	109.56
579.086	98.56
579.297	105.56
579.508	87.56
579.718	85.56
579.929	94.56
580.14	79.56
580.35	84.56
580.561	76.56
580.772	85.56
580.982	76.56
581.193	98.56
581.403	91.56
581.614	89.56
581.825	85.56
582.035	91.56
582.246	91.56
582.456	85.56
582.667	79.56
582.877	92.56
583.087	81.56
583.298	79.56
583.508	77.56
583.719	90.56
583.929	98.56
584.139	90.56
584.35	97.56
584.56	87.56
584.77	75.56
584.981	84.56
585.191	87.56
585.401	91.56
585.611	96.56
585.821	87.56
586.032	92.56
586.242	61.56
586.452	88.56
586.662	84.56
586.872	87.56
587.082	84.56
587.292	88.56
587.502	85.56
587.713	80.56
587.923	99.56
588.133	81.56
588.343	87.56
588.553	89.56
588.762	81.56
588.972	93.56
589.182	87.56
589.392	96.56
589.602	81.56
589.812	99.56
590.022	98.56
590.232	99.56
590.441	82.56
590.651	87.56
590.861	81.56
591.071	87.56
591.281	84.56
591.49	81.56
591.7	94.56
591.91	93.56
592.119	73.56
592.329	87.56
592.539	95.56
592.748	87.56
592.958	116.56
593.167	80.56
593.377	75.56
593.587	81.56
593.796	85.56
594.006	86.56
594.215	87.56
594.424	76.56
594.634	93.56
594.843	88.56
595.053	89.56
595.262	82.56
595.472	84.56
595.681	86.56
595.89	87.56
596.1	87.56
596.309	91.56
596.518	84.56
596.727	93.56
596.937	85.56
597.146	71.56
597.355	75.56
597.564	83.56
597.774	84.56
597.983	93.56
598.192	83.56
598.401	77.56
598.61	79.56
598.819	72.56
599.028	77.56
599.237	75.56
599.446	90.56
599.655	83.56
599.864	99.56
600.073	83.56
600.282	94.56
600.491	89.56
600.7	97.56
600.909	85.56
601.118	95.56
601.327	84.56
601.536	95.56
601.745	91.56
601.953	95.56
602.162	83.56
602.371	90.56
602.58	82.56
602.789	88.56
602.997	96.56
603.206	80.56
603.415	81.56
603.623	79.56
603.832	92.56
604.041	89.56
604.249	81.56
604.458	93.56
604.666	75.56
604.875	89.56
605.084	92.56
605.292	87.56
605.501	90.56
605.709	83.56
605.918	79.56
606.126	84.56
606.334	93.56
606.543	85.56
606.751	102.56
606.96	83.56
607.168	83.56
607.376	91.56
607.585	98.56
607.793	83.56
608.001	82.56
608.21	85.56
608.418	89.56
608.626	80.56
608.834	84.56
609.043	64.56
609.251	88.56
609.459	72.56
609.667	91.56
609.875	75.56
610.083	75.56
610.291	84.56
610.499	83.56
610.707	81.56
610.916	81.56
611.124	95.56
611.332	101.56
611.54	93.56
611.748	93.56
611.955	108.56
612.163	81.56
612.371	89.56
612.579	83.56
612.787	87.56
612.995	71.56
613.203	85.56
613.411	85.56
613.618	79.56
613.826	88.56
614.034	83.56
614.242	87.56
614.449	79.56
614.657	80.56
614.865	87.56
615.072	93.56
615.28	100.56
615.488	81.56
615.695	93.56
615.903	105.56
616.111	103.56
616.318	106.56
616.526	97.56
616.733	89.56
616.941	97.56
617.148	88.56
617.356	87.56
617.563	85.56
617.771	82.56
617.978	85.56
618.185	97.56
618.393	69.56
618.6	83.56
618.807	75.56
619.015	71.56
619.222	90.56
619.429	83.56
619.637	87.56
619.844	69.56
620.051	82.56
620.258	92.56
620.466	85.56
620.673	84.56
620.88	74.56
621.087	59.56
621.294	87.56
621.501	79.56
621.708	82.56
621.915	85.56
622.122	97.56
622.329	92.56
622.536	79.56
622.743	91.56
622.95	87.56
623.157	92.56
623.364	83.56
623.571	83.56
623.778	81.56
623.985	100.56
624.192	91.56
624.399	82.56
624.606	83.56
624.812	75.56
625.019	79.56
625.226	91.56
625.433	91.56
625.639	80.56
625.846	86.56
626.053	90.56
626.259	88.56
626.466	87.56
626.673	85.56
626.879	86.56
627.086	96.56
627.293	62.56
627.499	86.56
627.706	92.56
627.912	82.56
628.119	81.56
628.325	83.56
628.532	93.56
628.738	80.56
628.945	80.56
629.151	95.56
629.357	88.56
629.564	87.56
629.77	95.56
629.976	83.56
630.183	65.56
630.389	102.56
630.595	83.56
630.802	76.56
631.008	79.56
631.214	79.56
631.42	74.56
631.627	91.56
631.833	75.56
632.039	85.56
632.245	93.56
632.451	90.56
632.657	98.56
632.863	83.56
633.069	83.56
633.275	99.56
633.481	68.56
633.688	87.56
633.893	79.56
634.099	89.56
634.305	86.56
634.511	79.56
634.717	69.56
634.923	77.56
635.129	78.56
635.335	80.56
635.541	85.56
635.747	91.56
635.952	92.56
636.158	76.56
636.364	96.56
636.57	93.56
636.775	75.56
636.981	89.56
637.187	85.56
637.392	85.56
637.598	94.56
637.804	86.56
638.009	77.56
638.215	105.56
638.421	79.56
638.626	79.56
638.832	104.56
639.037	87.56
639.243	90.56
639.448	94.56
639.654	93.56
639.859	87.56
640.065	81.56
640.27	85.56
640.475	92.56
640.681	87.56
640.886	85.56
641.091	85.56
641.297	80.56
641.502	93.56
641.707	93.56
641.913	91.56
642.118	81.56
642.323	89.56
642.528	92.56
642.733	91.56
642.939	79.56
643.144	70.56
643.349	86.56
643.554	83.56
643.759	74.56
643.964	86.56
644.169	86.56
644.374	77.56
644.579	96.56
644.784	72.56
644.989	73.56
645.194	95.56
645.399	87.56
645.604	100.56
645.809	86.56
646.014	79.56
646.219	71.56
646.423	76.56
646.628	71.56
646.833	83.56
647.038	86.56
647.243	90.56
647.447	88.56
647.652	83.56
647.857	90.56
648.062	91.56
648.266	83.56
648.471	82.56
648.676	86.56
648.88	75.56
649.085	100.56
649.289	93.56
649.494	92.56
649.698	123.56
649.903	112.56
650.107	95.56
650.312	92.56
650.516	88.56
650.721	76.56
650.925	75.56
651.13	74.56
651.334	80.56
651.539	68.56
651.743	77.56
651.947	95.56
652.152	90.56
652.356	83.56
652.56	84.56
652.764	87.56
652.969	75.56
653.173	76.56
653.377	103.56
653.581	72.56
653.785	85.56
653.99	85.56
654.194	81.56
654.398	95.56
654.602	73.56
654.806	81.56
655.01	101.56
655.214	86.56
655.418	91.56
655.622	80.56
655.826	90.56
656.03	81.56
656.234	93.56
656.438	97.56
656.642	99.56
656.846	89.56
657.049	89.56
657.253	90.56
657.457	82.56
657.661	99.56
657.865	85.56
658.068	71.56
658.272	89.56
658.476	80.56
658.68	83.56
658.883	81.56
659.087	86.56
659.291	79.56
659.494	79.56
659.698	82.56
659.901	94.56
660.105	79.56
660.309	81.56
660.512	93.56
660.716	95.56
660.919	67.56
661.123	90.56
661.326	85.56
661.53	85.56
661.733	83.56
661.936	87.56
662.14	72.56
662.343	85.56
662.546	79.56
662.75	87.56
662.953	86.56
663.156	81.56
663.36	80.56
663.563	84.56
663.766	96.56
663.969	79.56
664.173	72.56
664.376	85.56
664.579	70.56
664.782	83.56
664.985	83.56
665.188	84.56
665.391	86.56
665.594	84.56
665.797	92.56
666	86.56
666.203	76.56
666.406	103.56
666.609	78.56
666.812	88.56
667.015	88.56
667.218	79.56
667.421	85.56
667.624	82.56
667.827	83.56
668.03	83.56
668.232	85.56
668.435	80.56
668.638	83.56
668.841	91.56
669.043	97.56
669.246	83.56
669.449	91.56
669.651	74.56
669.854	79.56
670.057	92.56
670.259	79.56
670.462	77.56
670.665	71.56
670.867	76.56
671.07	82.56
671.272	81.56
671.475	87.56
671.677	82.56
671.88	82.56
672.082	83.56
672.284	84.56
672.487	97.56
672.689	84.56
672.892	75.56
