Data from Uncirc_1983_H10_HRD10591_00090.txt Node
Date: Wed Jan 03 12:25:50 EST 2024
User: Yrep
Spectrometer: HR+D1059
Trigger mode: 1
Integration Time (sec): 1.000000E-1
Scans to average: 1
Electric dark correction enabled: true
Nonlinearity correction enabled: false
Boxcar width: 0
XAxis mode: Wavelengths
Number of Pixels in Spectrum: 2048
>>>>>Begin Spectral Data<<<<<
223.165	-19.56
223.4	-19.56
223.635	-19.56
223.869	-28.56
224.104	-20.56
224.338	-23.56
224.573	-15.56
224.808	-14.56
225.042	-6.56
225.277	-17.56
225.511	20.44
225.746	10.44
225.98	9.44
226.215	9.44
226.449	15.44
226.683	23.44
226.918	25.44
227.152	32.44
227.387	35.44
227.621	44.44
227.856	35.44
228.09	41.44
228.324	47.44
228.559	47.44
228.793	50.44
229.027	61.44
229.262	71.44
229.496	65.44
229.73	72.44
229.964	91.44
230.199	66.44
230.433	57.44
230.667	77.44
230.901	79.44
231.136	72.44
231.37	79.44
231.604	72.44
231.838	78.44
232.072	83.44
232.306	69.44
232.541	67.44
232.775	71.44
233.009	87.44
233.243	95.44
233.477	88.44
233.711	85.44
233.945	67.44
234.179	91.44
234.413	79.44
234.647	80.44
234.881	84.44
235.115	79.44
235.349	88.44
235.583	66.44
235.817	98.44
236.051	73.44
236.285	66.44
236.519	81.44
236.753	65.44
236.987	61.44
237.221	93.44
237.455	91.44
237.689	73.44
237.922	79.44
238.156	69.44
238.39	85.44
238.624	91.44
238.858	73.44
239.091	100.44
239.325	94.44
239.559	81.44
239.793	72.44
240.027	94.44
240.26	72.44
240.494	82.44
240.728	77.44
240.961	80.44
241.195	88.44
241.429	81.44
241.662	75.44
241.896	74.44
242.13	83.44
242.363	76.44
242.597	74.44
242.83	79.44
243.064	71.44
243.298	74.44
243.531	68.44
243.765	61.44
243.998	69.44
244.232	84.44
244.465	98.44
244.699	85.44
244.932	80.44
245.166	75.44
245.399	72.44
245.633	89.44
245.866	87.44
246.099	90.44
246.333	73.44
246.566	83.44
246.8	81.44
247.033	84.44
247.266	85.44
247.5	87.44
247.733	72.44
247.966	69.44
248.2	79.44
248.433	86.44
248.666	85.44
248.899	87.44
249.133	81.44
249.366	87.44
249.599	82.44
249.832	82.44
250.066	82.44
250.299	91.44
250.532	88.44
250.765	73.44
250.998	85.44
251.231	72.44
251.465	79.44
251.698	81.44
251.931	83.44
252.164	84.44
252.397	73.44
252.63	83.44
252.863	89.44
253.096	84.44
253.329	82.44
253.562	75.44
253.795	77.44
254.028	88.44
254.261	79.44
254.494	87.44
254.727	90.44
254.96	85.44
255.193	72.44
255.426	85.44
255.659	61.44
255.892	84.44
256.124	85.44
256.357	69.44
256.59	81.44
256.823	83.44
257.056	77.44
257.289	91.44
257.521	91.44
257.754	83.44
257.987	72.44
258.22	85.44
258.452	74.44
258.685	87.44
258.918	99.44
259.151	87.44
259.383	79.44
259.616	84.44
259.849	85.44
260.081	81.44
260.314	87.44
260.547	84.44
260.779	86.44
261.012	101.44
261.244	96.44
261.477	83.44
261.71	94.44
261.942	99.44
262.175	118.44
262.407	88.44
262.64	85.44
262.872	81.44
263.105	83.44
263.337	87.44
263.57	84.44
263.802	77.44
264.035	71.44
264.267	82.44
264.499	70.44
264.732	83.44
264.964	83.44
265.197	82.44
265.429	82.44
265.661	87.44
265.894	85.44
266.126	86.44
266.358	83.44
266.591	73.44
266.823	79.44
267.055	73.44
267.287	93.44
267.52	87.44
267.752	77.44
267.984	83.44
268.216	85.44
268.448	80.44
268.681	75.44
268.913	87.44
269.145	84.44
269.377	75.44
269.609	88.44
269.841	92.44
270.073	96.44
270.306	91.44
270.538	85.44
270.77	68.44
271.002	70.44
271.234	86.44
271.466	90.44
271.698	86.44
271.93	81.44
272.162	89.44
272.394	101.44
272.626	98.44
272.858	89.44
273.09	85.44
273.322	88.44
273.553	90.44
273.785	89.44
274.017	81.44
274.249	84.44
274.481	92.44
274.713	80.44
274.945	85.44
275.176	79.44
275.408	83.44
275.64	73.44
275.872	96.44
276.104	87.44
276.335	85.44
276.567	102.44
276.799	107.44
277.031	101.44
277.262	83.44
277.494	102.44
277.726	81.44
277.957	87.44
278.189	81.44
278.421	84.44
278.652	77.44
278.884	89.44
279.115	85.44
279.347	87.44
279.579	80.44
279.81	80.44
280.042	84.44
280.273	93.44
280.505	91.44
280.736	89.44
280.968	100.44
281.199	87.44
281.431	83.44
281.662	82.44
281.894	84.44
282.125	96.44
282.356	128.44
282.588	144.44
282.819	109.44
283.051	100.44
283.282	84.44
283.513	87.44
283.745	100.44
283.976	104.44
284.207	88.44
284.439	91.44
284.67	87.44
284.901	91.44
285.132	95.44
285.364	77.44
285.595	85.44
285.826	100.44
286.057	97.44
286.288	89.44
286.52	81.44
286.751	78.44
286.982	89.44
287.213	81.44
287.444	84.44
287.675	85.44
287.906	86.44
288.138	92.44
288.369	87.44
288.6	78.44
288.831	79.44
289.062	79.44
289.293	104.44
289.524	80.44
289.755	95.44
289.986	87.44
290.217	93.44
290.448	98.44
290.679	92.44
290.91	79.44
291.141	78.44
291.371	89.44
291.602	88.44
291.833	93.44
292.064	94.44
292.295	90.44
292.526	90.44
292.757	95.44
292.987	92.44
293.218	84.44
293.449	85.44
293.68	93.44
293.91	89.44
294.141	95.44
294.372	79.44
294.603	94.44
294.833	95.44
295.064	91.44
295.295	91.44
295.525	88.44
295.756	106.44
295.987	88.44
296.217	128.44
296.448	120.44
296.679	92.44
296.909	90.44
297.14	92.44
297.37	84.44
297.601	98.44
297.831	91.44
298.062	79.44
298.292	98.44
298.523	75.44
298.753	82.44
298.984	85.44
299.214	87.44
299.445	90.44
299.675	84.44
299.905	88.44
300.136	86.44
300.366	88.44
300.597	91.44
300.827	98.44
301.057	93.44
301.288	103.44
301.518	114.44
301.748	83.44
301.979	103.44
302.209	93.44
302.439	85.44
302.669	84.44
302.9	76.44
303.13	98.44
303.36	97.44
303.59	113.44
303.82	91.44
304.051	88.44
304.281	76.44
304.511	81.44
304.741	92.44
304.971	88.44
305.201	101.44
305.431	85.44
305.661	87.44
305.891	95.44
306.121	90.44
306.352	97.44
306.582	107.44
306.812	96.44
307.042	89.44
307.272	99.44
307.502	104.44
307.731	110.44
307.961	91.44
308.191	96.44
308.421	101.44
308.651	92.44
308.881	92.44
309.111	102.44
309.341	99.44
309.571	88.44
309.8	82.44
310.03	91.44
310.26	92.44
310.49	88.44
310.72	89.44
310.949	103.44
311.179	99.44
311.409	97.44
311.639	91.44
311.868	95.44
312.098	93.44
312.328	91.44
312.557	109.44
312.787	98.44
313.017	89.44
313.246	104.44
313.476	96.44
313.706	101.44
313.935	106.44
314.165	103.44
314.394	103.44
314.624	93.44
314.853	87.44
315.083	95.44
315.312	87.44
315.542	90.44
315.771	104.44
316.001	103.44
316.23	90.44
316.46	74.44
316.689	73.44
316.919	88.44
317.148	89.44
317.377	93.44
317.607	102.44
317.836	95.44
318.065	85.44
318.295	87.44
318.524	101.44
318.753	95.44
318.983	91.44
319.212	97.44
319.441	103.44
319.67	106.44
319.9	102.44
320.129	100.44
320.358	89.44
320.587	92.44
320.816	112.44
321.046	102.44
321.275	106.44
321.504	86.44
321.733	93.44
321.962	103.44
322.191	101.44
322.42	96.44
322.649	120.44
322.878	113.44
323.108	102.44
323.337	123.44
323.566	131.44
323.795	162.44
324.024	202.44
324.253	400.44
324.482	812.44
324.71	1708.44
324.939	2261.44
325.168	801.44
325.397	240.44
325.626	155.44
325.855	135.44
326.084	121.44
326.313	138.44
326.542	138.44
326.77	229.44
326.999	463.44
327.228	933.44
327.457	1759.44
327.686	1354.44
327.914	377.44
328.143	213.44
328.372	152.44
328.6	116.44
328.829	117.44
329.058	127.44
329.287	122.44
329.515	109.44
329.744	115.44
329.972	106.44
330.201	120.44
330.43	137.44
330.658	129.44
330.887	117.44
331.115	100.44
331.344	96.44
331.572	104.44
331.801	103.44
332.03	98.44
332.258	95.44
332.486	68.44
332.715	88.44
332.943	108.44
333.172	83.44
333.4	109.44
333.629	105.44
333.857	116.44
334.085	120.44
334.314	114.44
334.542	143.44
334.771	152.44
334.999	105.44
335.227	98.44
335.455	90.44
335.684	92.44
335.912	98.44
336.14	85.44
336.369	95.44
336.597	102.44
336.825	92.44
337.053	98.44
337.281	97.44
337.51	89.44
337.738	88.44
337.966	85.44
338.194	93.44
338.422	105.44
338.65	95.44
338.878	101.44
339.106	83.44
339.334	97.44
339.562	104.44
339.79	98.44
340.018	84.44
340.246	86.44
340.474	84.44
340.702	100.44
340.93	92.44
341.158	96.44
341.386	86.44
341.614	100.44
341.842	98.44
342.07	107.44
342.298	96.44
342.526	91.44
342.754	80.44
342.981	86.44
343.209	107.44
343.437	109.44
343.665	93.44
343.893	93.44
344.12	99.44
344.348	95.44
344.576	78.44
344.804	83.44
345.031	84.44
345.259	97.44
345.487	109.44
345.714	89.44
345.942	88.44
346.17	86.44
346.397	90.44
346.625	102.44
346.853	99.44
347.08	79.44
347.308	97.44
347.535	95.44
347.763	88.44
347.99	88.44
348.218	100.44
348.445	102.44
348.673	87.44
348.9	100.44
349.128	95.44
349.355	94.44
349.583	92.44
349.81	92.44
350.037	98.44
350.265	95.44
350.492	87.44
350.72	96.44
350.947	104.44
351.174	106.44
351.402	113.44
351.629	108.44
351.856	108.44
352.083	101.44
352.311	106.44
352.538	118.44
352.765	113.44
352.992	109.44
353.22	104.44
353.447	112.44
353.674	98.44
353.901	96.44
354.128	88.44
354.355	92.44
354.583	88.44
354.81	105.44
355.037	85.44
355.264	97.44
355.491	94.44
355.718	84.44
355.945	93.44
356.172	85.44
356.399	87.44
356.626	90.44
356.853	95.44
357.08	84.44
357.307	101.44
357.534	86.44
357.761	105.44
357.988	98.44
358.215	103.44
358.441	101.44
358.668	106.44
358.895	85.44
359.122	85.44
359.349	83.44
359.576	96.44
359.802	84.44
360.029	102.44
360.256	102.44
360.483	83.44
360.709	77.44
360.936	87.44
361.163	81.44
361.39	104.44
361.616	92.44
361.843	102.44
362.07	94.44
362.296	101.44
362.523	92.44
362.749	81.44
362.976	66.44
363.203	79.44
363.429	86.44
363.656	91.44
363.882	88.44
364.109	104.44
364.335	100.44
364.562	87.44
364.788	87.44
365.015	99.44
365.241	106.44
365.468	107.44
365.694	114.44
365.92	104.44
366.147	103.44
366.373	88.44
366.599	76.44
366.826	92.44
367.052	76.44
367.278	94.44
367.505	79.44
367.731	100.44
367.957	95.44
368.184	108.44
368.41	103.44
368.636	100.44
368.862	115.44
369.089	106.44
369.315	92.44
369.541	93.44
369.767	93.44
369.993	82.44
370.219	89.44
370.445	84.44
370.672	81.44
370.898	90.44
371.124	93.44
371.35	100.44
371.576	89.44
371.802	102.44
372.028	85.44
372.254	91.44
372.48	84.44
372.706	91.44
372.932	87.44
373.158	101.44
373.384	98.44
373.61	112.44
373.835	91.44
374.061	90.44
374.287	86.44
374.513	90.44
374.739	85.44
374.965	87.44
375.191	84.44
375.416	95.44
375.642	104.44
375.868	102.44
376.094	92.44
376.319	70.44
376.545	99.44
376.771	90.44
376.997	80.44
377.222	99.44
377.448	83.44
377.674	76.44
377.899	98.44
378.125	79.44
378.35	103.44
378.576	91.44
378.802	90.44
379.027	78.44
379.253	87.44
379.478	96.44
379.704	85.44
379.929	96.44
380.155	97.44
380.38	96.44
380.606	98.44
380.831	88.44
381.057	101.44
381.282	98.44
381.507	88.44
381.733	66.44
381.958	103.44
382.184	93.44
382.409	104.44
382.634	98.44
382.86	96.44
383.085	94.44
383.31	95.44
383.535	93.44
383.761	104.44
383.986	105.44
384.211	92.44
384.436	97.44
384.662	98.44
384.887	89.44
385.112	76.44
385.337	101.44
385.562	99.44
385.787	95.44
386.013	102.44
386.238	88.44
386.463	95.44
386.688	111.44
386.913	101.44
387.138	101.44
387.363	95.44
387.588	85.44
387.813	96.44
388.038	95.44
388.263	99.44
388.488	90.44
388.713	83.44
388.938	94.44
389.163	104.44
389.387	102.44
389.612	93.44
389.837	92.44
390.062	92.44
390.287	102.44
390.512	102.44
390.736	89.44
390.961	99.44
391.186	96.44
391.411	101.44
391.636	96.44
391.86	80.44
392.085	80.44
392.31	112.44
392.534	82.44
392.759	82.44
392.984	81.44
393.208	96.44
393.433	85.44
393.658	80.44
393.882	81.44
394.107	75.44
394.331	77.44
394.556	84.44
394.78	100.44
395.005	104.44
395.229	87.44
395.454	64.44
395.678	83.44
395.903	87.44
396.127	83.44
396.352	93.44
396.576	91.44
396.801	84.44
397.025	87.44
397.249	95.44
397.474	84.44
397.698	97.44
397.922	101.44
398.147	75.44
398.371	85.44
398.595	73.44
398.82	91.44
399.044	91.44
399.268	80.44
399.492	85.44
399.717	95.44
399.941	102.44
400.165	99.44
400.389	98.44
400.613	92.44
400.837	83.44
401.062	80.44
401.286	83.44
401.51	107.44
401.734	84.44
401.958	99.44
402.182	120.44
402.406	157.44
402.63	100.44
402.854	86.44
403.078	91.44
403.302	95.44
403.526	94.44
403.75	105.44
403.974	93.44
404.198	88.44
404.422	80.44
404.645	86.44
404.869	84.44
405.093	91.44
405.317	117.44
405.541	103.44
405.765	100.44
405.988	113.44
406.212	176.44
406.436	208.44
406.66	137.44
406.883	101.44
407.107	108.44
407.331	81.44
407.555	89.44
407.778	103.44
408.002	97.44
408.226	90.44
408.449	76.44
408.673	86.44
408.896	86.44
409.12	106.44
409.344	84.44
409.567	81.44
409.791	101.44
410.014	100.44
410.238	80.44
410.461	91.44
410.685	89.44
410.908	108.44
411.132	103.44
411.355	83.44
411.578	96.44
411.802	93.44
412.025	88.44
412.249	99.44
412.472	83.44
412.695	97.44
412.919	84.44
413.142	87.44
413.365	87.44
413.589	93.44
413.812	98.44
414.035	103.44
414.258	90.44
414.482	107.44
414.705	87.44
414.928	77.44
415.151	95.44
415.374	86.44
415.597	97.44
415.821	84.44
416.044	88.44
416.267	74.44
416.49	92.44
416.713	87.44
416.936	78.44
417.159	88.44
417.382	91.44
417.605	84.44
417.828	72.44
418.051	100.44
418.274	89.44
418.497	86.44
418.72	91.44
418.943	86.44
419.166	94.44
419.389	97.44
419.611	90.44
419.834	98.44
420.057	96.44
420.28	87.44
420.503	81.44
420.726	83.44
420.948	83.44
421.171	79.44
421.394	80.44
421.617	96.44
421.839	94.44
422.062	92.44
422.285	86.44
422.507	91.44
422.73	110.44
422.953	83.44
423.175	83.44
423.398	108.44
423.621	76.44
423.843	93.44
424.066	90.44
424.288	85.44
424.511	97.44
424.733	97.44
424.956	110.44
425.178	82.44
425.401	112.44
425.623	94.44
425.846	90.44
426.068	96.44
426.291	106.44
426.513	91.44
426.735	97.44
426.958	103.44
427.18	112.44
427.402	136.44
427.625	152.44
427.847	116.44
428.069	120.44
428.292	101.44
428.514	96.44
428.736	79.44
428.958	90.44
429.181	95.44
429.403	84.44
429.625	92.44
429.847	92.44
430.069	96.44
430.292	103.44
430.514	90.44
430.736	106.44
430.958	84.44
431.18	79.44
431.402	85.44
431.624	84.44
431.846	91.44
432.068	83.44
432.29	98.44
432.512	83.44
432.734	91.44
432.956	93.44
433.178	87.44
433.4	91.44
433.622	91.44
433.844	90.44
434.066	97.44
434.287	97.44
434.509	91.44
434.731	93.44
434.953	102.44
435.175	83.44
435.397	95.44
435.618	97.44
435.84	88.44
436.062	134.44
436.284	107.44
436.505	94.44
436.727	105.44
436.949	99.44
437.17	92.44
437.392	87.44
437.614	92.44
437.835	107.44
438.057	105.44
438.278	106.44
438.5	93.44
438.721	114.44
438.943	110.44
439.165	76.44
439.386	95.44
439.608	108.44
439.829	87.44
440.05	115.44
440.272	119.44
440.493	101.44
440.715	92.44
440.936	91.44
441.158	88.44
441.379	92.44
441.6	92.44
441.822	98.44
442.043	90.44
442.264	105.44
442.486	114.44
442.707	91.44
442.928	105.44
443.149	114.44
443.371	122.44
443.592	108.44
443.813	113.44
444.034	89.44
444.255	93.44
444.476	83.44
444.698	80.44
444.919	105.44
445.14	124.44
445.361	110.44
445.582	120.44
445.803	118.44
446.024	132.44
446.245	120.44
446.466	111.44
446.687	87.44
446.908	88.44
447.129	94.44
447.35	82.44
447.571	91.44
447.792	99.44
448.013	88.44
448.234	89.44
448.455	105.44
448.675	109.44
448.896	121.44
449.117	100.44
449.338	99.44
449.559	122.44
449.779	127.44
450	109.44
450.221	85.44
450.442	88.44
450.662	95.44
450.883	104.44
451.104	106.44
451.324	85.44
451.545	81.44
451.766	91.44
451.986	98.44
452.207	94.44
452.428	83.44
452.648	91.44
452.869	121.44
453.089	120.44
453.31	104.44
453.53	87.44
453.751	85.44
453.971	111.44
454.192	108.44
454.412	97.44
454.633	67.44
454.853	92.44
455.073	92.44
455.294	86.44
455.514	111.44
455.734	96.44
455.955	74.44
456.175	91.44
456.395	101.44
456.616	98.44
456.836	80.44
457.056	89.44
457.276	66.44
457.497	87.44
457.717	80.44
457.937	81.44
458.157	105.44
458.377	106.44
458.598	97.44
458.818	141.44
459.038	158.44
459.258	111.44
459.478	86.44
459.698	75.44
459.918	89.44
460.138	97.44
460.358	98.44
460.578	92.44
460.798	100.44
461.018	100.44
461.238	68.44
461.458	90.44
461.678	91.44
461.898	66.44
462.118	85.44
462.338	82.44
462.558	83.44
462.777	87.44
462.997	85.44
463.217	93.44
463.437	91.44
463.657	102.44
463.876	92.44
464.096	72.44
464.316	97.44
464.536	98.44
464.755	99.44
464.975	92.44
465.195	151.44
465.414	154.44
465.634	108.44
465.854	88.44
466.073	90.44
466.293	82.44
466.512	101.44
466.732	89.44
466.951	89.44
467.171	101.44
467.391	88.44
467.61	97.44
467.829	98.44
468.049	115.44
468.268	106.44
468.488	81.44
468.707	91.44
468.927	100.44
469.146	75.44
469.365	79.44
469.585	81.44
469.804	95.44
470.023	108.44
470.243	83.44
470.462	83.44
470.681	98.44
470.901	98.44
471.12	81.44
471.339	85.44
471.558	80.44
471.777	81.44
471.997	87.44
472.216	127.44
472.435	180.44
472.654	95.44
472.873	101.44
473.092	83.44
473.311	63.44
473.53	93.44
473.749	96.44
473.968	108.44
474.187	96.44
474.406	92.44
474.625	95.44
474.844	88.44
475.063	83.44
475.282	86.44
475.501	79.44
475.72	88.44
475.939	76.44
476.158	91.44
476.377	80.44
476.596	89.44
476.814	100.44
477.033	90.44
477.252	100.44
477.471	98.44
477.69	93.44
477.908	103.44
478.127	87.44
478.346	86.44
478.564	87.44
478.783	98.44
479.002	85.44
479.22	91.44
479.439	93.44
479.658	107.44
479.876	87.44
480.095	90.44
480.313	100.44
480.532	96.44
480.751	109.44
480.969	126.44
481.188	272.44
481.406	192.44
481.624	113.44
481.843	89.44
482.061	93.44
482.28	98.44
482.498	81.44
482.717	67.44
482.935	92.44
483.153	89.44
483.372	93.44
483.59	93.44
483.808	98.44
484.027	92.44
484.245	104.44
484.463	89.44
484.681	106.44
484.9	92.44
485.118	95.44
485.336	97.44
485.554	89.44
485.772	107.44
485.99	98.44
486.209	100.44
486.427	104.44
486.645	95.44
486.863	109.44
487.081	109.44
487.299	103.44
487.517	95.44
487.735	100.44
487.953	83.44
488.171	101.44
488.389	95.44
488.607	103.44
488.825	105.44
489.043	90.44
489.261	91.44
489.479	99.44
489.696	104.44
489.914	80.44
490.132	83.44
490.35	83.44
490.568	96.44
490.786	80.44
491.003	83.44
491.221	81.44
491.439	94.44
491.657	92.44
491.874	90.44
492.092	122.44
492.31	97.44
492.527	94.44
492.745	94.44
492.963	84.44
493.18	86.44
493.398	97.44
493.615	91.44
493.833	108.44
494.05	97.44
494.268	66.44
494.485	88.44
494.703	96.44
494.92	99.44
495.138	93.44
495.355	89.44
495.573	91.44
495.79	81.44
496.008	87.44
496.225	85.44
496.442	93.44
496.66	83.44
496.877	87.44
497.094	90.44
497.312	93.44
497.529	84.44
497.746	99.44
497.963	85.44
498.181	93.44
498.398	96.44
498.615	97.44
498.832	98.44
499.049	100.44
499.267	99.44
499.484	96.44
499.701	76.44
499.918	87.44
500.135	88.44
500.352	91.44
500.569	81.44
500.786	98.44
501.003	96.44
501.22	106.44
501.437	83.44
501.654	89.44
501.871	101.44
502.088	101.44
502.305	76.44
502.522	90.44
502.739	94.44
502.956	80.44
503.172	80.44
503.389	99.44
503.606	107.44
503.823	106.44
504.04	99.44
504.256	97.44
504.473	81.44
504.69	98.44
504.907	104.44
505.123	95.44
505.34	99.44
505.557	85.44
505.773	82.44
505.99	80.44
506.207	93.44
506.423	105.44
506.64	100.44
506.856	80.44
507.073	111.44
507.289	92.44
507.506	99.44
507.722	117.44
507.939	96.44
508.155	98.44
508.372	94.44
508.588	85.44
508.805	90.44
509.021	96.44
509.238	113.44
509.454	86.44
509.67	103.44
509.887	117.44
510.103	122.44
510.319	199.44
510.536	748.44
510.752	2349.44
510.968	651.44
511.184	146.44
511.401	98.44
511.617	88.44
511.833	107.44
512.049	97.44
512.265	90.44
512.481	95.44
512.698	101.44
512.914	91.44
513.13	105.44
513.346	95.44
513.562	92.44
513.778	103.44
513.994	90.44
514.21	117.44
514.426	99.44
514.642	121.44
514.858	131.44
515.074	148.44
515.29	443.44
515.506	1427.44
515.721	530.44
515.937	165.44
516.153	111.44
516.369	92.44
516.585	100.44
516.801	97.44
517.016	90.44
517.232	101.44
517.448	89.44
517.664	84.44
517.879	96.44
518.095	99.44
518.311	92.44
518.527	95.44
518.742	87.44
518.958	102.44
519.173	88.44
519.389	85.44
519.605	96.44
519.82	98.44
520.036	110.44
520.251	120.44
520.467	106.44
520.682	88.44
520.898	102.44
521.113	108.44
521.329	155.44
521.544	206.44
521.76	565.44
521.975	2414.44
522.19	1397.44
522.406	320.44
522.621	100.44
522.836	84.44
523.052	87.44
523.267	93.44
523.482	100.44
523.698	112.44
523.913	123.44
524.128	106.44
524.343	101.44
524.559	87.44
524.774	92.44
524.989	103.44
525.204	92.44
525.419	110.44
525.634	91.44
525.849	95.44
526.064	76.44
526.28	90.44
526.495	100.44
526.71	86.44
526.925	99.44
527.14	93.44
527.355	76.44
527.57	84.44
527.785	87.44
527.999	94.44
528.214	100.44
528.429	104.44
528.644	96.44
528.859	87.44
529.074	100.44
529.289	113.44
529.503	179.44
529.718	97.44
529.933	87.44
530.148	92.44
530.363	92.44
530.577	92.44
530.792	96.44
531.007	87.44
531.221	90.44
531.436	89.44
531.651	89.44
531.865	92.44
532.08	97.44
532.295	91.44
532.509	87.44
532.724	100.44
532.938	102.44
533.153	113.44
533.367	98.44
533.582	91.44
533.796	97.44
534.011	94.44
534.225	99.44
534.44	87.44
534.654	96.44
534.868	94.44
535.083	84.44
535.297	92.44
535.511	106.44
535.726	109.44
535.94	100.44
536.154	84.44
536.369	99.44
536.583	94.44
536.797	101.44
537.011	103.44
537.225	100.44
537.44	95.44
537.654	100.44
537.868	89.44
538.082	92.44
538.296	80.44
538.51	73.44
538.724	89.44
538.938	102.44
539.153	100.44
539.367	112.44
539.581	99.44
539.795	89.44
540.009	86.44
540.222	98.44
540.436	93.44
540.65	94.44
540.864	95.44
541.078	92.44
541.292	85.44
541.506	89.44
541.72	82.44
541.934	89.44
542.147	94.44
542.361	96.44
542.575	96.44
542.789	87.44
543.002	100.44
543.216	94.44
543.43	93.44
543.644	102.44
543.857	104.44
544.071	73.44
544.285	70.44
544.498	87.44
544.712	97.44
544.925	106.44
545.139	76.44
545.352	83.44
545.566	89.44
545.779	96.44
545.993	98.44
546.206	75.44
546.42	85.44
546.633	89.44
546.847	77.44
547.06	97.44
547.274	96.44
547.487	92.44
547.7	97.44
547.914	91.44
548.127	79.44
548.34	86.44
548.554	102.44
548.767	94.44
548.98	78.44
549.193	75.44
549.407	76.44
549.62	85.44
549.833	87.44
550.046	85.44
550.259	94.44
550.473	80.44
550.686	93.44
550.899	76.44
551.112	107.44
551.325	97.44
551.538	88.44
551.751	86.44
551.964	80.44
552.177	92.44
552.39	79.44
552.603	96.44
552.816	87.44
553.029	83.44
553.242	84.44
553.455	105.44
553.667	110.44
553.88	99.44
554.093	97.44
554.306	90.44
554.519	96.44
554.732	82.44
554.944	92.44
555.157	95.44
555.37	94.44
555.583	107.44
555.795	87.44
556.008	85.44
556.221	99.44
556.433	84.44
556.646	92.44
556.859	95.44
557.071	97.44
557.284	107.44
557.496	95.44
557.709	85.44
557.921	107.44
558.134	93.44
558.346	101.44
558.559	73.44
558.771	89.44
558.984	96.44
559.196	90.44
559.409	88.44
559.621	92.44
559.833	89.44
560.046	87.44
560.258	92.44
560.47	76.44
560.683	80.44
560.895	75.44
561.107	97.44
561.32	99.44
561.532	99.44
561.744	90.44
561.956	88.44
562.168	91.44
562.381	105.44
562.593	84.44
562.805	85.44
563.017	103.44
563.229	85.44
563.441	91.44
563.653	90.44
563.865	92.44
564.077	91.44
564.289	88.44
564.501	88.44
564.713	72.44
564.925	83.44
565.137	107.44
565.349	98.44
565.561	73.44
565.773	95.44
565.985	77.44
566.197	80.44
566.408	93.44
566.62	75.44
566.832	92.44
567.044	95.44
567.255	81.44
567.467	100.44
567.679	75.44
567.891	93.44
568.102	85.44
568.314	101.44
568.526	89.44
568.737	88.44
568.949	73.44
569.161	79.44
569.372	75.44
569.584	95.44
569.795	84.44
570.007	120.44
570.218	253.44
570.43	130.44
570.641	95.44
570.853	85.44
571.064	100.44
571.276	84.44
571.487	86.44
571.698	84.44
571.91	88.44
572.121	80.44
572.333	80.44
572.544	92.44
572.755	86.44
572.966	89.44
573.178	88.44
573.389	96.44
573.6	82.44
573.811	74.44
574.023	79.44
574.234	92.44
574.445	84.44
574.656	90.44
574.867	87.44
575.078	107.44
575.289	86.44
575.501	83.44
575.712	96.44
575.923	96.44
576.134	98.44
576.345	82.44
576.556	97.44
576.767	97.44
576.978	86.44
577.188	98.44
577.399	93.44
577.61	92.44
577.821	104.44
578.032	119.44
578.243	284.44
578.454	760.44
578.665	224.44
578.875	99.44
579.086	83.44
579.297	82.44
579.508	101.44
579.718	82.44
579.929	90.44
580.14	96.44
580.35	82.44
580.561	78.44
580.772	92.44
580.982	83.44
581.193	98.44
581.403	95.44
581.614	102.44
581.825	83.44
582.035	94.44
582.246	85.44
582.456	89.44
582.667	81.44
582.877	93.44
583.087	84.44
583.298	75.44
583.508	70.44
583.719	84.44
583.929	79.44
584.139	72.44
584.35	83.44
584.56	79.44
584.77	79.44
584.981	76.44
585.191	85.44
585.401	83.44
585.611	85.44
585.821	80.44
586.032	93.44
586.242	79.44
586.452	84.44
586.662	87.44
586.872	86.44
587.082	92.44
587.292	88.44
587.502	97.44
587.713	89.44
587.923	91.44
588.133	88.44
588.343	100.44
588.553	93.44
588.762	103.44
588.972	80.44
589.182	75.44
589.392	86.44
589.602	87.44
589.812	81.44
590.022	96.44
590.232	100.44
590.441	78.44
590.651	85.44
590.861	86.44
591.071	96.44
591.281	93.44
591.49	81.44
591.7	92.44
591.91	96.44
592.119	79.44
592.329	88.44
592.539	91.44
592.748	73.44
592.958	91.44
593.167	87.44
593.377	87.44
593.587	88.44
593.796	84.44
594.006	88.44
594.215	96.44
594.424	93.44
594.634	89.44
594.843	88.44
595.053	94.44
595.262	84.44
595.472	105.44
595.681	93.44
595.89	86.44
596.1	87.44
596.309	83.44
596.518	96.44
596.727	87.44
596.937	98.44
597.146	91.44
597.355	80.44
597.564	105.44
597.774	79.44
597.983	96.44
598.192	85.44
598.401	88.44
598.61	85.44
598.819	98.44
599.028	89.44
599.237	79.44
599.446	89.44
599.655	96.44
599.864	99.44
600.073	76.44
600.282	81.44
600.491	81.44
600.7	80.44
600.909	83.44
601.118	83.44
601.327	99.44
601.536	92.44
601.745	92.44
601.953	90.44
602.162	99.44
602.371	96.44
602.58	100.44
602.789	89.44
602.997	76.44
603.206	89.44
603.415	66.44
603.623	73.44
603.832	75.44
604.041	64.44
604.249	86.44
604.458	87.44
604.666	82.44
604.875	79.44
605.084	71.44
605.292	99.44
605.501	86.44
605.709	104.44
605.918	92.44
606.126	79.44
606.334	91.44
606.543	68.44
606.751	75.44
606.96	80.44
607.168	88.44
607.376	85.44
607.585	79.44
607.793	76.44
608.001	84.44
608.21	93.44
608.418	76.44
608.626	97.44
608.834	101.44
609.043	72.44
609.251	72.44
609.459	81.44
609.667	79.44
609.875	90.44
610.083	92.44
610.291	93.44
610.499	82.44
610.707	82.44
610.916	71.44
611.124	79.44
611.332	90.44
611.54	94.44
611.748	80.44
611.955	84.44
612.163	87.44
612.371	68.44
612.579	88.44
612.787	84.44
612.995	105.44
613.203	87.44
613.411	82.44
613.618	90.44
613.826	89.44
614.034	95.44
614.242	92.44
614.449	95.44
614.657	83.44
614.865	79.44
615.072	86.44
615.28	80.44
615.488	83.44
615.695	104.44
615.903	86.44
616.111	99.44
616.318	92.44
616.526	88.44
616.733	92.44
616.941	98.44
617.148	94.44
617.356	89.44
617.563	85.44
617.771	80.44
617.978	90.44
618.185	79.44
618.393	67.44
618.6	83.44
618.807	91.44
619.015	82.44
619.222	97.44
619.429	84.44
619.637	103.44
619.844	89.44
620.051	81.44
620.258	84.44
620.466	91.44
620.673	76.44
620.88	83.44
621.087	81.44
621.294	94.44
621.501	84.44
621.708	75.44
621.915	99.44
622.122	98.44
622.329	80.44
622.536	101.44
622.743	97.44
622.95	70.44
623.157	89.44
623.364	89.44
623.571	71.44
623.778	76.44
623.985	87.44
624.192	79.44
624.399	88.44
624.606	85.44
624.812	80.44
625.019	86.44
625.226	90.44
625.433	91.44
625.639	87.44
625.846	102.44
626.053	84.44
626.259	78.44
626.466	75.44
626.673	77.44
626.879	82.44
627.086	80.44
627.293	84.44
627.499	83.44
627.706	100.44
627.912	85.44
628.119	87.44
628.325	73.44
628.532	83.44
628.738	83.44
628.945	90.44
629.151	82.44
629.357	85.44
629.564	76.44
629.77	82.44
629.976	73.44
630.183	91.44
630.389	70.44
630.595	86.44
630.802	85.44
631.008	67.44
631.214	81.44
631.42	70.44
631.627	89.44
631.833	85.44
632.039	78.44
632.245	79.44
632.451	89.44
632.657	97.44
632.863	92.44
633.069	84.44
633.275	85.44
633.481	94.44
633.688	86.44
633.893	96.44
634.099	82.44
634.305	89.44
634.511	81.44
634.717	100.44
634.923	90.44
635.129	83.44
635.335	85.44
635.541	81.44
635.747	83.44
635.952	85.44
636.158	103.44
636.364	106.44
636.57	94.44
636.775	83.44
636.981	92.44
637.187	96.44
637.392	80.44
637.598	90.44
637.804	95.44
638.009	76.44
638.215	73.44
638.421	75.44
638.626	84.44
638.832	92.44
639.037	80.44
639.243	85.44
639.448	80.44
639.654	92.44
639.859	82.44
640.065	79.44
640.27	87.44
640.475	95.44
640.681	88.44
640.886	81.44
641.091	85.44
641.297	86.44
641.502	69.44
641.707	91.44
641.913	79.44
642.118	87.44
642.323	76.44
642.528	97.44
642.733	98.44
642.939	82.44
643.144	79.44
643.349	75.44
643.554	65.44
643.759	93.44
643.964	90.44
644.169	85.44
644.374	76.44
644.579	87.44
644.784	72.44
644.989	83.44
645.194	91.44
645.399	96.44
645.604	98.44
645.809	92.44
646.014	87.44
646.219	87.44
646.423	97.44
646.628	77.44
646.833	87.44
647.038	100.44
647.243	90.44
647.447	93.44
647.652	92.44
647.857	79.44
648.062	82.44
648.266	77.44
648.471	94.44
648.676	88.44
648.88	96.44
649.085	91.44
649.289	88.44
649.494	94.44
649.698	136.44
649.903	108.44
650.107	80.44
650.312	83.44
650.516	77.44
650.721	75.44
650.925	66.44
651.13	82.44
651.334	91.44
651.539	76.44
651.743	88.44
651.947	75.44
652.152	80.44
652.356	79.44
652.56	69.44
652.764	81.44
652.969	93.44
653.173	90.44
653.377	80.44
653.581	88.44
653.785	85.44
653.99	95.44
654.194	80.44
654.398	81.44
654.602	96.44
654.806	93.44
655.01	99.44
655.214	95.44
655.418	87.44
655.622	72.44
655.826	81.44
656.03	90.44
656.234	97.44
656.438	91.44
656.642	86.44
656.846	83.44
657.049	103.44
657.253	84.44
657.457	84.44
657.661	84.44
657.865	99.44
658.068	93.44
658.272	81.44
658.476	83.44
658.68	64.44
658.883	84.44
659.087	76.44
659.291	92.44
659.494	91.44
659.698	96.44
659.901	85.44
660.105	86.44
660.309	95.44
660.512	80.44
660.716	69.44
660.919	83.44
661.123	96.44
661.326	89.44
661.53	74.44
661.733	83.44
661.936	89.44
662.14	89.44
662.343	95.44
662.546	95.44
662.75	84.44
662.953	82.44
663.156	83.44
663.36	86.44
663.563	73.44
663.766	81.44
663.969	91.44
664.173	94.44
664.376	88.44
664.579	71.44
664.782	66.44
664.985	75.44
665.188	79.44
665.391	87.44
665.594	97.44
665.797	77.44
666	84.44
666.203	85.44
666.406	66.44
666.609	70.44
666.812	84.44
667.015	77.44
667.218	86.44
667.421	83.44
667.624	73.44
667.827	79.44
668.03	89.44
668.232	84.44
668.435	83.44
668.638	82.44
668.841	81.44
669.043	80.44
669.246	84.44
669.449	76.44
669.651	85.44
669.854	82.44
670.057	85.44
670.259	83.44
670.462	87.44
670.665	79.44
670.867	72.44
671.07	81.44
671.272	75.44
671.475	95.44
671.677	75.44
671.88	87.44
672.082	94.44
672.284	79.44
672.487	76.44
672.689	81.44
672.892	79.44
