Data from Uncirc_1983_H10_HRD10591_00052.txt Node
Date: Wed Jan 03 12:25:42 EST 2024
User: Yrep
Spectrometer: HR+D1059
Trigger mode: 1
Integration Time (sec): 1.000000E-1
Scans to average: 1
Electric dark correction enabled: true
Nonlinearity correction enabled: false
Boxcar width: 0
XAxis mode: Wavelengths
Number of Pixels in Spectrum: 2048
>>>>>Begin Spectral Data<<<<<
223.165	-14.94
223.4	-14.94
223.635	-14.94
223.869	-12.94
224.104	-24.94
224.338	-8.94
224.573	-0.94
224.808	-12.94
225.042	-6.94
225.277	-11.94
225.511	-1.94
225.746	0.06
225.98	5.06
226.215	13.06
226.449	26.06
226.683	-3.94
226.918	31.06
227.152	25.06
227.387	38.06
227.621	32.06
227.856	41.06
228.09	39.06
228.324	37.06
228.559	51.06
228.793	47.06
229.027	49.06
229.262	75.06
229.496	66.06
229.73	87.06
229.964	79.06
230.199	77.06
230.433	61.06
230.667	69.06
230.901	66.06
231.136	72.06
231.37	75.06
231.604	75.06
231.838	71.06
232.072	69.06
232.306	65.06
232.541	81.06
232.775	65.06
233.009	76.06
233.243	87.06
233.477	86.06
233.711	75.06
233.945	76.06
234.179	68.06
234.413	87.06
234.647	86.06
234.881	81.06
235.115	81.06
235.349	73.06
235.583	68.06
235.817	80.06
236.051	70.06
236.285	75.06
236.519	76.06
236.753	79.06
236.987	77.06
237.221	65.06
237.455	77.06
237.689	63.06
237.922	71.06
238.156	61.06
238.39	78.06
238.624	67.06
238.858	77.06
239.091	64.06
239.325	68.06
239.559	72.06
239.793	81.06
240.027	65.06
240.26	80.06
240.494	67.06
240.728	69.06
240.961	78.06
241.195	69.06
241.429	73.06
241.662	64.06
241.896	72.06
242.13	81.06
242.363	85.06
242.597	79.06
242.83	66.06
243.064	73.06
243.298	79.06
243.531	76.06
243.765	81.06
243.998	78.06
244.232	87.06
244.465	84.06
244.699	89.06
244.932	88.06
245.166	73.06
245.399	64.06
245.633	71.06
245.866	78.06
246.099	83.06
246.333	63.06
246.566	80.06
246.8	71.06
247.033	61.06
247.266	75.06
247.5	81.06
247.733	75.06
247.966	85.06
248.2	63.06
248.433	60.06
248.666	83.06
248.899	91.06
249.133	75.06
249.366	84.06
249.599	92.06
249.832	84.06
250.066	80.06
250.299	72.06
250.532	84.06
250.765	74.06
250.998	75.06
251.231	78.06
251.465	75.06
251.698	77.06
251.931	73.06
252.164	58.06
252.397	79.06
252.63	65.06
252.863	76.06
253.096	79.06
253.329	78.06
253.562	78.06
253.795	64.06
254.028	72.06
254.261	70.06
254.494	83.06
254.727	92.06
254.96	66.06
255.193	57.06
255.426	69.06
255.659	65.06
255.892	72.06
256.124	75.06
256.357	66.06
256.59	70.06
256.823	65.06
257.056	68.06
257.289	71.06
257.521	85.06
257.754	75.06
257.987	79.06
258.22	62.06
258.452	63.06
258.685	92.06
258.918	67.06
259.151	85.06
259.383	80.06
259.616	77.06
259.849	65.06
260.081	70.06
260.314	79.06
260.547	77.06
260.779	86.06
261.012	79.06
261.244	88.06
261.477	80.06
261.71	73.06
261.942	97.06
262.175	103.06
262.407	81.06
262.64	79.06
262.872	75.06
263.105	85.06
263.337	70.06
263.57	89.06
263.802	77.06
264.035	68.06
264.267	75.06
264.499	77.06
264.732	94.06
264.964	77.06
265.197	66.06
265.429	73.06
265.661	86.06
265.894	79.06
266.126	84.06
266.358	89.06
266.591	79.06
266.823	80.06
267.055	77.06
267.287	71.06
267.52	84.06
267.752	63.06
267.984	81.06
268.216	83.06
268.448	76.06
268.681	64.06
268.913	84.06
269.145	82.06
269.377	86.06
269.609	78.06
269.841	76.06
270.073	85.06
270.306	82.06
270.538	77.06
270.77	75.06
271.002	78.06
271.234	75.06
271.466	86.06
271.698	72.06
271.93	82.06
272.162	81.06
272.394	71.06
272.626	77.06
272.858	93.06
273.09	67.06
273.322	89.06
273.553	72.06
273.785	87.06
274.017	82.06
274.249	65.06
274.481	63.06
274.713	77.06
274.945	77.06
275.176	79.06
275.408	75.06
275.64	84.06
275.872	80.06
276.104	91.06
276.335	88.06
276.567	91.06
276.799	88.06
277.031	108.06
277.262	94.06
277.494	72.06
277.726	76.06
277.957	88.06
278.189	80.06
278.421	80.06
278.652	77.06
278.884	68.06
279.115	81.06
279.347	63.06
279.579	87.06
279.81	79.06
280.042	81.06
280.273	79.06
280.505	94.06
280.736	78.06
280.968	81.06
281.199	68.06
281.431	79.06
281.662	81.06
281.894	68.06
282.125	88.06
282.356	101.06
282.588	111.06
282.819	91.06
283.051	75.06
283.282	92.06
283.513	95.06
283.745	78.06
283.976	86.06
284.207	86.06
284.439	90.06
284.67	75.06
284.901	82.06
285.132	95.06
285.364	78.06
285.595	88.06
285.826	89.06
286.057	84.06
286.288	90.06
286.52	86.06
286.751	79.06
286.982	76.06
287.213	79.06
287.444	90.06
287.675	87.06
287.906	88.06
288.138	75.06
288.369	88.06
288.6	94.06
288.831	83.06
289.062	78.06
289.293	82.06
289.524	78.06
289.755	88.06
289.986	91.06
290.217	70.06
290.448	67.06
290.679	75.06
290.91	94.06
291.141	75.06
291.371	84.06
291.602	82.06
291.833	101.06
292.064	81.06
292.295	85.06
292.526	93.06
292.757	80.06
292.987	88.06
293.218	85.06
293.449	73.06
293.68	103.06
293.91	93.06
294.141	84.06
294.372	68.06
294.603	83.06
294.833	85.06
295.064	84.06
295.295	91.06
295.525	87.06
295.756	93.06
295.987	111.06
296.217	131.06
296.448	104.06
296.679	88.06
296.909	83.06
297.14	93.06
297.37	93.06
297.601	78.06
297.831	69.06
298.062	76.06
298.292	79.06
298.523	80.06
298.753	95.06
298.984	75.06
299.214	82.06
299.445	71.06
299.675	93.06
299.905	93.06
300.136	100.06
300.366	95.06
300.597	86.06
300.827	83.06
301.057	93.06
301.288	87.06
301.518	91.06
301.748	93.06
301.979	94.06
302.209	85.06
302.439	96.06
302.669	89.06
302.9	77.06
303.13	86.06
303.36	100.06
303.59	94.06
303.82	105.06
304.051	85.06
304.281	83.06
304.511	86.06
304.741	92.06
304.971	87.06
305.201	86.06
305.431	91.06
305.661	85.06
305.891	72.06
306.121	87.06
306.352	78.06
306.582	99.06
306.812	92.06
307.042	91.06
307.272	87.06
307.502	89.06
307.731	87.06
307.961	84.06
308.191	95.06
308.421	85.06
308.651	79.06
308.881	92.06
309.111	92.06
309.341	78.06
309.571	92.06
309.8	98.06
310.03	109.06
310.26	91.06
310.49	89.06
310.72	83.06
310.949	81.06
311.179	87.06
311.409	68.06
311.639	79.06
311.868	88.06
312.098	103.06
312.328	76.06
312.557	96.06
312.787	96.06
313.017	92.06
313.246	93.06
313.476	87.06
313.706	85.06
313.935	96.06
314.165	94.06
314.394	77.06
314.624	94.06
314.853	80.06
315.083	80.06
315.312	80.06
315.542	71.06
315.771	83.06
316.001	70.06
316.23	74.06
316.46	92.06
316.689	79.06
316.919	84.06
317.148	85.06
317.377	111.06
317.607	94.06
317.836	81.06
318.065	83.06
318.295	76.06
318.524	87.06
318.753	81.06
318.983	77.06
319.212	104.06
319.441	91.06
319.67	86.06
319.9	87.06
320.129	80.06
320.358	86.06
320.587	94.06
320.816	96.06
321.046	77.06
321.275	89.06
321.504	89.06
321.733	77.06
321.962	92.06
322.191	90.06
322.42	112.06
322.649	100.06
322.878	101.06
323.108	101.06
323.337	120.06
323.566	112.06
323.795	117.06
324.024	169.06
324.253	316.06
324.482	673.06
324.71	1342.06
324.939	1752.06
325.168	661.06
325.397	200.06
325.626	136.06
325.855	116.06
326.084	124.06
326.313	129.06
326.542	128.06
326.77	201.06
326.999	368.06
327.228	766.06
327.457	1381.06
327.686	1141.06
327.914	304.06
328.143	157.06
328.372	114.06
328.6	112.06
328.829	97.06
329.058	94.06
329.287	103.06
329.515	110.06
329.744	97.06
329.972	88.06
330.201	92.06
330.43	98.06
330.658	99.06
330.887	116.06
331.115	107.06
331.344	96.06
331.572	95.06
331.801	95.06
332.03	90.06
332.258	80.06
332.486	96.06
332.715	84.06
332.943	98.06
333.172	89.06
333.4	80.06
333.629	88.06
333.857	116.06
334.085	94.06
334.314	111.06
334.542	108.06
334.771	84.06
334.999	85.06
335.227	84.06
335.455	101.06
335.684	89.06
335.912	84.06
336.14	98.06
336.369	98.06
336.597	105.06
336.825	81.06
337.053	80.06
337.281	80.06
337.51	93.06
337.738	88.06
337.966	107.06
338.194	103.06
338.422	83.06
338.65	92.06
338.878	89.06
339.106	91.06
339.334	100.06
339.562	94.06
339.79	89.06
340.018	84.06
340.246	64.06
340.474	85.06
340.702	78.06
340.93	86.06
341.158	90.06
341.386	89.06
341.614	91.06
341.842	94.06
342.07	80.06
342.298	89.06
342.526	78.06
342.754	80.06
342.981	84.06
343.209	92.06
343.437	114.06
343.665	94.06
343.893	78.06
344.12	70.06
344.348	89.06
344.576	72.06
344.804	99.06
345.031	101.06
345.259	95.06
345.487	92.06
345.714	88.06
345.942	87.06
346.17	99.06
346.397	91.06
346.625	95.06
346.853	90.06
347.08	92.06
347.308	104.06
347.535	92.06
347.763	98.06
347.99	104.06
348.218	84.06
348.445	86.06
348.673	102.06
348.9	92.06
349.128	74.06
349.355	99.06
349.583	86.06
349.81	86.06
350.037	96.06
350.265	87.06
350.492	87.06
350.72	98.06
350.947	92.06
351.174	104.06
351.402	92.06
351.629	108.06
351.856	93.06
352.083	87.06
352.311	92.06
352.538	96.06
352.765	99.06
352.992	101.06
353.22	109.06
353.447	99.06
353.674	101.06
353.901	101.06
354.128	95.06
354.355	99.06
354.583	83.06
354.81	92.06
355.037	91.06
355.264	99.06
355.491	92.06
355.718	85.06
355.945	89.06
356.172	80.06
356.399	100.06
356.626	88.06
356.853	83.06
357.08	88.06
357.307	83.06
357.534	79.06
357.761	100.06
357.988	90.06
358.215	94.06
358.441	98.06
358.668	71.06
358.895	66.06
359.122	94.06
359.349	96.06
359.576	83.06
359.802	81.06
360.029	83.06
360.256	92.06
360.483	70.06
360.709	93.06
360.936	75.06
361.163	101.06
361.39	88.06
361.616	102.06
361.843	104.06
362.07	87.06
362.296	84.06
362.523	74.06
362.749	81.06
362.976	87.06
363.203	86.06
363.429	100.06
363.656	96.06
363.882	84.06
364.109	82.06
364.335	89.06
364.562	84.06
364.788	89.06
365.015	84.06
365.241	93.06
365.468	96.06
365.694	94.06
365.92	94.06
366.147	91.06
366.373	87.06
366.599	84.06
366.826	94.06
367.052	96.06
367.278	95.06
367.505	86.06
367.731	82.06
367.957	94.06
368.184	80.06
368.41	103.06
368.636	99.06
368.862	102.06
369.089	102.06
369.315	79.06
369.541	66.06
369.767	67.06
369.993	87.06
370.219	68.06
370.445	87.06
370.672	68.06
370.898	85.06
371.124	83.06
371.35	72.06
371.576	65.06
371.802	88.06
372.028	82.06
372.254	71.06
372.48	91.06
372.706	78.06
372.932	81.06
373.158	79.06
373.384	90.06
373.61	91.06
373.835	84.06
374.061	83.06
374.287	82.06
374.513	80.06
374.739	77.06
374.965	80.06
375.191	61.06
375.416	91.06
375.642	85.06
375.868	81.06
376.094	96.06
376.319	86.06
376.545	83.06
376.771	89.06
376.997	88.06
377.222	91.06
377.448	85.06
377.674	79.06
377.899	81.06
378.125	86.06
378.35	91.06
378.576	93.06
378.802	88.06
379.027	83.06
379.253	87.06
379.478	80.06
379.704	83.06
379.929	91.06
380.155	100.06
380.38	92.06
380.606	87.06
380.831	96.06
381.057	108.06
381.282	85.06
381.507	82.06
381.733	86.06
381.958	98.06
382.184	92.06
382.409	88.06
382.634	106.06
382.86	111.06
383.085	93.06
383.31	104.06
383.535	100.06
383.761	95.06
383.986	101.06
384.211	91.06
384.436	92.06
384.662	105.06
384.887	102.06
385.112	107.06
385.337	97.06
385.562	83.06
385.787	94.06
386.013	112.06
386.238	95.06
386.463	87.06
386.688	108.06
386.913	88.06
387.138	103.06
387.363	93.06
387.588	107.06
387.813	103.06
388.038	96.06
388.263	99.06
388.488	95.06
388.713	92.06
388.938	84.06
389.163	101.06
389.387	101.06
389.612	77.06
389.837	92.06
390.062	77.06
390.287	84.06
390.512	72.06
390.736	98.06
390.961	83.06
391.186	94.06
391.411	96.06
391.636	83.06
391.86	82.06
392.085	91.06
392.31	80.06
392.534	81.06
392.759	86.06
392.984	82.06
393.208	85.06
393.433	88.06
393.658	102.06
393.882	96.06
394.107	83.06
394.331	91.06
394.556	87.06
394.78	68.06
395.005	79.06
395.229	68.06
395.454	86.06
395.678	87.06
395.903	109.06
396.127	75.06
396.352	77.06
396.576	78.06
396.801	58.06
397.025	96.06
397.249	74.06
397.474	81.06
397.698	89.06
397.922	84.06
398.147	85.06
398.371	88.06
398.595	83.06
398.82	91.06
399.044	76.06
399.268	85.06
399.492	85.06
399.717	90.06
399.941	83.06
400.165	76.06
400.389	87.06
400.613	75.06
400.837	97.06
401.062	82.06
401.286	79.06
401.51	80.06
401.734	97.06
401.958	83.06
402.182	97.06
402.406	112.06
402.63	101.06
402.854	85.06
403.078	78.06
403.302	83.06
403.526	76.06
403.75	82.06
403.974	89.06
404.198	75.06
404.422	80.06
404.645	92.06
404.869	71.06
405.093	79.06
405.317	83.06
405.541	101.06
405.765	90.06
405.988	99.06
406.212	147.06
406.436	173.06
406.66	131.06
406.883	79.06
407.107	90.06
407.331	81.06
407.555	95.06
407.778	97.06
408.002	80.06
408.226	86.06
408.449	80.06
408.673	80.06
408.896	88.06
409.12	88.06
409.344	86.06
409.567	79.06
409.791	83.06
410.014	84.06
410.238	86.06
410.461	90.06
410.685	76.06
410.908	85.06
411.132	111.06
411.355	75.06
411.578	84.06
411.802	83.06
412.025	82.06
412.249	81.06
412.472	66.06
412.695	77.06
412.919	78.06
413.142	94.06
413.365	89.06
413.589	82.06
413.812	83.06
414.035	81.06
414.258	95.06
414.482	84.06
414.705	85.06
414.928	62.06
415.151	87.06
415.374	98.06
415.597	93.06
415.821	81.06
416.044	82.06
416.267	94.06
416.49	84.06
416.713	83.06
416.936	88.06
417.159	89.06
417.382	82.06
417.605	85.06
417.828	101.06
418.051	73.06
418.274	81.06
418.497	81.06
418.72	71.06
418.943	81.06
419.166	89.06
419.389	88.06
419.611	94.06
419.834	77.06
420.057	86.06
420.28	97.06
420.503	106.06
420.726	86.06
420.948	88.06
421.171	84.06
421.394	79.06
421.617	88.06
421.839	92.06
422.062	75.06
422.285	81.06
422.507	85.06
422.73	99.06
422.953	75.06
423.175	92.06
423.398	86.06
423.621	81.06
423.843	87.06
424.066	85.06
424.288	111.06
424.511	84.06
424.733	96.06
424.956	96.06
425.178	97.06
425.401	90.06
425.623	100.06
425.846	89.06
426.068	96.06
426.291	84.06
426.513	87.06
426.735	91.06
426.958	94.06
427.18	92.06
427.402	107.06
427.625	129.06
427.847	109.06
428.069	110.06
428.292	79.06
428.514	75.06
428.736	81.06
428.958	98.06
429.181	103.06
429.403	87.06
429.625	76.06
429.847	88.06
430.069	87.06
430.292	91.06
430.514	82.06
430.736	80.06
430.958	70.06
431.18	83.06
431.402	80.06
431.624	84.06
431.846	77.06
432.068	82.06
432.29	82.06
432.512	83.06
432.734	98.06
432.956	87.06
433.178	89.06
433.4	86.06
433.622	78.06
433.844	83.06
434.066	100.06
434.287	80.06
434.509	69.06
434.731	75.06
434.953	92.06
435.175	88.06
435.397	84.06
435.618	86.06
435.84	93.06
436.062	112.06
436.284	98.06
436.505	95.06
436.727	95.06
436.949	90.06
437.17	80.06
437.392	86.06
437.614	82.06
437.835	83.06
438.057	108.06
438.278	109.06
438.5	95.06
438.721	116.06
438.943	94.06
439.165	89.06
439.386	91.06
439.608	84.06
439.829	93.06
440.05	101.06
440.272	112.06
440.493	85.06
440.715	80.06
440.936	74.06
441.158	78.06
441.379	84.06
441.6	74.06
441.822	78.06
442.043	77.06
442.264	93.06
442.486	95.06
442.707	105.06
442.928	97.06
443.149	110.06
443.371	111.06
443.592	92.06
443.813	92.06
444.034	98.06
444.255	79.06
444.476	100.06
444.698	83.06
444.919	87.06
445.14	121.06
445.361	123.06
445.582	86.06
445.803	104.06
446.024	128.06
446.245	114.06
446.466	96.06
446.687	86.06
446.908	101.06
447.129	66.06
447.35	75.06
447.571	85.06
447.792	83.06
448.013	76.06
448.234	97.06
448.455	99.06
448.675	104.06
448.896	112.06
449.117	80.06
449.338	93.06
449.559	121.06
449.779	118.06
450	79.06
450.221	82.06
450.442	84.06
450.662	83.06
450.883	96.06
451.104	101.06
451.324	88.06
451.545	81.06
451.766	83.06
451.986	81.06
452.207	89.06
452.428	90.06
452.648	87.06
452.869	102.06
453.089	111.06
453.31	99.06
453.53	95.06
453.751	81.06
453.971	88.06
454.192	92.06
454.412	92.06
454.633	86.06
454.853	93.06
455.073	89.06
455.294	89.06
455.514	87.06
455.734	83.06
455.955	85.06
456.175	81.06
456.395	87.06
456.616	89.06
456.836	77.06
457.056	86.06
457.276	75.06
457.497	86.06
457.717	80.06
457.937	87.06
458.157	85.06
458.377	82.06
458.598	81.06
458.818	115.06
459.038	121.06
459.258	107.06
459.478	84.06
459.698	81.06
459.918	81.06
460.138	98.06
460.358	75.06
460.578	81.06
460.798	80.06
461.018	76.06
461.238	92.06
461.458	94.06
461.678	82.06
461.898	89.06
462.118	86.06
462.338	84.06
462.558	92.06
462.777	73.06
462.997	78.06
463.217	85.06
463.437	70.06
463.657	75.06
463.876	85.06
464.096	90.06
464.316	78.06
464.536	93.06
464.755	87.06
464.975	96.06
465.195	128.06
465.414	129.06
465.634	87.06
465.854	78.06
466.073	79.06
466.293	88.06
466.512	87.06
466.732	71.06
466.951	91.06
467.171	83.06
467.391	79.06
467.61	103.06
467.829	86.06
468.049	85.06
468.268	91.06
468.488	73.06
468.707	77.06
468.927	79.06
469.146	92.06
469.365	80.06
469.585	87.06
469.804	91.06
470.023	82.06
470.243	80.06
470.462	93.06
470.681	102.06
470.901	92.06
471.12	80.06
471.339	88.06
471.558	76.06
471.777	94.06
471.997	77.06
472.216	85.06
472.435	99.06
472.654	92.06
472.873	85.06
473.092	83.06
473.311	78.06
473.53	89.06
473.749	69.06
473.968	91.06
474.187	98.06
474.406	92.06
474.625	82.06
474.844	86.06
475.063	88.06
475.282	72.06
475.501	81.06
475.72	94.06
475.939	71.06
476.158	66.06
476.377	76.06
476.596	98.06
476.814	86.06
477.033	88.06
477.252	69.06
477.471	97.06
477.69	85.06
477.908	88.06
478.127	82.06
478.346	72.06
478.564	79.06
478.783	79.06
479.002	83.06
479.22	77.06
479.439	88.06
479.658	96.06
479.876	90.06
480.095	69.06
480.313	81.06
480.532	86.06
480.751	102.06
480.969	102.06
481.188	132.06
481.406	112.06
481.624	99.06
481.843	93.06
482.061	78.06
482.28	88.06
482.498	70.06
482.717	89.06
482.935	87.06
483.153	95.06
483.372	91.06
483.59	91.06
483.808	71.06
484.027	92.06
484.245	88.06
484.463	83.06
484.681	84.06
484.9	100.06
485.118	81.06
485.336	87.06
485.554	92.06
485.772	95.06
485.99	95.06
486.209	96.06
486.427	90.06
486.645	105.06
486.863	110.06
487.081	105.06
487.299	89.06
487.517	103.06
487.735	76.06
487.953	89.06
488.171	86.06
488.389	99.06
488.607	95.06
488.825	79.06
489.043	84.06
489.261	88.06
489.479	78.06
489.696	91.06
489.914	85.06
490.132	91.06
490.35	77.06
490.568	71.06
490.786	72.06
491.003	81.06
491.221	75.06
491.439	88.06
491.657	78.06
491.874	84.06
492.092	70.06
492.31	87.06
492.527	83.06
492.745	83.06
492.963	81.06
493.18	82.06
493.398	91.06
493.615	93.06
493.833	96.06
494.05	82.06
494.268	81.06
494.485	80.06
494.703	90.06
494.92	78.06
495.138	72.06
495.355	92.06
495.573	77.06
495.79	79.06
496.008	98.06
496.225	75.06
496.442	77.06
496.66	91.06
496.877	86.06
497.094	91.06
497.312	81.06
497.529	84.06
497.746	78.06
497.963	79.06
498.181	95.06
498.398	83.06
498.615	94.06
498.832	92.06
499.049	93.06
499.267	96.06
499.484	85.06
499.701	84.06
499.918	105.06
500.135	90.06
500.352	91.06
500.569	82.06
500.786	84.06
501.003	75.06
501.22	77.06
501.437	80.06
501.654	87.06
501.871	113.06
502.088	99.06
502.305	80.06
502.522	84.06
502.739	77.06
502.956	82.06
503.172	101.06
503.389	83.06
503.606	71.06
503.823	88.06
504.04	85.06
504.256	84.06
504.473	93.06
504.69	89.06
504.907	87.06
505.123	70.06
505.34	87.06
505.557	92.06
505.773	81.06
505.99	94.06
506.207	96.06
506.423	84.06
506.64	82.06
506.856	90.06
507.073	79.06
507.289	86.06
507.506	72.06
507.722	102.06
507.939	94.06
508.155	106.06
508.372	92.06
508.588	111.06
508.805	87.06
509.021	85.06
509.238	99.06
509.454	78.06
509.67	95.06
509.887	116.06
510.103	104.06
510.319	165.06
510.536	583.06
510.752	1770.06
510.968	504.06
511.184	150.06
511.401	107.06
511.617	81.06
511.833	90.06
512.049	89.06
512.265	68.06
512.481	87.06
512.698	80.06
512.914	93.06
513.13	92.06
513.346	72.06
513.562	97.06
513.778	79.06
513.994	84.06
514.21	96.06
514.426	117.06
514.642	120.06
514.858	98.06
515.074	143.06
515.29	322.06
515.506	1003.06
515.721	377.06
515.937	115.06
516.153	92.06
516.369	100.06
516.585	75.06
516.801	91.06
517.016	97.06
517.232	82.06
517.448	97.06
517.664	86.06
517.879	92.06
518.095	81.06
518.311	83.06
518.527	72.06
518.742	82.06
518.958	87.06
519.173	83.06
519.389	78.06
519.605	102.06
519.82	83.06
520.036	91.06
520.251	95.06
520.467	95.06
520.682	94.06
520.898	100.06
521.113	95.06
521.329	119.06
521.544	165.06
521.76	413.06
521.975	1685.06
522.19	997.06
522.406	231.06
522.621	102.06
522.836	104.06
523.052	88.06
523.267	104.06
523.482	98.06
523.698	87.06
523.913	104.06
524.128	95.06
524.343	87.06
524.559	80.06
524.774	96.06
524.989	92.06
525.204	73.06
525.419	89.06
525.634	76.06
525.849	83.06
526.064	90.06
526.28	82.06
526.495	89.06
526.71	83.06
526.925	83.06
527.14	72.06
527.355	82.06
527.57	75.06
527.785	78.06
527.999	96.06
528.214	79.06
528.429	86.06
528.644	101.06
528.859	92.06
529.074	83.06
529.289	99.06
529.503	142.06
529.718	91.06
529.933	85.06
530.148	87.06
530.363	76.06
530.577	81.06
530.792	100.06
531.007	79.06
531.221	76.06
531.436	91.06
531.651	95.06
531.865	77.06
532.08	83.06
532.295	82.06
532.509	96.06
532.724	87.06
532.938	88.06
533.153	97.06
533.367	91.06
533.582	74.06
533.796	81.06
534.011	86.06
534.225	70.06
534.44	86.06
534.654	89.06
534.868	85.06
535.083	88.06
535.297	99.06
535.511	85.06
535.726	94.06
535.94	91.06
536.154	85.06
536.369	97.06
536.583	92.06
536.797	87.06
537.011	63.06
537.225	92.06
537.44	81.06
537.654	77.06
537.868	82.06
538.082	88.06
538.296	85.06
538.51	77.06
538.724	95.06
538.938	78.06
539.153	85.06
539.367	107.06
539.581	86.06
539.795	86.06
540.009	81.06
540.222	91.06
540.436	67.06
540.65	72.06
540.864	79.06
541.078	108.06
541.292	88.06
541.506	92.06
541.72	70.06
541.934	64.06
542.147	86.06
542.361	91.06
542.575	75.06
542.789	77.06
543.002	85.06
543.216	98.06
543.43	91.06
543.644	78.06
543.857	97.06
544.071	71.06
544.285	84.06
544.498	95.06
544.712	83.06
544.925	88.06
545.139	81.06
545.352	91.06
545.566	80.06
545.779	70.06
545.993	91.06
546.206	88.06
546.42	75.06
546.633	100.06
546.847	94.06
547.06	86.06
547.274	91.06
547.487	86.06
547.7	85.06
547.914	80.06
548.127	87.06
548.34	97.06
548.554	93.06
548.767	74.06
548.98	75.06
549.193	64.06
549.407	69.06
549.62	70.06
549.833	81.06
550.046	80.06
550.259	92.06
550.473	79.06
550.686	84.06
550.899	80.06
551.112	84.06
551.325	81.06
551.538	91.06
551.751	78.06
551.964	93.06
552.177	85.06
552.39	80.06
552.603	95.06
552.816	87.06
553.029	88.06
553.242	102.06
553.455	102.06
553.667	101.06
553.88	96.06
554.093	91.06
554.306	101.06
554.519	86.06
554.732	81.06
554.944	82.06
555.157	88.06
555.37	89.06
555.583	83.06
555.795	94.06
556.008	76.06
556.221	93.06
556.433	92.06
556.646	83.06
556.859	75.06
557.071	86.06
557.284	88.06
557.496	92.06
557.709	84.06
557.921	94.06
558.134	88.06
558.346	85.06
558.559	80.06
558.771	76.06
558.984	104.06
559.196	88.06
559.409	93.06
559.621	87.06
559.833	77.06
560.046	62.06
560.258	76.06
560.47	91.06
560.683	87.06
560.895	89.06
561.107	86.06
561.32	89.06
561.532	75.06
561.744	87.06
561.956	81.06
562.168	81.06
562.381	84.06
562.593	89.06
562.805	83.06
563.017	94.06
563.229	89.06
563.441	93.06
563.653	85.06
563.865	82.06
564.077	87.06
564.289	90.06
564.501	91.06
564.713	86.06
564.925	97.06
565.137	96.06
565.349	88.06
565.561	94.06
565.773	93.06
565.985	86.06
566.197	88.06
566.408	88.06
566.62	79.06
566.832	79.06
567.044	83.06
567.255	73.06
567.467	87.06
567.679	88.06
567.891	86.06
568.102	82.06
568.314	88.06
568.526	72.06
568.737	89.06
568.949	86.06
569.161	95.06
569.372	89.06
569.584	80.06
569.795	82.06
570.007	102.06
570.218	196.06
570.43	99.06
570.641	77.06
570.853	88.06
571.064	88.06
571.276	88.06
571.487	83.06
571.698	82.06
571.91	87.06
572.121	90.06
572.333	89.06
572.544	85.06
572.755	87.06
572.966	78.06
573.178	95.06
573.389	91.06
573.6	72.06
573.811	84.06
574.023	84.06
574.234	83.06
574.445	84.06
574.656	77.06
574.867	69.06
575.078	89.06
575.289	78.06
575.501	88.06
575.712	77.06
575.923	76.06
576.134	89.06
576.345	79.06
576.556	81.06
576.767	90.06
576.978	95.06
577.188	91.06
577.399	88.06
577.61	93.06
577.821	91.06
578.032	102.06
578.243	226.06
578.454	567.06
578.665	177.06
578.875	89.06
579.086	102.06
579.297	79.06
579.508	83.06
579.718	94.06
579.929	75.06
580.14	73.06
580.35	85.06
580.561	84.06
580.772	90.06
580.982	98.06
581.193	86.06
581.403	83.06
581.614	66.06
581.825	84.06
582.035	99.06
582.246	101.06
582.456	78.06
582.667	88.06
582.877	97.06
583.087	92.06
583.298	82.06
583.508	80.06
583.719	80.06
583.929	69.06
584.139	75.06
584.35	81.06
584.56	88.06
584.77	87.06
584.981	81.06
585.191	81.06
585.401	93.06
585.611	102.06
585.821	80.06
586.032	97.06
586.242	76.06
586.452	70.06
586.662	77.06
586.872	76.06
587.082	81.06
587.292	81.06
587.502	109.06
587.713	84.06
587.923	84.06
588.133	99.06
588.343	89.06
588.553	90.06
588.762	86.06
588.972	89.06
589.182	94.06
589.392	76.06
589.602	84.06
589.812	79.06
590.022	91.06
590.232	70.06
590.441	71.06
590.651	85.06
590.861	81.06
591.071	77.06
591.281	93.06
591.49	82.06
591.7	86.06
591.91	81.06
592.119	93.06
592.329	87.06
592.539	88.06
592.748	83.06
592.958	76.06
593.167	92.06
593.377	80.06
593.587	94.06
593.796	77.06
594.006	80.06
594.215	79.06
594.424	72.06
594.634	87.06
594.843	89.06
595.053	79.06
595.262	88.06
595.472	87.06
595.681	83.06
595.89	79.06
596.1	78.06
596.309	94.06
596.518	81.06
596.727	80.06
596.937	86.06
597.146	72.06
597.355	85.06
597.564	72.06
597.774	83.06
597.983	83.06
598.192	90.06
598.401	94.06
598.61	92.06
598.819	88.06
599.028	87.06
599.237	89.06
599.446	87.06
599.655	76.06
599.864	88.06
600.073	80.06
600.282	79.06
600.491	85.06
600.7	88.06
600.909	85.06
601.118	89.06
601.327	88.06
601.536	83.06
601.745	82.06
601.953	96.06
602.162	77.06
602.371	85.06
602.58	87.06
602.789	85.06
602.997	92.06
603.206	88.06
603.415	78.06
603.623	93.06
603.832	86.06
604.041	75.06
604.249	88.06
604.458	83.06
604.666	92.06
604.875	67.06
605.084	91.06
605.292	96.06
605.501	79.06
605.709	95.06
605.918	80.06
606.126	89.06
606.334	99.06
606.543	95.06
606.751	86.06
606.96	79.06
607.168	84.06
607.376	77.06
607.585	91.06
607.793	94.06
608.001	88.06
608.21	85.06
608.418	83.06
608.626	69.06
608.834	85.06
609.043	80.06
609.251	84.06
609.459	82.06
609.667	82.06
609.875	76.06
610.083	82.06
610.291	83.06
610.499	78.06
610.707	87.06
610.916	90.06
611.124	75.06
611.332	80.06
611.54	68.06
611.748	77.06
611.955	80.06
612.163	88.06
612.371	91.06
612.579	82.06
612.787	82.06
612.995	84.06
613.203	86.06
613.411	75.06
613.618	84.06
613.826	79.06
614.034	68.06
614.242	81.06
614.449	85.06
614.657	76.06
614.865	76.06
615.072	85.06
615.28	78.06
615.488	75.06
615.695	83.06
615.903	85.06
616.111	94.06
616.318	103.06
616.526	88.06
616.733	101.06
616.941	89.06
617.148	83.06
617.356	79.06
617.563	83.06
617.771	68.06
617.978	84.06
618.185	85.06
618.393	72.06
618.6	78.06
618.807	96.06
619.015	84.06
619.222	76.06
619.429	90.06
619.637	95.06
619.844	67.06
620.051	91.06
620.258	86.06
620.466	61.06
620.673	88.06
620.88	83.06
621.087	69.06
621.294	81.06
621.501	71.06
621.708	84.06
621.915	75.06
622.122	88.06
622.329	88.06
622.536	82.06
622.743	83.06
622.95	86.06
623.157	93.06
623.364	85.06
623.571	73.06
623.778	75.06
623.985	82.06
624.192	70.06
624.399	81.06
624.606	81.06
624.812	87.06
625.019	81.06
625.226	86.06
625.433	84.06
625.639	75.06
625.846	90.06
626.053	94.06
626.259	66.06
626.466	89.06
626.673	73.06
626.879	84.06
627.086	79.06
627.293	94.06
627.499	76.06
627.706	70.06
627.912	79.06
628.119	95.06
628.325	76.06
628.532	64.06
628.738	67.06
628.945	81.06
629.151	91.06
629.357	80.06
629.564	79.06
629.77	80.06
629.976	95.06
630.183	77.06
630.389	82.06
630.595	67.06
630.802	72.06
631.008	90.06
631.214	78.06
631.42	73.06
631.627	94.06
631.833	75.06
632.039	82.06
632.245	69.06
632.451	71.06
632.657	99.06
632.863	87.06
633.069	75.06
633.275	87.06
633.481	84.06
633.688	80.06
633.893	77.06
634.099	73.06
634.305	64.06
634.511	71.06
634.717	79.06
634.923	77.06
635.129	85.06
635.335	79.06
635.541	87.06
635.747	84.06
635.952	89.06
636.158	87.06
636.364	78.06
636.57	75.06
636.775	78.06
636.981	80.06
637.187	80.06
637.392	73.06
637.598	82.06
637.804	82.06
638.009	80.06
638.215	86.06
638.421	64.06
638.626	69.06
638.832	72.06
639.037	84.06
639.243	83.06
639.448	66.06
639.654	70.06
639.859	78.06
640.065	85.06
640.27	96.06
640.475	92.06
640.681	80.06
640.886	75.06
641.091	73.06
641.297	81.06
641.502	98.06
641.707	87.06
641.913	86.06
642.118	83.06
642.323	79.06
642.528	93.06
642.733	82.06
642.939	86.06
643.144	81.06
643.349	67.06
643.554	80.06
643.759	79.06
643.964	71.06
644.169	72.06
644.374	77.06
644.579	85.06
644.784	67.06
644.989	94.06
645.194	94.06
645.399	85.06
645.604	85.06
645.809	89.06
646.014	88.06
646.219	70.06
646.423	91.06
646.628	83.06
646.833	77.06
647.038	87.06
647.243	73.06
647.447	98.06
647.652	80.06
647.857	72.06
648.062	76.06
648.266	86.06
648.471	75.06
648.676	96.06
648.88	89.06
649.085	101.06
649.289	84.06
649.494	95.06
649.698	122.06
649.903	101.06
650.107	81.06
650.312	81.06
650.516	80.06
650.721	80.06
650.925	89.06
651.13	72.06
651.334	84.06
651.539	81.06
651.743	81.06
651.947	84.06
652.152	89.06
652.356	69.06
652.56	73.06
652.764	84.06
652.969	77.06
653.173	99.06
653.377	82.06
653.581	65.06
653.785	83.06
653.99	80.06
654.194	68.06
654.398	86.06
654.602	88.06
654.806	94.06
655.01	95.06
655.214	79.06
655.418	77.06
655.622	80.06
655.826	75.06
656.03	81.06
656.234	91.06
656.438	94.06
656.642	93.06
656.846	92.06
657.049	88.06
657.253	80.06
657.457	85.06
657.661	85.06
657.865	57.06
658.068	76.06
658.272	76.06
658.476	72.06
658.68	81.06
658.883	61.06
659.087	79.06
659.291	71.06
659.494	73.06
659.698	72.06
659.901	84.06
660.105	71.06
660.309	79.06
660.512	90.06
660.716	85.06
660.919	78.06
661.123	81.06
661.326	96.06
661.53	76.06
661.733	85.06
661.936	77.06
662.14	79.06
662.343	82.06
662.546	85.06
662.75	63.06
662.953	80.06
663.156	77.06
663.36	68.06
663.563	79.06
663.766	75.06
663.969	71.06
664.173	85.06
664.376	85.06
664.579	62.06
664.782	85.06
664.985	81.06
665.188	88.06
665.391	83.06
665.594	77.06
665.797	80.06
666	83.06
666.203	79.06
666.406	87.06
666.609	80.06
666.812	85.06
667.015	69.06
667.218	72.06
667.421	87.06
667.624	73.06
667.827	81.06
668.03	82.06
668.232	67.06
668.435	84.06
668.638	70.06
668.841	91.06
669.043	85.06
669.246	85.06
669.449	71.06
669.651	67.06
669.854	79.06
670.057	92.06
670.259	85.06
670.462	77.06
670.665	77.06
670.867	66.06
671.07	75.06
671.272	84.06
671.475	88.06
671.677	62.06
671.88	88.06
672.082	76.06
672.284	84.06
672.487	77.06
672.689	70.06
672.892	81.06
