Data from Uncirc_1983_H10_HRD10591_00066.txt Node
Date: Wed Jan 03 12:25:45 EST 2024
User: Yrep
Spectrometer: HR+D1059
Trigger mode: 1
Integration Time (sec): 1.000000E-1
Scans to average: 1
Electric dark correction enabled: true
Nonlinearity correction enabled: false
Boxcar width: 0
XAxis mode: Wavelengths
Number of Pixels in Spectrum: 2048
>>>>>Begin Spectral Data<<<<<
223.165	-12.81
223.4	-12.81
223.635	-12.81
223.869	-27.81
224.104	-22.81
224.338	-17.81
224.573	-11.81
224.808	-13.81
225.042	-8.81
225.277	-7.81
225.511	-1.81
225.746	7.19
225.98	5.19
226.215	4.19
226.449	24.19
226.683	11.19
226.918	27.19
227.152	46.19
227.387	32.19
227.621	49.19
227.856	42.19
228.09	60.19
228.324	53.19
228.559	60.19
228.793	73.19
229.027	59.19
229.262	64.19
229.496	72.19
229.73	79.19
229.964	85.19
230.199	73.19
230.433	84.19
230.667	73.19
230.901	76.19
231.136	88.19
231.37	97.19
231.604	76.19
231.838	71.19
232.072	88.19
232.306	95.19
232.541	84.19
232.775	79.19
233.009	87.19
233.243	76.19
233.477	74.19
233.711	81.19
233.945	69.19
234.179	81.19
234.413	74.19
234.647	84.19
234.881	81.19
235.115	86.19
235.349	75.19
235.583	84.19
235.817	79.19
236.051	81.19
236.285	72.19
236.519	73.19
236.753	79.19
236.987	83.19
237.221	73.19
237.455	89.19
237.689	63.19
237.922	84.19
238.156	79.19
238.39	79.19
238.624	79.19
238.858	87.19
239.091	69.19
239.325	76.19
239.559	85.19
239.793	85.19
240.027	83.19
240.26	82.19
240.494	68.19
240.728	65.19
240.961	63.19
241.195	69.19
241.429	74.19
241.662	85.19
241.896	69.19
242.13	80.19
242.363	75.19
242.597	86.19
242.83	76.19
243.064	73.19
243.298	79.19
243.531	70.19
243.765	73.19
243.998	76.19
244.232	75.19
244.465	82.19
244.699	90.19
244.932	70.19
245.166	71.19
245.399	87.19
245.633	84.19
245.866	91.19
246.099	74.19
246.333	85.19
246.566	79.19
246.8	80.19
247.033	91.19
247.266	85.19
247.5	72.19
247.733	66.19
247.966	76.19
248.2	75.19
248.433	89.19
248.666	80.19
248.899	94.19
249.133	89.19
249.366	87.19
249.599	88.19
249.832	90.19
250.066	86.19
250.299	91.19
250.532	86.19
250.765	77.19
250.998	78.19
251.231	84.19
251.465	70.19
251.698	76.19
251.931	70.19
252.164	75.19
252.397	76.19
252.63	82.19
252.863	72.19
253.096	90.19
253.329	83.19
253.562	80.19
253.795	72.19
254.028	79.19
254.261	83.19
254.494	84.19
254.727	76.19
254.96	69.19
255.193	83.19
255.426	79.19
255.659	75.19
255.892	92.19
256.124	64.19
256.357	86.19
256.59	79.19
256.823	81.19
257.056	87.19
257.289	81.19
257.521	80.19
257.754	84.19
257.987	87.19
258.22	88.19
258.452	71.19
258.685	80.19
258.918	74.19
259.151	75.19
259.383	84.19
259.616	77.19
259.849	72.19
260.081	81.19
260.314	71.19
260.547	81.19
260.779	84.19
261.012	100.19
261.244	89.19
261.477	89.19
261.71	100.19
261.942	111.19
262.175	107.19
262.407	85.19
262.64	67.19
262.872	91.19
263.105	82.19
263.337	79.19
263.57	83.19
263.802	80.19
264.035	100.19
264.267	86.19
264.499	83.19
264.732	88.19
264.964	95.19
265.197	79.19
265.429	92.19
265.661	97.19
265.894	68.19
266.126	74.19
266.358	89.19
266.591	82.19
266.823	87.19
267.055	81.19
267.287	81.19
267.52	71.19
267.752	77.19
267.984	87.19
268.216	76.19
268.448	79.19
268.681	81.19
268.913	84.19
269.145	71.19
269.377	88.19
269.609	80.19
269.841	74.19
270.073	95.19
270.306	87.19
270.538	72.19
270.77	77.19
271.002	91.19
271.234	83.19
271.466	84.19
271.698	91.19
271.93	87.19
272.162	84.19
272.394	86.19
272.626	86.19
272.858	85.19
273.09	79.19
273.322	87.19
273.553	90.19
273.785	102.19
274.017	97.19
274.249	88.19
274.481	83.19
274.713	87.19
274.945	82.19
275.176	71.19
275.408	88.19
275.64	81.19
275.872	95.19
276.104	101.19
276.335	98.19
276.567	98.19
276.799	96.19
277.031	83.19
277.262	95.19
277.494	106.19
277.726	91.19
277.957	80.19
278.189	90.19
278.421	84.19
278.652	84.19
278.884	85.19
279.115	92.19
279.347	69.19
279.579	88.19
279.81	87.19
280.042	96.19
280.273	92.19
280.505	80.19
280.736	89.19
280.968	90.19
281.199	84.19
281.431	84.19
281.662	85.19
281.894	77.19
282.125	92.19
282.356	103.19
282.588	133.19
282.819	104.19
283.051	83.19
283.282	84.19
283.513	64.19
283.745	76.19
283.976	93.19
284.207	87.19
284.439	82.19
284.67	77.19
284.901	85.19
285.132	87.19
285.364	87.19
285.595	81.19
285.826	82.19
286.057	76.19
286.288	72.19
286.52	97.19
286.751	95.19
286.982	91.19
287.213	80.19
287.444	85.19
287.675	101.19
287.906	88.19
288.138	88.19
288.369	76.19
288.6	92.19
288.831	75.19
289.062	100.19
289.293	80.19
289.524	82.19
289.755	81.19
289.986	80.19
290.217	83.19
290.448	101.19
290.679	90.19
290.91	98.19
291.141	91.19
291.371	97.19
291.602	90.19
291.833	86.19
292.064	93.19
292.295	97.19
292.526	88.19
292.757	92.19
292.987	92.19
293.218	86.19
293.449	83.19
293.68	95.19
293.91	88.19
294.141	86.19
294.372	104.19
294.603	76.19
294.833	89.19
295.064	85.19
295.295	86.19
295.525	73.19
295.756	96.19
295.987	104.19
296.217	127.19
296.448	115.19
296.679	94.19
296.909	105.19
297.14	88.19
297.37	86.19
297.601	96.19
297.831	80.19
298.062	76.19
298.292	87.19
298.523	90.19
298.753	100.19
298.984	89.19
299.214	92.19
299.445	81.19
299.675	103.19
299.905	100.19
300.136	94.19
300.366	92.19
300.597	104.19
300.827	97.19
301.057	90.19
301.288	87.19
301.518	111.19
301.748	79.19
301.979	107.19
302.209	96.19
302.439	95.19
302.669	89.19
302.9	91.19
303.13	83.19
303.36	98.19
303.59	103.19
303.82	111.19
304.051	90.19
304.281	87.19
304.511	74.19
304.741	85.19
304.971	78.19
305.201	76.19
305.431	87.19
305.661	80.19
305.891	91.19
306.121	103.19
306.352	98.19
306.582	94.19
306.812	71.19
307.042	74.19
307.272	89.19
307.502	88.19
307.731	96.19
307.961	83.19
308.191	79.19
308.421	83.19
308.651	98.19
308.881	103.19
309.111	93.19
309.341	100.19
309.571	94.19
309.8	96.19
310.03	96.19
310.26	85.19
310.49	101.19
310.72	96.19
310.949	92.19
311.179	99.19
311.409	106.19
311.639	97.19
311.868	89.19
312.098	95.19
312.328	87.19
312.557	117.19
312.787	101.19
313.017	91.19
313.246	93.19
313.476	92.19
313.706	75.19
313.935	95.19
314.165	89.19
314.394	96.19
314.624	104.19
314.853	102.19
315.083	81.19
315.312	79.19
315.542	90.19
315.771	95.19
316.001	78.19
316.23	100.19
316.46	97.19
316.689	84.19
316.919	78.19
317.148	92.19
317.377	91.19
317.607	97.19
317.836	84.19
318.065	83.19
318.295	98.19
318.524	97.19
318.753	90.19
318.983	83.19
319.212	99.19
319.441	90.19
319.67	114.19
319.9	79.19
320.129	104.19
320.358	100.19
320.587	110.19
320.816	95.19
321.046	91.19
321.275	101.19
321.504	106.19
321.733	86.19
321.962	96.19
322.191	89.19
322.42	84.19
322.649	90.19
322.878	108.19
323.108	106.19
323.337	123.19
323.566	124.19
323.795	133.19
324.024	177.19
324.253	340.19
324.482	682.19
324.71	1422.19
324.939	1875.19
325.168	671.19
325.397	214.19
325.626	156.19
325.855	112.19
326.084	122.19
326.313	113.19
326.542	151.19
326.77	203.19
326.999	385.19
327.228	778.19
327.457	1449.19
327.686	1133.19
327.914	311.19
328.143	175.19
328.372	140.19
328.6	120.19
328.829	116.19
329.058	113.19
329.287	103.19
329.515	118.19
329.744	104.19
329.972	103.19
330.201	115.19
330.43	132.19
330.658	120.19
330.887	123.19
331.115	117.19
331.344	103.19
331.572	109.19
331.801	84.19
332.03	99.19
332.258	85.19
332.486	97.19
332.715	99.19
332.943	86.19
333.172	93.19
333.4	88.19
333.629	98.19
333.857	100.19
334.085	96.19
334.314	108.19
334.542	124.19
334.771	121.19
334.999	108.19
335.227	87.19
335.455	103.19
335.684	92.19
335.912	91.19
336.14	99.19
336.369	96.19
336.597	105.19
336.825	98.19
337.053	90.19
337.281	83.19
337.51	88.19
337.738	96.19
337.966	93.19
338.194	93.19
338.422	88.19
338.65	98.19
338.878	90.19
339.106	95.19
339.334	101.19
339.562	100.19
339.79	92.19
340.018	87.19
340.246	69.19
340.474	75.19
340.702	96.19
340.93	84.19
341.158	105.19
341.386	89.19
341.614	93.19
341.842	109.19
342.07	104.19
342.298	90.19
342.526	99.19
342.754	93.19
342.981	87.19
343.209	88.19
343.437	93.19
343.665	88.19
343.893	72.19
344.12	97.19
344.348	95.19
344.576	81.19
344.804	89.19
345.031	91.19
345.259	99.19
345.487	89.19
345.714	80.19
345.942	85.19
346.17	91.19
346.397	89.19
346.625	104.19
346.853	101.19
347.08	88.19
347.308	100.19
347.535	89.19
347.763	92.19
347.99	93.19
348.218	91.19
348.445	102.19
348.673	98.19
348.9	85.19
349.128	89.19
349.355	86.19
349.583	108.19
349.81	95.19
350.037	98.19
350.265	92.19
350.492	84.19
350.72	88.19
350.947	91.19
351.174	104.19
351.402	126.19
351.629	104.19
351.856	98.19
352.083	110.19
352.311	99.19
352.538	93.19
352.765	99.19
352.992	108.19
353.22	99.19
353.447	110.19
353.674	97.19
353.901	90.19
354.128	101.19
354.355	88.19
354.583	92.19
354.81	95.19
355.037	103.19
355.264	90.19
355.491	100.19
355.718	91.19
355.945	79.19
356.172	85.19
356.399	87.19
356.626	85.19
356.853	91.19
357.08	93.19
357.307	93.19
357.534	108.19
357.761	96.19
357.988	87.19
358.215	97.19
358.441	92.19
358.668	81.19
358.895	84.19
359.122	95.19
359.349	84.19
359.576	97.19
359.802	99.19
360.029	120.19
360.256	98.19
360.483	93.19
360.709	82.19
360.936	99.19
361.163	94.19
361.39	114.19
361.616	98.19
361.843	91.19
362.07	93.19
362.296	93.19
362.523	91.19
362.749	80.19
362.976	81.19
363.203	85.19
363.429	71.19
363.656	94.19
363.882	98.19
364.109	108.19
364.335	96.19
364.562	102.19
364.788	91.19
365.015	86.19
365.241	81.19
365.468	108.19
365.694	94.19
365.92	96.19
366.147	96.19
366.373	96.19
366.599	85.19
366.826	100.19
367.052	84.19
367.278	89.19
367.505	91.19
367.731	92.19
367.957	103.19
368.184	85.19
368.41	101.19
368.636	109.19
368.862	113.19
369.089	110.19
369.315	111.19
369.541	85.19
369.767	89.19
369.993	101.19
370.219	89.19
370.445	99.19
370.672	86.19
370.898	87.19
371.124	75.19
371.35	81.19
371.576	96.19
371.802	83.19
372.028	83.19
372.254	88.19
372.48	72.19
372.706	85.19
372.932	86.19
373.158	81.19
373.384	75.19
373.61	99.19
373.835	103.19
374.061	94.19
374.287	95.19
374.513	81.19
374.739	90.19
374.965	88.19
375.191	93.19
375.416	102.19
375.642	86.19
375.868	80.19
376.094	99.19
376.319	75.19
376.545	98.19
376.771	76.19
376.997	97.19
377.222	95.19
377.448	91.19
377.674	100.19
377.899	98.19
378.125	87.19
378.35	86.19
378.576	86.19
378.802	102.19
379.027	91.19
379.253	92.19
379.478	89.19
379.704	98.19
379.929	94.19
380.155	92.19
380.38	95.19
380.606	102.19
380.831	92.19
381.057	106.19
381.282	101.19
381.507	104.19
381.733	99.19
381.958	98.19
382.184	83.19
382.409	102.19
382.634	81.19
382.86	75.19
383.085	84.19
383.31	97.19
383.535	101.19
383.761	101.19
383.986	96.19
384.211	94.19
384.436	97.19
384.662	100.19
384.887	88.19
385.112	86.19
385.337	99.19
385.562	102.19
385.787	113.19
386.013	92.19
386.238	100.19
386.463	99.19
386.688	95.19
386.913	97.19
387.138	99.19
387.363	94.19
387.588	108.19
387.813	107.19
388.038	95.19
388.263	111.19
388.488	112.19
388.713	84.19
388.938	74.19
389.163	87.19
389.387	84.19
389.612	77.19
389.837	97.19
390.062	82.19
390.287	93.19
390.512	99.19
390.736	88.19
390.961	102.19
391.186	96.19
391.411	92.19
391.636	98.19
391.86	92.19
392.085	73.19
392.31	88.19
392.534	84.19
392.759	83.19
392.984	86.19
393.208	91.19
393.433	101.19
393.658	81.19
393.882	99.19
394.107	99.19
394.331	98.19
394.556	73.19
394.78	95.19
395.005	91.19
395.229	87.19
395.454	87.19
395.678	91.19
395.903	89.19
396.127	92.19
396.352	91.19
396.576	103.19
396.801	82.19
397.025	83.19
397.249	83.19
397.474	75.19
397.698	75.19
397.922	98.19
398.147	84.19
398.371	96.19
398.595	86.19
398.82	87.19
399.044	100.19
399.268	82.19
399.492	83.19
399.717	96.19
399.941	85.19
400.165	91.19
400.389	77.19
400.613	90.19
400.837	87.19
401.062	80.19
401.286	83.19
401.51	91.19
401.734	87.19
401.958	109.19
402.182	132.19
402.406	133.19
402.63	104.19
402.854	87.19
403.078	87.19
403.302	85.19
403.526	81.19
403.75	84.19
403.974	84.19
404.198	82.19
404.422	94.19
404.645	91.19
404.869	95.19
405.093	104.19
405.317	107.19
405.541	80.19
405.765	98.19
405.988	119.19
406.212	155.19
406.436	196.19
406.66	137.19
406.883	104.19
407.107	82.19
407.331	97.19
407.555	104.19
407.778	96.19
408.002	83.19
408.226	79.19
408.449	81.19
408.673	84.19
408.896	101.19
409.12	91.19
409.344	90.19
409.567	103.19
409.791	87.19
410.014	92.19
410.238	103.19
410.461	96.19
410.685	92.19
410.908	98.19
411.132	103.19
411.355	94.19
411.578	79.19
411.802	96.19
412.025	81.19
412.249	87.19
412.472	101.19
412.695	81.19
412.919	96.19
413.142	73.19
413.365	83.19
413.589	85.19
413.812	96.19
414.035	85.19
414.258	82.19
414.482	82.19
414.705	96.19
414.928	84.19
415.151	91.19
415.374	83.19
415.597	85.19
415.821	80.19
416.044	93.19
416.267	76.19
416.49	75.19
416.713	94.19
416.936	86.19
417.159	79.19
417.382	91.19
417.605	95.19
417.828	93.19
418.051	97.19
418.274	96.19
418.497	84.19
418.72	88.19
418.943	91.19
419.166	88.19
419.389	83.19
419.611	73.19
419.834	82.19
420.057	92.19
420.28	86.19
420.503	85.19
420.726	91.19
420.948	85.19
421.171	93.19
421.394	107.19
421.617	94.19
421.839	91.19
422.062	79.19
422.285	104.19
422.507	73.19
422.73	111.19
422.953	95.19
423.175	105.19
423.398	88.19
423.621	87.19
423.843	91.19
424.066	82.19
424.288	103.19
424.511	87.19
424.733	88.19
424.956	95.19
425.178	103.19
425.401	100.19
425.623	97.19
425.846	79.19
426.068	94.19
426.291	96.19
426.513	86.19
426.735	85.19
426.958	110.19
427.18	115.19
427.402	130.19
427.625	141.19
427.847	117.19
428.069	120.19
428.292	90.19
428.514	101.19
428.736	90.19
428.958	91.19
429.181	81.19
429.403	82.19
429.625	71.19
429.847	89.19
430.069	67.19
430.292	87.19
430.514	84.19
430.736	86.19
430.958	88.19
431.18	81.19
431.402	76.19
431.624	81.19
431.846	89.19
432.068	88.19
432.29	80.19
432.512	92.19
432.734	85.19
432.956	82.19
433.178	89.19
433.4	84.19
433.622	95.19
433.844	76.19
434.066	99.19
434.287	89.19
434.509	98.19
434.731	86.19
434.953	98.19
435.175	93.19
435.397	87.19
435.618	91.19
435.84	95.19
436.062	111.19
436.284	103.19
436.505	93.19
436.727	108.19
436.949	76.19
437.17	91.19
437.392	76.19
437.614	90.19
437.835	114.19
438.057	119.19
438.278	120.19
438.5	102.19
438.721	105.19
438.943	92.19
439.165	80.19
439.386	89.19
439.608	97.19
439.829	98.19
440.05	125.19
440.272	127.19
440.493	94.19
440.715	89.19
440.936	80.19
441.158	80.19
441.379	88.19
441.6	83.19
441.822	94.19
442.043	96.19
442.264	105.19
442.486	94.19
442.707	85.19
442.928	91.19
443.149	125.19
443.371	116.19
443.592	93.19
443.813	113.19
444.034	99.19
444.255	75.19
444.476	84.19
444.698	90.19
444.919	81.19
445.14	122.19
445.361	118.19
445.582	107.19
445.803	126.19
446.024	118.19
446.245	127.19
446.466	118.19
446.687	88.19
446.908	89.19
447.129	86.19
447.35	80.19
447.571	66.19
447.792	109.19
448.013	89.19
448.234	107.19
448.455	107.19
448.675	95.19
448.896	119.19
449.117	92.19
449.338	103.19
449.559	120.19
449.779	114.19
450	79.19
450.221	82.19
450.442	76.19
450.662	100.19
450.883	99.19
451.104	92.19
451.324	99.19
451.545	97.19
451.766	99.19
451.986	88.19
452.207	90.19
452.428	91.19
452.648	102.19
452.869	116.19
453.089	82.19
453.31	103.19
453.53	96.19
453.751	95.19
453.971	97.19
454.192	98.19
454.412	99.19
454.633	91.19
454.853	95.19
455.073	82.19
455.294	91.19
455.514	103.19
455.734	80.19
455.955	85.19
456.175	89.19
456.395	83.19
456.616	92.19
456.836	88.19
457.056	72.19
457.276	72.19
457.497	94.19
457.717	68.19
457.937	90.19
458.157	98.19
458.377	95.19
458.598	98.19
458.818	141.19
459.038	129.19
459.258	98.19
459.478	74.19
459.698	83.19
459.918	83.19
460.138	84.19
460.358	83.19
460.578	78.19
460.798	89.19
461.018	82.19
461.238	88.19
461.458	69.19
461.678	87.19
461.898	87.19
462.118	86.19
462.338	75.19
462.558	87.19
462.777	83.19
462.997	68.19
463.217	79.19
463.437	92.19
463.657	90.19
463.876	76.19
464.096	99.19
464.316	92.19
464.536	91.19
464.755	96.19
464.975	91.19
465.195	158.19
465.414	159.19
465.634	98.19
465.854	81.19
466.073	99.19
466.293	82.19
466.512	69.19
466.732	93.19
466.951	80.19
467.171	93.19
467.391	93.19
467.61	96.19
467.829	96.19
468.049	96.19
468.268	105.19
468.488	66.19
468.707	81.19
468.927	85.19
469.146	89.19
469.365	90.19
469.585	101.19
469.804	92.19
470.023	86.19
470.243	75.19
470.462	79.19
470.681	95.19
470.901	72.19
471.12	84.19
471.339	105.19
471.558	81.19
471.777	86.19
471.997	93.19
472.216	112.19
472.435	143.19
472.654	95.19
472.873	90.19
473.092	72.19
473.311	88.19
473.53	81.19
473.749	94.19
473.968	83.19
474.187	83.19
474.406	81.19
474.625	70.19
474.844	89.19
475.063	79.19
475.282	89.19
475.501	88.19
475.72	68.19
475.939	80.19
476.158	81.19
476.377	95.19
476.596	95.19
476.814	88.19
477.033	83.19
477.252	87.19
477.471	71.19
477.69	88.19
477.908	75.19
478.127	87.19
478.346	77.19
478.564	89.19
478.783	80.19
479.002	85.19
479.22	115.19
479.439	104.19
479.658	87.19
479.876	104.19
480.095	93.19
480.313	91.19
480.532	90.19
480.751	90.19
480.969	117.19
481.188	194.19
481.406	139.19
481.624	106.19
481.843	83.19
482.061	75.19
482.28	96.19
482.498	79.19
482.717	85.19
482.935	89.19
483.153	84.19
483.372	98.19
483.59	91.19
483.808	98.19
484.027	96.19
484.245	87.19
484.463	79.19
484.681	99.19
484.9	95.19
485.118	100.19
485.336	98.19
485.554	91.19
485.772	103.19
485.99	98.19
486.209	93.19
486.427	103.19
486.645	100.19
486.863	110.19
487.081	91.19
487.299	97.19
487.517	88.19
487.735	90.19
487.953	101.19
488.171	96.19
488.389	100.19
488.607	105.19
488.825	104.19
489.043	80.19
489.261	94.19
489.479	95.19
489.696	95.19
489.914	90.19
490.132	92.19
490.35	89.19
490.568	87.19
490.786	94.19
491.003	88.19
491.221	95.19
491.439	96.19
491.657	87.19
491.874	71.19
492.092	83.19
492.31	97.19
492.527	99.19
492.745	92.19
492.963	93.19
493.18	90.19
493.398	93.19
493.615	91.19
493.833	82.19
494.05	93.19
494.268	93.19
494.485	89.19
494.703	96.19
494.92	80.19
495.138	93.19
495.355	81.19
495.573	91.19
495.79	95.19
496.008	87.19
496.225	90.19
496.442	92.19
496.66	84.19
496.877	99.19
497.094	92.19
497.312	84.19
497.529	91.19
497.746	83.19
497.963	85.19
498.181	93.19
498.398	91.19
498.615	113.19
498.832	81.19
499.049	95.19
499.267	115.19
499.484	86.19
499.701	93.19
499.918	89.19
500.135	93.19
500.352	96.19
500.569	85.19
500.786	91.19
501.003	95.19
501.22	83.19
501.437	91.19
501.654	99.19
501.871	100.19
502.088	95.19
502.305	118.19
502.522	93.19
502.739	86.19
502.956	84.19
503.172	85.19
503.389	100.19
503.606	99.19
503.823	92.19
504.04	107.19
504.256	91.19
504.473	92.19
504.69	101.19
504.907	99.19
505.123	83.19
505.34	88.19
505.557	88.19
505.773	87.19
505.99	105.19
506.207	91.19
506.423	92.19
506.64	96.19
506.856	98.19
507.073	96.19
507.289	84.19
507.506	91.19
507.722	119.19
507.939	103.19
508.155	93.19
508.372	85.19
508.588	104.19
508.805	91.19
509.021	107.19
509.238	91.19
509.454	92.19
509.67	90.19
509.887	105.19
510.103	120.19
510.319	209.19
510.536	716.19
510.752	2237.19
510.968	598.19
511.184	149.19
511.401	102.19
511.617	88.19
511.833	88.19
512.049	84.19
512.265	91.19
512.481	91.19
512.698	82.19
512.914	106.19
513.13	92.19
513.346	83.19
513.562	102.19
513.778	87.19
513.994	107.19
514.21	102.19
514.426	89.19
514.642	105.19
514.858	121.19
515.074	151.19
515.29	399.19
515.506	1305.19
515.721	482.19
515.937	137.19
516.153	113.19
516.369	105.19
516.585	87.19
516.801	84.19
517.016	88.19
517.232	99.19
517.448	105.19
517.664	89.19
517.879	88.19
518.095	84.19
518.311	87.19
518.527	87.19
518.742	83.19
518.958	92.19
519.173	91.19
519.389	93.19
519.605	89.19
519.82	90.19
520.036	119.19
520.251	127.19
520.467	107.19
520.682	109.19
520.898	97.19
521.113	102.19
521.329	117.19
521.544	181.19
521.76	519.19
521.975	2131.19
522.19	1247.19
522.406	274.19
522.621	124.19
522.836	110.19
523.052	91.19
523.267	95.19
523.482	93.19
523.698	103.19
523.913	112.19
524.128	100.19
524.343	90.19
524.559	87.19
524.774	79.19
524.989	94.19
525.204	105.19
525.419	92.19
525.634	98.19
525.849	100.19
526.064	84.19
526.28	95.19
526.495	99.19
526.71	87.19
526.925	75.19
527.14	105.19
527.355	95.19
527.57	83.19
527.785	91.19
527.999	85.19
528.214	96.19
528.429	90.19
528.644	75.19
528.859	89.19
529.074	87.19
529.289	105.19
529.503	173.19
529.718	100.19
529.933	103.19
530.148	83.19
530.363	85.19
530.577	106.19
530.792	88.19
531.007	103.19
531.221	96.19
531.436	92.19
531.651	102.19
531.865	79.19
532.08	77.19
532.295	104.19
532.509	103.19
532.724	92.19
532.938	112.19
533.153	112.19
533.367	87.19
533.582	93.19
533.796	88.19
534.011	81.19
534.225	75.19
534.44	96.19
534.654	95.19
534.868	88.19
535.083	92.19
535.297	90.19
535.511	90.19
535.726	103.19
535.94	88.19
536.154	101.19
536.369	89.19
536.583	90.19
536.797	85.19
537.011	92.19
537.225	89.19
537.44	104.19
537.654	93.19
537.868	85.19
538.082	79.19
538.296	101.19
538.51	90.19
538.724	77.19
538.938	80.19
539.153	99.19
539.367	104.19
539.581	93.19
539.795	77.19
540.009	95.19
540.222	89.19
540.436	92.19
540.65	82.19
540.864	101.19
541.078	83.19
541.292	97.19
541.506	93.19
541.72	96.19
541.934	69.19
542.147	98.19
542.361	88.19
542.575	85.19
542.789	85.19
543.002	97.19
543.216	92.19
543.43	94.19
543.644	86.19
543.857	74.19
544.071	83.19
544.285	87.19
544.498	94.19
544.712	91.19
544.925	91.19
545.139	80.19
545.352	84.19
545.566	85.19
545.779	89.19
545.993	87.19
546.206	89.19
546.42	87.19
546.633	96.19
546.847	86.19
547.06	93.19
547.274	84.19
547.487	90.19
547.7	87.19
547.914	98.19
548.127	86.19
548.34	97.19
548.554	82.19
548.767	100.19
548.98	77.19
549.193	90.19
549.407	88.19
549.62	89.19
549.833	109.19
550.046	79.19
550.259	73.19
550.473	87.19
550.686	79.19
550.899	87.19
551.112	83.19
551.325	93.19
551.538	91.19
551.751	94.19
551.964	82.19
552.177	88.19
552.39	84.19
552.603	96.19
552.816	69.19
553.029	94.19
553.242	95.19
553.455	88.19
553.667	100.19
553.88	93.19
554.093	75.19
554.306	93.19
554.519	90.19
554.732	83.19
554.944	76.19
555.157	87.19
555.37	83.19
555.583	83.19
555.795	104.19
556.008	85.19
556.221	99.19
556.433	91.19
556.646	91.19
556.859	99.19
557.071	96.19
557.284	86.19
557.496	98.19
557.709	88.19
557.921	87.19
558.134	88.19
558.346	79.19
558.559	85.19
558.771	98.19
558.984	97.19
559.196	88.19
559.409	81.19
559.621	93.19
559.833	80.19
560.046	81.19
560.258	89.19
560.47	89.19
560.683	84.19
560.895	90.19
561.107	101.19
561.32	95.19
561.532	99.19
561.744	100.19
561.956	80.19
562.168	73.19
562.381	90.19
562.593	78.19
562.805	100.19
563.017	92.19
563.229	86.19
563.441	91.19
563.653	93.19
563.865	98.19
564.077	105.19
564.289	84.19
564.501	88.19
564.713	84.19
564.925	97.19
565.137	112.19
565.349	90.19
565.561	97.19
565.773	83.19
565.985	81.19
566.197	91.19
566.408	81.19
566.62	84.19
566.832	83.19
567.044	81.19
567.255	92.19
567.467	92.19
567.679	85.19
567.891	99.19
568.102	87.19
568.314	97.19
568.526	88.19
568.737	69.19
568.949	93.19
569.161	89.19
569.372	103.19
569.584	84.19
569.795	91.19
570.007	115.19
570.218	238.19
570.43	138.19
570.641	101.19
570.853	87.19
571.064	103.19
571.276	98.19
571.487	86.19
571.698	93.19
571.91	86.19
572.121	86.19
572.333	88.19
572.544	85.19
572.755	97.19
572.966	97.19
573.178	91.19
573.389	98.19
573.6	87.19
573.811	96.19
574.023	93.19
574.234	104.19
574.445	106.19
574.656	72.19
574.867	97.19
575.078	93.19
575.289	85.19
575.501	83.19
575.712	88.19
575.923	87.19
576.134	82.19
576.345	87.19
576.556	87.19
576.767	86.19
576.978	90.19
577.188	88.19
577.399	94.19
577.61	95.19
577.821	89.19
578.032	121.19
578.243	266.19
578.454	720.19
578.665	211.19
578.875	107.19
579.086	107.19
579.297	82.19
579.508	91.19
579.718	84.19
579.929	89.19
580.14	95.19
580.35	74.19
580.561	96.19
580.772	97.19
580.982	86.19
581.193	75.19
581.403	100.19
581.614	57.19
581.825	76.19
582.035	80.19
582.246	63.19
582.456	79.19
582.667	86.19
582.877	101.19
583.087	89.19
583.298	87.19
583.508	97.19
583.719	86.19
583.929	87.19
584.139	91.19
584.35	91.19
584.56	106.19
584.77	99.19
584.981	95.19
585.191	95.19
585.401	100.19
585.611	68.19
585.821	83.19
586.032	88.19
586.242	89.19
586.452	80.19
586.662	90.19
586.872	70.19
587.082	72.19
587.292	88.19
587.502	79.19
587.713	91.19
587.923	89.19
588.133	95.19
588.343	84.19
588.553	91.19
588.762	90.19
588.972	98.19
589.182	90.19
589.392	100.19
589.602	93.19
589.812	94.19
590.022	83.19
590.232	88.19
590.441	69.19
590.651	96.19
590.861	96.19
591.071	79.19
591.281	80.19
591.49	88.19
591.7	88.19
591.91	94.19
592.119	85.19
592.329	89.19
592.539	95.19
592.748	98.19
592.958	83.19
593.167	74.19
593.377	83.19
593.587	87.19
593.796	96.19
594.006	100.19
594.215	86.19
594.424	91.19
594.634	100.19
594.843	96.19
595.053	83.19
595.262	82.19
595.472	97.19
595.681	97.19
595.89	80.19
596.1	84.19
596.309	89.19
596.518	98.19
596.727	86.19
596.937	81.19
597.146	89.19
597.355	82.19
597.564	72.19
597.774	87.19
597.983	94.19
598.192	88.19
598.401	75.19
598.61	90.19
598.819	84.19
599.028	79.19
599.237	88.19
599.446	89.19
599.655	93.19
599.864	87.19
600.073	83.19
600.282	104.19
600.491	80.19
600.7	97.19
600.909	98.19
601.118	83.19
601.327	86.19
601.536	93.19
601.745	76.19
601.953	91.19
602.162	80.19
602.371	95.19
602.58	71.19
602.789	89.19
602.997	84.19
603.206	96.19
603.415	88.19
603.623	90.19
603.832	89.19
604.041	93.19
604.249	76.19
604.458	91.19
604.666	76.19
604.875	93.19
605.084	96.19
605.292	96.19
605.501	96.19
605.709	91.19
605.918	85.19
606.126	86.19
606.334	89.19
606.543	79.19
606.751	88.19
606.96	74.19
607.168	69.19
607.376	91.19
607.585	73.19
607.793	88.19
608.001	82.19
608.21	80.19
608.418	91.19
608.626	94.19
608.834	88.19
609.043	75.19
609.251	84.19
609.459	97.19
609.667	74.19
609.875	91.19
610.083	87.19
610.291	84.19
610.499	77.19
610.707	91.19
610.916	89.19
611.124	80.19
611.332	90.19
611.54	77.19
611.748	77.19
611.955	90.19
612.163	93.19
612.371	89.19
612.579	81.19
612.787	86.19
612.995	80.19
613.203	99.19
613.411	85.19
613.618	87.19
613.826	87.19
614.034	79.19
614.242	83.19
614.449	89.19
614.657	95.19
614.865	76.19
615.072	84.19
615.28	92.19
615.488	92.19
615.695	96.19
615.903	94.19
616.111	106.19
616.318	96.19
616.526	76.19
616.733	89.19
616.941	83.19
617.148	96.19
617.356	95.19
617.563	103.19
617.771	80.19
617.978	87.19
618.185	88.19
618.393	90.19
618.6	96.19
618.807	77.19
619.015	90.19
619.222	80.19
619.429	85.19
619.637	86.19
619.844	99.19
620.051	86.19
620.258	87.19
620.466	70.19
620.673	86.19
620.88	96.19
621.087	85.19
621.294	82.19
621.501	92.19
621.708	85.19
621.915	91.19
622.122	88.19
622.329	87.19
622.536	87.19
622.743	77.19
622.95	84.19
623.157	83.19
623.364	87.19
623.571	91.19
623.778	83.19
623.985	80.19
624.192	81.19
624.399	87.19
624.606	92.19
624.812	78.19
625.019	95.19
625.226	91.19
625.433	68.19
625.639	103.19
625.846	89.19
626.053	72.19
626.259	80.19
626.466	101.19
626.673	96.19
626.879	85.19
627.086	68.19
627.293	82.19
627.499	94.19
627.706	79.19
627.912	76.19
628.119	76.19
628.325	83.19
628.532	84.19
628.738	91.19
628.945	92.19
629.151	88.19
629.357	80.19
629.564	79.19
629.77	87.19
629.976	78.19
630.183	84.19
630.389	82.19
630.595	64.19
630.802	84.19
631.008	83.19
631.214	81.19
631.42	84.19
631.627	96.19
631.833	74.19
632.039	83.19
632.245	87.19
632.451	85.19
632.657	86.19
632.863	93.19
633.069	83.19
633.275	97.19
633.481	79.19
633.688	98.19
633.893	90.19
634.099	80.19
634.305	93.19
634.511	83.19
634.717	91.19
634.923	93.19
635.129	87.19
635.335	89.19
635.541	90.19
635.747	92.19
635.952	64.19
636.158	85.19
636.364	82.19
636.57	78.19
636.775	85.19
636.981	87.19
637.187	81.19
637.392	81.19
637.598	75.19
637.804	81.19
638.009	73.19
638.215	89.19
638.421	72.19
638.626	82.19
638.832	79.19
639.037	72.19
639.243	95.19
639.448	88.19
639.654	76.19
639.859	102.19
640.065	89.19
640.27	89.19
640.475	82.19
640.681	75.19
640.886	86.19
641.091	76.19
641.297	75.19
641.502	79.19
641.707	86.19
641.913	88.19
642.118	82.19
642.323	74.19
642.528	88.19
642.733	97.19
642.939	83.19
643.144	83.19
643.349	84.19
643.554	84.19
643.759	89.19
643.964	86.19
644.169	82.19
644.374	88.19
644.579	88.19
644.784	83.19
644.989	92.19
645.194	71.19
645.399	76.19
645.604	81.19
645.809	86.19
646.014	84.19
646.219	98.19
646.423	88.19
646.628	83.19
646.833	76.19
647.038	81.19
647.243	89.19
647.447	103.19
647.652	98.19
647.857	89.19
648.062	90.19
648.266	87.19
648.471	82.19
648.676	79.19
648.88	90.19
649.085	81.19
649.289	70.19
649.494	109.19
649.698	144.19
649.903	95.19
650.107	79.19
650.312	69.19
650.516	95.19
650.721	90.19
650.925	81.19
651.13	85.19
651.334	79.19
651.539	85.19
651.743	77.19
651.947	87.19
652.152	98.19
652.356	80.19
652.56	73.19
652.764	83.19
652.969	87.19
653.173	87.19
653.377	99.19
653.581	85.19
653.785	88.19
653.99	92.19
654.194	79.19
654.398	77.19
654.602	81.19
654.806	83.19
655.01	85.19
655.214	85.19
655.418	94.19
655.622	94.19
655.826	87.19
656.03	84.19
656.234	82.19
656.438	89.19
656.642	97.19
656.846	98.19
657.049	88.19
657.253	90.19
657.457	79.19
657.661	70.19
657.865	79.19
658.068	73.19
658.272	83.19
658.476	83.19
658.68	82.19
658.883	72.19
659.087	77.19
659.291	83.19
659.494	69.19
659.698	72.19
659.901	74.19
660.105	77.19
660.309	73.19
660.512	79.19
660.716	92.19
660.919	81.19
661.123	93.19
661.326	86.19
661.53	73.19
661.733	74.19
661.936	90.19
662.14	83.19
662.343	85.19
662.546	93.19
662.75	81.19
662.953	90.19
663.156	75.19
663.36	87.19
663.563	60.19
663.766	87.19
663.969	73.19
664.173	91.19
664.376	87.19
664.579	96.19
664.782	85.19
664.985	75.19
665.188	61.19
665.391	74.19
665.594	64.19
665.797	81.19
666	81.19
666.203	88.19
666.406	75.19
666.609	80.19
666.812	73.19
667.015	80.19
667.218	88.19
667.421	85.19
667.624	84.19
667.827	78.19
668.03	81.19
668.232	81.19
668.435	86.19
668.638	83.19
668.841	79.19
669.043	88.19
669.246	82.19
669.449	94.19
669.651	85.19
669.854	84.19
670.057	75.19
670.259	92.19
670.462	70.19
670.665	97.19
670.867	70.19
671.07	69.19
671.272	87.19
671.475	91.19
671.677	86.19
671.88	73.19
672.082	83.19
672.284	85.19
672.487	82.19
672.689	93.19
672.892	85.19
