Data from Uncirc_1983_H10_HRD10591_00098.txt Node
Date: Wed Jan 03 12:25:51 EST 2024
User: Yrep
Spectrometer: HR+D1059
Trigger mode: 1
Integration Time (sec): 1.000000E-1
Scans to average: 1
Electric dark correction enabled: true
Nonlinearity correction enabled: false
Boxcar width: 0
XAxis mode: Wavelengths
Number of Pixels in Spectrum: 2048
>>>>>Begin Spectral Data<<<<<
223.165	-9.44
223.4	-9.44
223.635	-9.44
223.869	-18.44
224.104	-13.44
224.338	-10.44
224.573	-16.44
224.808	-7.44
225.042	-16.44
225.277	1.56
225.511	-2.44
225.746	-4.44
225.98	12.56
226.215	8.56
226.449	13.56
226.683	9.56
226.918	16.56
227.152	36.56
227.387	31.56
227.621	49.56
227.856	48.56
228.09	43.56
228.324	44.56
228.559	54.56
228.793	61.56
229.027	66.56
229.262	61.56
229.496	72.56
229.73	87.56
229.964	83.56
230.199	81.56
230.433	75.56
230.667	77.56
230.901	72.56
231.136	82.56
231.37	91.56
231.604	82.56
231.838	73.56
232.072	74.56
232.306	73.56
232.541	85.56
232.775	85.56
233.009	72.56
233.243	87.56
233.477	93.56
233.711	83.56
233.945	100.56
234.179	73.56
234.413	77.56
234.647	74.56
234.881	76.56
235.115	85.56
235.349	94.56
235.583	85.56
235.817	73.56
236.051	88.56
236.285	85.56
236.519	81.56
236.753	81.56
236.987	65.56
237.221	70.56
237.455	85.56
237.689	73.56
237.922	83.56
238.156	84.56
238.39	66.56
238.624	72.56
238.858	67.56
239.091	84.56
239.325	81.56
239.559	78.56
239.793	75.56
240.027	83.56
240.26	81.56
240.494	85.56
240.728	85.56
240.961	74.56
241.195	77.56
241.429	83.56
241.662	70.56
241.896	81.56
242.13	75.56
242.363	83.56
242.597	85.56
242.83	76.56
243.064	78.56
243.298	73.56
243.531	77.56
243.765	85.56
243.998	74.56
244.232	83.56
244.465	82.56
244.699	78.56
244.932	84.56
245.166	65.56
245.399	81.56
245.633	72.56
245.866	99.56
246.099	75.56
246.333	82.56
246.566	83.56
246.8	83.56
247.033	83.56
247.266	95.56
247.5	81.56
247.733	73.56
247.966	85.56
248.2	84.56
248.433	76.56
248.666	81.56
248.899	79.56
249.133	77.56
249.366	98.56
249.599	87.56
249.832	77.56
250.066	83.56
250.299	93.56
250.532	87.56
250.765	93.56
250.998	91.56
251.231	81.56
251.465	94.56
251.698	75.56
251.931	86.56
252.164	87.56
252.397	85.56
252.63	73.56
252.863	88.56
253.096	77.56
253.329	81.56
253.562	86.56
253.795	87.56
254.028	87.56
254.261	87.56
254.494	75.56
254.727	90.56
254.96	85.56
255.193	81.56
255.426	71.56
255.659	79.56
255.892	82.56
256.124	93.56
256.357	89.56
256.59	74.56
256.823	74.56
257.056	84.56
257.289	89.56
257.521	93.56
257.754	92.56
257.987	85.56
258.22	82.56
258.452	84.56
258.685	92.56
258.918	90.56
259.151	87.56
259.383	89.56
259.616	91.56
259.849	83.56
260.081	81.56
260.314	77.56
260.547	68.56
260.779	84.56
261.012	85.56
261.244	98.56
261.477	90.56
261.71	103.56
261.942	111.56
262.175	106.56
262.407	96.56
262.64	88.56
262.872	95.56
263.105	92.56
263.337	81.56
263.57	94.56
263.802	81.56
264.035	87.56
264.267	83.56
264.499	87.56
264.732	91.56
264.964	85.56
265.197	82.56
265.429	76.56
265.661	79.56
265.894	74.56
266.126	77.56
266.358	69.56
266.591	78.56
266.823	95.56
267.055	90.56
267.287	86.56
267.52	92.56
267.752	92.56
267.984	84.56
268.216	87.56
268.448	86.56
268.681	76.56
268.913	87.56
269.145	71.56
269.377	76.56
269.609	92.56
269.841	86.56
270.073	89.56
270.306	93.56
270.538	85.56
270.77	90.56
271.002	97.56
271.234	88.56
271.466	88.56
271.698	86.56
271.93	95.56
272.162	99.56
272.394	99.56
272.626	74.56
272.858	82.56
273.09	93.56
273.322	91.56
273.553	87.56
273.785	89.56
274.017	90.56
274.249	88.56
274.481	98.56
274.713	94.56
274.945	100.56
275.176	83.56
275.408	85.56
275.64	95.56
275.872	90.56
276.104	92.56
276.335	90.56
276.567	86.56
276.799	108.56
277.031	91.56
277.262	86.56
277.494	99.56
277.726	91.56
277.957	90.56
278.189	91.56
278.421	93.56
278.652	86.56
278.884	93.56
279.115	98.56
279.347	88.56
279.579	86.56
279.81	89.56
280.042	73.56
280.273	79.56
280.505	103.56
280.736	90.56
280.968	88.56
281.199	88.56
281.431	107.56
281.662	97.56
281.894	92.56
282.125	79.56
282.356	115.56
282.588	122.56
282.819	119.56
283.051	89.56
283.282	90.56
283.513	94.56
283.745	78.56
283.976	84.56
284.207	95.56
284.439	87.56
284.67	92.56
284.901	101.56
285.132	89.56
285.364	95.56
285.595	84.56
285.826	84.56
286.057	89.56
286.288	63.56
286.52	92.56
286.751	101.56
286.982	95.56
287.213	58.56
287.444	99.56
287.675	102.56
287.906	92.56
288.138	85.56
288.369	97.56
288.6	84.56
288.831	78.56
289.062	98.56
289.293	94.56
289.524	100.56
289.755	89.56
289.986	89.56
290.217	82.56
290.448	85.56
290.679	93.56
290.91	91.56
291.141	78.56
291.371	85.56
291.602	92.56
291.833	84.56
292.064	73.56
292.295	81.56
292.526	94.56
292.757	76.56
292.987	86.56
293.218	92.56
293.449	88.56
293.68	87.56
293.91	91.56
294.141	99.56
294.372	86.56
294.603	79.56
294.833	81.56
295.064	93.56
295.295	89.56
295.525	104.56
295.756	107.56
295.987	124.56
296.217	123.56
296.448	117.56
296.679	109.56
296.909	102.56
297.14	95.56
297.37	91.56
297.601	81.56
297.831	88.56
298.062	98.56
298.292	90.56
298.523	104.56
298.753	87.56
298.984	96.56
299.214	106.56
299.445	97.56
299.675	88.56
299.905	95.56
300.136	109.56
300.366	85.56
300.597	96.56
300.827	94.56
301.057	98.56
301.288	93.56
301.518	100.56
301.748	91.56
301.979	99.56
302.209	96.56
302.439	101.56
302.669	84.56
302.9	102.56
303.13	108.56
303.36	104.56
303.59	100.56
303.82	105.56
304.051	90.56
304.281	84.56
304.511	69.56
304.741	77.56
304.971	90.56
305.201	88.56
305.431	82.56
305.661	109.56
305.891	92.56
306.121	101.56
306.352	94.56
306.582	95.56
306.812	92.56
307.042	100.56
307.272	90.56
307.502	92.56
307.731	98.56
307.961	99.56
308.191	91.56
308.421	104.56
308.651	95.56
308.881	83.56
309.111	88.56
309.341	91.56
309.571	113.56
309.8	102.56
310.03	106.56
310.26	88.56
310.49	96.56
310.72	105.56
310.949	104.56
311.179	93.56
311.409	92.56
311.639	96.56
311.868	99.56
312.098	102.56
312.328	90.56
312.557	82.56
312.787	98.56
313.017	98.56
313.246	103.56
313.476	94.56
313.706	102.56
313.935	96.56
314.165	93.56
314.394	101.56
314.624	100.56
314.853	82.56
315.083	92.56
315.312	92.56
315.542	89.56
315.771	86.56
316.001	85.56
316.23	82.56
316.46	89.56
316.689	106.56
316.919	97.56
317.148	76.56
317.377	100.56
317.607	89.56
317.836	84.56
318.065	94.56
318.295	98.56
318.524	101.56
318.753	85.56
318.983	86.56
319.212	94.56
319.441	107.56
319.67	93.56
319.9	93.56
320.129	94.56
320.358	108.56
320.587	89.56
320.816	114.56
321.046	95.56
321.275	97.56
321.504	103.56
321.733	104.56
321.962	92.56
322.191	93.56
322.42	105.56
322.649	107.56
322.878	117.56
323.108	97.56
323.337	113.56
323.566	124.56
323.795	130.56
324.024	199.56
324.253	353.56
324.482	746.56
324.71	1533.56
324.939	2021.56
325.168	720.56
325.397	216.56
325.626	146.56
325.855	132.56
326.084	116.56
326.313	132.56
326.542	146.56
326.77	215.56
326.999	428.56
327.228	844.56
327.457	1594.56
327.686	1240.56
327.914	351.56
328.143	183.56
328.372	155.56
328.6	139.56
328.829	118.56
329.058	121.56
329.287	114.56
329.515	104.56
329.744	117.56
329.972	119.56
330.201	131.56
330.43	164.56
330.658	135.56
330.887	132.56
331.115	105.56
331.344	108.56
331.572	93.56
331.801	109.56
332.03	107.56
332.258	98.56
332.486	100.56
332.715	106.56
332.943	101.56
333.172	98.56
333.4	96.56
333.629	101.56
333.857	102.56
334.085	122.56
334.314	151.56
334.542	174.56
334.771	171.56
334.999	98.56
335.227	98.56
335.455	100.56
335.684	93.56
335.912	92.56
336.14	93.56
336.369	98.56
336.597	84.56
336.825	95.56
337.053	90.56
337.281	102.56
337.51	85.56
337.738	95.56
337.966	97.56
338.194	77.56
338.422	96.56
338.65	102.56
338.878	97.56
339.106	92.56
339.334	96.56
339.562	94.56
339.79	95.56
340.018	87.56
340.246	75.56
340.474	83.56
340.702	92.56
340.93	87.56
341.158	90.56
341.386	89.56
341.614	95.56
341.842	90.56
342.07	92.56
342.298	90.56
342.526	103.56
342.754	73.56
342.981	91.56
343.209	85.56
343.437	97.56
343.665	95.56
343.893	101.56
344.12	93.56
344.348	111.56
344.576	95.56
344.804	97.56
345.031	105.56
345.259	90.56
345.487	93.56
345.714	103.56
345.942	101.56
346.17	92.56
346.397	91.56
346.625	78.56
346.853	103.56
347.08	108.56
347.308	99.56
347.535	87.56
347.763	99.56
347.99	98.56
348.218	107.56
348.445	100.56
348.673	107.56
348.9	104.56
349.128	106.56
349.355	96.56
349.583	94.56
349.81	89.56
350.037	99.56
350.265	95.56
350.492	101.56
350.72	86.56
350.947	106.56
351.174	99.56
351.402	109.56
351.629	99.56
351.856	109.56
352.083	111.56
352.311	126.56
352.538	111.56
352.765	107.56
352.992	109.56
353.22	105.56
353.447	103.56
353.674	99.56
353.901	102.56
354.128	104.56
354.355	101.56
354.583	93.56
354.81	99.56
355.037	85.56
355.264	98.56
355.491	93.56
355.718	90.56
355.945	88.56
356.172	92.56
356.399	94.56
356.626	97.56
356.853	79.56
357.08	88.56
357.307	97.56
357.534	95.56
357.761	95.56
357.988	111.56
358.215	100.56
358.441	106.56
358.668	74.56
358.895	88.56
359.122	95.56
359.349	87.56
359.576	107.56
359.802	106.56
360.029	117.56
360.256	105.56
360.483	104.56
360.709	93.56
360.936	93.56
361.163	93.56
361.39	77.56
361.616	90.56
361.843	104.56
362.07	106.56
362.296	89.56
362.523	110.56
362.749	80.56
362.976	104.56
363.203	91.56
363.429	96.56
363.656	95.56
363.882	91.56
364.109	87.56
364.335	99.56
364.562	86.56
364.788	85.56
365.015	94.56
365.241	104.56
365.468	95.56
365.694	106.56
365.92	94.56
366.147	82.56
366.373	96.56
366.599	84.56
366.826	93.56
367.052	90.56
367.278	86.56
367.505	91.56
367.731	85.56
367.957	83.56
368.184	86.56
368.41	95.56
368.636	113.56
368.862	113.56
369.089	109.56
369.315	93.56
369.541	87.56
369.767	84.56
369.993	89.56
370.219	90.56
370.445	99.56
370.672	82.56
370.898	92.56
371.124	88.56
371.35	97.56
371.576	86.56
371.802	99.56
372.028	99.56
372.254	85.56
372.48	85.56
372.706	90.56
372.932	81.56
373.158	82.56
373.384	85.56
373.61	98.56
373.835	98.56
374.061	86.56
374.287	93.56
374.513	79.56
374.739	90.56
374.965	116.56
375.191	95.56
375.416	92.56
375.642	96.56
375.868	103.56
376.094	97.56
376.319	94.56
376.545	87.56
376.771	75.56
376.997	85.56
377.222	81.56
377.448	90.56
377.674	94.56
377.899	88.56
378.125	99.56
378.35	79.56
378.576	91.56
378.802	91.56
379.027	88.56
379.253	104.56
379.478	107.56
379.704	86.56
379.929	89.56
380.155	101.56
380.38	89.56
380.606	108.56
380.831	99.56
381.057	82.56
381.282	89.56
381.507	93.56
381.733	94.56
381.958	101.56
382.184	105.56
382.409	115.56
382.634	91.56
382.86	85.56
383.085	108.56
383.31	102.56
383.535	105.56
383.761	109.56
383.986	104.56
384.211	100.56
384.436	102.56
384.662	91.56
384.887	93.56
385.112	90.56
385.337	93.56
385.562	91.56
385.787	105.56
386.013	105.56
386.238	114.56
386.463	95.56
386.688	106.56
386.913	95.56
387.138	93.56
387.363	89.56
387.588	94.56
387.813	96.56
388.038	89.56
388.263	118.56
388.488	94.56
388.713	92.56
388.938	86.56
389.163	93.56
389.387	95.56
389.612	98.56
389.837	91.56
390.062	101.56
390.287	101.56
390.512	95.56
390.736	103.56
390.961	97.56
391.186	101.56
391.411	87.56
391.636	92.56
391.86	99.56
392.085	93.56
392.31	85.56
392.534	76.56
392.759	78.56
392.984	79.56
393.208	79.56
393.433	98.56
393.658	97.56
393.882	85.56
394.107	87.56
394.331	90.56
394.556	79.56
394.78	88.56
395.005	92.56
395.229	88.56
395.454	90.56
395.678	85.56
395.903	91.56
396.127	95.56
396.352	83.56
396.576	79.56
396.801	93.56
397.025	90.56
397.249	82.56
397.474	91.56
397.698	87.56
397.922	94.56
398.147	83.56
398.371	97.56
398.595	88.56
398.82	78.56
399.044	83.56
399.268	71.56
399.492	82.56
399.717	89.56
399.941	97.56
400.165	104.56
400.389	92.56
400.613	85.56
400.837	85.56
401.062	96.56
401.286	90.56
401.51	96.56
401.734	91.56
401.958	106.56
402.182	118.56
402.406	157.56
402.63	100.56
402.854	88.56
403.078	77.56
403.302	94.56
403.526	94.56
403.75	84.56
403.974	81.56
404.198	79.56
404.422	79.56
404.645	86.56
404.869	92.56
405.093	78.56
405.317	105.56
405.541	98.56
405.765	94.56
405.988	115.56
406.212	156.56
406.436	202.56
406.66	131.56
406.883	82.56
407.107	103.56
407.331	95.56
407.555	95.56
407.778	85.56
408.002	87.56
408.226	98.56
408.449	85.56
408.673	88.56
408.896	93.56
409.12	117.56
409.344	99.56
409.567	99.56
409.791	87.56
410.014	105.56
410.238	98.56
410.461	78.56
410.685	87.56
410.908	96.56
411.132	99.56
411.355	99.56
411.578	100.56
411.802	85.56
412.025	93.56
412.249	81.56
412.472	81.56
412.695	97.56
412.919	93.56
413.142	77.56
413.365	70.56
413.589	95.56
413.812	97.56
414.035	74.56
414.258	81.56
414.482	81.56
414.705	94.56
414.928	94.56
415.151	99.56
415.374	81.56
415.597	86.56
415.821	87.56
416.044	76.56
416.267	92.56
416.49	77.56
416.713	97.56
416.936	85.56
417.159	95.56
417.382	86.56
417.605	88.56
417.828	100.56
418.051	100.56
418.274	83.56
418.497	76.56
418.72	103.56
418.943	85.56
419.166	90.56
419.389	84.56
419.611	77.56
419.834	89.56
420.057	79.56
420.28	93.56
420.503	97.56
420.726	89.56
420.948	103.56
421.171	96.56
421.394	101.56
421.617	93.56
421.839	90.56
422.062	93.56
422.285	98.56
422.507	97.56
422.73	91.56
422.953	94.56
423.175	97.56
423.398	93.56
423.621	90.56
423.843	87.56
424.066	95.56
424.288	87.56
424.511	88.56
424.733	85.56
424.956	109.56
425.178	91.56
425.401	102.56
425.623	101.56
425.846	106.56
426.068	93.56
426.291	92.56
426.513	91.56
426.735	76.56
426.958	92.56
427.18	100.56
427.402	121.56
427.625	161.56
427.847	117.56
428.069	114.56
428.292	101.56
428.514	98.56
428.736	97.56
428.958	94.56
429.181	89.56
429.403	98.56
429.625	94.56
429.847	98.56
430.069	77.56
430.292	100.56
430.514	85.56
430.736	99.56
430.958	79.56
431.18	107.56
431.402	100.56
431.624	99.56
431.846	81.56
432.068	83.56
432.29	77.56
432.512	104.56
432.734	83.56
432.956	89.56
433.178	108.56
433.4	100.56
433.622	91.56
433.844	95.56
434.066	83.56
434.287	100.56
434.509	102.56
434.731	103.56
434.953	84.56
435.175	82.56
435.397	100.56
435.618	97.56
435.84	98.56
436.062	115.56
436.284	99.56
436.505	90.56
436.727	102.56
436.949	102.56
437.17	98.56
437.392	97.56
437.614	107.56
437.835	111.56
438.057	102.56
438.278	79.56
438.5	109.56
438.721	128.56
438.943	100.56
439.165	94.56
439.386	88.56
439.608	78.56
439.829	102.56
440.05	111.56
440.272	143.56
440.493	102.56
440.715	88.56
440.936	97.56
441.158	92.56
441.379	100.56
441.6	83.56
441.822	78.56
442.043	88.56
442.264	102.56
442.486	96.56
442.707	92.56
442.928	88.56
443.149	111.56
443.371	121.56
443.592	111.56
443.813	91.56
444.034	103.56
444.255	101.56
444.476	90.56
444.698	89.56
444.919	95.56
445.14	127.56
445.361	132.56
445.582	105.56
445.803	119.56
446.024	115.56
446.245	130.56
446.466	114.56
446.687	94.56
446.908	86.56
447.129	102.56
447.35	100.56
447.571	106.56
447.792	97.56
448.013	97.56
448.234	97.56
448.455	106.56
448.675	109.56
448.896	109.56
449.117	94.56
449.338	90.56
449.559	116.56
449.779	122.56
450	95.56
450.221	81.56
450.442	91.56
450.662	92.56
450.883	92.56
451.104	122.56
451.324	94.56
451.545	71.56
451.766	94.56
451.986	93.56
452.207	83.56
452.428	91.56
452.648	108.56
452.869	97.56
453.089	116.56
453.31	101.56
453.53	86.56
453.751	93.56
453.971	94.56
454.192	103.56
454.412	85.56
454.633	81.56
454.853	83.56
455.073	84.56
455.294	87.56
455.514	100.56
455.734	101.56
455.955	88.56
456.175	92.56
456.395	81.56
456.616	87.56
456.836	83.56
457.056	90.56
457.276	102.56
457.497	86.56
457.717	90.56
457.937	81.56
458.157	93.56
458.377	97.56
458.598	101.56
458.818	128.56
459.038	134.56
459.258	115.56
459.478	87.56
459.698	87.56
459.918	73.56
460.138	85.56
460.358	91.56
460.578	98.56
460.798	91.56
461.018	104.56
461.238	98.56
461.458	92.56
461.678	92.56
461.898	86.56
462.118	81.56
462.338	79.56
462.558	82.56
462.777	79.56
462.997	67.56
463.217	82.56
463.437	92.56
463.657	91.56
463.876	108.56
464.096	99.56
464.316	96.56
464.536	91.56
464.755	107.56
464.975	115.56
465.195	142.56
465.414	129.56
465.634	81.56
465.854	90.56
466.073	95.56
466.293	89.56
466.512	85.56
466.732	90.56
466.951	103.56
467.171	93.56
467.391	105.56
467.61	107.56
467.829	82.56
468.049	112.56
468.268	115.56
468.488	93.56
468.707	101.56
468.927	86.56
469.146	74.56
469.365	76.56
469.585	75.56
469.804	98.56
470.023	94.56
470.243	98.56
470.462	93.56
470.681	99.56
470.901	94.56
471.12	78.56
471.339	92.56
471.558	93.56
471.777	96.56
471.997	96.56
472.216	141.56
472.435	202.56
472.654	117.56
472.873	108.56
473.092	96.56
473.311	99.56
473.53	110.56
473.749	101.56
473.968	105.56
474.187	103.56
474.406	98.56
474.625	86.56
474.844	81.56
475.063	92.56
475.282	93.56
475.501	81.56
475.72	98.56
475.939	75.56
476.158	94.56
476.377	83.56
476.596	75.56
476.814	101.56
477.033	103.56
477.252	87.56
477.471	87.56
477.69	91.56
477.908	95.56
478.127	84.56
478.346	94.56
478.564	93.56
478.783	75.56
479.002	106.56
479.22	95.56
479.439	101.56
479.658	103.56
479.876	103.56
480.095	69.56
480.313	93.56
480.532	86.56
480.751	95.56
480.969	133.56
481.188	296.56
481.406	211.56
481.624	105.56
481.843	98.56
482.061	81.56
482.28	76.56
482.498	83.56
482.717	89.56
482.935	90.56
483.153	86.56
483.372	106.56
483.59	91.56
483.808	96.56
484.027	94.56
484.245	105.56
484.463	91.56
484.681	85.56
484.9	95.56
485.118	94.56
485.336	95.56
485.554	102.56
485.772	97.56
485.99	111.56
486.209	114.56
486.427	103.56
486.645	107.56
486.863	115.56
487.081	102.56
487.299	93.56
487.517	95.56
487.735	90.56
487.953	87.56
488.171	87.56
488.389	93.56
488.607	97.56
488.825	89.56
489.043	91.56
489.261	101.56
489.479	78.56
489.696	87.56
489.914	109.56
490.132	91.56
490.35	92.56
490.568	95.56
490.786	78.56
491.003	95.56
491.221	102.56
491.439	90.56
491.657	87.56
491.874	95.56
492.092	79.56
492.31	88.56
492.527	85.56
492.745	91.56
492.963	103.56
493.18	93.56
493.398	82.56
493.615	94.56
493.833	106.56
494.05	93.56
494.268	93.56
494.485	94.56
494.703	94.56
494.92	91.56
495.138	92.56
495.355	94.56
495.573	90.56
495.79	87.56
496.008	88.56
496.225	84.56
496.442	94.56
496.66	92.56
496.877	80.56
497.094	100.56
497.312	104.56
497.529	106.56
497.746	108.56
497.963	92.56
498.181	107.56
498.398	103.56
498.615	112.56
498.832	100.56
499.049	93.56
499.267	84.56
499.484	92.56
499.701	88.56
499.918	90.56
500.135	88.56
500.352	89.56
500.569	90.56
500.786	97.56
501.003	109.56
501.22	93.56
501.437	91.56
501.654	90.56
501.871	101.56
502.088	98.56
502.305	99.56
502.522	86.56
502.739	93.56
502.956	95.56
503.172	73.56
503.389	91.56
503.606	98.56
503.823	101.56
504.04	96.56
504.256	86.56
504.473	89.56
504.69	98.56
504.907	108.56
505.123	101.56
505.34	96.56
505.557	97.56
505.773	102.56
505.99	99.56
506.207	86.56
506.423	93.56
506.64	105.56
506.856	92.56
507.073	92.56
507.289	99.56
507.506	108.56
507.722	101.56
507.939	108.56
508.155	97.56
508.372	86.56
508.588	94.56
508.805	91.56
509.021	91.56
509.238	94.56
509.454	98.56
509.67	94.56
509.887	105.56
510.103	124.56
510.319	198.56
510.536	711.56
510.752	2200.56
510.968	629.56
511.184	140.56
511.401	105.56
511.617	101.56
511.833	82.56
512.049	90.56
512.265	90.56
512.481	103.56
512.698	99.56
512.914	90.56
513.13	84.56
513.346	93.56
513.562	92.56
513.778	94.56
513.994	99.56
514.21	109.56
514.426	119.56
514.642	125.56
514.858	114.56
515.074	164.56
515.29	429.56
515.506	1337.56
515.721	496.56
515.937	135.56
516.153	108.56
516.369	101.56
516.585	111.56
516.801	98.56
517.016	84.56
517.232	85.56
517.448	90.56
517.664	91.56
517.879	86.56
518.095	86.56
518.311	81.56
518.527	94.56
518.742	100.56
518.958	91.56
519.173	94.56
519.389	91.56
519.605	107.56
519.82	95.56
520.036	116.56
520.251	111.56
520.467	125.56
520.682	109.56
520.898	86.56
521.113	115.56
521.329	139.56
521.544	192.56
521.76	519.56
521.975	2219.56
522.19	1302.56
522.406	287.56
522.621	116.56
522.836	118.56
523.052	107.56
523.267	110.56
523.482	93.56
523.698	114.56
523.913	123.56
524.128	99.56
524.343	89.56
524.559	102.56
524.774	102.56
524.989	102.56
525.204	95.56
525.419	99.56
525.634	100.56
525.849	95.56
526.064	102.56
526.28	106.56
526.495	95.56
526.71	85.56
526.925	105.56
527.14	95.56
527.355	102.56
527.57	96.56
527.785	99.56
527.999	98.56
528.214	111.56
528.429	91.56
528.644	91.56
528.859	92.56
529.074	98.56
529.289	125.56
529.503	181.56
529.718	117.56
529.933	87.56
530.148	95.56
530.363	86.56
530.577	109.56
530.792	103.56
531.007	104.56
531.221	95.56
531.436	77.56
531.651	97.56
531.865	92.56
532.08	92.56
532.295	100.56
532.509	96.56
532.724	102.56
532.938	105.56
533.153	94.56
533.367	93.56
533.582	105.56
533.796	97.56
534.011	87.56
534.225	78.56
534.44	101.56
534.654	103.56
534.868	104.56
535.083	109.56
535.297	105.56
535.511	103.56
535.726	94.56
535.94	99.56
536.154	101.56
536.369	103.56
536.583	104.56
536.797	104.56
537.011	100.56
537.225	78.56
537.44	78.56
537.654	98.56
537.868	90.56
538.082	99.56
538.296	98.56
538.51	89.56
538.724	93.56
538.938	96.56
539.153	83.56
539.367	99.56
539.581	104.56
539.795	94.56
540.009	87.56
540.222	101.56
540.436	100.56
540.65	82.56
540.864	94.56
541.078	91.56
541.292	94.56
541.506	93.56
541.72	87.56
541.934	84.56
542.147	86.56
542.361	99.56
542.575	81.56
542.789	90.56
543.002	104.56
543.216	90.56
543.43	103.56
543.644	86.56
543.857	99.56
544.071	89.56
544.285	89.56
544.498	95.56
544.712	97.56
544.925	87.56
545.139	97.56
545.352	91.56
545.566	88.56
545.779	87.56
545.993	98.56
546.206	76.56
546.42	91.56
546.633	104.56
546.847	89.56
547.06	86.56
547.274	102.56
547.487	84.56
547.7	82.56
547.914	98.56
548.127	85.56
548.34	87.56
548.554	87.56
548.767	100.56
548.98	93.56
549.193	103.56
549.407	100.56
549.62	105.56
549.833	73.56
550.046	88.56
550.259	88.56
550.473	97.56
550.686	85.56
550.899	88.56
551.112	74.56
551.325	89.56
551.538	105.56
551.751	81.56
551.964	93.56
552.177	92.56
552.39	90.56
552.603	95.56
552.816	92.56
553.029	98.56
553.242	86.56
553.455	94.56
553.667	109.56
553.88	97.56
554.093	85.56
554.306	85.56
554.519	96.56
554.732	103.56
554.944	86.56
555.157	95.56
555.37	90.56
555.583	89.56
555.795	105.56
556.008	84.56
556.221	101.56
556.433	97.56
556.646	80.56
556.859	92.56
557.071	86.56
557.284	92.56
557.496	101.56
557.709	83.56
557.921	93.56
558.134	86.56
558.346	89.56
558.559	65.56
558.771	86.56
558.984	99.56
559.196	93.56
559.409	103.56
559.621	112.56
559.833	85.56
560.046	104.56
560.258	97.56
560.47	89.56
560.683	95.56
560.895	91.56
561.107	86.56
561.32	94.56
561.532	95.56
561.744	87.56
561.956	97.56
562.168	81.56
562.381	93.56
562.593	88.56
562.805	101.56
563.017	98.56
563.229	99.56
563.441	87.56
563.653	94.56
563.865	88.56
564.077	76.56
564.289	80.56
564.501	107.56
564.713	95.56
564.925	116.56
565.137	97.56
565.349	97.56
565.561	105.56
565.773	88.56
565.985	91.56
566.197	85.56
566.408	78.56
566.62	83.56
566.832	103.56
567.044	86.56
567.255	87.56
567.467	87.56
567.679	92.56
567.891	105.56
568.102	99.56
568.314	84.56
568.526	98.56
568.737	89.56
568.949	84.56
569.161	98.56
569.372	94.56
569.584	92.56
569.795	89.56
570.007	120.56
570.218	242.56
570.43	127.56
570.641	96.56
570.853	85.56
571.064	89.56
571.276	67.56
571.487	84.56
571.698	92.56
571.91	73.56
572.121	106.56
572.333	111.56
572.544	89.56
572.755	81.56
572.966	89.56
573.178	97.56
573.389	103.56
573.6	95.56
573.811	100.56
574.023	87.56
574.234	87.56
574.445	83.56
574.656	89.56
574.867	85.56
575.078	94.56
575.289	89.56
575.501	83.56
575.712	79.56
575.923	89.56
576.134	95.56
576.345	88.56
576.556	88.56
576.767	92.56
576.978	83.56
577.188	87.56
577.399	87.56
577.61	98.56
577.821	103.56
578.032	108.56
578.243	273.56
578.454	737.56
578.665	205.56
578.875	101.56
579.086	85.56
579.297	86.56
579.508	83.56
579.718	103.56
579.929	95.56
580.14	98.56
580.35	79.56
580.561	86.56
580.772	93.56
580.982	76.56
581.193	85.56
581.403	102.56
581.614	101.56
581.825	88.56
582.035	96.56
582.246	109.56
582.456	95.56
582.667	98.56
582.877	92.56
583.087	83.56
583.298	85.56
583.508	95.56
583.719	86.56
583.929	87.56
584.139	92.56
584.35	86.56
584.56	95.56
584.77	94.56
584.981	93.56
585.191	87.56
585.401	108.56
585.611	80.56
585.821	70.56
586.032	85.56
586.242	78.56
586.452	69.56
586.662	85.56
586.872	88.56
587.082	92.56
587.292	102.56
587.502	82.56
587.713	88.56
587.923	76.56
588.133	81.56
588.343	90.56
588.553	83.56
588.762	89.56
588.972	86.56
589.182	101.56
589.392	99.56
589.602	100.56
589.812	96.56
590.022	98.56
590.232	93.56
590.441	89.56
590.651	103.56
590.861	91.56
591.071	76.56
591.281	91.56
591.49	83.56
591.7	83.56
591.91	89.56
592.119	87.56
592.329	93.56
592.539	83.56
592.748	100.56
592.958	85.56
593.167	85.56
593.377	78.56
593.587	102.56
593.796	91.56
594.006	105.56
594.215	100.56
594.424	77.56
594.634	99.56
594.843	97.56
595.053	86.56
595.262	97.56
595.472	93.56
595.681	79.56
595.89	95.56
596.1	87.56
596.309	95.56
596.518	97.56
596.727	95.56
596.937	85.56
597.146	89.56
597.355	91.56
597.564	94.56
597.774	89.56
597.983	69.56
598.192	89.56
598.401	92.56
598.61	77.56
598.819	103.56
599.028	85.56
599.237	93.56
599.446	67.56
599.655	101.56
599.864	90.56
600.073	93.56
600.282	98.56
600.491	96.56
600.7	98.56
600.909	117.56
601.118	84.56
601.327	98.56
601.536	90.56
601.745	85.56
601.953	95.56
602.162	94.56
602.371	95.56
602.58	87.56
602.789	83.56
602.997	101.56
603.206	97.56
603.415	97.56
603.623	91.56
603.832	100.56
604.041	96.56
604.249	84.56
604.458	92.56
604.666	79.56
604.875	91.56
605.084	89.56
605.292	89.56
605.501	95.56
605.709	68.56
605.918	101.56
606.126	103.56
606.334	96.56
606.543	87.56
606.751	95.56
606.96	88.56
607.168	81.56
607.376	80.56
607.585	90.56
607.793	91.56
608.001	99.56
608.21	95.56
608.418	93.56
608.626	99.56
608.834	83.56
609.043	101.56
609.251	86.56
609.459	79.56
609.667	73.56
609.875	95.56
610.083	76.56
610.291	87.56
610.499	94.56
610.707	87.56
610.916	96.56
611.124	97.56
611.332	91.56
611.54	71.56
611.748	76.56
611.955	85.56
612.163	93.56
612.371	98.56
612.579	89.56
612.787	95.56
612.995	84.56
613.203	90.56
613.411	96.56
613.618	84.56
613.826	87.56
614.034	95.56
614.242	92.56
614.449	85.56
614.657	88.56
614.865	85.56
615.072	92.56
615.28	94.56
615.488	94.56
615.695	86.56
615.903	84.56
616.111	100.56
616.318	93.56
616.526	97.56
616.733	108.56
616.941	90.56
617.148	107.56
617.356	90.56
617.563	96.56
617.771	94.56
617.978	85.56
618.185	96.56
618.393	94.56
618.6	93.56
618.807	87.56
619.015	91.56
619.222	92.56
619.429	92.56
619.637	66.56
619.844	95.56
620.051	89.56
620.258	103.56
620.466	94.56
620.673	86.56
620.88	96.56
621.087	92.56
621.294	95.56
621.501	77.56
621.708	89.56
621.915	80.56
622.122	71.56
622.329	78.56
622.536	90.56
622.743	91.56
622.95	78.56
623.157	90.56
623.364	82.56
623.571	93.56
623.778	89.56
623.985	105.56
624.192	94.56
624.399	92.56
624.606	83.56
624.812	75.56
625.019	79.56
625.226	79.56
625.433	76.56
625.639	83.56
625.846	81.56
626.053	73.56
626.259	89.56
626.466	82.56
626.673	86.56
626.879	71.56
627.086	78.56
627.293	105.56
627.499	97.56
627.706	101.56
627.912	88.56
628.119	85.56
628.325	99.56
628.532	91.56
628.738	90.56
628.945	87.56
629.151	86.56
629.357	98.56
629.564	81.56
629.77	78.56
629.976	92.56
630.183	89.56
630.389	77.56
630.595	84.56
630.802	68.56
631.008	73.56
631.214	78.56
631.42	90.56
631.627	90.56
631.833	90.56
632.039	85.56
632.245	78.56
632.451	72.56
632.657	89.56
632.863	90.56
633.069	102.56
633.275	92.56
633.481	82.56
633.688	93.56
633.893	79.56
634.099	92.56
634.305	88.56
634.511	98.56
634.717	94.56
634.923	81.56
635.129	83.56
635.335	82.56
635.541	74.56
635.747	83.56
635.952	77.56
636.158	97.56
636.364	101.56
636.57	84.56
636.775	97.56
636.981	78.56
637.187	95.56
637.392	83.56
637.598	82.56
637.804	85.56
638.009	89.56
638.215	85.56
638.421	80.56
638.626	102.56
638.832	85.56
639.037	79.56
639.243	89.56
639.448	88.56
639.654	86.56
639.859	88.56
640.065	93.56
640.27	97.56
640.475	94.56
640.681	73.56
640.886	93.56
641.091	87.56
641.297	94.56
641.502	86.56
641.707	85.56
641.913	98.56
642.118	81.56
642.323	75.56
642.528	87.56
642.733	85.56
642.939	91.56
643.144	91.56
643.349	74.56
643.554	86.56
643.759	81.56
643.964	77.56
644.169	84.56
644.374	95.56
644.579	103.56
644.784	93.56
644.989	89.56
645.194	89.56
645.399	87.56
645.604	83.56
645.809	97.56
646.014	90.56
646.219	93.56
646.423	76.56
646.628	77.56
646.833	96.56
647.038	83.56
647.243	94.56
647.447	79.56
647.652	97.56
647.857	85.56
648.062	83.56
648.266	97.56
648.471	105.56
648.676	97.56
648.88	99.56
649.085	75.56
649.289	95.56
649.494	93.56
649.698	124.56
649.903	97.56
650.107	94.56
650.312	98.56
650.516	85.56
650.721	92.56
650.925	100.56
651.13	89.56
651.334	80.56
651.539	89.56
651.743	65.56
651.947	73.56
652.152	84.56
652.356	83.56
652.56	98.56
652.764	82.56
652.969	91.56
653.173	85.56
653.377	91.56
653.581	87.56
653.785	99.56
653.99	85.56
654.194	79.56
654.398	83.56
654.602	87.56
654.806	91.56
655.01	115.56
655.214	83.56
655.418	78.56
655.622	73.56
655.826	79.56
656.03	90.56
656.234	89.56
656.438	92.56
656.642	81.56
656.846	91.56
657.049	92.56
657.253	92.56
657.457	100.56
657.661	90.56
657.865	97.56
658.068	85.56
658.272	81.56
658.476	96.56
658.68	86.56
658.883	82.56
659.087	78.56
659.291	92.56
659.494	86.56
659.698	78.56
659.901	74.56
660.105	83.56
660.309	81.56
660.512	92.56
660.716	75.56
660.919	83.56
661.123	77.56
661.326	83.56
661.53	77.56
661.733	86.56
661.936	81.56
662.14	78.56
662.343	83.56
662.546	77.56
662.75	95.56
662.953	86.56
663.156	77.56
663.36	85.56
663.563	92.56
663.766	79.56
663.969	92.56
664.173	77.56
664.376	86.56
664.579	88.56
664.782	76.56
664.985	85.56
665.188	72.56
665.391	95.56
665.594	73.56
665.797	74.56
666	85.56
666.203	89.56
666.406	81.56
666.609	100.56
666.812	81.56
667.015	81.56
667.218	85.56
667.421	73.56
667.624	102.56
667.827	93.56
668.03	86.56
668.232	70.56
668.435	90.56
668.638	85.56
668.841	79.56
669.043	88.56
669.246	90.56
669.449	81.56
669.651	85.56
669.854	76.56
670.057	86.56
670.259	63.56
670.462	77.56
670.665	76.56
670.867	75.56
671.07	80.56
671.272	82.56
671.475	98.56
671.677	94.56
671.88	91.56
672.082	87.56
672.284	93.56
672.487	89.56
672.689	91.56
672.892	81.56
