Data from Circ_1999_H10_HRD10591_00060.txt Node
Date: Wed Jan 03 11:23:24 EST 2024
User: Yrep
Spectrometer: HR+D1059
Trigger mode: 1
Integration Time (sec): 1.000000E-1
Scans to average: 1
Electric dark correction enabled: true
Nonlinearity correction enabled: false
Boxcar width: 0
XAxis mode: Wavelengths
Number of Pixels in Spectrum: 2048
>>>>>Begin Spectral Data<<<<<
223.165	-22.12
223.4	-22.12
223.635	-22.12
223.869	-25.12
224.104	-14.12
224.338	-16.12
224.573	-9.12
224.808	-12.12
225.042	-10.12
225.277	-7.12
225.511	3.88
225.746	3.88
225.98	-0.12
226.215	11.88
226.449	16.88
226.683	26.88
226.918	22.88
227.152	29.88
227.387	28.88
227.621	30.88
227.856	36.88
228.09	54.88
228.324	49.88
228.559	52.88
228.793	59.88
229.027	62.88
229.262	72.88
229.496	75.88
229.73	108.88
229.964	80.88
230.199	92.88
230.433	72.88
230.667	73.88
230.901	76.88
231.136	80.88
231.37	74.88
231.604	88.88
231.838	76.88
232.072	78.88
232.306	78.88
232.541	78.88
232.775	75.88
233.009	84.88
233.243	85.88
233.477	100.88
233.711	80.88
233.945	86.88
234.179	68.88
234.413	69.88
234.647	87.88
234.881	71.88
235.115	69.88
235.349	82.88
235.583	86.88
235.817	76.88
236.051	91.88
236.285	78.88
236.519	78.88
236.753	86.88
236.987	78.88
237.221	84.88
237.455	89.88
237.689	95.88
237.922	69.88
238.156	73.88
238.39	95.88
238.624	73.88
238.858	80.88
239.091	76.88
239.325	68.88
239.559	85.88
239.793	93.88
240.027	86.88
240.26	91.88
240.494	77.88
240.728	84.88
240.961	88.88
241.195	79.88
241.429	79.88
241.662	87.88
241.896	87.88
242.13	76.88
242.363	79.88
242.597	61.88
242.83	76.88
243.064	80.88
243.298	77.88
243.531	73.88
243.765	75.88
243.998	101.88
244.232	78.88
244.465	90.88
244.699	73.88
244.932	80.88
245.166	86.88
245.399	81.88
245.633	80.88
245.866	80.88
246.099	91.88
246.333	73.88
246.566	77.88
246.8	84.88
247.033	81.88
247.266	62.88
247.5	81.88
247.733	69.88
247.966	69.88
248.2	90.88
248.433	80.88
248.666	77.88
248.899	80.88
249.133	78.88
249.366	105.88
249.599	114.88
249.832	89.88
250.066	91.88
250.299	80.88
250.532	92.88
250.765	70.88
250.998	78.88
251.231	76.88
251.465	89.88
251.698	96.88
251.931	87.88
252.164	84.88
252.397	72.88
252.63	77.88
252.863	66.88
253.096	73.88
253.329	92.88
253.562	77.88
253.795	82.88
254.028	80.88
254.261	67.88
254.494	83.88
254.727	86.88
254.96	79.88
255.193	80.88
255.426	72.88
255.659	89.88
255.892	103.88
256.124	106.88
256.357	91.88
256.59	79.88
256.823	90.88
257.056	87.88
257.289	85.88
257.521	83.88
257.754	89.88
257.987	97.88
258.22	92.88
258.452	92.88
258.685	83.88
258.918	91.88
259.151	84.88
259.383	84.88
259.616	94.88
259.849	79.88
260.081	90.88
260.314	96.88
260.547	81.88
260.779	90.88
261.012	118.88
261.244	110.88
261.477	97.88
261.71	106.88
261.942	155.88
262.175	168.88
262.407	112.88
262.64	87.88
262.872	75.88
263.105	86.88
263.337	92.88
263.57	76.88
263.802	79.88
264.035	90.88
264.267	77.88
264.499	93.88
264.732	87.88
264.964	87.88
265.197	108.88
265.429	86.88
265.661	71.88
265.894	93.88
266.126	74.88
266.358	76.88
266.591	92.88
266.823	76.88
267.055	77.88
267.287	96.88
267.52	98.88
267.752	92.88
267.984	80.88
268.216	86.88
268.448	95.88
268.681	92.88
268.913	81.88
269.145	76.88
269.377	78.88
269.609	81.88
269.841	88.88
270.073	82.88
270.306	92.88
270.538	87.88
270.77	91.88
271.002	90.88
271.234	104.88
271.466	91.88
271.698	103.88
271.93	87.88
272.162	85.88
272.394	92.88
272.626	75.88
272.858	77.88
273.09	80.88
273.322	84.88
273.553	100.88
273.785	101.88
274.017	95.88
274.249	93.88
274.481	90.88
274.713	99.88
274.945	88.88
275.176	96.88
275.408	111.88
275.64	113.88
275.872	128.88
276.104	111.88
276.335	118.88
276.567	120.88
276.799	149.88
277.031	207.88
277.262	216.88
277.494	159.88
277.726	107.88
277.957	95.88
278.189	87.88
278.421	108.88
278.652	91.88
278.884	87.88
279.115	100.88
279.347	86.88
279.579	98.88
279.81	152.88
280.042	207.88
280.273	298.88
280.505	189.88
280.736	115.88
280.968	81.88
281.199	85.88
281.431	86.88
281.662	97.88
281.894	104.88
282.125	114.88
282.356	143.88
282.588	206.88
282.819	147.88
283.051	102.88
283.282	90.88
283.513	95.88
283.745	93.88
283.976	94.88
284.207	85.88
284.439	87.88
284.67	94.88
284.901	85.88
285.132	89.88
285.364	100.88
285.595	97.88
285.826	95.88
286.057	79.88
286.288	94.88
286.52	95.88
286.751	93.88
286.982	89.88
287.213	101.88
287.444	92.88
287.675	97.88
287.906	103.88
288.138	85.88
288.369	102.88
288.6	90.88
288.831	83.88
289.062	87.88
289.293	86.88
289.524	89.88
289.755	95.88
289.986	94.88
290.217	86.88
290.448	70.88
290.679	90.88
290.91	76.88
291.141	80.88
291.371	84.88
291.602	75.88
291.833	92.88
292.064	96.88
292.295	93.88
292.526	100.88
292.757	99.88
292.987	90.88
293.218	95.88
293.449	103.88
293.68	90.88
293.91	67.88
294.141	99.88
294.372	88.88
294.603	76.88
294.833	77.88
295.064	78.88
295.295	84.88
295.525	91.88
295.756	105.88
295.987	151.88
296.217	179.88
296.448	161.88
296.679	106.88
296.909	100.88
297.14	96.88
297.37	87.88
297.601	100.88
297.831	91.88
298.062	101.88
298.292	99.88
298.523	97.88
298.753	100.88
298.984	107.88
299.214	89.88
299.445	90.88
299.675	113.88
299.905	107.88
300.136	102.88
300.366	100.88
300.597	106.88
300.827	90.88
301.057	125.88
301.288	116.88
301.518	92.88
301.748	102.88
301.979	123.88
302.209	111.88
302.439	100.88
302.669	91.88
302.9	87.88
303.13	104.88
303.36	132.88
303.59	156.88
303.82	163.88
304.051	107.88
304.281	100.88
304.511	92.88
304.741	90.88
304.971	88.88
305.201	87.88
305.431	94.88
305.661	83.88
305.891	99.88
306.121	99.88
306.352	115.88
306.582	120.88
306.812	126.88
307.042	132.88
307.272	189.88
307.502	212.88
307.731	199.88
307.961	147.88
308.191	107.88
308.421	93.88
308.651	101.88
308.881	103.88
309.111	103.88
309.341	83.88
309.571	94.88
309.8	113.88
310.03	115.88
310.26	109.88
310.49	115.88
310.72	116.88
310.949	126.88
311.179	109.88
311.409	102.88
311.639	93.88
311.868	110.88
312.098	100.88
312.328	115.88
312.557	114.88
312.787	116.88
313.017	117.88
313.246	105.88
313.476	97.88
313.706	97.88
313.935	114.88
314.165	117.88
314.394	117.88
314.624	110.88
314.853	96.88
315.083	94.88
315.312	90.88
315.542	100.88
315.771	103.88
316.001	99.88
316.23	89.88
316.46	101.88
316.689	97.88
316.919	108.88
317.148	116.88
317.377	101.88
317.607	101.88
317.836	116.88
318.065	97.88
318.295	94.88
318.524	88.88
318.753	87.88
318.983	96.88
319.212	114.88
319.441	137.88
319.67	131.88
319.9	92.88
320.129	96.88
320.358	99.88
320.587	118.88
320.816	101.88
321.046	113.88
321.275	114.88
321.504	84.88
321.733	100.88
321.962	86.88
322.191	105.88
322.42	116.88
322.649	122.88
322.878	118.88
323.108	135.88
323.337	157.88
323.566	177.88
323.795	175.88
324.024	239.88
324.253	508.88
324.482	1056.88
324.71	2084.88
324.939	2745.88
325.168	1049.88
325.397	315.88
325.626	180.88
325.855	147.88
326.084	148.88
326.313	153.88
326.542	185.88
326.77	284.88
326.999	523.88
327.228	1023.88
327.457	1868.88
327.686	1553.88
327.914	599.88
328.143	639.88
328.372	814.88
328.6	458.88
328.829	227.88
329.058	228.88
329.287	230.88
329.515	217.88
329.744	293.88
329.972	598.88
330.201	1227.88
330.43	1805.88
330.658	776.88
330.887	334.88
331.115	237.88
331.344	148.88
331.572	125.88
331.801	152.88
332.03	127.88
332.258	133.88
332.486	106.88
332.715	115.88
332.943	107.88
333.172	134.88
333.4	144.88
333.629	205.88
333.857	281.88
334.085	517.88
334.314	1094.88
334.542	2211.88
334.771	2003.88
334.999	489.88
335.227	199.88
335.455	125.88
335.684	132.88
335.912	104.88
336.14	117.88
336.369	109.88
336.597	113.88
336.825	117.88
337.053	101.88
337.281	102.88
337.51	104.88
337.738	102.88
337.966	99.88
338.194	120.88
338.422	111.88
338.65	94.88
338.878	100.88
339.106	101.88
339.334	91.88
339.562	81.88
339.79	97.88
340.018	98.88
340.246	105.88
340.474	108.88
340.702	105.88
340.93	100.88
341.158	97.88
341.386	112.88
341.614	108.88
341.842	100.88
342.07	95.88
342.298	97.88
342.526	89.88
342.754	82.88
342.981	104.88
343.209	99.88
343.437	105.88
343.665	98.88
343.893	90.88
344.12	105.88
344.348	105.88
344.576	105.88
344.804	102.88
345.031	114.88
345.259	104.88
345.487	121.88
345.714	127.88
345.942	109.88
346.17	97.88
346.397	104.88
346.625	99.88
346.853	94.88
347.08	103.88
347.308	108.88
347.535	101.88
347.763	117.88
347.99	109.88
348.218	113.88
348.445	137.88
348.673	113.88
348.9	96.88
349.128	105.88
349.355	98.88
349.583	105.88
349.81	95.88
350.037	109.88
350.265	95.88
350.492	93.88
350.72	108.88
350.947	107.88
351.174	123.88
351.402	147.88
351.629	113.88
351.856	123.88
352.083	125.88
352.311	107.88
352.538	120.88
352.765	135.88
352.992	115.88
353.22	119.88
353.447	117.88
353.674	102.88
353.901	111.88
354.128	113.88
354.355	90.88
354.583	96.88
354.81	97.88
355.037	115.88
355.264	113.88
355.491	98.88
355.718	91.88
355.945	88.88
356.172	105.88
356.399	86.88
356.626	96.88
356.853	104.88
357.08	96.88
357.307	97.88
357.534	100.88
357.761	96.88
357.988	89.88
358.215	99.88
358.441	96.88
358.668	101.88
358.895	92.88
359.122	89.88
359.349	96.88
359.576	98.88
359.802	123.88
360.029	151.88
360.256	147.88
360.483	122.88
360.709	97.88
360.936	93.88
361.163	97.88
361.39	113.88
361.616	100.88
361.843	93.88
362.07	112.88
362.296	109.88
362.523	109.88
362.749	94.88
362.976	99.88
363.203	94.88
363.429	97.88
363.656	90.88
363.882	82.88
364.109	97.88
364.335	107.88
364.562	95.88
364.788	69.88
365.015	106.88
365.241	117.88
365.468	142.88
365.694	133.88
365.92	116.88
366.147	87.88
366.373	84.88
366.599	86.88
366.826	96.88
367.052	96.88
367.278	97.88
367.505	100.88
367.731	94.88
367.957	93.88
368.184	87.88
368.41	115.88
368.636	137.88
368.862	160.88
369.089	128.88
369.315	108.88
369.541	116.88
369.767	103.88
369.993	99.88
370.219	94.88
370.445	96.88
370.672	94.88
370.898	95.88
371.124	82.88
371.35	85.88
371.576	100.88
371.802	80.88
372.028	95.88
372.254	92.88
372.48	95.88
372.706	75.88
372.932	77.88
373.158	89.88
373.384	114.88
373.61	81.88
373.835	97.88
374.061	98.88
374.287	93.88
374.513	92.88
374.739	92.88
374.965	88.88
375.191	99.88
375.416	91.88
375.642	92.88
375.868	88.88
376.094	95.88
376.319	95.88
376.545	87.88
376.771	84.88
376.997	106.88
377.222	85.88
377.448	101.88
377.674	91.88
377.899	90.88
378.125	90.88
378.35	87.88
378.576	77.88
378.802	91.88
379.027	92.88
379.253	102.88
379.478	95.88
379.704	92.88
379.929	110.88
380.155	98.88
380.38	91.88
380.606	89.88
380.831	99.88
381.057	96.88
381.282	101.88
381.507	84.88
381.733	94.88
381.958	100.88
382.184	78.88
382.409	103.88
382.634	95.88
382.86	91.88
383.085	106.88
383.31	93.88
383.535	110.88
383.761	116.88
383.986	90.88
384.211	86.88
384.436	90.88
384.662	105.88
384.887	87.88
385.112	108.88
385.337	100.88
385.562	112.88
385.787	119.88
386.013	118.88
386.238	123.88
386.463	106.88
386.688	115.88
386.913	103.88
387.138	119.88
387.363	92.88
387.588	93.88
387.813	105.88
388.038	89.88
388.263	101.88
388.488	103.88
388.713	101.88
388.938	89.88
389.163	89.88
389.387	89.88
389.612	87.88
389.837	79.88
390.062	101.88
390.287	91.88
390.512	89.88
390.736	92.88
390.961	86.88
391.186	87.88
391.411	82.88
391.636	88.88
391.86	87.88
392.085	87.88
392.31	83.88
392.534	94.88
392.759	90.88
392.984	90.88
393.208	93.88
393.433	97.88
393.658	84.88
393.882	77.88
394.107	75.88
394.331	78.88
394.556	87.88
394.78	91.88
395.005	85.88
395.229	89.88
395.454	94.88
395.678	86.88
395.903	79.88
396.127	77.88
396.352	75.88
396.576	92.88
396.801	93.88
397.025	94.88
397.249	90.88
397.474	100.88
397.698	95.88
397.922	93.88
398.147	94.88
398.371	84.88
398.595	101.88
398.82	94.88
399.044	79.88
399.268	77.88
399.492	81.88
399.717	84.88
399.941	84.88
400.165	94.88
400.389	87.88
400.613	93.88
400.837	98.88
401.062	94.88
401.286	113.88
401.51	100.88
401.734	94.88
401.958	119.88
402.182	171.88
402.406	243.88
402.63	166.88
402.854	119.88
403.078	109.88
403.302	120.88
403.526	96.88
403.75	86.88
403.974	75.88
404.198	86.88
404.422	99.88
404.645	91.88
404.869	110.88
405.093	135.88
405.317	137.88
405.541	131.88
405.765	119.88
405.988	156.88
406.212	282.88
406.436	416.88
406.66	237.88
406.883	122.88
407.107	120.88
407.331	107.88
407.555	115.88
407.778	101.88
408.002	100.88
408.226	99.88
408.449	97.88
408.673	103.88
408.896	86.88
409.12	89.88
409.344	90.88
409.567	110.88
409.791	101.88
410.014	90.88
410.238	77.88
410.461	90.88
410.685	100.88
410.908	109.88
411.132	107.88
411.355	96.88
411.578	87.88
411.802	80.88
412.025	90.88
412.249	102.88
412.472	117.88
412.695	142.88
412.919	111.88
413.142	86.88
413.365	84.88
413.589	83.88
413.812	93.88
414.035	76.88
414.258	101.88
414.482	83.88
414.705	86.88
414.928	83.88
415.151	95.88
415.374	83.88
415.597	85.88
415.821	95.88
416.044	86.88
416.267	83.88
416.49	84.88
416.713	90.88
416.936	88.88
417.159	89.88
417.382	95.88
417.605	116.88
417.828	119.88
418.051	108.88
418.274	85.88
418.497	87.88
418.72	91.88
418.943	102.88
419.166	88.88
419.389	112.88
419.611	68.88
419.834	91.88
420.057	89.88
420.28	96.88
420.503	98.88
420.726	87.88
420.948	74.88
421.171	113.88
421.394	93.88
421.617	96.88
421.839	97.88
422.062	94.88
422.285	98.88
422.507	95.88
422.73	116.88
422.953	99.88
423.175	87.88
423.398	84.88
423.621	91.88
423.843	90.88
424.066	85.88
424.288	96.88
424.511	87.88
424.733	105.88
424.956	105.88
425.178	109.88
425.401	111.88
425.623	127.88
425.846	104.88
426.068	112.88
426.291	92.88
426.513	91.88
426.735	107.88
426.958	124.88
427.18	119.88
427.402	193.88
427.625	278.88
427.847	256.88
428.069	205.88
428.292	140.88
428.514	107.88
428.736	89.88
428.958	104.88
429.181	90.88
429.403	85.88
429.625	77.88
429.847	87.88
430.069	111.88
430.292	90.88
430.514	95.88
430.736	89.88
430.958	93.88
431.18	84.88
431.402	89.88
431.624	87.88
431.846	87.88
432.068	80.88
432.29	97.88
432.512	88.88
432.734	89.88
432.956	90.88
433.178	84.88
433.4	86.88
433.622	94.88
433.844	83.88
434.066	96.88
434.287	91.88
434.509	87.88
434.731	95.88
434.953	87.88
435.175	87.88
435.397	86.88
435.618	97.88
435.84	102.88
436.062	125.88
436.284	133.88
436.505	97.88
436.727	97.88
436.949	88.88
437.17	83.88
437.392	103.88
437.614	101.88
437.835	121.88
438.057	162.88
438.278	135.88
438.5	116.88
438.721	135.88
438.943	103.88
439.165	79.88
439.386	77.88
439.608	91.88
439.829	106.88
440.05	140.88
440.272	198.88
440.493	110.88
440.715	93.88
440.936	88.88
441.158	83.88
441.379	86.88
441.6	93.88
441.822	97.88
442.043	114.88
442.264	125.88
442.486	124.88
442.707	110.88
442.928	116.88
443.149	165.88
443.371	184.88
443.592	140.88
443.813	117.88
444.034	112.88
444.255	95.88
444.476	89.88
444.698	95.88
444.919	104.88
445.14	129.88
445.361	135.88
445.582	135.88
445.803	178.88
446.024	183.88
446.245	177.88
446.466	121.88
446.687	90.88
446.908	99.88
447.129	103.88
447.35	94.88
447.571	104.88
447.792	107.88
448.013	90.88
448.234	112.88
448.455	118.88
448.675	116.88
448.896	127.88
449.117	104.88
449.338	97.88
449.559	128.88
449.779	150.88
450	109.88
450.221	92.88
450.442	100.88
450.662	95.88
450.883	132.88
451.104	168.88
451.324	120.88
451.545	91.88
451.766	93.88
451.986	86.88
452.207	92.88
452.428	105.88
452.648	107.88
452.869	144.88
453.089	161.88
453.31	156.88
453.53	122.88
453.751	107.88
453.971	137.88
454.192	158.88
454.412	103.88
454.633	94.88
454.853	99.88
455.073	99.88
455.294	98.88
455.514	108.88
455.734	85.88
455.955	92.88
456.175	78.88
456.395	78.88
456.616	97.88
456.836	86.88
457.056	85.88
457.276	80.88
457.497	84.88
457.717	78.88
457.937	88.88
458.157	97.88
458.377	107.88
458.598	131.88
458.818	259.88
459.038	265.88
459.258	175.88
459.478	98.88
459.698	98.88
459.918	74.88
460.138	72.88
460.358	93.88
460.578	85.88
460.798	93.88
461.018	92.88
461.238	105.88
461.458	84.88
461.678	92.88
461.898	93.88
462.118	89.88
462.338	96.88
462.558	80.88
462.777	82.88
462.997	112.88
463.217	115.88
463.437	100.88
463.657	97.88
463.876	90.88
464.096	84.88
464.316	105.88
464.536	117.88
464.755	108.88
464.975	137.88
465.195	273.88
465.414	296.88
465.634	112.88
465.854	105.88
466.073	97.88
466.293	83.88
466.512	89.88
466.732	100.88
466.951	104.88
467.171	111.88
467.391	128.88
467.61	171.88
467.829	266.88
468.049	729.88
468.268	1072.88
468.488	255.88
468.707	120.88
468.927	89.88
469.146	103.88
469.365	106.88
469.585	96.88
469.804	129.88
470.023	131.88
470.243	116.88
470.462	126.88
470.681	152.88
470.901	121.88
471.12	102.88
471.339	112.88
471.558	122.88
471.777	186.88
471.997	381.88
472.216	1443.88
472.435	3314.88
472.654	730.88
472.873	182.88
473.092	97.88
473.311	100.88
473.53	103.88
473.749	92.88
473.968	105.88
474.187	140.88
474.406	105.88
474.625	102.88
474.844	95.88
475.063	92.88
475.282	107.88
475.501	110.88
475.72	99.88
475.939	95.88
476.158	84.88
476.377	91.88
476.596	96.88
476.814	108.88
477.033	113.88
477.252	94.88
477.471	84.88
477.69	103.88
477.908	105.88
478.127	101.88
478.346	93.88
478.564	107.88
478.783	128.88
479.002	117.88
479.22	110.88
479.439	130.88
479.658	150.88
479.876	120.88
480.095	124.88
480.313	148.88
480.532	200.88
480.751	329.88
480.969	1264.88
481.188	5653.88
481.406	3097.88
481.624	410.88
481.843	151.88
482.061	126.88
482.28	124.88
482.498	92.88
482.717	100.88
482.935	92.88
483.153	93.88
483.372	89.88
483.59	100.88
483.808	82.88
484.027	83.88
484.245	88.88
484.463	101.88
484.681	106.88
484.9	101.88
485.118	105.88
485.336	111.88
485.554	103.88
485.772	104.88
485.99	114.88
486.209	103.88
486.427	104.88
486.645	112.88
486.863	113.88
487.081	100.88
487.299	104.88
487.517	114.88
487.735	90.88
487.953	110.88
488.171	97.88
488.389	86.88
488.607	105.88
488.825	95.88
489.043	89.88
489.261	95.88
489.479	94.88
489.696	101.88
489.914	96.88
490.132	90.88
490.35	90.88
490.568	90.88
490.786	76.88
491.003	88.88
491.221	91.88
491.439	93.88
491.657	88.88
491.874	102.88
492.092	92.88
492.31	81.88
492.527	105.88
492.745	106.88
492.963	87.88
493.18	99.88
493.398	87.88
493.615	94.88
493.833	103.88
494.05	99.88
494.268	80.88
494.485	83.88
494.703	75.88
494.92	92.88
495.138	86.88
495.355	89.88
495.573	99.88
495.79	89.88
496.008	82.88
496.225	104.88
496.442	88.88
496.66	82.88
496.877	95.88
497.094	105.88
497.312	92.88
497.529	96.88
497.746	98.88
497.963	81.88
498.181	102.88
498.398	109.88
498.615	120.88
498.832	100.88
499.049	88.88
499.267	94.88
499.484	92.88
499.701	93.88
499.918	81.88
500.135	82.88
500.352	90.88
500.569	100.88
500.786	108.88
501.003	97.88
501.22	85.88
501.437	101.88
501.654	118.88
501.871	132.88
502.088	97.88
502.305	93.88
502.522	88.88
502.739	103.88
502.956	96.88
503.172	106.88
503.389	113.88
503.606	129.88
503.823	109.88
504.04	85.88
504.256	88.88
504.473	77.88
504.69	92.88
504.907	97.88
505.123	103.88
505.34	90.88
505.557	92.88
505.773	96.88
505.99	91.88
506.207	96.88
506.423	103.88
506.64	105.88
506.856	102.88
507.073	101.88
507.289	105.88
507.506	101.88
507.722	151.88
507.939	140.88
508.155	103.88
508.372	117.88
508.588	122.88
508.805	125.88
509.021	103.88
509.238	108.88
509.454	101.88
509.67	116.88
509.887	128.88
510.103	176.88
510.319	314.88
510.536	1303.88
510.752	4766.88
510.968	1201.88
511.184	206.88
511.401	156.88
511.617	118.88
511.833	124.88
512.049	112.88
512.265	91.88
512.481	120.88
512.698	97.88
512.914	95.88
513.13	85.88
513.346	104.88
513.562	108.88
513.778	116.88
513.994	112.88
514.21	137.88
514.426	154.88
514.642	195.88
514.858	223.88
515.074	283.88
515.29	969.88
515.506	3689.88
515.721	1199.88
515.937	239.88
516.153	160.88
516.369	110.88
516.585	124.88
516.801	117.88
517.016	105.88
517.232	99.88
517.448	102.88
517.664	97.88
517.879	112.88
518.095	95.88
518.311	123.88
518.527	120.88
518.742	106.88
518.958	95.88
519.173	104.88
519.389	87.88
519.605	95.88
519.82	109.88
520.036	121.88
520.251	167.88
520.467	158.88
520.682	123.88
520.898	134.88
521.113	159.88
521.329	211.88
521.544	394.88
521.76	1284.88
521.975	6098.88
522.19	3525.88
522.406	648.88
522.621	190.88
522.836	139.88
523.052	103.88
523.267	109.88
523.482	101.88
523.698	117.88
523.913	176.88
524.128	132.88
524.343	106.88
524.559	92.88
524.774	107.88
524.989	105.88
525.204	136.88
525.419	115.88
525.634	99.88
525.849	102.88
526.064	95.88
526.28	103.88
526.495	95.88
526.71	84.88
526.925	98.88
527.14	83.88
527.355	87.88
527.57	88.88
527.785	87.88
527.999	89.88
528.214	92.88
528.429	85.88
528.644	95.88
528.859	107.88
529.074	116.88
529.289	178.88
529.503	330.88
529.718	122.88
529.933	84.88
530.148	95.88
530.363	87.88
530.577	87.88
530.792	81.88
531.007	96.88
531.221	103.88
531.436	90.88
531.651	94.88
531.865	103.88
532.08	90.88
532.295	94.88
532.509	100.88
532.724	92.88
532.938	104.88
533.153	93.88
533.367	92.88
533.582	105.88
533.796	98.88
534.011	91.88
534.225	83.88
534.44	95.88
534.654	96.88
534.868	96.88
535.083	93.88
535.297	106.88
535.511	126.88
535.726	126.88
535.94	116.88
536.154	106.88
536.369	97.88
536.583	99.88
536.797	89.88
537.011	103.88
537.225	101.88
537.44	88.88
537.654	110.88
537.868	103.88
538.082	106.88
538.296	78.88
538.51	101.88
538.724	86.88
538.938	97.88
539.153	106.88
539.367	125.88
539.581	100.88
539.795	88.88
540.009	78.88
540.222	79.88
540.436	94.88
540.65	93.88
540.864	93.88
541.078	86.88
541.292	103.88
541.506	90.88
541.72	99.88
541.934	96.88
542.147	75.88
542.361	85.88
542.575	88.88
542.789	102.88
543.002	116.88
543.216	94.88
543.43	107.88
543.644	86.88
543.857	97.88
544.071	92.88
544.285	87.88
544.498	99.88
544.712	96.88
544.925	97.88
545.139	84.88
545.352	89.88
545.566	103.88
545.779	80.88
545.993	85.88
546.206	84.88
546.42	109.88
546.633	85.88
546.847	95.88
547.06	99.88
547.274	80.88
547.487	88.88
547.7	80.88
547.914	92.88
548.127	73.88
548.34	91.88
548.554	94.88
548.767	106.88
548.98	91.88
549.193	95.88
549.407	95.88
549.62	95.88
549.833	80.88
550.046	86.88
550.259	95.88
550.473	89.88
550.686	89.88
550.899	111.88
551.112	97.88
551.325	95.88
551.538	110.88
551.751	94.88
551.964	96.88
552.177	105.88
552.39	82.88
552.603	89.88
552.816	93.88
553.029	99.88
553.242	106.88
553.455	109.88
553.667	120.88
553.88	114.88
554.093	101.88
554.306	115.88
554.519	121.88
554.732	106.88
554.944	102.88
555.157	93.88
555.37	86.88
555.583	85.88
555.795	107.88
556.008	95.88
556.221	94.88
556.433	92.88
556.646	88.88
556.859	83.88
557.071	93.88
557.284	89.88
557.496	80.88
557.709	89.88
557.921	94.88
558.134	81.88
558.346	94.88
558.559	82.88
558.771	96.88
558.984	90.88
559.196	105.88
559.409	89.88
559.621	87.88
559.833	81.88
560.046	92.88
560.258	101.88
560.47	153.88
560.683	93.88
560.895	105.88
561.107	88.88
561.32	81.88
561.532	80.88
561.744	91.88
561.956	86.88
562.168	100.88
562.381	86.88
562.593	89.88
562.805	80.88
563.017	97.88
563.229	94.88
563.441	90.88
563.653	86.88
563.865	92.88
564.077	92.88
564.289	93.88
564.501	94.88
564.713	90.88
564.925	100.88
565.137	119.88
565.349	100.88
565.561	92.88
565.773	100.88
565.985	83.88
566.197	80.88
566.408	89.88
566.62	76.88
566.832	84.88
567.044	91.88
567.255	85.88
567.467	82.88
567.679	85.88
567.891	94.88
568.102	96.88
568.314	87.88
568.526	85.88
568.737	79.88
568.949	90.88
569.161	81.88
569.372	84.88
569.584	91.88
569.795	101.88
570.007	152.88
570.218	403.88
570.43	183.88
570.641	90.88
570.853	97.88
571.064	87.88
571.276	110.88
571.487	94.88
571.698	101.88
571.91	96.88
572.121	95.88
572.333	87.88
572.544	83.88
572.755	85.88
572.966	91.88
573.178	84.88
573.389	92.88
573.6	97.88
573.811	93.88
574.023	87.88
574.234	80.88
574.445	85.88
574.656	79.88
574.867	87.88
575.078	79.88
575.289	92.88
575.501	80.88
575.712	86.88
575.923	83.88
576.134	95.88
576.345	78.88
576.556	89.88
576.767	93.88
576.978	78.88
577.188	95.88
577.399	109.88
577.61	104.88
577.821	99.88
578.032	156.88
578.243	433.88
578.454	1460.88
578.665	347.88
578.875	111.88
579.086	105.88
579.297	92.88
579.508	97.88
579.718	84.88
579.929	88.88
580.14	84.88
580.35	78.88
580.561	81.88
580.772	67.88
580.982	84.88
581.193	88.88
581.403	86.88
581.614	104.88
581.825	96.88
582.035	78.88
582.246	93.88
582.456	79.88
582.667	95.88
582.877	78.88
583.087	83.88
583.298	81.88
583.508	85.88
583.719	79.88
583.929	74.88
584.139	85.88
584.35	91.88
584.56	88.88
584.77	83.88
584.981	95.88
585.191	95.88
585.401	95.88
585.611	107.88
585.821	92.88
586.032	79.88
586.242	101.88
586.452	77.88
586.662	95.88
586.872	85.88
587.082	98.88
587.292	83.88
587.502	94.88
587.713	77.88
587.923	89.88
588.133	96.88
588.343	96.88
588.553	89.88
588.762	117.88
588.972	109.88
589.182	222.88
589.392	133.88
589.602	114.88
589.812	162.88
590.022	97.88
590.232	81.88
590.441	89.88
590.651	95.88
590.861	83.88
591.071	78.88
591.281	86.88
591.49	92.88
591.7	74.88
591.91	91.88
592.119	83.88
592.329	84.88
592.539	93.88
592.748	94.88
592.958	103.88
593.167	74.88
593.377	87.88
593.587	90.88
593.796	73.88
594.006	87.88
594.215	70.88
594.424	83.88
594.634	95.88
594.843	85.88
595.053	94.88
595.262	94.88
595.472	74.88
595.681	93.88
595.89	94.88
596.1	77.88
596.309	80.88
596.518	75.88
596.727	92.88
596.937	86.88
597.146	101.88
597.355	94.88
597.564	83.88
597.774	76.88
597.983	75.88
598.192	90.88
598.401	92.88
598.61	84.88
598.819	87.88
599.028	84.88
599.237	99.88
599.446	107.88
599.655	96.88
599.864	106.88
600.073	90.88
600.282	119.88
600.491	89.88
600.7	92.88
600.909	83.88
601.118	91.88
601.327	98.88
601.536	97.88
601.745	84.88
601.953	85.88
602.162	90.88
602.371	87.88
602.58	84.88
602.789	93.88
602.997	81.88
603.206	85.88
603.415	94.88
603.623	85.88
603.832	90.88
604.041	84.88
604.249	89.88
604.458	92.88
604.666	72.88
604.875	107.88
605.084	93.88
605.292	96.88
605.501	80.88
605.709	92.88
605.918	87.88
606.126	97.88
606.334	79.88
606.543	78.88
606.751	85.88
606.96	86.88
607.168	87.88
607.376	81.88
607.585	92.88
607.793	78.88
608.001	87.88
608.21	84.88
608.418	91.88
608.626	82.88
608.834	68.88
609.043	93.88
609.251	80.88
609.459	89.88
609.667	91.88
609.875	86.88
610.083	83.88
610.291	84.88
610.499	83.88
610.707	101.88
610.916	90.88
611.124	80.88
611.332	81.88
611.54	92.88
611.748	88.88
611.955	98.88
612.163	83.88
612.371	87.88
612.579	103.88
612.787	87.88
612.995	103.88
613.203	84.88
613.411	76.88
613.618	87.88
613.826	72.88
614.034	79.88
614.242	97.88
614.449	91.88
614.657	111.88
614.865	82.88
615.072	94.88
615.28	92.88
615.488	95.88
615.695	95.88
615.903	111.88
616.111	108.88
616.318	104.88
616.526	83.88
616.733	91.88
616.941	96.88
617.148	77.88
617.356	89.88
617.563	84.88
617.771	97.88
617.978	91.88
618.185	90.88
618.393	98.88
618.6	87.88
618.807	77.88
619.015	76.88
619.222	79.88
619.429	92.88
619.637	85.88
619.844	92.88
620.051	88.88
620.258	89.88
620.466	81.88
620.673	87.88
620.88	104.88
621.087	90.88
621.294	84.88
621.501	84.88
621.708	82.88
621.915	105.88
622.122	88.88
622.329	95.88
622.536	88.88
622.743	73.88
622.95	77.88
623.157	92.88
623.364	83.88
623.571	76.88
623.778	90.88
623.985	81.88
624.192	92.88
624.399	86.88
624.606	84.88
624.812	84.88
625.019	69.88
625.226	88.88
625.433	75.88
625.639	76.88
625.846	85.88
626.053	92.88
626.259	91.88
626.466	90.88
626.673	92.88
626.879	82.88
627.086	89.88
627.293	92.88
627.499	91.88
627.706	80.88
627.912	80.88
628.119	91.88
628.325	81.88
628.532	77.88
628.738	84.88
628.945	68.88
629.151	81.88
629.357	96.88
629.564	72.88
629.77	85.88
629.976	91.88
630.183	70.88
630.389	91.88
630.595	81.88
630.802	85.88
631.008	91.88
631.214	78.88
631.42	88.88
631.627	69.88
631.833	67.88
632.039	79.88
632.245	102.88
632.451	90.88
632.657	78.88
632.863	83.88
633.069	89.88
633.275	95.88
633.481	86.88
633.688	75.88
633.893	97.88
634.099	70.88
634.305	94.88
634.511	101.88
634.717	86.88
634.923	103.88
635.129	86.88
635.335	89.88
635.541	77.88
635.747	95.88
635.952	95.88
636.158	159.88
636.364	459.88
636.57	374.88
636.775	133.88
636.981	108.88
637.187	80.88
637.392	95.88
637.598	86.88
637.804	83.88
638.009	94.88
638.215	80.88
638.421	81.88
638.626	66.88
638.832	89.88
639.037	84.88
639.243	75.88
639.448	91.88
639.654	91.88
639.859	87.88
640.065	103.88
640.27	92.88
640.475	91.88
640.681	89.88
640.886	79.88
641.091	89.88
641.297	98.88
641.502	91.88
641.707	84.88
641.913	84.88
642.118	84.88
642.323	70.88
642.528	98.88
642.733	92.88
642.939	75.88
643.144	97.88
643.349	79.88
643.554	97.88
643.759	89.88
643.964	76.88
644.169	64.88
644.374	75.88
644.579	84.88
644.784	88.88
644.989	99.88
645.194	88.88
645.399	92.88
645.604	78.88
645.809	91.88
646.014	92.88
646.219	69.88
646.423	86.88
646.628	76.88
646.833	79.88
647.038	71.88
647.243	101.88
647.447	86.88
647.652	84.88
647.857	85.88
648.062	85.88
648.266	83.88
648.471	85.88
648.676	103.88
648.88	91.88
649.085	92.88
649.289	104.88
649.494	108.88
649.698	133.88
649.903	105.88
650.107	83.88
650.312	87.88
650.516	65.88
650.721	76.88
650.925	99.88
651.13	84.88
651.334	76.88
651.539	80.88
651.743	81.88
651.947	97.88
652.152	79.88
652.356	68.88
652.56	84.88
652.764	77.88
652.969	92.88
653.173	58.88
653.377	69.88
653.581	70.88
653.785	86.88
653.99	84.88
654.194	72.88
654.398	80.88
654.602	87.88
654.806	79.88
655.01	106.88
655.214	103.88
655.418	71.88
655.622	88.88
655.826	89.88
656.03	87.88
656.234	100.88
656.438	110.88
656.642	97.88
656.846	114.88
657.049	89.88
657.253	94.88
657.457	92.88
657.661	90.88
657.865	80.88
658.068	84.88
658.272	85.88
658.476	87.88
658.68	79.88
658.883	91.88
659.087	95.88
659.291	95.88
659.494	95.88
659.698	72.88
659.901	77.88
660.105	76.88
660.309	82.88
660.512	89.88
660.716	84.88
660.919	72.88
661.123	97.88
661.326	84.88
661.53	81.88
661.733	86.88
661.936	78.88
662.14	78.88
662.343	68.88
662.546	75.88
662.75	80.88
662.953	81.88
663.156	72.88
663.36	79.88
663.563	80.88
663.766	84.88
663.969	85.88
664.173	88.88
664.376	88.88
664.579	78.88
664.782	86.88
664.985	84.88
665.188	75.88
665.391	71.88
665.594	84.88
665.797	96.88
666	80.88
666.203	81.88
666.406	89.88
666.609	78.88
666.812	78.88
667.015	96.88
667.218	74.88
667.421	76.88
667.624	96.88
667.827	90.88
668.03	86.88
668.232	98.88
668.435	87.88
668.638	96.88
668.841	78.88
669.043	83.88
669.246	80.88
669.449	99.88
669.651	79.88
669.854	95.88
670.057	87.88
670.259	74.88
670.462	80.88
670.665	84.88
670.867	80.88
671.07	100.88
671.272	81.88
671.475	62.88
671.677	85.88
671.88	84.88
672.082	79.88
672.284	74.88
672.487	74.88
672.689	71.88
672.892	64.88
