Data from Circ_1999_H10_HRD10591_00085.txt Node
Date: Wed Jan 03 11:23:29 EST 2024
User: Yrep
Spectrometer: HR+D1059
Trigger mode: 1
Integration Time (sec): 1.000000E-1
Scans to average: 1
Electric dark correction enabled: true
Nonlinearity correction enabled: false
Boxcar width: 0
XAxis mode: Wavelengths
Number of Pixels in Spectrum: 2048
>>>>>Begin Spectral Data<<<<<
223.165	-22.5
223.4	-22.5
223.635	-22.5
223.869	-19.5
224.104	-26.5
224.338	-7.5
224.573	-12.5
224.808	-8.5
225.042	6.5
225.277	-16.5
225.511	-3.5
225.746	2.5
225.98	-6.5
226.215	8.5
226.449	8.5
226.683	25.5
226.918	21.5
227.152	50.5
227.387	39.5
227.621	40.5
227.856	48.5
228.09	49.5
228.324	61.5
228.559	60.5
228.793	69.5
229.027	69.5
229.262	85.5
229.496	86.5
229.73	119.5
229.964	113.5
230.199	85.5
230.433	80.5
230.667	85.5
230.901	81.5
231.136	95.5
231.37	82.5
231.604	69.5
231.838	70.5
232.072	90.5
232.306	83.5
232.541	88.5
232.775	83.5
233.009	86.5
233.243	91.5
233.477	80.5
233.711	89.5
233.945	92.5
234.179	91.5
234.413	88.5
234.647	77.5
234.881	95.5
235.115	78.5
235.349	95.5
235.583	86.5
235.817	90.5
236.051	88.5
236.285	92.5
236.519	82.5
236.753	94.5
236.987	89.5
237.221	101.5
237.455	109.5
237.689	94.5
237.922	87.5
238.156	93.5
238.39	88.5
238.624	86.5
238.858	73.5
239.091	85.5
239.325	79.5
239.559	77.5
239.793	96.5
240.027	86.5
240.26	91.5
240.494	90.5
240.728	80.5
240.961	84.5
241.195	92.5
241.429	88.5
241.662	86.5
241.896	81.5
242.13	92.5
242.363	79.5
242.597	91.5
242.83	80.5
243.064	59.5
243.298	77.5
243.531	81.5
243.765	68.5
243.998	88.5
244.232	86.5
244.465	92.5
244.699	87.5
244.932	93.5
245.166	77.5
245.399	90.5
245.633	77.5
245.866	82.5
246.099	89.5
246.333	81.5
246.566	86.5
246.8	88.5
247.033	79.5
247.266	85.5
247.5	96.5
247.733	81.5
247.966	78.5
248.2	91.5
248.433	72.5
248.666	89.5
248.899	89.5
249.133	99.5
249.366	116.5
249.599	113.5
249.832	85.5
250.066	97.5
250.299	88.5
250.532	107.5
250.765	86.5
250.998	90.5
251.231	86.5
251.465	94.5
251.698	100.5
251.931	94.5
252.164	108.5
252.397	96.5
252.63	96.5
252.863	84.5
253.096	78.5
253.329	101.5
253.562	93.5
253.795	93.5
254.028	84.5
254.261	91.5
254.494	85.5
254.727	94.5
254.96	96.5
255.193	86.5
255.426	85.5
255.659	92.5
255.892	125.5
256.124	109.5
256.357	99.5
256.59	98.5
256.823	84.5
257.056	92.5
257.289	91.5
257.521	99.5
257.754	93.5
257.987	86.5
258.22	105.5
258.452	108.5
258.685	112.5
258.918	102.5
259.151	90.5
259.383	88.5
259.616	106.5
259.849	97.5
260.081	94.5
260.314	98.5
260.547	99.5
260.779	106.5
261.012	132.5
261.244	124.5
261.477	124.5
261.71	129.5
261.942	171.5
262.175	182.5
262.407	119.5
262.64	101.5
262.872	88.5
263.105	80.5
263.337	74.5
263.57	92.5
263.802	87.5
264.035	94.5
264.267	97.5
264.499	96.5
264.732	96.5
264.964	104.5
265.197	93.5
265.429	77.5
265.661	82.5
265.894	91.5
266.126	84.5
266.358	109.5
266.591	89.5
266.823	94.5
267.055	92.5
267.287	93.5
267.52	102.5
267.752	86.5
267.984	99.5
268.216	90.5
268.448	98.5
268.681	88.5
268.913	92.5
269.145	85.5
269.377	87.5
269.609	94.5
269.841	102.5
270.073	95.5
270.306	95.5
270.538	84.5
270.77	87.5
271.002	93.5
271.234	92.5
271.466	105.5
271.698	101.5
271.93	96.5
272.162	107.5
272.394	88.5
272.626	90.5
272.858	87.5
273.09	96.5
273.322	94.5
273.553	97.5
273.785	90.5
274.017	86.5
274.249	98.5
274.481	90.5
274.713	96.5
274.945	108.5
275.176	118.5
275.408	111.5
275.64	142.5
275.872	136.5
276.104	113.5
276.335	104.5
276.567	137.5
276.799	206.5
277.031	237.5
277.262	278.5
277.494	196.5
277.726	129.5
277.957	103.5
278.189	102.5
278.421	110.5
278.652	92.5
278.884	102.5
279.115	100.5
279.347	107.5
279.579	122.5
279.81	176.5
280.042	278.5
280.273	389.5
280.505	265.5
280.736	136.5
280.968	99.5
281.199	106.5
281.431	107.5
281.662	90.5
281.894	95.5
282.125	114.5
282.356	171.5
282.588	234.5
282.819	144.5
283.051	111.5
283.282	96.5
283.513	84.5
283.745	97.5
283.976	97.5
284.207	80.5
284.439	116.5
284.67	93.5
284.901	82.5
285.132	86.5
285.364	89.5
285.595	78.5
285.826	101.5
286.057	98.5
286.288	97.5
286.52	106.5
286.751	89.5
286.982	97.5
287.213	95.5
287.444	102.5
287.675	91.5
287.906	93.5
288.138	90.5
288.369	100.5
288.6	109.5
288.831	90.5
289.062	108.5
289.293	93.5
289.524	94.5
289.755	90.5
289.986	104.5
290.217	92.5
290.448	92.5
290.679	105.5
290.91	86.5
291.141	102.5
291.371	114.5
291.602	95.5
291.833	95.5
292.064	117.5
292.295	95.5
292.526	115.5
292.757	112.5
292.987	96.5
293.218	80.5
293.449	85.5
293.68	102.5
293.91	101.5
294.141	107.5
294.372	112.5
294.603	97.5
294.833	106.5
295.064	108.5
295.295	95.5
295.525	105.5
295.756	119.5
295.987	170.5
296.217	210.5
296.448	202.5
296.679	128.5
296.909	107.5
297.14	105.5
297.37	96.5
297.601	99.5
297.831	107.5
298.062	106.5
298.292	111.5
298.523	105.5
298.753	97.5
298.984	94.5
299.214	106.5
299.445	123.5
299.675	108.5
299.905	118.5
300.136	97.5
300.366	95.5
300.597	110.5
300.827	102.5
301.057	130.5
301.288	145.5
301.518	115.5
301.748	118.5
301.979	127.5
302.209	112.5
302.439	120.5
302.669	110.5
302.9	116.5
303.13	103.5
303.36	140.5
303.59	184.5
303.82	181.5
304.051	123.5
304.281	117.5
304.511	87.5
304.741	91.5
304.971	98.5
305.201	97.5
305.431	107.5
305.661	89.5
305.891	98.5
306.121	137.5
306.352	132.5
306.582	129.5
306.812	132.5
307.042	149.5
307.272	210.5
307.502	254.5
307.731	213.5
307.961	162.5
308.191	115.5
308.421	104.5
308.651	91.5
308.881	112.5
309.111	101.5
309.341	108.5
309.571	122.5
309.8	123.5
310.03	130.5
310.26	125.5
310.49	121.5
310.72	132.5
310.949	148.5
311.179	129.5
311.409	98.5
311.639	107.5
311.868	123.5
312.098	116.5
312.328	118.5
312.557	140.5
312.787	152.5
313.017	124.5
313.246	104.5
313.476	113.5
313.706	96.5
313.935	107.5
314.165	102.5
314.394	147.5
314.624	115.5
314.853	108.5
315.083	107.5
315.312	115.5
315.542	96.5
315.771	116.5
316.001	100.5
316.23	111.5
316.46	96.5
316.689	115.5
316.919	90.5
317.148	126.5
317.377	109.5
317.607	120.5
317.836	119.5
318.065	109.5
318.295	103.5
318.524	97.5
318.753	104.5
318.983	121.5
319.212	112.5
319.441	150.5
319.67	129.5
319.9	109.5
320.129	96.5
320.358	112.5
320.587	113.5
320.816	136.5
321.046	120.5
321.275	111.5
321.504	113.5
321.733	105.5
321.962	119.5
322.191	129.5
322.42	139.5
322.649	134.5
322.878	144.5
323.108	164.5
323.337	168.5
323.566	191.5
323.795	221.5
324.024	309.5
324.253	604.5
324.482	1266.5
324.71	2539.5
324.939	3289.5
325.168	1242.5
325.397	341.5
325.626	200.5
325.855	175.5
326.084	144.5
326.313	169.5
326.542	208.5
326.77	308.5
326.999	600.5
327.228	1276.5
327.457	2285.5
327.686	1861.5
327.914	766.5
328.143	812.5
328.372	1060.5
328.6	587.5
328.829	274.5
329.058	270.5
329.287	282.5
329.515	242.5
329.744	387.5
329.972	796.5
330.201	1692.5
330.43	2410.5
330.658	1018.5
330.887	419.5
331.115	271.5
331.344	175.5
331.572	141.5
331.801	158.5
332.03	162.5
332.258	133.5
332.486	133.5
332.715	124.5
332.943	130.5
333.172	152.5
333.4	171.5
333.629	219.5
333.857	356.5
334.085	660.5
334.314	1510.5
334.542	3059.5
334.771	2691.5
334.999	650.5
335.227	242.5
335.455	160.5
335.684	150.5
335.912	128.5
336.14	125.5
336.369	131.5
336.597	141.5
336.825	116.5
337.053	108.5
337.281	107.5
337.51	113.5
337.738	113.5
337.966	123.5
338.194	118.5
338.422	115.5
338.65	120.5
338.878	122.5
339.106	101.5
339.334	98.5
339.562	99.5
339.79	112.5
340.018	101.5
340.246	114.5
340.474	115.5
340.702	106.5
340.93	112.5
341.158	106.5
341.386	125.5
341.614	121.5
341.842	123.5
342.07	103.5
342.298	101.5
342.526	99.5
342.754	91.5
342.981	95.5
343.209	107.5
343.437	102.5
343.665	90.5
343.893	107.5
344.12	119.5
344.348	84.5
344.576	102.5
344.804	110.5
345.031	108.5
345.259	137.5
345.487	118.5
345.714	116.5
345.942	97.5
346.17	95.5
346.397	108.5
346.625	116.5
346.853	105.5
347.08	116.5
347.308	102.5
347.535	129.5
347.763	125.5
347.99	97.5
348.218	127.5
348.445	149.5
348.673	137.5
348.9	117.5
349.128	101.5
349.355	103.5
349.583	99.5
349.81	99.5
350.037	106.5
350.265	97.5
350.492	109.5
350.72	115.5
350.947	114.5
351.174	137.5
351.402	157.5
351.629	125.5
351.856	126.5
352.083	138.5
352.311	155.5
352.538	142.5
352.765	132.5
352.992	141.5
353.22	149.5
353.447	129.5
353.674	120.5
353.901	97.5
354.128	98.5
354.355	98.5
354.583	102.5
354.81	99.5
355.037	99.5
355.264	113.5
355.491	93.5
355.718	80.5
355.945	101.5
356.172	102.5
356.399	97.5
356.626	94.5
356.853	96.5
357.08	92.5
357.307	89.5
357.534	101.5
357.761	102.5
357.988	93.5
358.215	93.5
358.441	98.5
358.668	98.5
358.895	111.5
359.122	92.5
359.349	105.5
359.576	116.5
359.802	141.5
360.029	196.5
360.256	170.5
360.483	148.5
360.709	98.5
360.936	109.5
361.163	112.5
361.39	113.5
361.616	121.5
361.843	88.5
362.07	130.5
362.296	122.5
362.523	112.5
362.749	121.5
362.976	111.5
363.203	100.5
363.429	106.5
363.656	106.5
363.882	112.5
364.109	94.5
364.335	101.5
364.562	101.5
364.788	108.5
365.015	114.5
365.241	116.5
365.468	131.5
365.694	134.5
365.92	121.5
366.147	112.5
366.373	94.5
366.599	101.5
366.826	110.5
367.052	100.5
367.278	97.5
367.505	113.5
367.731	99.5
367.957	107.5
368.184	104.5
368.41	114.5
368.636	159.5
368.862	172.5
369.089	138.5
369.315	133.5
369.541	103.5
369.767	101.5
369.993	110.5
370.219	122.5
370.445	107.5
370.672	90.5
370.898	96.5
371.124	87.5
371.35	88.5
371.576	84.5
371.802	84.5
372.028	113.5
372.254	78.5
372.48	87.5
372.706	92.5
372.932	93.5
373.158	94.5
373.384	93.5
373.61	110.5
373.835	105.5
374.061	106.5
374.287	104.5
374.513	98.5
374.739	104.5
374.965	92.5
375.191	107.5
375.416	81.5
375.642	93.5
375.868	105.5
376.094	101.5
376.319	102.5
376.545	92.5
376.771	105.5
376.997	95.5
377.222	90.5
377.448	114.5
377.674	100.5
377.899	94.5
378.125	93.5
378.35	85.5
378.576	77.5
378.802	102.5
379.027	111.5
379.253	97.5
379.478	84.5
379.704	102.5
379.929	108.5
380.155	98.5
380.38	92.5
380.606	101.5
380.831	101.5
381.057	100.5
381.282	98.5
381.507	91.5
381.733	92.5
381.958	107.5
382.184	104.5
382.409	91.5
382.634	104.5
382.86	102.5
383.085	107.5
383.31	98.5
383.535	118.5
383.761	102.5
383.986	98.5
384.211	98.5
384.436	85.5
384.662	101.5
384.887	96.5
385.112	105.5
385.337	114.5
385.562	108.5
385.787	111.5
386.013	130.5
386.238	141.5
386.463	121.5
386.688	101.5
386.913	128.5
387.138	114.5
387.363	101.5
387.588	88.5
387.813	100.5
388.038	107.5
388.263	120.5
388.488	117.5
388.713	98.5
388.938	100.5
389.163	105.5
389.387	102.5
389.612	99.5
389.837	88.5
390.062	100.5
390.287	108.5
390.512	87.5
390.736	103.5
390.961	99.5
391.186	95.5
391.411	97.5
391.636	97.5
391.86	94.5
392.085	93.5
392.31	101.5
392.534	94.5
392.759	96.5
392.984	93.5
393.208	85.5
393.433	88.5
393.658	89.5
393.882	92.5
394.107	96.5
394.331	94.5
394.556	90.5
394.78	95.5
395.005	94.5
395.229	99.5
395.454	81.5
395.678	78.5
395.903	85.5
396.127	116.5
396.352	98.5
396.576	89.5
396.801	110.5
397.025	95.5
397.249	79.5
397.474	96.5
397.698	78.5
397.922	101.5
398.147	96.5
398.371	95.5
398.595	78.5
398.82	85.5
399.044	91.5
399.268	86.5
399.492	89.5
399.717	92.5
399.941	92.5
400.165	103.5
400.389	96.5
400.613	99.5
400.837	102.5
401.062	91.5
401.286	103.5
401.51	111.5
401.734	102.5
401.958	124.5
402.182	208.5
402.406	266.5
402.63	177.5
402.854	128.5
403.078	101.5
403.302	110.5
403.526	108.5
403.75	97.5
403.974	84.5
404.198	106.5
404.422	93.5
404.645	98.5
404.869	111.5
405.093	142.5
405.317	159.5
405.541	158.5
405.765	154.5
405.988	169.5
406.212	292.5
406.436	456.5
406.66	292.5
406.883	145.5
407.107	123.5
407.331	102.5
407.555	134.5
407.778	130.5
408.002	105.5
408.226	92.5
408.449	102.5
408.673	100.5
408.896	98.5
409.12	99.5
409.344	100.5
409.567	97.5
409.791	94.5
410.014	82.5
410.238	93.5
410.461	91.5
410.685	108.5
410.908	101.5
411.132	125.5
411.355	127.5
411.578	102.5
411.802	99.5
412.025	100.5
412.249	105.5
412.472	136.5
412.695	139.5
412.919	118.5
413.142	112.5
413.365	98.5
413.589	96.5
413.812	82.5
414.035	89.5
414.258	90.5
414.482	99.5
414.705	97.5
414.928	100.5
415.151	100.5
415.374	98.5
415.597	101.5
415.821	93.5
416.044	90.5
416.267	94.5
416.49	97.5
416.713	96.5
416.936	88.5
417.159	82.5
417.382	114.5
417.605	120.5
417.828	122.5
418.051	114.5
418.274	105.5
418.497	101.5
418.72	99.5
418.943	91.5
419.166	94.5
419.389	96.5
419.611	103.5
419.834	92.5
420.057	110.5
420.28	99.5
420.503	98.5
420.726	102.5
420.948	90.5
421.171	113.5
421.394	127.5
421.617	102.5
421.839	92.5
422.062	97.5
422.285	89.5
422.507	104.5
422.73	121.5
422.953	109.5
423.175	105.5
423.398	98.5
423.621	92.5
423.843	90.5
424.066	93.5
424.288	95.5
424.511	112.5
424.733	120.5
424.956	149.5
425.178	140.5
425.401	116.5
425.623	111.5
425.846	92.5
426.068	120.5
426.291	103.5
426.513	103.5
426.735	110.5
426.958	125.5
427.18	153.5
427.402	230.5
427.625	342.5
427.847	316.5
428.069	251.5
428.292	138.5
428.514	99.5
428.736	95.5
428.958	93.5
429.181	85.5
429.403	86.5
429.625	93.5
429.847	128.5
430.069	111.5
430.292	113.5
430.514	104.5
430.736	88.5
430.958	92.5
431.18	106.5
431.402	90.5
431.624	98.5
431.846	92.5
432.068	83.5
432.29	86.5
432.512	93.5
432.734	82.5
432.956	93.5
433.178	102.5
433.4	108.5
433.622	101.5
433.844	109.5
434.066	75.5
434.287	79.5
434.509	88.5
434.731	97.5
434.953	115.5
435.175	98.5
435.397	92.5
435.618	99.5
435.84	125.5
436.062	151.5
436.284	151.5
436.505	113.5
436.727	97.5
436.949	112.5
437.17	97.5
437.392	90.5
437.614	112.5
437.835	158.5
438.057	184.5
438.278	160.5
438.5	141.5
438.721	156.5
438.943	117.5
439.165	108.5
439.386	109.5
439.608	105.5
439.829	132.5
440.05	178.5
440.272	234.5
440.493	143.5
440.715	102.5
440.936	100.5
441.158	106.5
441.379	114.5
441.6	124.5
441.822	111.5
442.043	121.5
442.264	124.5
442.486	128.5
442.707	116.5
442.928	142.5
443.149	213.5
443.371	200.5
443.592	159.5
443.813	151.5
444.034	131.5
444.255	112.5
444.476	105.5
444.698	103.5
444.919	94.5
445.14	136.5
445.361	154.5
445.582	158.5
445.803	230.5
446.024	217.5
446.245	188.5
446.466	139.5
446.687	91.5
446.908	109.5
447.129	98.5
447.35	92.5
447.571	86.5
447.792	102.5
448.013	115.5
448.234	144.5
448.455	121.5
448.675	138.5
448.896	159.5
449.117	113.5
449.338	123.5
449.559	162.5
449.779	179.5
450	119.5
450.221	105.5
450.442	117.5
450.662	117.5
450.883	144.5
451.104	183.5
451.324	117.5
451.545	101.5
451.766	99.5
451.986	104.5
452.207	110.5
452.428	101.5
452.648	117.5
452.869	161.5
453.089	157.5
453.31	184.5
453.53	121.5
453.751	100.5
453.971	152.5
454.192	182.5
454.412	108.5
454.633	94.5
454.853	83.5
455.073	102.5
455.294	109.5
455.514	121.5
455.734	107.5
455.955	103.5
456.175	84.5
456.395	79.5
456.616	88.5
456.836	77.5
457.056	85.5
457.276	95.5
457.497	95.5
457.717	100.5
457.937	108.5
458.157	99.5
458.377	113.5
458.598	167.5
458.818	304.5
459.038	325.5
459.258	200.5
459.478	119.5
459.698	98.5
459.918	99.5
460.138	88.5
460.358	100.5
460.578	104.5
460.798	115.5
461.018	99.5
461.238	102.5
461.458	95.5
461.678	87.5
461.898	100.5
462.118	91.5
462.338	93.5
462.558	99.5
462.777	88.5
462.997	114.5
463.217	121.5
463.437	122.5
463.657	99.5
463.876	97.5
464.096	97.5
464.316	106.5
464.536	115.5
464.755	129.5
464.975	167.5
465.195	348.5
465.414	358.5
465.634	141.5
465.854	116.5
466.073	107.5
466.293	92.5
466.512	88.5
466.732	90.5
466.951	100.5
467.171	102.5
467.391	131.5
467.61	204.5
467.829	328.5
468.049	971.5
468.268	1445.5
468.488	329.5
468.707	125.5
468.927	97.5
469.146	100.5
469.365	103.5
469.585	113.5
469.804	108.5
470.023	130.5
470.243	117.5
470.462	139.5
470.681	184.5
470.901	108.5
471.12	121.5
471.339	120.5
471.558	142.5
471.777	208.5
471.997	448.5
472.216	1932.5
472.435	4356.5
472.654	909.5
472.873	236.5
473.092	124.5
473.311	111.5
473.53	109.5
473.749	101.5
473.968	123.5
474.187	135.5
474.406	128.5
474.625	99.5
474.844	105.5
475.063	97.5
475.282	105.5
475.501	88.5
475.72	115.5
475.939	110.5
476.158	97.5
476.377	103.5
476.596	112.5
476.814	116.5
477.033	131.5
477.252	109.5
477.471	115.5
477.69	102.5
477.908	107.5
478.127	117.5
478.346	113.5
478.564	131.5
478.783	138.5
479.002	138.5
479.22	144.5
479.439	153.5
479.658	172.5
479.876	156.5
480.095	161.5
480.313	176.5
480.532	226.5
480.751	434.5
480.969	1695.5
481.188	7385.5
481.406	4029.5
481.624	532.5
481.843	180.5
482.061	143.5
482.28	121.5
482.498	116.5
482.717	114.5
482.935	110.5
483.153	110.5
483.372	109.5
483.59	90.5
483.808	102.5
484.027	108.5
484.245	104.5
484.463	112.5
484.681	110.5
484.9	84.5
485.118	100.5
485.336	112.5
485.554	112.5
485.772	97.5
485.99	119.5
486.209	121.5
486.427	131.5
486.645	139.5
486.863	148.5
487.081	130.5
487.299	97.5
487.517	106.5
487.735	108.5
487.953	97.5
488.171	116.5
488.389	113.5
488.607	113.5
488.825	93.5
489.043	95.5
489.261	106.5
489.479	96.5
489.696	101.5
489.914	99.5
490.132	102.5
490.35	84.5
490.568	111.5
490.786	102.5
491.003	82.5
491.221	108.5
491.439	112.5
491.657	117.5
491.874	104.5
492.092	97.5
492.31	96.5
492.527	106.5
492.745	120.5
492.963	108.5
493.18	97.5
493.398	97.5
493.615	94.5
493.833	106.5
494.05	104.5
494.268	82.5
494.485	90.5
494.703	94.5
494.92	111.5
495.138	104.5
495.355	101.5
495.573	102.5
495.79	101.5
496.008	101.5
496.225	110.5
496.442	86.5
496.66	95.5
496.877	83.5
497.094	114.5
497.312	96.5
497.529	100.5
497.746	93.5
497.963	95.5
498.181	105.5
498.398	108.5
498.615	130.5
498.832	132.5
499.049	111.5
499.267	98.5
499.484	107.5
499.701	94.5
499.918	112.5
500.135	97.5
500.352	97.5
500.569	109.5
500.786	114.5
501.003	112.5
501.22	105.5
501.437	101.5
501.654	107.5
501.871	174.5
502.088	116.5
502.305	97.5
502.522	85.5
502.739	95.5
502.956	92.5
503.172	107.5
503.389	127.5
503.606	156.5
503.823	125.5
504.04	109.5
504.256	91.5
504.473	96.5
504.69	95.5
504.907	101.5
505.123	116.5
505.34	91.5
505.557	95.5
505.773	88.5
505.99	90.5
506.207	88.5
506.423	83.5
506.64	93.5
506.856	118.5
507.073	114.5
507.289	96.5
507.506	109.5
507.722	165.5
507.939	164.5
508.155	114.5
508.372	108.5
508.588	100.5
508.805	101.5
509.021	115.5
509.238	112.5
509.454	121.5
509.67	129.5
509.887	153.5
510.103	177.5
510.319	348.5
510.536	1395.5
510.752	5197.5
510.968	1308.5
511.184	244.5
511.401	159.5
511.617	124.5
511.833	138.5
512.049	115.5
512.265	103.5
512.481	106.5
512.698	114.5
512.914	97.5
513.13	108.5
513.346	103.5
513.562	113.5
513.778	119.5
513.994	127.5
514.21	160.5
514.426	190.5
514.642	257.5
514.858	225.5
515.074	332.5
515.29	1152.5
515.506	4357.5
515.721	1416.5
515.937	288.5
516.153	187.5
516.369	134.5
516.585	132.5
516.801	131.5
517.016	121.5
517.232	107.5
517.448	115.5
517.664	111.5
517.879	113.5
518.095	124.5
518.311	119.5
518.527	117.5
518.742	115.5
518.958	123.5
519.173	109.5
519.389	108.5
519.605	108.5
519.82	122.5
520.036	132.5
520.251	196.5
520.467	177.5
520.682	140.5
520.898	149.5
521.113	175.5
521.329	251.5
521.544	461.5
521.76	1554.5
521.975	7255.5
522.19	4198.5
522.406	768.5
522.621	239.5
522.836	123.5
523.052	119.5
523.267	121.5
523.482	118.5
523.698	130.5
523.913	201.5
524.128	158.5
524.343	126.5
524.559	113.5
524.774	92.5
524.989	137.5
525.204	138.5
525.419	137.5
525.634	113.5
525.849	100.5
526.064	92.5
526.28	108.5
526.495	99.5
526.71	96.5
526.925	89.5
527.14	97.5
527.355	96.5
527.57	84.5
527.785	95.5
527.999	96.5
528.214	114.5
528.429	107.5
528.644	117.5
528.859	109.5
529.074	136.5
529.289	205.5
529.503	433.5
529.718	145.5
529.933	100.5
530.148	102.5
530.363	78.5
530.577	86.5
530.792	102.5
531.007	101.5
531.221	110.5
531.436	88.5
531.651	90.5
531.865	115.5
532.08	113.5
532.295	117.5
532.509	93.5
532.724	99.5
532.938	101.5
533.153	99.5
533.367	99.5
533.582	105.5
533.796	108.5
534.011	90.5
534.225	94.5
534.44	99.5
534.654	89.5
534.868	101.5
535.083	99.5
535.297	116.5
535.511	132.5
535.726	142.5
535.94	120.5
536.154	120.5
536.369	101.5
536.583	85.5
536.797	88.5
537.011	97.5
537.225	102.5
537.44	119.5
537.654	82.5
537.868	93.5
538.082	98.5
538.296	90.5
538.51	90.5
538.724	105.5
538.938	95.5
539.153	116.5
539.367	155.5
539.581	109.5
539.795	95.5
540.009	98.5
540.222	88.5
540.436	99.5
540.65	108.5
540.864	105.5
541.078	124.5
541.292	119.5
541.506	75.5
541.72	108.5
541.934	92.5
542.147	111.5
542.361	92.5
542.575	96.5
542.789	90.5
543.002	109.5
543.216	110.5
543.43	123.5
543.644	90.5
543.857	95.5
544.071	96.5
544.285	96.5
544.498	101.5
544.712	95.5
544.925	96.5
545.139	95.5
545.352	89.5
545.566	97.5
545.779	95.5
545.993	88.5
546.206	98.5
546.42	96.5
546.633	97.5
546.847	88.5
547.06	107.5
547.274	99.5
547.487	96.5
547.7	92.5
547.914	88.5
548.127	89.5
548.34	96.5
548.554	87.5
548.767	91.5
548.98	106.5
549.193	98.5
549.407	82.5
549.62	99.5
549.833	94.5
550.046	103.5
550.259	102.5
550.473	96.5
550.686	94.5
550.899	88.5
551.112	99.5
551.325	106.5
551.538	101.5
551.751	113.5
551.964	96.5
552.177	93.5
552.39	93.5
552.603	102.5
552.816	104.5
553.029	98.5
553.242	94.5
553.455	123.5
553.667	124.5
553.88	136.5
554.093	114.5
554.306	125.5
554.519	153.5
554.732	112.5
554.944	91.5
555.157	92.5
555.37	104.5
555.583	101.5
555.795	104.5
556.008	95.5
556.221	97.5
556.433	103.5
556.646	88.5
556.859	106.5
557.071	102.5
557.284	89.5
557.496	91.5
557.709	102.5
557.921	93.5
558.134	103.5
558.346	100.5
558.559	89.5
558.771	92.5
558.984	95.5
559.196	82.5
559.409	93.5
559.621	104.5
559.833	107.5
560.046	106.5
560.258	149.5
560.47	162.5
560.683	123.5
560.895	87.5
561.107	100.5
561.32	108.5
561.532	82.5
561.744	91.5
561.956	106.5
562.168	86.5
562.381	101.5
562.593	98.5
562.805	87.5
563.017	100.5
563.229	98.5
563.441	100.5
563.653	99.5
563.865	75.5
564.077	95.5
564.289	96.5
564.501	101.5
564.713	102.5
564.925	107.5
565.137	126.5
565.349	105.5
565.561	92.5
565.773	99.5
565.985	94.5
566.197	87.5
566.408	92.5
566.62	90.5
566.832	95.5
567.044	95.5
567.255	99.5
567.467	92.5
567.679	84.5
567.891	85.5
568.102	84.5
568.314	96.5
568.526	89.5
568.737	85.5
568.949	96.5
569.161	102.5
569.372	97.5
569.584	109.5
569.795	111.5
570.007	148.5
570.218	455.5
570.43	222.5
570.641	108.5
570.853	104.5
571.064	99.5
571.276	105.5
571.487	90.5
571.698	91.5
571.91	103.5
572.121	97.5
572.333	100.5
572.544	88.5
572.755	102.5
572.966	108.5
573.178	91.5
573.389	105.5
573.6	110.5
573.811	93.5
574.023	95.5
574.234	93.5
574.445	110.5
574.656	88.5
574.867	85.5
575.078	82.5
575.289	81.5
575.501	99.5
575.712	101.5
575.923	117.5
576.134	102.5
576.345	96.5
576.556	106.5
576.767	95.5
576.978	106.5
577.188	90.5
577.399	96.5
577.61	109.5
577.821	122.5
578.032	149.5
578.243	482.5
578.454	1656.5
578.665	374.5
578.875	134.5
579.086	102.5
579.297	100.5
579.508	90.5
579.718	106.5
579.929	93.5
580.14	82.5
580.35	88.5
580.561	83.5
580.772	90.5
580.982	93.5
581.193	101.5
581.403	91.5
581.614	95.5
581.825	88.5
582.035	85.5
582.246	84.5
582.456	95.5
582.667	102.5
582.877	98.5
583.087	98.5
583.298	95.5
583.508	95.5
583.719	93.5
583.929	98.5
584.139	84.5
584.35	95.5
584.56	107.5
584.77	88.5
584.981	87.5
585.191	93.5
585.401	92.5
585.611	90.5
585.821	91.5
586.032	96.5
586.242	82.5
586.452	90.5
586.662	96.5
586.872	89.5
587.082	106.5
587.292	94.5
587.502	94.5
587.713	99.5
587.923	92.5
588.133	96.5
588.343	90.5
588.553	96.5
588.762	103.5
588.972	105.5
589.182	244.5
589.392	141.5
589.602	130.5
589.812	177.5
590.022	110.5
590.232	98.5
590.441	79.5
590.651	77.5
590.861	95.5
591.071	98.5
591.281	91.5
591.49	103.5
591.7	85.5
591.91	98.5
592.119	89.5
592.329	93.5
592.539	112.5
592.748	105.5
592.958	96.5
593.167	76.5
593.377	89.5
593.587	96.5
593.796	94.5
594.006	91.5
594.215	87.5
594.424	77.5
594.634	81.5
594.843	85.5
595.053	84.5
595.262	90.5
595.472	86.5
595.681	85.5
595.89	108.5
596.1	85.5
596.309	88.5
596.518	94.5
596.727	79.5
596.937	74.5
597.146	94.5
597.355	102.5
597.564	95.5
597.774	94.5
597.983	94.5
598.192	99.5
598.401	78.5
598.61	101.5
598.819	92.5
599.028	96.5
599.237	98.5
599.446	85.5
599.655	97.5
599.864	82.5
600.073	97.5
600.282	82.5
600.491	81.5
600.7	98.5
600.909	86.5
601.118	95.5
601.327	98.5
601.536	87.5
601.745	82.5
601.953	84.5
602.162	88.5
602.371	106.5
602.58	96.5
602.789	85.5
602.997	84.5
603.206	100.5
603.415	89.5
603.623	96.5
603.832	87.5
604.041	95.5
604.249	102.5
604.458	90.5
604.666	82.5
604.875	92.5
605.084	82.5
605.292	101.5
605.501	94.5
605.709	94.5
605.918	84.5
606.126	77.5
606.334	98.5
606.543	93.5
606.751	92.5
606.96	83.5
607.168	96.5
607.376	98.5
607.585	101.5
607.793	90.5
608.001	98.5
608.21	99.5
608.418	104.5
608.626	87.5
608.834	93.5
609.043	96.5
609.251	97.5
609.459	103.5
609.667	89.5
609.875	103.5
610.083	87.5
610.291	77.5
610.499	116.5
610.707	84.5
610.916	99.5
611.124	102.5
611.332	96.5
611.54	95.5
611.748	87.5
611.955	90.5
612.163	91.5
612.371	98.5
612.579	88.5
612.787	95.5
612.995	81.5
613.203	90.5
613.411	85.5
613.618	74.5
613.826	95.5
614.034	85.5
614.242	93.5
614.449	93.5
614.657	100.5
614.865	82.5
615.072	82.5
615.28	97.5
615.488	94.5
615.695	84.5
615.903	95.5
616.111	119.5
616.318	115.5
616.526	92.5
616.733	91.5
616.941	85.5
617.148	103.5
617.356	82.5
617.563	106.5
617.771	96.5
617.978	81.5
618.185	103.5
618.393	101.5
618.6	86.5
618.807	105.5
619.015	96.5
619.222	100.5
619.429	94.5
619.637	97.5
619.844	83.5
620.051	98.5
620.258	93.5
620.466	90.5
620.673	84.5
620.88	82.5
621.087	89.5
621.294	92.5
621.501	89.5
621.708	97.5
621.915	91.5
622.122	96.5
622.329	98.5
622.536	93.5
622.743	94.5
622.95	91.5
623.157	89.5
623.364	95.5
623.571	93.5
623.778	95.5
623.985	97.5
624.192	76.5
624.399	74.5
624.606	85.5
624.812	75.5
625.019	98.5
625.226	97.5
625.433	90.5
625.639	97.5
625.846	93.5
626.053	94.5
626.259	91.5
626.466	86.5
626.673	81.5
626.879	86.5
627.086	91.5
627.293	92.5
627.499	66.5
627.706	84.5
627.912	96.5
628.119	79.5
628.325	89.5
628.532	79.5
628.738	105.5
628.945	97.5
629.151	91.5
629.357	92.5
629.564	87.5
629.77	78.5
629.976	72.5
630.183	91.5
630.389	91.5
630.595	82.5
630.802	80.5
631.008	89.5
631.214	92.5
631.42	89.5
631.627	103.5
631.833	96.5
632.039	91.5
632.245	91.5
632.451	95.5
632.657	79.5
632.863	95.5
633.069	88.5
633.275	82.5
633.481	85.5
633.688	81.5
633.893	82.5
634.099	89.5
634.305	81.5
634.511	96.5
634.717	102.5
634.923	82.5
635.129	80.5
635.335	112.5
635.541	106.5
635.747	91.5
635.952	99.5
636.158	190.5
636.364	588.5
636.57	500.5
636.775	178.5
636.981	115.5
637.187	102.5
637.392	106.5
637.598	84.5
637.804	88.5
638.009	97.5
638.215	98.5
638.421	92.5
638.626	85.5
638.832	86.5
639.037	96.5
639.243	82.5
639.448	89.5
639.654	88.5
639.859	85.5
640.065	97.5
640.27	106.5
640.475	86.5
640.681	83.5
640.886	97.5
641.091	106.5
641.297	78.5
641.502	82.5
641.707	97.5
641.913	95.5
642.118	94.5
642.323	79.5
642.528	89.5
642.733	94.5
642.939	87.5
643.144	93.5
643.349	87.5
643.554	93.5
643.759	85.5
643.964	94.5
644.169	85.5
644.374	79.5
644.579	85.5
644.784	88.5
644.989	85.5
645.194	90.5
645.399	104.5
645.604	91.5
645.809	88.5
646.014	87.5
646.219	79.5
646.423	88.5
646.628	88.5
646.833	81.5
647.038	90.5
647.243	91.5
647.447	83.5
647.652	88.5
647.857	96.5
648.062	88.5
648.266	88.5
648.471	91.5
648.676	97.5
648.88	101.5
649.085	80.5
649.289	77.5
649.494	122.5
649.698	156.5
649.903	114.5
650.107	104.5
650.312	102.5
650.516	90.5
650.721	94.5
650.925	73.5
651.13	73.5
651.334	81.5
651.539	93.5
651.743	80.5
651.947	78.5
652.152	85.5
652.356	84.5
652.56	83.5
652.764	81.5
652.969	86.5
653.173	78.5
653.377	87.5
653.581	82.5
653.785	83.5
653.99	90.5
654.194	80.5
654.398	84.5
654.602	88.5
654.806	100.5
655.01	118.5
655.214	96.5
655.418	96.5
655.622	79.5
655.826	114.5
656.03	93.5
656.234	93.5
656.438	99.5
656.642	100.5
656.846	100.5
657.049	84.5
657.253	95.5
657.457	94.5
657.661	101.5
657.865	80.5
658.068	89.5
658.272	102.5
658.476	78.5
658.68	67.5
658.883	83.5
659.087	84.5
659.291	93.5
659.494	92.5
659.698	88.5
659.901	72.5
660.105	96.5
660.309	91.5
660.512	82.5
660.716	90.5
660.919	79.5
661.123	84.5
661.326	88.5
661.53	90.5
661.733	103.5
661.936	71.5
662.14	97.5
662.343	97.5
662.546	95.5
662.75	91.5
662.953	88.5
663.156	81.5
663.36	95.5
663.563	75.5
663.766	69.5
663.969	92.5
664.173	81.5
664.376	81.5
664.579	89.5
664.782	88.5
664.985	77.5
665.188	85.5
665.391	85.5
665.594	89.5
665.797	106.5
666	68.5
666.203	93.5
666.406	90.5
666.609	86.5
666.812	97.5
667.015	91.5
667.218	89.5
667.421	74.5
667.624	87.5
667.827	84.5
668.03	80.5
668.232	74.5
668.435	91.5
668.638	75.5
668.841	81.5
669.043	89.5
669.246	85.5
669.449	91.5
669.651	84.5
669.854	86.5
670.057	92.5
670.259	83.5
670.462	85.5
670.665	84.5
670.867	85.5
671.07	82.5
671.272	85.5
671.475	87.5
671.677	73.5
671.88	92.5
672.082	87.5
672.284	69.5
672.487	80.5
672.689	79.5
672.892	81.5
