Data from Circ_1981_H10_HRD10591_00006.txt Node
Date: Wed Jan 03 12:34:22 EST 2024
User: Yrep
Spectrometer: HR+D1059
Trigger mode: 1
Integration Time (sec): 1.000000E-1
Scans to average: 1
Electric dark correction enabled: true
Nonlinearity correction enabled: false
Boxcar width: 0
XAxis mode: Wavelengths
Number of Pixels in Spectrum: 2048
>>>>>Begin Spectral Data<<<<<
223.165	-20.12
223.4	-20.12
223.635	-20.12
223.869	-14.12
224.104	-18.12
224.338	-11.12
224.573	-16.12
224.808	-5.12
225.042	-21.12
225.277	4.88
225.511	-4.12
225.746	4.88
225.98	-7.12
226.215	11.88
226.449	7.88
226.683	15.88
226.918	27.88
227.152	43.88
227.387	32.88
227.621	33.88
227.856	45.88
228.09	46.88
228.324	33.88
228.559	49.88
228.793	63.88
229.027	65.88
229.262	70.88
229.496	67.88
229.73	94.88
229.964	80.88
230.199	72.88
230.433	71.88
230.667	101.88
230.901	87.88
231.136	74.88
231.37	75.88
231.604	64.88
231.838	88.88
232.072	71.88
232.306	81.88
232.541	80.88
232.775	71.88
233.009	81.88
233.243	92.88
233.477	79.88
233.711	80.88
233.945	69.88
234.179	75.88
234.413	86.88
234.647	65.88
234.881	76.88
235.115	74.88
235.349	79.88
235.583	87.88
235.817	80.88
236.051	71.88
236.285	83.88
236.519	83.88
236.753	74.88
236.987	91.88
237.221	83.88
237.455	86.88
237.689	72.88
237.922	72.88
238.156	78.88
238.39	65.88
238.624	78.88
238.858	68.88
239.091	71.88
239.325	82.88
239.559	80.88
239.793	79.88
240.027	59.88
240.26	72.88
240.494	68.88
240.728	60.88
240.961	76.88
241.195	87.88
241.429	81.88
241.662	68.88
241.896	70.88
242.13	78.88
242.363	80.88
242.597	73.88
242.83	79.88
243.064	85.88
243.298	83.88
243.531	86.88
243.765	76.88
243.998	68.88
244.232	59.88
244.465	63.88
244.699	74.88
244.932	98.88
245.166	95.88
245.399	71.88
245.633	90.88
245.866	76.88
246.099	70.88
246.333	74.88
246.566	71.88
246.8	69.88
247.033	71.88
247.266	79.88
247.5	71.88
247.733	71.88
247.966	86.88
248.2	85.88
248.433	61.88
248.666	65.88
248.899	69.88
249.133	87.88
249.366	98.88
249.599	97.88
249.832	90.88
250.066	96.88
250.299	71.88
250.532	65.88
250.765	69.88
250.998	74.88
251.231	79.88
251.465	87.88
251.698	73.88
251.931	74.88
252.164	88.88
252.397	76.88
252.63	75.88
252.863	74.88
253.096	87.88
253.329	84.88
253.562	87.88
253.795	81.88
254.028	83.88
254.261	77.88
254.494	85.88
254.727	71.88
254.96	81.88
255.193	83.88
255.426	76.88
255.659	81.88
255.892	84.88
256.124	82.88
256.357	83.88
256.59	71.88
256.823	75.88
257.056	85.88
257.289	89.88
257.521	77.88
257.754	84.88
257.987	79.88
258.22	94.88
258.452	93.88
258.685	83.88
258.918	67.88
259.151	74.88
259.383	78.88
259.616	69.88
259.849	83.88
260.081	100.88
260.314	68.88
260.547	99.88
260.779	84.88
261.012	91.88
261.244	70.88
261.477	91.88
261.71	99.88
261.942	115.88
262.175	133.88
262.407	111.88
262.64	75.88
262.872	86.88
263.105	75.88
263.337	79.88
263.57	79.88
263.802	85.88
264.035	82.88
264.267	72.88
264.499	71.88
264.732	87.88
264.964	76.88
265.197	83.88
265.429	88.88
265.661	87.88
265.894	85.88
266.126	74.88
266.358	90.88
266.591	83.88
266.823	79.88
267.055	73.88
267.287	92.88
267.52	89.88
267.752	76.88
267.984	84.88
268.216	81.88
268.448	99.88
268.681	93.88
268.913	91.88
269.145	79.88
269.377	70.88
269.609	79.88
269.841	75.88
270.073	75.88
270.306	81.88
270.538	87.88
270.77	84.88
271.002	72.88
271.234	82.88
271.466	93.88
271.698	81.88
271.93	71.88
272.162	100.88
272.394	87.88
272.626	88.88
272.858	88.88
273.09	87.88
273.322	92.88
273.553	76.88
273.785	79.88
274.017	86.88
274.249	82.88
274.481	92.88
274.713	90.88
274.945	89.88
275.176	93.88
275.408	71.88
275.64	95.88
275.872	64.88
276.104	105.88
276.335	88.88
276.567	99.88
276.799	125.88
277.031	103.88
277.262	88.88
277.494	83.88
277.726	78.88
277.957	79.88
278.189	71.88
278.421	86.88
278.652	73.88
278.884	91.88
279.115	87.88
279.347	85.88
279.579	79.88
279.81	90.88
280.042	102.88
280.273	75.88
280.505	85.88
280.736	73.88
280.968	81.88
281.199	83.88
281.431	90.88
281.662	99.88
281.894	89.88
282.125	99.88
282.356	112.88
282.588	146.88
282.819	102.88
283.051	93.88
283.282	84.88
283.513	89.88
283.745	75.88
283.976	91.88
284.207	83.88
284.439	91.88
284.67	89.88
284.901	91.88
285.132	84.88
285.364	90.88
285.595	72.88
285.826	83.88
286.057	85.88
286.288	89.88
286.52	89.88
286.751	85.88
286.982	90.88
287.213	91.88
287.444	76.88
287.675	77.88
287.906	96.88
288.138	95.88
288.369	92.88
288.6	100.88
288.831	93.88
289.062	81.88
289.293	93.88
289.524	88.88
289.755	87.88
289.986	85.88
290.217	82.88
290.448	93.88
290.679	90.88
290.91	95.88
291.141	95.88
291.371	113.88
291.602	91.88
291.833	93.88
292.064	94.88
292.295	74.88
292.526	66.88
292.757	77.88
292.987	79.88
293.218	75.88
293.449	94.88
293.68	97.88
293.91	89.88
294.141	91.88
294.372	78.88
294.603	79.88
294.833	81.88
295.064	80.88
295.295	80.88
295.525	91.88
295.756	85.88
295.987	104.88
296.217	164.88
296.448	123.88
296.679	87.88
296.909	86.88
297.14	85.88
297.37	87.88
297.601	100.88
297.831	93.88
298.062	96.88
298.292	86.88
298.523	85.88
298.753	78.88
298.984	98.88
299.214	97.88
299.445	87.88
299.675	86.88
299.905	101.88
300.136	91.88
300.366	75.88
300.597	94.88
300.827	81.88
301.057	103.88
301.288	111.88
301.518	95.88
301.748	97.88
301.979	115.88
302.209	101.88
302.439	92.88
302.669	93.88
302.9	86.88
303.13	90.88
303.36	83.88
303.59	108.88
303.82	104.88
304.051	93.88
304.281	99.88
304.511	100.88
304.741	75.88
304.971	106.88
305.201	86.88
305.431	92.88
305.661	102.88
305.891	87.88
306.121	101.88
306.352	113.88
306.582	103.88
306.812	86.88
307.042	90.88
307.272	102.88
307.502	97.88
307.731	107.88
307.961	81.88
308.191	97.88
308.421	81.88
308.651	103.88
308.881	81.88
309.111	106.88
309.341	102.88
309.571	98.88
309.8	94.88
310.03	95.88
310.26	96.88
310.49	102.88
310.72	113.88
310.949	109.88
311.179	112.88
311.409	92.88
311.639	91.88
311.868	105.88
312.098	71.88
312.328	100.88
312.557	101.88
312.787	112.88
313.017	108.88
313.246	101.88
313.476	97.88
313.706	79.88
313.935	96.88
314.165	105.88
314.394	98.88
314.624	100.88
314.853	81.88
315.083	101.88
315.312	85.88
315.542	88.88
315.771	88.88
316.001	107.88
316.23	85.88
316.46	94.88
316.689	88.88
316.919	90.88
317.148	97.88
317.377	116.88
317.607	98.88
317.836	92.88
318.065	98.88
318.295	89.88
318.524	89.88
318.753	87.88
318.983	106.88
319.212	101.88
319.441	132.88
319.67	106.88
319.9	95.88
320.129	102.88
320.358	84.88
320.587	88.88
320.816	91.88
321.046	97.88
321.275	101.88
321.504	104.88
321.733	99.88
321.962	91.88
322.191	103.88
322.42	105.88
322.649	122.88
322.878	114.88
323.108	117.88
323.337	123.88
323.566	152.88
323.795	165.88
324.024	241.88
324.253	481.88
324.482	1007.88
324.71	2057.88
324.939	2795.88
325.168	1009.88
325.397	283.88
325.626	167.88
325.855	152.88
326.084	122.88
326.313	140.88
326.542	151.88
326.77	253.88
326.999	533.88
327.228	1108.88
327.457	2096.88
327.686	1639.88
327.914	440.88
328.143	211.88
328.372	155.88
328.6	149.88
328.829	145.88
329.058	157.88
329.287	138.88
329.515	116.88
329.744	99.88
329.972	122.88
330.201	128.88
330.43	161.88
330.658	150.88
330.887	159.88
331.115	157.88
331.344	111.88
331.572	99.88
331.801	122.88
332.03	110.88
332.258	87.88
332.486	104.88
332.715	105.88
332.943	84.88
333.172	93.88
333.4	88.88
333.629	98.88
333.857	117.88
334.085	108.88
334.314	124.88
334.542	142.88
334.771	135.88
334.999	105.88
335.227	99.88
335.455	96.88
335.684	91.88
335.912	91.88
336.14	93.88
336.369	97.88
336.597	95.88
336.825	102.88
337.053	97.88
337.281	85.88
337.51	100.88
337.738	92.88
337.966	103.88
338.194	95.88
338.422	93.88
338.65	97.88
338.878	99.88
339.106	94.88
339.334	87.88
339.562	87.88
339.79	99.88
340.018	83.88
340.246	85.88
340.474	107.88
340.702	87.88
340.93	109.88
341.158	100.88
341.386	94.88
341.614	89.88
341.842	92.88
342.07	85.88
342.298	96.88
342.526	93.88
342.754	95.88
342.981	85.88
343.209	92.88
343.437	85.88
343.665	94.88
343.893	85.88
344.12	95.88
344.348	93.88
344.576	75.88
344.804	105.88
345.031	101.88
345.259	98.88
345.487	104.88
345.714	98.88
345.942	87.88
346.17	88.88
346.397	71.88
346.625	109.88
346.853	83.88
347.08	109.88
347.308	96.88
347.535	109.88
347.763	107.88
347.99	94.88
348.218	97.88
348.445	100.88
348.673	112.88
348.9	101.88
349.128	87.88
349.355	96.88
349.583	81.88
349.81	99.88
350.037	95.88
350.265	100.88
350.492	92.88
350.72	96.88
350.947	101.88
351.174	111.88
351.402	108.88
351.629	106.88
351.856	94.88
352.083	115.88
352.311	122.88
352.538	125.88
352.765	107.88
352.992	117.88
353.22	112.88
353.447	115.88
353.674	95.88
353.901	114.88
354.128	104.88
354.355	101.88
354.583	99.88
354.81	109.88
355.037	106.88
355.264	104.88
355.491	100.88
355.718	84.88
355.945	92.88
356.172	89.88
356.399	80.88
356.626	97.88
356.853	76.88
357.08	83.88
357.307	104.88
357.534	94.88
357.761	85.88
357.988	86.88
358.215	101.88
358.441	69.88
358.668	105.88
358.895	119.88
359.122	92.88
359.349	106.88
359.576	108.88
359.802	114.88
360.029	120.88
360.256	122.88
360.483	109.88
360.709	84.88
360.936	92.88
361.163	100.88
361.39	91.88
361.616	90.88
361.843	100.88
362.07	87.88
362.296	87.88
362.523	110.88
362.749	89.88
362.976	98.88
363.203	88.88
363.429	92.88
363.656	110.88
363.882	95.88
364.109	89.88
364.335	102.88
364.562	91.88
364.788	99.88
365.015	99.88
365.241	107.88
365.468	114.88
365.694	117.88
365.92	106.88
366.147	95.88
366.373	91.88
366.599	72.88
366.826	89.88
367.052	79.88
367.278	76.88
367.505	88.88
367.731	105.88
367.957	91.88
368.184	93.88
368.41	98.88
368.636	114.88
368.862	138.88
369.089	108.88
369.315	101.88
369.541	95.88
369.767	90.88
369.993	85.88
370.219	87.88
370.445	79.88
370.672	84.88
370.898	76.88
371.124	69.88
371.35	107.88
371.576	89.88
371.802	86.88
372.028	72.88
372.254	89.88
372.48	90.88
372.706	83.88
372.932	75.88
373.158	95.88
373.384	97.88
373.61	94.88
373.835	96.88
374.061	94.88
374.287	100.88
374.513	94.88
374.739	84.88
374.965	106.88
375.191	88.88
375.416	88.88
375.642	95.88
375.868	111.88
376.094	102.88
376.319	96.88
376.545	95.88
376.771	98.88
376.997	91.88
377.222	101.88
377.448	92.88
377.674	81.88
377.899	83.88
378.125	85.88
378.35	76.88
378.576	87.88
378.802	99.88
379.027	87.88
379.253	90.88
379.478	88.88
379.704	85.88
379.929	87.88
380.155	99.88
380.38	106.88
380.606	92.88
380.831	90.88
381.057	99.88
381.282	103.88
381.507	96.88
381.733	100.88
381.958	108.88
382.184	95.88
382.409	87.88
382.634	107.88
382.86	92.88
383.085	95.88
383.31	111.88
383.535	112.88
383.761	90.88
383.986	101.88
384.211	107.88
384.436	119.88
384.662	101.88
384.887	106.88
385.112	100.88
385.337	110.88
385.562	108.88
385.787	135.88
386.013	108.88
386.238	119.88
386.463	101.88
386.688	116.88
386.913	113.88
387.138	113.88
387.363	118.88
387.588	105.88
387.813	115.88
388.038	115.88
388.263	116.88
388.488	121.88
388.713	89.88
388.938	90.88
389.163	93.88
389.387	107.88
389.612	100.88
389.837	84.88
390.062	89.88
390.287	95.88
390.512	81.88
390.736	91.88
390.961	103.88
391.186	84.88
391.411	99.88
391.636	95.88
391.86	89.88
392.085	85.88
392.31	88.88
392.534	87.88
392.759	91.88
392.984	99.88
393.208	98.88
393.433	116.88
393.658	115.88
393.882	84.88
394.107	89.88
394.331	92.88
394.556	90.88
394.78	88.88
395.005	95.88
395.229	94.88
395.454	88.88
395.678	74.88
395.903	91.88
396.127	101.88
396.352	99.88
396.576	86.88
396.801	98.88
397.025	109.88
397.249	103.88
397.474	89.88
397.698	80.88
397.922	77.88
398.147	75.88
398.371	76.88
398.595	83.88
398.82	75.88
399.044	91.88
399.268	72.88
399.492	71.88
399.717	90.88
399.941	85.88
400.165	94.88
400.389	83.88
400.613	93.88
400.837	83.88
401.062	79.88
401.286	99.88
401.51	83.88
401.734	92.88
401.958	96.88
402.182	137.88
402.406	168.88
402.63	138.88
402.854	89.88
403.078	90.88
403.302	77.88
403.526	85.88
403.75	82.88
403.974	94.88
404.198	83.88
404.422	106.88
404.645	86.88
404.869	92.88
405.093	113.88
405.317	104.88
405.541	96.88
405.765	106.88
405.988	111.88
406.212	183.88
406.436	266.88
406.66	168.88
406.883	111.88
407.107	107.88
407.331	107.88
407.555	105.88
407.778	100.88
408.002	90.88
408.226	92.88
408.449	90.88
408.673	93.88
408.896	97.88
409.12	100.88
409.344	87.88
409.567	83.88
409.791	83.88
410.014	87.88
410.238	85.88
410.461	81.88
410.685	99.88
410.908	88.88
411.132	105.88
411.355	90.88
411.578	89.88
411.802	91.88
412.025	77.88
412.249	91.88
412.472	87.88
412.695	97.88
412.919	89.88
413.142	97.88
413.365	95.88
413.589	81.88
413.812	80.88
414.035	84.88
414.258	90.88
414.482	83.88
414.705	92.88
414.928	100.88
415.151	92.88
415.374	105.88
415.597	108.88
415.821	99.88
416.044	84.88
416.267	81.88
416.49	96.88
416.713	84.88
416.936	93.88
417.159	94.88
417.382	85.88
417.605	77.88
417.828	106.88
418.051	95.88
418.274	92.88
418.497	87.88
418.72	92.88
418.943	81.88
419.166	96.88
419.389	93.88
419.611	92.88
419.834	84.88
420.057	82.88
420.28	73.88
420.503	90.88
420.726	100.88
420.948	96.88
421.171	95.88
421.394	91.88
421.617	77.88
421.839	77.88
422.062	113.88
422.285	102.88
422.507	91.88
422.73	132.88
422.953	111.88
423.175	111.88
423.398	101.88
423.621	104.88
423.843	75.88
424.066	91.88
424.288	89.88
424.511	95.88
424.733	91.88
424.956	104.88
425.178	101.88
425.401	92.88
425.623	112.88
425.846	91.88
426.068	100.88
426.291	91.88
426.513	85.88
426.735	97.88
426.958	100.88
427.18	96.88
427.402	159.88
427.625	206.88
427.847	157.88
428.069	113.88
428.292	99.88
428.514	98.88
428.736	97.88
428.958	84.88
429.181	91.88
429.403	68.88
429.625	85.88
429.847	103.88
430.069	98.88
430.292	95.88
430.514	87.88
430.736	81.88
430.958	89.88
431.18	72.88
431.402	80.88
431.624	87.88
431.846	90.88
432.068	84.88
432.29	90.88
432.512	102.88
432.734	92.88
432.956	85.88
433.178	100.88
433.4	108.88
433.622	84.88
433.844	95.88
434.066	87.88
434.287	86.88
434.509	93.88
434.731	96.88
434.953	83.88
435.175	86.88
435.397	84.88
435.618	83.88
435.84	106.88
436.062	147.88
436.284	134.88
436.505	109.88
436.727	99.88
436.949	107.88
437.17	96.88
437.392	90.88
437.614	93.88
437.835	113.88
438.057	132.88
438.278	143.88
438.5	115.88
438.721	144.88
438.943	110.88
439.165	93.88
439.386	89.88
439.608	83.88
439.829	103.88
440.05	128.88
440.272	170.88
440.493	99.88
440.715	82.88
440.936	79.88
441.158	83.88
441.379	92.88
441.6	93.88
441.822	98.88
442.043	90.88
442.264	114.88
442.486	106.88
442.707	97.88
442.928	128.88
443.149	151.88
443.371	121.88
443.592	119.88
443.813	131.88
444.034	110.88
444.255	84.88
444.476	96.88
444.698	83.88
444.919	89.88
445.14	137.88
445.361	128.88
445.582	123.88
445.803	165.88
446.024	152.88
446.245	157.88
446.466	115.88
446.687	102.88
446.908	99.88
447.129	91.88
447.35	80.88
447.571	88.88
447.792	84.88
448.013	104.88
448.234	97.88
448.455	113.88
448.675	138.88
448.896	151.88
449.117	112.88
449.338	117.88
449.559	137.88
449.779	168.88
450	90.88
450.221	85.88
450.442	91.88
450.662	105.88
450.883	114.88
451.104	113.88
451.324	88.88
451.545	99.88
451.766	91.88
451.986	89.88
452.207	89.88
452.428	91.88
452.648	101.88
452.869	118.88
453.089	113.88
453.31	124.88
453.53	92.88
453.751	100.88
453.971	113.88
454.192	108.88
454.412	90.88
454.633	96.88
454.853	72.88
455.073	75.88
455.294	99.88
455.514	103.88
455.734	92.88
455.955	82.88
456.175	103.88
456.395	88.88
456.616	89.88
456.836	87.88
457.056	95.88
457.276	79.88
457.497	74.88
457.717	95.88
457.937	81.88
458.157	91.88
458.377	97.88
458.598	119.88
458.818	170.88
459.038	202.88
459.258	138.88
459.478	97.88
459.698	74.88
459.918	81.88
460.138	95.88
460.358	94.88
460.578	84.88
460.798	76.88
461.018	87.88
461.238	74.88
461.458	78.88
461.678	77.88
461.898	85.88
462.118	71.88
462.338	79.88
462.558	99.88
462.777	75.88
462.997	89.88
463.217	81.88
463.437	86.88
463.657	76.88
463.876	98.88
464.096	95.88
464.316	86.88
464.536	95.88
464.755	91.88
464.975	106.88
465.195	199.88
465.414	179.88
465.634	116.88
465.854	84.88
466.073	82.88
466.293	81.88
466.512	85.88
466.732	106.88
466.951	103.88
467.171	89.88
467.391	76.88
467.61	98.88
467.829	97.88
468.049	85.88
468.268	112.88
468.488	74.88
468.707	86.88
468.927	92.88
469.146	83.88
469.365	86.88
469.585	92.88
469.804	80.88
470.023	96.88
470.243	99.88
470.462	104.88
470.681	114.88
470.901	73.88
471.12	98.88
471.339	91.88
471.558	93.88
471.777	94.88
471.997	110.88
472.216	106.88
472.435	157.88
472.654	102.88
472.873	82.88
473.092	86.88
473.311	90.88
473.53	87.88
473.749	92.88
473.968	91.88
474.187	120.88
474.406	89.88
474.625	72.88
474.844	85.88
475.063	67.88
475.282	88.88
475.501	87.88
475.72	91.88
475.939	89.88
476.158	100.88
476.377	90.88
476.596	79.88
476.814	102.88
477.033	104.88
477.252	89.88
477.471	81.88
477.69	95.88
477.908	73.88
478.127	77.88
478.346	94.88
478.564	74.88
478.783	93.88
479.002	88.88
479.22	99.88
479.439	112.88
479.658	104.88
479.876	106.88
480.095	97.88
480.313	92.88
480.532	92.88
480.751	96.88
480.969	109.88
481.188	234.88
481.406	176.88
481.624	103.88
481.843	85.88
482.061	89.88
482.28	92.88
482.498	84.88
482.717	91.88
482.935	98.88
483.153	90.88
483.372	82.88
483.59	73.88
483.808	91.88
484.027	86.88
484.245	93.88
484.463	90.88
484.681	95.88
484.9	91.88
485.118	78.88
485.336	95.88
485.554	91.88
485.772	98.88
485.99	92.88
486.209	116.88
486.427	100.88
486.645	114.88
486.863	115.88
487.081	107.88
487.299	105.88
487.517	95.88
487.735	72.88
487.953	91.88
488.171	91.88
488.389	88.88
488.607	102.88
488.825	97.88
489.043	96.88
489.261	95.88
489.479	91.88
489.696	90.88
489.914	88.88
490.132	95.88
490.35	91.88
490.568	82.88
490.786	91.88
491.003	95.88
491.221	92.88
491.439	82.88
491.657	86.88
491.874	85.88
492.092	91.88
492.31	78.88
492.527	88.88
492.745	79.88
492.963	87.88
493.18	76.88
493.398	89.88
493.615	90.88
493.833	88.88
494.05	86.88
494.268	76.88
494.485	96.88
494.703	81.88
494.92	112.88
495.138	89.88
495.355	87.88
495.573	83.88
495.79	77.88
496.008	84.88
496.225	90.88
496.442	96.88
496.66	97.88
496.877	98.88
497.094	87.88
497.312	83.88
497.529	73.88
497.746	101.88
497.963	90.88
498.181	84.88
498.398	95.88
498.615	116.88
498.832	107.88
499.049	94.88
499.267	88.88
499.484	90.88
499.701	83.88
499.918	95.88
500.135	82.88
500.352	79.88
500.569	86.88
500.786	97.88
501.003	93.88
501.22	85.88
501.437	99.88
501.654	90.88
501.871	107.88
502.088	96.88
502.305	91.88
502.522	83.88
502.739	81.88
502.956	75.88
503.172	91.88
503.389	98.88
503.606	116.88
503.823	101.88
504.04	83.88
504.256	89.88
504.473	87.88
504.69	84.88
504.907	95.88
505.123	99.88
505.34	80.88
505.557	95.88
505.773	90.88
505.99	97.88
506.207	81.88
506.423	93.88
506.64	97.88
506.856	90.88
507.073	89.88
507.289	86.88
507.506	88.88
507.722	107.88
507.939	124.88
508.155	92.88
508.372	92.88
508.588	108.88
508.805	108.88
509.021	89.88
509.238	95.88
509.454	93.88
509.67	91.88
509.887	113.88
510.103	126.88
510.319	213.88
510.536	795.88
510.752	2509.88
510.968	675.88
511.184	147.88
511.401	117.88
511.617	102.88
511.833	90.88
512.049	95.88
512.265	83.88
512.481	92.88
512.698	94.88
512.914	107.88
513.13	98.88
513.346	101.88
513.562	79.88
513.778	88.88
513.994	103.88
514.21	99.88
514.426	131.88
514.642	151.88
514.858	130.88
515.074	193.88
515.29	556.88
515.506	1911.88
515.721	665.88
515.937	173.88
516.153	115.88
516.369	98.88
516.585	105.88
516.801	87.88
517.016	79.88
517.232	94.88
517.448	86.88
517.664	75.88
517.879	83.88
518.095	95.88
518.311	92.88
518.527	78.88
518.742	81.88
518.958	83.88
519.173	100.88
519.389	109.88
519.605	98.88
519.82	103.88
520.036	102.88
520.251	142.88
520.467	120.88
520.682	109.88
520.898	116.88
521.113	118.88
521.329	159.88
521.544	256.88
521.76	718.88
521.975	3205.88
522.19	1865.88
522.406	398.88
522.621	131.88
522.836	99.88
523.052	98.88
523.267	89.88
523.482	84.88
523.698	119.88
523.913	133.88
524.128	106.88
524.343	111.88
524.559	91.88
524.774	76.88
524.989	96.88
525.204	104.88
525.419	101.88
525.634	104.88
525.849	83.88
526.064	90.88
526.28	79.88
526.495	88.88
526.71	90.88
526.925	96.88
527.14	93.88
527.355	75.88
527.57	88.88
527.785	88.88
527.999	97.88
528.214	96.88
528.429	92.88
528.644	99.88
528.859	94.88
529.074	106.88
529.289	134.88
529.503	220.88
529.718	115.88
529.933	95.88
530.148	89.88
530.363	92.88
530.577	88.88
530.792	80.88
531.007	87.88
531.221	95.88
531.436	82.88
531.651	81.88
531.865	79.88
532.08	84.88
532.295	94.88
532.509	83.88
532.724	81.88
532.938	79.88
533.153	89.88
533.367	77.88
533.582	89.88
533.796	99.88
534.011	92.88
534.225	99.88
534.44	84.88
534.654	98.88
534.868	103.88
535.083	87.88
535.297	74.88
535.511	103.88
535.726	109.88
535.94	97.88
536.154	88.88
536.369	103.88
536.583	98.88
536.797	89.88
537.011	89.88
537.225	81.88
537.44	87.88
537.654	89.88
537.868	83.88
538.082	95.88
538.296	83.88
538.51	81.88
538.724	88.88
538.938	99.88
539.153	99.88
539.367	118.88
539.581	89.88
539.795	80.88
540.009	81.88
540.222	87.88
540.436	89.88
540.65	75.88
540.864	91.88
541.078	104.88
541.292	92.88
541.506	101.88
541.72	101.88
541.934	79.88
542.147	103.88
542.361	85.88
542.575	86.88
542.789	87.88
543.002	84.88
543.216	106.88
543.43	108.88
543.644	105.88
543.857	82.88
544.071	89.88
544.285	93.88
544.498	87.88
544.712	89.88
544.925	93.88
545.139	77.88
545.352	76.88
545.566	81.88
545.779	85.88
545.993	95.88
546.206	90.88
546.42	96.88
546.633	75.88
546.847	77.88
547.06	92.88
547.274	82.88
547.487	78.88
547.7	69.88
547.914	87.88
548.127	92.88
548.34	84.88
548.554	77.88
548.767	85.88
548.98	81.88
549.193	92.88
549.407	92.88
549.62	79.88
549.833	85.88
550.046	98.88
550.259	100.88
550.473	97.88
550.686	92.88
550.899	83.88
551.112	91.88
551.325	92.88
551.538	90.88
551.751	83.88
551.964	84.88
552.177	83.88
552.39	87.88
552.603	80.88
552.816	84.88
553.029	105.88
553.242	85.88
553.455	88.88
553.667	104.88
553.88	102.88
554.093	93.88
554.306	88.88
554.519	100.88
554.732	80.88
554.944	98.88
555.157	79.88
555.37	96.88
555.583	87.88
555.795	92.88
556.008	74.88
556.221	95.88
556.433	90.88
556.646	95.88
556.859	87.88
557.071	89.88
557.284	84.88
557.496	79.88
557.709	78.88
557.921	91.88
558.134	76.88
558.346	80.88
558.559	86.88
558.771	86.88
558.984	82.88
559.196	91.88
559.409	83.88
559.621	71.88
559.833	100.88
560.046	83.88
560.258	81.88
560.47	79.88
560.683	90.88
560.895	81.88
561.107	92.88
561.32	97.88
561.532	89.88
561.744	99.88
561.956	99.88
562.168	99.88
562.381	88.88
562.593	100.88
562.805	67.88
563.017	84.88
563.229	98.88
563.441	96.88
563.653	92.88
563.865	88.88
564.077	67.88
564.289	91.88
564.501	77.88
564.713	79.88
564.925	88.88
565.137	95.88
565.349	94.88
565.561	86.88
565.773	95.88
565.985	83.88
566.197	97.88
566.408	85.88
566.62	84.88
566.832	78.88
567.044	99.88
567.255	92.88
567.467	96.88
567.679	83.88
567.891	76.88
568.102	80.88
568.314	78.88
568.526	90.88
568.737	89.88
568.949	89.88
569.161	83.88
569.372	92.88
569.584	85.88
569.795	102.88
570.007	122.88
570.218	262.88
570.43	122.88
570.641	81.88
570.853	81.88
571.064	84.88
571.276	79.88
571.487	76.88
571.698	95.88
571.91	78.88
572.121	77.88
572.333	96.88
572.544	90.88
572.755	89.88
572.966	85.88
573.178	81.88
573.389	80.88
573.6	74.88
573.811	95.88
574.023	83.88
574.234	101.88
574.445	97.88
574.656	88.88
574.867	79.88
575.078	83.88
575.289	79.88
575.501	84.88
575.712	91.88
575.923	90.88
576.134	88.88
576.345	98.88
576.556	96.88
576.767	75.88
576.978	77.88
577.188	79.88
577.399	85.88
577.61	86.88
577.821	95.88
578.032	130.88
578.243	295.88
578.454	799.88
578.665	226.88
578.875	110.88
579.086	87.88
579.297	73.88
579.508	89.88
579.718	98.88
579.929	100.88
580.14	88.88
580.35	87.88
580.561	91.88
580.772	81.88
580.982	79.88
581.193	76.88
581.403	83.88
581.614	86.88
581.825	91.88
582.035	91.88
582.246	91.88
582.456	90.88
582.667	93.88
582.877	92.88
583.087	83.88
583.298	85.88
583.508	80.88
583.719	86.88
583.929	87.88
584.139	83.88
584.35	89.88
584.56	85.88
584.77	86.88
584.981	89.88
585.191	97.88
585.401	85.88
585.611	90.88
585.821	87.88
586.032	87.88
586.242	84.88
586.452	94.88
586.662	72.88
586.872	94.88
587.082	71.88
587.292	87.88
587.502	83.88
587.713	74.88
587.923	69.88
588.133	98.88
588.343	74.88
588.553	79.88
588.762	95.88
588.972	109.88
589.182	207.88
589.392	131.88
589.602	117.88
589.812	159.88
590.022	111.88
590.232	69.88
590.441	91.88
590.651	77.88
590.861	76.88
591.071	74.88
591.281	80.88
591.49	98.88
591.7	96.88
591.91	93.88
592.119	93.88
592.329	88.88
592.539	98.88
592.748	93.88
592.958	85.88
593.167	87.88
593.377	91.88
593.587	86.88
593.796	83.88
594.006	90.88
594.215	81.88
594.424	94.88
594.634	98.88
594.843	65.88
595.053	89.88
595.262	103.88
595.472	84.88
595.681	76.88
595.89	97.88
596.1	93.88
596.309	81.88
596.518	89.88
596.727	85.88
596.937	89.88
597.146	88.88
597.355	100.88
597.564	79.88
597.774	82.88
597.983	95.88
598.192	93.88
598.401	81.88
598.61	80.88
598.819	83.88
599.028	72.88
599.237	82.88
599.446	89.88
599.655	84.88
599.864	81.88
600.073	82.88
600.282	104.88
600.491	91.88
600.7	89.88
600.909	83.88
601.118	82.88
601.327	81.88
601.536	79.88
601.745	96.88
601.953	83.88
602.162	78.88
602.371	85.88
602.58	84.88
602.789	83.88
602.997	98.88
603.206	88.88
603.415	79.88
603.623	77.88
603.832	98.88
604.041	80.88
604.249	92.88
604.458	90.88
604.666	89.88
604.875	84.88
605.084	79.88
605.292	83.88
605.501	85.88
605.709	83.88
605.918	89.88
606.126	83.88
606.334	73.88
606.543	91.88
606.751	81.88
606.96	75.88
607.168	90.88
607.376	79.88
607.585	90.88
607.793	80.88
608.001	80.88
608.21	80.88
608.418	81.88
608.626	82.88
608.834	75.88
609.043	88.88
609.251	84.88
609.459	93.88
609.667	84.88
609.875	83.88
610.083	61.88
610.291	75.88
610.499	79.88
610.707	87.88
610.916	74.88
611.124	87.88
611.332	83.88
611.54	83.88
611.748	74.88
611.955	79.88
612.163	88.88
612.371	83.88
612.579	71.88
612.787	89.88
612.995	91.88
613.203	97.88
613.411	87.88
613.618	77.88
613.826	87.88
614.034	83.88
614.242	95.88
614.449	68.88
614.657	100.88
614.865	100.88
615.072	87.88
615.28	86.88
615.488	91.88
615.695	104.88
615.903	108.88
616.111	101.88
616.318	83.88
616.526	86.88
616.733	80.88
616.941	73.88
617.148	98.88
617.356	86.88
617.563	85.88
617.771	88.88
617.978	99.88
618.185	83.88
618.393	79.88
618.6	90.88
618.807	88.88
619.015	88.88
619.222	71.88
619.429	89.88
619.637	78.88
619.844	92.88
620.051	87.88
620.258	86.88
620.466	99.88
620.673	74.88
620.88	74.88
621.087	91.88
621.294	75.88
621.501	73.88
621.708	89.88
621.915	79.88
622.122	85.88
622.329	90.88
622.536	84.88
622.743	101.88
622.95	83.88
623.157	86.88
623.364	79.88
623.571	81.88
623.778	83.88
623.985	93.88
624.192	69.88
624.399	89.88
624.606	79.88
624.812	76.88
625.019	83.88
625.226	90.88
625.433	84.88
625.639	76.88
625.846	85.88
626.053	83.88
626.259	80.88
626.466	90.88
626.673	88.88
626.879	83.88
627.086	93.88
627.293	87.88
627.499	87.88
627.706	94.88
627.912	99.88
628.119	90.88
628.325	89.88
628.532	77.88
628.738	93.88
628.945	82.88
629.151	86.88
629.357	73.88
629.564	85.88
629.77	90.88
629.976	76.88
630.183	79.88
630.389	84.88
630.595	90.88
630.802	80.88
631.008	79.88
631.214	83.88
631.42	71.88
631.627	87.88
631.833	81.88
632.039	75.88
632.245	89.88
632.451	71.88
632.657	89.88
632.863	96.88
633.069	84.88
633.275	93.88
633.481	90.88
633.688	76.88
633.893	94.88
634.099	81.88
634.305	77.88
634.511	84.88
634.717	94.88
634.923	87.88
635.129	84.88
635.335	77.88
635.541	87.88
635.747	76.88
635.952	83.88
636.158	80.88
636.364	93.88
636.57	88.88
636.775	90.88
636.981	85.88
637.187	71.88
637.392	74.88
637.598	82.88
637.804	75.88
638.009	85.88
638.215	83.88
638.421	88.88
638.626	89.88
638.832	86.88
639.037	76.88
639.243	84.88
639.448	94.88
639.654	94.88
639.859	76.88
640.065	81.88
640.27	83.88
640.475	75.88
640.681	88.88
640.886	83.88
641.091	91.88
641.297	67.88
641.502	85.88
641.707	86.88
641.913	74.88
642.118	83.88
642.323	63.88
642.528	81.88
642.733	81.88
642.939	85.88
643.144	71.88
643.349	86.88
643.554	95.88
643.759	86.88
643.964	96.88
644.169	85.88
644.374	96.88
644.579	83.88
644.784	79.88
644.989	81.88
645.194	80.88
645.399	84.88
645.604	96.88
645.809	89.88
646.014	83.88
646.219	77.88
646.423	81.88
646.628	92.88
646.833	98.88
647.038	88.88
647.243	75.88
647.447	87.88
647.652	96.88
647.857	85.88
648.062	75.88
648.266	83.88
648.471	94.88
648.676	85.88
648.88	66.88
649.085	73.88
649.289	89.88
649.494	105.88
649.698	129.88
649.903	99.88
650.107	93.88
650.312	97.88
650.516	80.88
650.721	89.88
650.925	72.88
651.13	83.88
651.334	88.88
651.539	83.88
651.743	91.88
651.947	95.88
652.152	85.88
652.356	76.88
652.56	82.88
652.764	69.88
652.969	70.88
653.173	96.88
653.377	87.88
653.581	95.88
653.785	73.88
653.99	83.88
654.194	69.88
654.398	101.88
654.602	75.88
654.806	87.88
655.01	105.88
655.214	87.88
655.418	84.88
655.622	81.88
655.826	81.88
656.03	72.88
656.234	77.88
656.438	95.88
656.642	91.88
656.846	95.88
657.049	75.88
657.253	82.88
657.457	73.88
657.661	89.88
657.865	86.88
658.068	81.88
658.272	72.88
658.476	91.88
658.68	71.88
658.883	79.88
659.087	71.88
659.291	77.88
659.494	85.88
659.698	79.88
659.901	72.88
660.105	79.88
660.309	67.88
660.512	90.88
660.716	77.88
660.919	85.88
661.123	74.88
661.326	73.88
661.53	75.88
661.733	90.88
661.936	94.88
662.14	88.88
662.343	72.88
662.546	89.88
662.75	82.88
662.953	97.88
663.156	92.88
663.36	76.88
663.563	86.88
663.766	83.88
663.969	68.88
664.173	75.88
664.376	79.88
664.579	76.88
664.782	75.88
664.985	63.88
665.188	79.88
665.391	70.88
665.594	81.88
665.797	63.88
666	70.88
666.203	76.88
666.406	74.88
666.609	72.88
666.812	80.88
667.015	83.88
667.218	91.88
667.421	89.88
667.624	79.88
667.827	79.88
668.03	85.88
668.232	73.88
668.435	75.88
668.638	87.88
668.841	71.88
669.043	87.88
669.246	89.88
669.449	70.88
669.651	72.88
669.854	86.88
670.057	75.88
670.259	80.88
670.462	90.88
670.665	81.88
670.867	68.88
671.07	86.88
671.272	68.88
671.475	85.88
671.677	94.88
671.88	83.88
672.082	71.88
672.284	86.88
672.487	73.88
672.689	91.88
672.892	88.88
