Data from Circ_1981_H10_HRD10591_00092.txt Node
Date: Wed Jan 03 12:34:39 EST 2024
User: Yrep
Spectrometer: HR+D1059
Trigger mode: 1
Integration Time (sec): 1.000000E-1
Scans to average: 1
Electric dark correction enabled: true
Nonlinearity correction enabled: false
Boxcar width: 0
XAxis mode: Wavelengths
Number of Pixels in Spectrum: 2048
>>>>>Begin Spectral Data<<<<<
223.165	-12.69
223.4	-12.69
223.635	-12.69
223.869	-19.69
224.104	-32.69
224.338	-24.69
224.573	-8.69
224.808	-6.69
225.042	-10.69
225.277	5.31
225.511	-10.69
225.746	9.31
225.98	18.31
226.215	18.31
226.449	-0.69
226.683	26.31
226.918	16.31
227.152	33.31
227.387	38.31
227.621	19.31
227.856	35.31
228.09	30.31
228.324	44.31
228.559	60.31
228.793	52.31
229.027	67.31
229.262	50.31
229.496	82.31
229.73	92.31
229.964	77.31
230.199	64.31
230.433	70.31
230.667	64.31
230.901	78.31
231.136	78.31
231.37	76.31
231.604	76.31
231.838	82.31
232.072	72.31
232.306	80.31
232.541	73.31
232.775	90.31
233.009	80.31
233.243	73.31
233.477	72.31
233.711	84.31
233.945	77.31
234.179	75.31
234.413	80.31
234.647	78.31
234.881	75.31
235.115	74.31
235.349	72.31
235.583	78.31
235.817	82.31
236.051	66.31
236.285	65.31
236.519	55.31
236.753	69.31
236.987	86.31
237.221	77.31
237.455	86.31
237.689	85.31
237.922	76.31
238.156	78.31
238.39	69.31
238.624	79.31
238.858	85.31
239.091	78.31
239.325	70.31
239.559	95.31
239.793	84.31
240.027	74.31
240.26	72.31
240.494	92.31
240.728	62.31
240.961	82.31
241.195	75.31
241.429	84.31
241.662	72.31
241.896	71.31
242.13	73.31
242.363	79.31
242.597	74.31
242.83	57.31
243.064	70.31
243.298	89.31
243.531	82.31
243.765	68.31
243.998	72.31
244.232	85.31
244.465	90.31
244.699	88.31
244.932	70.31
245.166	82.31
245.399	70.31
245.633	89.31
245.866	58.31
246.099	81.31
246.333	70.31
246.566	84.31
246.8	80.31
247.033	73.31
247.266	81.31
247.5	72.31
247.733	75.31
247.966	87.31
248.2	92.31
248.433	78.31
248.666	85.31
248.899	67.31
249.133	72.31
249.366	106.31
249.599	96.31
249.832	69.31
250.066	102.31
250.299	70.31
250.532	75.31
250.765	87.31
250.998	68.31
251.231	72.31
251.465	78.31
251.698	77.31
251.931	86.31
252.164	82.31
252.397	72.31
252.63	85.31
252.863	83.31
253.096	87.31
253.329	78.31
253.562	74.31
253.795	82.31
254.028	71.31
254.261	62.31
254.494	68.31
254.727	87.31
254.96	73.31
255.193	59.31
255.426	66.31
255.659	63.31
255.892	85.31
256.124	78.31
256.357	97.31
256.59	82.31
256.823	72.31
257.056	75.31
257.289	82.31
257.521	79.31
257.754	71.31
257.987	70.31
258.22	90.31
258.452	83.31
258.685	82.31
258.918	80.31
259.151	83.31
259.383	75.31
259.616	75.31
259.849	79.31
260.081	75.31
260.314	78.31
260.547	72.31
260.779	70.31
261.012	74.31
261.244	80.31
261.477	86.31
261.71	92.31
261.942	118.31
262.175	128.31
262.407	92.31
262.64	82.31
262.872	92.31
263.105	86.31
263.337	82.31
263.57	86.31
263.802	91.31
264.035	85.31
264.267	80.31
264.499	87.31
264.732	75.31
264.964	89.31
265.197	82.31
265.429	89.31
265.661	79.31
265.894	82.31
266.126	96.31
266.358	72.31
266.591	79.31
266.823	81.31
267.055	88.31
267.287	91.31
267.52	80.31
267.752	80.31
267.984	74.31
268.216	66.31
268.448	90.31
268.681	94.31
268.913	94.31
269.145	78.31
269.377	102.31
269.609	82.31
269.841	74.31
270.073	76.31
270.306	85.31
270.538	84.31
270.77	80.31
271.002	84.31
271.234	95.31
271.466	86.31
271.698	86.31
271.93	73.31
272.162	85.31
272.394	78.31
272.626	85.31
272.858	80.31
273.09	88.31
273.322	83.31
273.553	74.31
273.785	82.31
274.017	81.31
274.249	87.31
274.481	66.31
274.713	100.31
274.945	97.31
275.176	82.31
275.408	91.31
275.64	72.31
275.872	75.31
276.104	90.31
276.335	86.31
276.567	106.31
276.799	122.31
277.031	120.31
277.262	86.31
277.494	97.31
277.726	106.31
277.957	74.31
278.189	69.31
278.421	70.31
278.652	86.31
278.884	81.31
279.115	85.31
279.347	91.31
279.579	72.31
279.81	86.31
280.042	76.31
280.273	81.31
280.505	89.31
280.736	82.31
280.968	78.31
281.199	108.31
281.431	95.31
281.662	88.31
281.894	93.31
282.125	104.31
282.356	122.31
282.588	158.31
282.819	128.31
283.051	98.31
283.282	86.31
283.513	87.31
283.745	83.31
283.976	86.31
284.207	74.31
284.439	79.31
284.67	89.31
284.901	70.31
285.132	66.31
285.364	78.31
285.595	81.31
285.826	76.31
286.057	86.31
286.288	80.31
286.52	66.31
286.751	72.31
286.982	79.31
287.213	90.31
287.444	88.31
287.675	89.31
287.906	92.31
288.138	88.31
288.369	92.31
288.6	98.31
288.831	99.31
289.062	104.31
289.293	89.31
289.524	92.31
289.755	90.31
289.986	88.31
290.217	86.31
290.448	86.31
290.679	71.31
290.91	82.31
291.141	76.31
291.371	81.31
291.602	78.31
291.833	76.31
292.064	76.31
292.295	84.31
292.526	94.31
292.757	103.31
292.987	97.31
293.218	75.31
293.449	99.31
293.68	77.31
293.91	70.31
294.141	87.31
294.372	84.31
294.603	83.31
294.833	82.31
295.064	83.31
295.295	94.31
295.525	85.31
295.756	104.31
295.987	122.31
296.217	157.31
296.448	148.31
296.679	104.31
296.909	81.31
297.14	84.31
297.37	89.31
297.601	72.31
297.831	92.31
298.062	92.31
298.292	76.31
298.523	83.31
298.753	90.31
298.984	83.31
299.214	91.31
299.445	88.31
299.675	98.31
299.905	106.31
300.136	97.31
300.366	96.31
300.597	91.31
300.827	80.31
301.057	95.31
301.288	105.31
301.518	94.31
301.748	91.31
301.979	86.31
302.209	96.31
302.439	82.31
302.669	99.31
302.9	89.31
303.13	91.31
303.36	93.31
303.59	108.31
303.82	103.31
304.051	103.31
304.281	73.31
304.511	80.31
304.741	98.31
304.971	94.31
305.201	80.31
305.431	101.31
305.661	86.31
305.891	83.31
306.121	78.31
306.352	107.31
306.582	100.31
306.812	90.31
307.042	84.31
307.272	84.31
307.502	84.31
307.731	92.31
307.961	78.31
308.191	79.31
308.421	89.31
308.651	87.31
308.881	100.31
309.111	92.31
309.341	97.31
309.571	99.31
309.8	88.31
310.03	91.31
310.26	90.31
310.49	111.31
310.72	95.31
310.949	120.31
311.179	97.31
311.409	93.31
311.639	96.31
311.868	93.31
312.098	88.31
312.328	98.31
312.557	97.31
312.787	120.31
313.017	107.31
313.246	100.31
313.476	87.31
313.706	94.31
313.935	101.31
314.165	99.31
314.394	111.31
314.624	94.31
314.853	94.31
315.083	91.31
315.312	82.31
315.542	101.31
315.771	82.31
316.001	87.31
316.23	107.31
316.46	91.31
316.689	83.31
316.919	92.31
317.148	95.31
317.377	90.31
317.607	101.31
317.836	87.31
318.065	96.31
318.295	88.31
318.524	83.31
318.753	90.31
318.983	95.31
319.212	105.31
319.441	113.31
319.67	119.31
319.9	92.31
320.129	96.31
320.358	94.31
320.587	82.31
320.816	101.31
321.046	97.31
321.275	118.31
321.504	91.31
321.733	99.31
321.962	97.31
322.191	112.31
322.42	104.31
322.649	105.31
322.878	106.31
323.108	118.31
323.337	131.31
323.566	119.31
323.795	150.31
324.024	206.31
324.253	415.31
324.482	868.31
324.71	1763.31
324.939	2311.31
325.168	858.31
325.397	247.31
325.626	153.31
325.855	154.31
326.084	138.31
326.313	136.31
326.542	158.31
326.77	232.31
326.999	443.31
327.228	907.31
327.457	1668.31
327.686	1334.31
327.914	383.31
328.143	218.31
328.372	166.31
328.6	139.31
328.829	122.31
329.058	134.31
329.287	148.31
329.515	121.31
329.744	109.31
329.972	137.31
330.201	128.31
330.43	138.31
330.658	154.31
330.887	180.31
331.115	146.31
331.344	83.31
331.572	110.31
331.801	104.31
332.03	111.31
332.258	101.31
332.486	71.31
332.715	92.31
332.943	89.31
333.172	98.31
333.4	87.31
333.629	111.31
333.857	118.31
334.085	125.31
334.314	120.31
334.542	140.31
334.771	160.31
334.999	104.31
335.227	102.31
335.455	91.31
335.684	100.31
335.912	92.31
336.14	102.31
336.369	102.31
336.597	113.31
336.825	102.31
337.053	75.31
337.281	94.31
337.51	91.31
337.738	95.31
337.966	95.31
338.194	98.31
338.422	103.31
338.65	91.31
338.878	96.31
339.106	78.31
339.334	94.31
339.562	81.31
339.79	78.31
340.018	84.31
340.246	95.31
340.474	103.31
340.702	98.31
340.93	82.31
341.158	74.31
341.386	100.31
341.614	92.31
341.842	108.31
342.07	86.31
342.298	97.31
342.526	88.31
342.754	80.31
342.981	91.31
343.209	79.31
343.437	89.31
343.665	83.31
343.893	83.31
344.12	91.31
344.348	90.31
344.576	88.31
344.804	89.31
345.031	90.31
345.259	114.31
345.487	107.31
345.714	97.31
345.942	90.31
346.17	91.31
346.397	91.31
346.625	96.31
346.853	84.31
347.08	98.31
347.308	107.31
347.535	104.31
347.763	93.31
347.99	96.31
348.218	91.31
348.445	89.31
348.673	99.31
348.9	103.31
349.128	103.31
349.355	93.31
349.583	91.31
349.81	100.31
350.037	102.31
350.265	97.31
350.492	105.31
350.72	98.31
350.947	107.31
351.174	111.31
351.402	122.31
351.629	101.31
351.856	106.31
352.083	107.31
352.311	113.31
352.538	120.31
352.765	124.31
352.992	128.31
353.22	99.31
353.447	104.31
353.674	106.31
353.901	110.31
354.128	92.31
354.355	100.31
354.583	91.31
354.81	99.31
355.037	102.31
355.264	94.31
355.491	94.31
355.718	90.31
355.945	87.31
356.172	92.31
356.399	80.31
356.626	82.31
356.853	93.31
357.08	87.31
357.307	102.31
357.534	104.31
357.761	99.31
357.988	88.31
358.215	90.31
358.441	83.31
358.668	107.31
358.895	79.31
359.122	66.31
359.349	80.31
359.576	102.31
359.802	102.31
360.029	142.31
360.256	118.31
360.483	104.31
360.709	85.31
360.936	90.31
361.163	115.31
361.39	121.31
361.616	111.31
361.843	82.31
362.07	98.31
362.296	103.31
362.523	94.31
362.749	100.31
362.976	88.31
363.203	91.31
363.429	89.31
363.656	88.31
363.882	99.31
364.109	84.31
364.335	98.31
364.562	93.31
364.788	81.31
365.015	82.31
365.241	103.31
365.468	109.31
365.694	102.31
365.92	112.31
366.147	102.31
366.373	84.31
366.599	102.31
366.826	105.31
367.052	86.31
367.278	84.31
367.505	91.31
367.731	100.31
367.957	81.31
368.184	91.31
368.41	113.31
368.636	117.31
368.862	131.31
369.089	107.31
369.315	104.31
369.541	101.31
369.767	96.31
369.993	93.31
370.219	81.31
370.445	90.31
370.672	88.31
370.898	83.31
371.124	76.31
371.35	96.31
371.576	80.31
371.802	76.31
372.028	70.31
372.254	86.31
372.48	80.31
372.706	80.31
372.932	94.31
373.158	86.31
373.384	92.31
373.61	102.31
373.835	89.31
374.061	90.31
374.287	108.31
374.513	94.31
374.739	88.31
374.965	91.31
375.191	79.31
375.416	90.31
375.642	79.31
375.868	88.31
376.094	102.31
376.319	66.31
376.545	96.31
376.771	96.31
376.997	88.31
377.222	95.31
377.448	92.31
377.674	78.31
377.899	97.31
378.125	92.31
378.35	85.31
378.576	82.31
378.802	86.31
379.027	88.31
379.253	88.31
379.478	87.31
379.704	99.31
379.929	94.31
380.155	113.31
380.38	97.31
380.606	105.31
380.831	102.31
381.057	129.31
381.282	89.31
381.507	100.31
381.733	94.31
381.958	103.31
382.184	102.31
382.409	100.31
382.634	96.31
382.86	88.31
383.085	96.31
383.31	103.31
383.535	98.31
383.761	82.31
383.986	96.31
384.211	91.31
384.436	96.31
384.662	92.31
384.887	94.31
385.112	89.31
385.337	106.31
385.562	106.31
385.787	113.31
386.013	97.31
386.238	117.31
386.463	96.31
386.688	102.31
386.913	102.31
387.138	95.31
387.363	94.31
387.588	89.31
387.813	89.31
388.038	119.31
388.263	101.31
388.488	97.31
388.713	91.31
388.938	99.31
389.163	98.31
389.387	93.31
389.612	86.31
389.837	96.31
390.062	97.31
390.287	83.31
390.512	88.31
390.736	86.31
390.961	66.31
391.186	87.31
391.411	85.31
391.636	78.31
391.86	68.31
392.085	75.31
392.31	89.31
392.534	103.31
392.759	95.31
392.984	78.31
393.208	83.31
393.433	99.31
393.658	104.31
393.882	91.31
394.107	71.31
394.331	99.31
394.556	75.31
394.78	107.31
395.005	98.31
395.229	98.31
395.454	96.31
395.678	81.31
395.903	94.31
396.127	84.31
396.352	95.31
396.576	83.31
396.801	81.31
397.025	91.31
397.249	79.31
397.474	94.31
397.698	82.31
397.922	87.31
398.147	109.31
398.371	87.31
398.595	79.31
398.82	88.31
399.044	92.31
399.268	88.31
399.492	72.31
399.717	91.31
399.941	86.31
400.165	82.31
400.389	98.31
400.613	98.31
400.837	85.31
401.062	83.31
401.286	80.31
401.51	90.31
401.734	91.31
401.958	95.31
402.182	142.31
402.406	187.31
402.63	142.31
402.854	103.31
403.078	96.31
403.302	97.31
403.526	71.31
403.75	90.31
403.974	82.31
404.198	80.31
404.422	91.31
404.645	99.31
404.869	83.31
405.093	97.31
405.317	98.31
405.541	110.31
405.765	135.31
405.988	127.31
406.212	185.31
406.436	298.31
406.66	195.31
406.883	104.31
407.107	95.31
407.331	97.31
407.555	100.31
407.778	95.31
408.002	97.31
408.226	96.31
408.449	87.31
408.673	86.31
408.896	93.31
409.12	95.31
409.344	87.31
409.567	83.31
409.791	93.31
410.014	101.31
410.238	94.31
410.461	92.31
410.685	100.31
410.908	74.31
411.132	122.31
411.355	92.31
411.578	92.31
411.802	90.31
412.025	86.31
412.249	86.31
412.472	99.31
412.695	82.31
412.919	94.31
413.142	84.31
413.365	79.31
413.589	90.31
413.812	98.31
414.035	82.31
414.258	86.31
414.482	72.31
414.705	88.31
414.928	89.31
415.151	103.31
415.374	87.31
415.597	88.31
415.821	101.31
416.044	105.31
416.267	82.31
416.49	96.31
416.713	84.31
416.936	78.31
417.159	79.31
417.382	85.31
417.605	76.31
417.828	91.31
418.051	95.31
418.274	92.31
418.497	93.31
418.72	81.31
418.943	67.31
419.166	91.31
419.389	78.31
419.611	89.31
419.834	83.31
420.057	89.31
420.28	84.31
420.503	79.31
420.726	94.31
420.948	83.31
421.171	93.31
421.394	95.31
421.617	81.31
421.839	92.31
422.062	88.31
422.285	104.31
422.507	103.31
422.73	114.31
422.953	112.31
423.175	83.31
423.398	90.31
423.621	85.31
423.843	93.31
424.066	70.31
424.288	92.31
424.511	96.31
424.733	98.31
424.956	103.31
425.178	91.31
425.401	110.31
425.623	112.31
425.846	79.31
426.068	99.31
426.291	84.31
426.513	91.31
426.735	74.31
426.958	93.31
427.18	118.31
427.402	159.31
427.625	224.31
427.847	156.31
428.069	116.31
428.292	87.31
428.514	97.31
428.736	75.31
428.958	83.31
429.181	82.31
429.403	77.31
429.625	86.31
429.847	75.31
430.069	107.31
430.292	101.31
430.514	84.31
430.736	81.31
430.958	98.31
431.18	78.31
431.402	70.31
431.624	84.31
431.846	73.31
432.068	88.31
432.29	101.31
432.512	67.31
432.734	68.31
432.956	87.31
433.178	96.31
433.4	103.31
433.622	90.31
433.844	92.31
434.066	101.31
434.287	81.31
434.509	85.31
434.731	90.31
434.953	87.31
435.175	90.31
435.397	97.31
435.618	109.31
435.84	110.31
436.062	135.31
436.284	120.31
436.505	83.31
436.727	86.31
436.949	79.31
437.17	67.31
437.392	74.31
437.614	104.31
437.835	123.31
438.057	136.31
438.278	123.31
438.5	115.31
438.721	140.31
438.943	102.31
439.165	98.31
439.386	79.31
439.608	95.31
439.829	101.31
440.05	122.31
440.272	187.31
440.493	104.31
440.715	82.31
440.936	92.31
441.158	86.31
441.379	78.31
441.6	96.31
441.822	87.31
442.043	89.31
442.264	114.31
442.486	113.31
442.707	92.31
442.928	125.31
443.149	158.31
443.371	163.31
443.592	119.31
443.813	124.31
444.034	117.31
444.255	108.31
444.476	79.31
444.698	70.31
444.919	94.31
445.14	119.31
445.361	109.31
445.582	142.31
445.803	158.31
446.024	155.31
446.245	143.31
446.466	119.31
446.687	83.31
446.908	90.31
447.129	94.31
447.35	94.31
447.571	97.31
447.792	82.31
448.013	81.31
448.234	117.31
448.455	101.31
448.675	123.31
448.896	140.31
449.117	116.31
449.338	108.31
449.559	135.31
449.779	162.31
450	94.31
450.221	107.31
450.442	95.31
450.662	103.31
450.883	123.31
451.104	119.31
451.324	96.31
451.545	92.31
451.766	88.31
451.986	87.31
452.207	97.31
452.428	100.31
452.648	91.31
452.869	129.31
453.089	120.31
453.31	125.31
453.53	111.31
453.751	90.31
453.971	115.31
454.192	126.31
454.412	106.31
454.633	91.31
454.853	75.31
455.073	82.31
455.294	92.31
455.514	107.31
455.734	85.31
455.955	74.31
456.175	75.31
456.395	70.31
456.616	100.31
456.836	94.31
457.056	78.31
457.276	89.31
457.497	78.31
457.717	80.31
457.937	95.31
458.157	94.31
458.377	102.31
458.598	108.31
458.818	196.31
459.038	211.31
459.258	150.31
459.478	116.31
459.698	98.31
459.918	87.31
460.138	94.31
460.358	85.31
460.578	86.31
460.798	73.31
461.018	78.31
461.238	71.31
461.458	84.31
461.678	75.31
461.898	62.31
462.118	84.31
462.338	89.31
462.558	87.31
462.777	86.31
462.997	80.31
463.217	89.31
463.437	88.31
463.657	84.31
463.876	81.31
464.096	78.31
464.316	74.31
464.536	88.31
464.755	85.31
464.975	123.31
465.195	209.31
465.414	208.31
465.634	106.31
465.854	77.31
466.073	80.31
466.293	88.31
466.512	94.31
466.732	90.31
466.951	84.31
467.171	83.31
467.391	103.31
467.61	104.31
467.829	112.31
468.049	95.31
468.268	94.31
468.488	102.31
468.707	83.31
468.927	94.31
469.146	75.31
469.365	86.31
469.585	100.31
469.804	94.31
470.023	105.31
470.243	83.31
470.462	113.31
470.681	116.31
470.901	106.31
471.12	81.31
471.339	87.31
471.558	94.31
471.777	90.31
471.997	98.31
472.216	121.31
472.435	160.31
472.654	96.31
472.873	78.31
473.092	80.31
473.311	89.31
473.53	89.31
473.749	83.31
473.968	87.31
474.187	113.31
474.406	112.31
474.625	90.31
474.844	91.31
475.063	87.31
475.282	93.31
475.501	80.31
475.72	85.31
475.939	72.31
476.158	85.31
476.377	104.31
476.596	79.31
476.814	99.31
477.033	93.31
477.252	91.31
477.471	91.31
477.69	99.31
477.908	82.31
478.127	93.31
478.346	82.31
478.564	104.31
478.783	105.31
479.002	93.31
479.22	100.31
479.439	119.31
479.658	113.31
479.876	92.31
480.095	96.31
480.313	94.31
480.532	85.31
480.751	80.31
480.969	112.31
481.188	261.31
481.406	188.31
481.624	103.31
481.843	111.31
482.061	80.31
482.28	68.31
482.498	85.31
482.717	71.31
482.935	82.31
483.153	84.31
483.372	81.31
483.59	87.31
483.808	87.31
484.027	90.31
484.245	94.31
484.463	96.31
484.681	87.31
484.9	96.31
485.118	99.31
485.336	76.31
485.554	101.31
485.772	98.31
485.99	106.31
486.209	99.31
486.427	119.31
486.645	112.31
486.863	117.31
487.081	85.31
487.299	86.31
487.517	100.31
487.735	81.31
487.953	86.31
488.171	91.31
488.389	91.31
488.607	104.31
488.825	93.31
489.043	86.31
489.261	88.31
489.479	81.31
489.696	105.31
489.914	102.31
490.132	83.31
490.35	92.31
490.568	94.31
490.786	88.31
491.003	97.31
491.221	90.31
491.439	83.31
491.657	106.31
491.874	88.31
492.092	91.31
492.31	92.31
492.527	97.31
492.745	90.31
492.963	99.31
493.18	70.31
493.398	92.31
493.615	110.31
493.833	94.31
494.05	94.31
494.268	81.31
494.485	89.31
494.703	99.31
494.92	92.31
495.138	80.31
495.355	86.31
495.573	87.31
495.79	82.31
496.008	89.31
496.225	83.31
496.442	92.31
496.66	103.31
496.877	82.31
497.094	95.31
497.312	79.31
497.529	94.31
497.746	82.31
497.963	70.31
498.181	99.31
498.398	104.31
498.615	117.31
498.832	100.31
499.049	90.31
499.267	93.31
499.484	84.31
499.701	76.31
499.918	100.31
500.135	90.31
500.352	87.31
500.569	91.31
500.786	84.31
501.003	74.31
501.22	74.31
501.437	78.31
501.654	86.31
501.871	110.31
502.088	83.31
502.305	99.31
502.522	102.31
502.739	94.31
502.956	96.31
503.172	95.31
503.389	95.31
503.606	121.31
503.823	104.31
504.04	74.31
504.256	89.31
504.473	79.31
504.69	75.31
504.907	83.31
505.123	91.31
505.34	92.31
505.557	90.31
505.773	95.31
505.99	80.31
506.207	89.31
506.423	78.31
506.64	76.31
506.856	84.31
507.073	90.31
507.289	95.31
507.506	88.31
507.722	142.31
507.939	129.31
508.155	102.31
508.372	88.31
508.588	99.31
508.805	92.31
509.021	93.31
509.238	100.31
509.454	86.31
509.67	102.31
509.887	104.31
510.103	131.31
510.319	227.31
510.536	856.31
510.752	2969.31
510.968	768.31
511.184	179.31
511.401	116.31
511.617	106.31
511.833	100.31
512.049	87.31
512.265	89.31
512.481	100.31
512.698	99.31
512.914	98.31
513.13	102.31
513.346	103.31
513.562	90.31
513.778	102.31
513.994	100.31
514.21	110.31
514.426	139.31
514.642	158.31
514.858	135.31
515.074	194.31
515.29	600.31
515.506	2151.31
515.721	753.31
515.937	182.31
516.153	125.31
516.369	99.31
516.585	86.31
516.801	87.31
517.016	87.31
517.232	88.31
517.448	105.31
517.664	107.31
517.879	88.31
518.095	92.31
518.311	84.31
518.527	91.31
518.742	98.31
518.958	83.31
519.173	99.31
519.389	102.31
519.605	107.31
519.82	98.31
520.036	100.31
520.251	120.31
520.467	123.31
520.682	111.31
520.898	105.31
521.113	119.31
521.329	157.31
521.544	269.31
521.76	756.31
521.975	3596.31
522.19	2110.31
522.406	440.31
522.621	154.31
522.836	101.31
523.052	92.31
523.267	110.31
523.482	87.31
523.698	102.31
523.913	126.31
524.128	99.31
524.343	91.31
524.559	84.31
524.774	86.31
524.989	98.31
525.204	107.31
525.419	96.31
525.634	78.31
525.849	91.31
526.064	92.31
526.28	90.31
526.495	67.31
526.71	92.31
526.925	82.31
527.14	77.31
527.355	103.31
527.57	88.31
527.785	95.31
527.999	104.31
528.214	90.31
528.429	93.31
528.644	108.31
528.859	81.31
529.074	86.31
529.289	130.31
529.503	242.31
529.718	106.31
529.933	89.31
530.148	99.31
530.363	72.31
530.577	93.31
530.792	99.31
531.007	90.31
531.221	78.31
531.436	95.31
531.651	84.31
531.865	87.31
532.08	69.31
532.295	99.31
532.509	85.31
532.724	91.31
532.938	82.31
533.153	92.31
533.367	86.31
533.582	75.31
533.796	90.31
534.011	82.31
534.225	75.31
534.44	88.31
534.654	96.31
534.868	74.31
535.083	98.31
535.297	94.31
535.511	115.31
535.726	98.31
535.94	105.31
536.154	86.31
536.369	86.31
536.583	83.31
536.797	69.31
537.011	77.31
537.225	72.31
537.44	82.31
537.654	104.31
537.868	85.31
538.082	87.31
538.296	94.31
538.51	100.31
538.724	81.31
538.938	95.31
539.153	88.31
539.367	113.31
539.581	98.31
539.795	91.31
540.009	103.31
540.222	89.31
540.436	92.31
540.65	83.31
540.864	98.31
541.078	107.31
541.292	96.31
541.506	96.31
541.72	92.31
541.934	86.31
542.147	86.31
542.361	91.31
542.575	75.31
542.789	74.31
543.002	80.31
543.216	72.31
543.43	97.31
543.644	91.31
543.857	97.31
544.071	83.31
544.285	96.31
544.498	92.31
544.712	78.31
544.925	82.31
545.139	74.31
545.352	75.31
545.566	87.31
545.779	91.31
545.993	83.31
546.206	74.31
546.42	90.31
546.633	96.31
546.847	95.31
547.06	93.31
547.274	83.31
547.487	94.31
547.7	74.31
547.914	84.31
548.127	97.31
548.34	91.31
548.554	79.31
548.767	99.31
548.98	94.31
549.193	87.31
549.407	86.31
549.62	90.31
549.833	82.31
550.046	78.31
550.259	65.31
550.473	78.31
550.686	70.31
550.899	82.31
551.112	94.31
551.325	84.31
551.538	92.31
551.751	86.31
551.964	87.31
552.177	92.31
552.39	99.31
552.603	98.31
552.816	85.31
553.029	78.31
553.242	96.31
553.455	102.31
553.667	108.31
553.88	91.31
554.093	97.31
554.306	99.31
554.519	90.31
554.732	88.31
554.944	80.31
555.157	86.31
555.37	80.31
555.583	90.31
555.795	95.31
556.008	90.31
556.221	88.31
556.433	88.31
556.646	102.31
556.859	103.31
557.071	88.31
557.284	80.31
557.496	76.31
557.709	88.31
557.921	88.31
558.134	96.31
558.346	100.31
558.559	87.31
558.771	83.31
558.984	79.31
559.196	103.31
559.409	86.31
559.621	88.31
559.833	95.31
560.046	97.31
560.258	92.31
560.47	92.31
560.683	82.31
560.895	83.31
561.107	87.31
561.32	81.31
561.532	96.31
561.744	96.31
561.956	99.31
562.168	91.31
562.381	87.31
562.593	89.31
562.805	83.31
563.017	96.31
563.229	88.31
563.441	84.31
563.653	81.31
563.865	84.31
564.077	88.31
564.289	87.31
564.501	83.31
564.713	76.31
564.925	90.31
565.137	107.31
565.349	81.31
565.561	91.31
565.773	96.31
565.985	82.31
566.197	79.31
566.408	88.31
566.62	75.31
566.832	92.31
567.044	78.31
567.255	95.31
567.467	89.31
567.679	72.31
567.891	92.31
568.102	84.31
568.314	75.31
568.526	80.31
568.737	110.31
568.949	74.31
569.161	79.31
569.372	96.31
569.584	82.31
569.795	94.31
570.007	117.31
570.218	261.31
570.43	137.31
570.641	84.31
570.853	83.31
571.064	72.31
571.276	82.31
571.487	80.31
571.698	89.31
571.91	90.31
572.121	84.31
572.333	88.31
572.544	88.31
572.755	82.31
572.966	69.31
573.178	94.31
573.389	87.31
573.6	75.31
573.811	74.31
574.023	80.31
574.234	83.31
574.445	93.31
574.656	90.31
574.867	94.31
575.078	82.31
575.289	104.31
575.501	84.31
575.712	72.31
575.923	80.31
576.134	76.31
576.345	82.31
576.556	79.31
576.767	88.31
576.978	89.31
577.188	78.31
577.399	89.31
577.61	93.31
577.821	90.31
578.032	114.31
578.243	285.31
578.454	862.31
578.665	239.31
578.875	100.31
579.086	88.31
579.297	82.31
579.508	87.31
579.718	90.31
579.929	102.31
580.14	79.31
580.35	80.31
580.561	104.31
580.772	80.31
580.982	82.31
581.193	77.31
581.403	71.31
581.614	87.31
581.825	76.31
582.035	91.31
582.246	80.31
582.456	98.31
582.667	95.31
582.877	100.31
583.087	91.31
583.298	89.31
583.508	73.31
583.719	75.31
583.929	85.31
584.139	59.31
584.35	82.31
584.56	82.31
584.77	94.31
584.981	90.31
585.191	100.31
585.401	82.31
585.611	67.31
585.821	90.31
586.032	87.31
586.242	98.31
586.452	75.31
586.662	88.31
586.872	80.31
587.082	91.31
587.292	78.31
587.502	77.31
587.713	84.31
587.923	73.31
588.133	86.31
588.343	77.31
588.553	62.31
588.762	86.31
588.972	63.31
589.182	115.31
589.392	93.31
589.602	96.31
589.812	98.31
590.022	94.31
590.232	93.31
590.441	87.31
590.651	65.31
590.861	82.31
591.071	74.31
591.281	83.31
591.49	86.31
591.7	83.31
591.91	94.31
592.119	61.31
592.329	99.31
592.539	83.31
592.748	84.31
592.958	83.31
593.167	72.31
593.377	86.31
593.587	86.31
593.796	99.31
594.006	94.31
594.215	90.31
594.424	90.31
594.634	90.31
594.843	87.31
595.053	80.31
595.262	94.31
595.472	83.31
595.681	83.31
595.89	80.31
596.1	80.31
596.309	72.31
596.518	80.31
596.727	83.31
596.937	87.31
597.146	71.31
597.355	91.31
597.564	83.31
597.774	94.31
597.983	80.31
598.192	82.31
598.401	79.31
598.61	80.31
598.819	85.31
599.028	91.31
599.237	76.31
599.446	81.31
599.655	95.31
599.864	79.31
600.073	90.31
600.282	76.31
600.491	86.31
600.7	83.31
600.909	84.31
601.118	96.31
601.327	98.31
601.536	83.31
601.745	80.31
601.953	73.31
602.162	70.31
602.371	86.31
602.58	93.31
602.789	66.31
602.997	80.31
603.206	64.31
603.415	76.31
603.623	68.31
603.832	99.31
604.041	78.31
604.249	80.31
604.458	79.31
604.666	70.31
604.875	71.31
605.084	69.31
605.292	82.31
605.501	74.31
605.709	87.31
605.918	75.31
606.126	88.31
606.334	94.31
606.543	86.31
606.751	87.31
606.96	85.31
607.168	87.31
607.376	81.31
607.585	74.31
607.793	91.31
608.001	90.31
608.21	90.31
608.418	76.31
608.626	80.31
608.834	86.31
609.043	90.31
609.251	86.31
609.459	85.31
609.667	83.31
609.875	90.31
610.083	98.31
610.291	92.31
610.499	78.31
610.707	75.31
610.916	99.31
611.124	83.31
611.332	76.31
611.54	80.31
611.748	80.31
611.955	89.31
612.163	78.31
612.371	76.31
612.579	86.31
612.787	90.31
612.995	76.31
613.203	93.31
613.411	71.31
613.618	70.31
613.826	88.31
614.034	80.31
614.242	83.31
614.449	72.31
614.657	85.31
614.865	87.31
615.072	98.31
615.28	85.31
615.488	79.31
615.695	78.31
615.903	86.31
616.111	106.31
616.318	102.31
616.526	84.31
616.733	96.31
616.941	74.31
617.148	91.31
617.356	98.31
617.563	90.31
617.771	86.31
617.978	87.31
618.185	87.31
618.393	74.31
618.6	80.31
618.807	91.31
619.015	86.31
619.222	88.31
619.429	97.31
619.637	82.31
619.844	72.31
620.051	84.31
620.258	87.31
620.466	83.31
620.673	82.31
620.88	94.31
621.087	86.31
621.294	84.31
621.501	74.31
621.708	80.31
621.915	83.31
622.122	83.31
622.329	85.31
622.536	86.31
622.743	83.31
622.95	82.31
623.157	94.31
623.364	81.31
623.571	90.31
623.778	97.31
623.985	82.31
624.192	76.31
624.399	84.31
624.606	86.31
624.812	99.31
625.019	90.31
625.226	98.31
625.433	93.31
625.639	92.31
625.846	76.31
626.053	71.31
626.259	87.31
626.466	106.31
626.673	84.31
626.879	92.31
627.086	78.31
627.293	94.31
627.499	75.31
627.706	87.31
627.912	84.31
628.119	79.31
628.325	87.31
628.532	78.31
628.738	81.31
628.945	92.31
629.151	84.31
629.357	86.31
629.564	71.31
629.77	78.31
629.976	76.31
630.183	82.31
630.389	78.31
630.595	82.31
630.802	73.31
631.008	81.31
631.214	84.31
631.42	85.31
631.627	94.31
631.833	92.31
632.039	68.31
632.245	82.31
632.451	81.31
632.657	78.31
632.863	72.31
633.069	80.31
633.275	85.31
633.481	76.31
633.688	80.31
633.893	75.31
634.099	84.31
634.305	73.31
634.511	82.31
634.717	90.31
634.923	78.31
635.129	64.31
635.335	83.31
635.541	92.31
635.747	73.31
635.952	90.31
636.158	70.31
636.364	86.31
636.57	83.31
636.775	81.31
636.981	86.31
637.187	74.31
637.392	75.31
637.598	88.31
637.804	93.31
638.009	90.31
638.215	82.31
638.421	80.31
638.626	82.31
638.832	77.31
639.037	82.31
639.243	82.31
639.448	83.31
639.654	82.31
639.859	85.31
640.065	82.31
640.27	87.31
640.475	98.31
640.681	85.31
640.886	97.31
641.091	68.31
641.297	95.31
641.502	75.31
641.707	79.31
641.913	85.31
642.118	95.31
642.323	82.31
642.528	84.31
642.733	86.31
642.939	76.31
643.144	82.31
643.349	79.31
643.554	94.31
643.759	96.31
643.964	80.31
644.169	81.31
644.374	85.31
644.579	85.31
644.784	80.31
644.989	66.31
645.194	75.31
645.399	83.31
645.604	89.31
645.809	94.31
646.014	86.31
646.219	92.31
646.423	69.31
646.628	68.31
646.833	89.31
647.038	82.31
647.243	77.31
647.447	74.31
647.652	87.31
647.857	87.31
648.062	82.31
648.266	93.31
648.471	95.31
648.676	94.31
648.88	82.31
649.085	86.31
649.289	93.31
649.494	108.31
649.698	135.31
649.903	97.31
650.107	88.31
650.312	89.31
650.516	82.31
650.721	86.31
650.925	96.31
651.13	97.31
651.334	102.31
651.539	67.31
651.743	80.31
651.947	88.31
652.152	97.31
652.356	70.31
652.56	92.31
652.764	85.31
652.969	84.31
653.173	96.31
653.377	65.31
653.581	85.31
653.785	82.31
653.99	82.31
654.194	82.31
654.398	91.31
654.602	77.31
654.806	83.31
655.01	112.31
655.214	88.31
655.418	79.31
655.622	72.31
655.826	80.31
656.03	88.31
656.234	90.31
656.438	90.31
656.642	95.31
656.846	95.31
657.049	73.31
657.253	76.31
657.457	71.31
657.661	63.31
657.865	95.31
658.068	70.31
658.272	91.31
658.476	74.31
658.68	94.31
658.883	81.31
659.087	87.31
659.291	78.31
659.494	96.31
659.698	82.31
659.901	82.31
660.105	83.31
660.309	78.31
660.512	83.31
660.716	77.31
660.919	92.31
661.123	96.31
661.326	83.31
661.53	89.31
661.733	89.31
661.936	78.31
662.14	75.31
662.343	72.31
662.546	84.31
662.75	81.31
662.953	73.31
663.156	82.31
663.36	68.31
663.563	75.31
663.766	71.31
663.969	66.31
664.173	84.31
664.376	82.31
664.579	67.31
664.782	70.31
664.985	75.31
665.188	88.31
665.391	97.31
665.594	86.31
665.797	73.31
666	82.31
666.203	80.31
666.406	79.31
666.609	65.31
666.812	66.31
667.015	71.31
667.218	74.31
667.421	94.31
667.624	73.31
667.827	71.31
668.03	65.31
668.232	64.31
668.435	80.31
668.638	74.31
668.841	92.31
669.043	89.31
669.246	84.31
669.449	78.31
669.651	84.31
669.854	73.31
670.057	89.31
670.259	61.31
670.462	81.31
670.665	64.31
670.867	81.31
671.07	85.31
671.272	80.31
671.475	75.31
671.677	69.31
671.88	89.31
672.082	82.31
672.284	87.31
672.487	92.31
672.689	69.31
672.892	71.31
