Data from Circ_1981_H10_HRD10591_00074.txt Node
Date: Wed Jan 03 12:34:35 EST 2024
User: Yrep
Spectrometer: HR+D1059
Trigger mode: 1
Integration Time (sec): 1.000000E-1
Scans to average: 1
Electric dark correction enabled: true
Nonlinearity correction enabled: false
Boxcar width: 0
XAxis mode: Wavelengths
Number of Pixels in Spectrum: 2048
>>>>>Begin Spectral Data<<<<<
223.165	-8.31
223.4	-8.31
223.635	-8.31
223.869	-17.31
224.104	-16.31
224.338	-15.31
224.573	-14.31
224.808	-14.31
225.042	-1.31
225.277	-10.31
225.511	-7.31
225.746	-5.31
225.98	6.69
226.215	6.69
226.449	11.69
226.683	32.69
226.918	17.69
227.152	34.69
227.387	38.69
227.621	38.69
227.856	44.69
228.09	40.69
228.324	46.69
228.559	51.69
228.793	52.69
229.027	47.69
229.262	72.69
229.496	60.69
229.73	87.69
229.964	92.69
230.199	78.69
230.433	63.69
230.667	76.69
230.901	62.69
231.136	79.69
231.37	73.69
231.604	80.69
231.838	67.69
232.072	80.69
232.306	78.69
232.541	65.69
232.775	88.69
233.009	84.69
233.243	87.69
233.477	85.69
233.711	63.69
233.945	92.69
234.179	80.69
234.413	85.69
234.647	82.69
234.881	79.69
235.115	88.69
235.349	73.69
235.583	88.69
235.817	78.69
236.051	89.69
236.285	69.69
236.519	72.69
236.753	78.69
236.987	76.69
237.221	99.69
237.455	102.69
237.689	70.69
237.922	66.69
238.156	68.69
238.39	70.69
238.624	67.69
238.858	81.69
239.091	84.69
239.325	78.69
239.559	79.69
239.793	81.69
240.027	70.69
240.26	94.69
240.494	86.69
240.728	64.69
240.961	82.69
241.195	73.69
241.429	79.69
241.662	67.69
241.896	83.69
242.13	69.69
242.363	73.69
242.597	78.69
242.83	73.69
243.064	60.69
243.298	88.69
243.531	78.69
243.765	69.69
243.998	82.69
244.232	73.69
244.465	83.69
244.699	86.69
244.932	69.69
245.166	73.69
245.399	78.69
245.633	74.69
245.866	86.69
246.099	71.69
246.333	75.69
246.566	91.69
246.8	73.69
247.033	78.69
247.266	53.69
247.5	74.69
247.733	67.69
247.966	82.69
248.2	76.69
248.433	67.69
248.666	77.69
248.899	86.69
249.133	80.69
249.366	94.69
249.599	101.69
249.832	66.69
250.066	75.69
250.299	69.69
250.532	67.69
250.765	87.69
250.998	79.69
251.231	88.69
251.465	74.69
251.698	82.69
251.931	87.69
252.164	82.69
252.397	87.69
252.63	87.69
252.863	81.69
253.096	71.69
253.329	80.69
253.562	73.69
253.795	73.69
254.028	74.69
254.261	82.69
254.494	83.69
254.727	82.69
254.96	84.69
255.193	67.69
255.426	76.69
255.659	66.69
255.892	81.69
256.124	74.69
256.357	73.69
256.59	85.69
256.823	82.69
257.056	73.69
257.289	82.69
257.521	80.69
257.754	73.69
257.987	74.69
258.22	76.69
258.452	90.69
258.685	63.69
258.918	75.69
259.151	85.69
259.383	78.69
259.616	66.69
259.849	67.69
260.081	74.69
260.314	62.69
260.547	94.69
260.779	83.69
261.012	84.69
261.244	77.69
261.477	87.69
261.71	110.69
261.942	95.69
262.175	121.69
262.407	90.69
262.64	90.69
262.872	84.69
263.105	80.69
263.337	82.69
263.57	78.69
263.802	88.69
264.035	90.69
264.267	72.69
264.499	86.69
264.732	68.69
264.964	81.69
265.197	90.69
265.429	87.69
265.661	84.69
265.894	83.69
266.126	87.69
266.358	80.69
266.591	77.69
266.823	78.69
267.055	93.69
267.287	69.69
267.52	76.69
267.752	87.69
267.984	85.69
268.216	86.69
268.448	78.69
268.681	81.69
268.913	92.69
269.145	66.69
269.377	79.69
269.609	66.69
269.841	86.69
270.073	85.69
270.306	80.69
270.538	77.69
270.77	68.69
271.002	69.69
271.234	73.69
271.466	75.69
271.698	82.69
271.93	77.69
272.162	91.69
272.394	97.69
272.626	84.69
272.858	85.69
273.09	89.69
273.322	94.69
273.553	82.69
273.785	72.69
274.017	82.69
274.249	88.69
274.481	94.69
274.713	75.69
274.945	86.69
275.176	84.69
275.408	88.69
275.64	102.69
275.872	76.69
276.104	99.69
276.335	102.69
276.567	94.69
276.799	98.69
277.031	98.69
277.262	94.69
277.494	97.69
277.726	88.69
277.957	80.69
278.189	84.69
278.421	91.69
278.652	73.69
278.884	88.69
279.115	89.69
279.347	88.69
279.579	78.69
279.81	79.69
280.042	86.69
280.273	84.69
280.505	82.69
280.736	90.69
280.968	82.69
281.199	94.69
281.431	78.69
281.662	102.69
281.894	84.69
282.125	89.69
282.356	111.69
282.588	143.69
282.819	130.69
283.051	89.69
283.282	83.69
283.513	81.69
283.745	87.69
283.976	80.69
284.207	84.69
284.439	94.69
284.67	80.69
284.901	83.69
285.132	82.69
285.364	101.69
285.595	80.69
285.826	72.69
286.057	86.69
286.288	81.69
286.52	86.69
286.751	84.69
286.982	80.69
287.213	85.69
287.444	91.69
287.675	96.69
287.906	94.69
288.138	101.69
288.369	100.69
288.6	90.69
288.831	82.69
289.062	84.69
289.293	93.69
289.524	79.69
289.755	98.69
289.986	64.69
290.217	88.69
290.448	75.69
290.679	82.69
290.91	88.69
291.141	89.69
291.371	86.69
291.602	87.69
291.833	71.69
292.064	96.69
292.295	86.69
292.526	82.69
292.757	76.69
292.987	86.69
293.218	78.69
293.449	86.69
293.68	89.69
293.91	79.69
294.141	86.69
294.372	96.69
294.603	88.69
294.833	92.69
295.064	90.69
295.295	75.69
295.525	83.69
295.756	85.69
295.987	115.69
296.217	137.69
296.448	131.69
296.679	84.69
296.909	86.69
297.14	78.69
297.37	66.69
297.601	89.69
297.831	80.69
298.062	97.69
298.292	89.69
298.523	92.69
298.753	80.69
298.984	78.69
299.214	88.69
299.445	88.69
299.675	83.69
299.905	100.69
300.136	89.69
300.366	69.69
300.597	84.69
300.827	87.69
301.057	101.69
301.288	90.69
301.518	91.69
301.748	78.69
301.979	81.69
302.209	84.69
302.439	84.69
302.669	84.69
302.9	87.69
303.13	79.69
303.36	94.69
303.59	101.69
303.82	96.69
304.051	85.69
304.281	86.69
304.511	86.69
304.741	91.69
304.971	72.69
305.201	92.69
305.431	98.69
305.661	99.69
305.891	81.69
306.121	94.69
306.352	93.69
306.582	94.69
306.812	86.69
307.042	95.69
307.272	88.69
307.502	84.69
307.731	91.69
307.961	99.69
308.191	80.69
308.421	88.69
308.651	105.69
308.881	98.69
309.111	82.69
309.341	99.69
309.571	89.69
309.8	96.69
310.03	111.69
310.26	105.69
310.49	117.69
310.72	86.69
310.949	103.69
311.179	113.69
311.409	95.69
311.639	75.69
311.868	94.69
312.098	96.69
312.328	98.69
312.557	108.69
312.787	109.69
313.017	95.69
313.246	98.69
313.476	79.69
313.706	97.69
313.935	98.69
314.165	100.69
314.394	114.69
314.624	84.69
314.853	93.69
315.083	98.69
315.312	101.69
315.542	103.69
315.771	91.69
316.001	90.69
316.23	87.69
316.46	95.69
316.689	82.69
316.919	89.69
317.148	87.69
317.377	86.69
317.607	110.69
317.836	98.69
318.065	94.69
318.295	88.69
318.524	90.69
318.753	87.69
318.983	108.69
319.212	101.69
319.441	94.69
319.67	101.69
319.9	103.69
320.129	94.69
320.358	84.69
320.587	72.69
320.816	92.69
321.046	106.69
321.275	94.69
321.504	93.69
321.733	91.69
321.962	99.69
322.191	94.69
322.42	104.69
322.649	125.69
322.878	124.69
323.108	124.69
323.337	139.69
323.566	138.69
323.795	179.69
324.024	243.69
324.253	496.69
324.482	1098.69
324.71	2377.69
324.939	3263.69
325.168	1138.69
325.397	297.69
325.626	176.69
325.855	140.69
326.084	140.69
326.313	160.69
326.542	177.69
326.77	294.69
326.999	594.69
327.228	1311.69
327.457	2453.69
327.686	1983.69
327.914	504.69
328.143	233.69
328.372	187.69
328.6	144.69
328.829	108.69
329.058	154.69
329.287	158.69
329.515	121.69
329.744	118.69
329.972	113.69
330.201	120.69
330.43	150.69
330.658	159.69
330.887	186.69
331.115	153.69
331.344	104.69
331.572	103.69
331.801	99.69
332.03	106.69
332.258	101.69
332.486	94.69
332.715	88.69
332.943	80.69
333.172	112.69
333.4	116.69
333.629	106.69
333.857	124.69
334.085	106.69
334.314	115.69
334.542	137.69
334.771	146.69
334.999	94.69
335.227	104.69
335.455	93.69
335.684	99.69
335.912	101.69
336.14	91.69
336.369	104.69
336.597	102.69
336.825	103.69
337.053	82.69
337.281	80.69
337.51	78.69
337.738	89.69
337.966	91.69
338.194	106.69
338.422	100.69
338.65	86.69
338.878	87.69
339.106	82.69
339.334	85.69
339.562	96.69
339.79	86.69
340.018	80.69
340.246	99.69
340.474	102.69
340.702	98.69
340.93	92.69
341.158	83.69
341.386	97.69
341.614	114.69
341.842	93.69
342.07	85.69
342.298	94.69
342.526	82.69
342.754	76.69
342.981	85.69
343.209	93.69
343.437	98.69
343.665	96.69
343.893	95.69
344.12	72.69
344.348	72.69
344.576	96.69
344.804	89.69
345.031	83.69
345.259	114.69
345.487	106.69
345.714	96.69
345.942	83.69
346.17	87.69
346.397	97.69
346.625	98.69
346.853	78.69
347.08	91.69
347.308	103.69
347.535	114.69
347.763	93.69
347.99	102.69
348.218	88.69
348.445	111.69
348.673	107.69
348.9	100.69
349.128	97.69
349.355	90.69
349.583	88.69
349.81	92.69
350.037	98.69
350.265	110.69
350.492	88.69
350.72	97.69
350.947	93.69
351.174	99.69
351.402	111.69
351.629	104.69
351.856	93.69
352.083	104.69
352.311	117.69
352.538	105.69
352.765	106.69
352.992	100.69
353.22	105.69
353.447	97.69
353.674	99.69
353.901	94.69
354.128	95.69
354.355	90.69
354.583	90.69
354.81	108.69
355.037	91.69
355.264	97.69
355.491	90.69
355.718	78.69
355.945	99.69
356.172	82.69
356.399	101.69
356.626	80.69
356.853	89.69
357.08	85.69
357.307	78.69
357.534	87.69
357.761	92.69
357.988	82.69
358.215	89.69
358.441	78.69
358.668	95.69
358.895	87.69
359.122	90.69
359.349	85.69
359.576	88.69
359.802	121.69
360.029	150.69
360.256	124.69
360.483	120.69
360.709	91.69
360.936	84.69
361.163	104.69
361.39	102.69
361.616	108.69
361.843	92.69
362.07	100.69
362.296	102.69
362.523	97.69
362.749	96.69
362.976	110.69
363.203	109.69
363.429	82.69
363.656	98.69
363.882	94.69
364.109	99.69
364.335	93.69
364.562	91.69
364.788	96.69
365.015	91.69
365.241	97.69
365.468	115.69
365.694	99.69
365.92	80.69
366.147	102.69
366.373	91.69
366.599	98.69
366.826	76.69
367.052	83.69
367.278	85.69
367.505	86.69
367.731	96.69
367.957	92.69
368.184	106.69
368.41	99.69
368.636	120.69
368.862	118.69
369.089	110.69
369.315	95.69
369.541	89.69
369.767	92.69
369.993	91.69
370.219	97.69
370.445	94.69
370.672	87.69
370.898	87.69
371.124	95.69
371.35	74.69
371.576	89.69
371.802	79.69
372.028	76.69
372.254	82.69
372.48	83.69
372.706	90.69
372.932	86.69
373.158	95.69
373.384	100.69
373.61	94.69
373.835	86.69
374.061	81.69
374.287	98.69
374.513	107.69
374.739	100.69
374.965	84.69
375.191	83.69
375.416	82.69
375.642	86.69
375.868	76.69
376.094	82.69
376.319	73.69
376.545	84.69
376.771	94.69
376.997	101.69
377.222	91.69
377.448	96.69
377.674	74.69
377.899	114.69
378.125	91.69
378.35	90.69
378.576	75.69
378.802	86.69
379.027	89.69
379.253	80.69
379.478	82.69
379.704	101.69
379.929	90.69
380.155	76.69
380.38	98.69
380.606	95.69
380.831	103.69
381.057	97.69
381.282	85.69
381.507	91.69
381.733	81.69
381.958	96.69
382.184	91.69
382.409	102.69
382.634	105.69
382.86	88.69
383.085	95.69
383.31	104.69
383.535	107.69
383.761	87.69
383.986	96.69
384.211	90.69
384.436	74.69
384.662	92.69
384.887	93.69
385.112	97.69
385.337	99.69
385.562	88.69
385.787	80.69
386.013	100.69
386.238	116.69
386.463	92.69
386.688	111.69
386.913	90.69
387.138	105.69
387.363	104.69
387.588	93.69
387.813	94.69
388.038	95.69
388.263	116.69
388.488	89.69
388.713	76.69
388.938	90.69
389.163	91.69
389.387	86.69
389.612	94.69
389.837	83.69
390.062	86.69
390.287	79.69
390.512	88.69
390.736	86.69
390.961	97.69
391.186	97.69
391.411	94.69
391.636	107.69
391.86	83.69
392.085	82.69
392.31	87.69
392.534	76.69
392.759	86.69
392.984	78.69
393.208	99.69
393.433	94.69
393.658	99.69
393.882	87.69
394.107	78.69
394.331	87.69
394.556	88.69
394.78	72.69
395.005	96.69
395.229	81.69
395.454	72.69
395.678	90.69
395.903	98.69
396.127	82.69
396.352	95.69
396.576	87.69
396.801	75.69
397.025	95.69
397.249	91.69
397.474	89.69
397.698	100.69
397.922	84.69
398.147	95.69
398.371	80.69
398.595	87.69
398.82	95.69
399.044	78.69
399.268	84.69
399.492	92.69
399.717	81.69
399.941	96.69
400.165	92.69
400.389	94.69
400.613	90.69
400.837	82.69
401.062	89.69
401.286	88.69
401.51	93.69
401.734	80.69
401.958	113.69
402.182	116.69
402.406	163.69
402.63	114.69
402.854	93.69
403.078	91.69
403.302	94.69
403.526	74.69
403.75	75.69
403.974	99.69
404.198	87.69
404.422	86.69
404.645	76.69
404.869	101.69
405.093	91.69
405.317	102.69
405.541	100.69
405.765	107.69
405.988	126.69
406.212	176.69
406.436	243.69
406.66	165.69
406.883	107.69
407.107	96.69
407.331	96.69
407.555	104.69
407.778	100.69
408.002	93.69
408.226	94.69
408.449	84.69
408.673	86.69
408.896	100.69
409.12	107.69
409.344	95.69
409.567	91.69
409.791	86.69
410.014	101.69
410.238	96.69
410.461	89.69
410.685	100.69
410.908	91.69
411.132	113.69
411.355	103.69
411.578	88.69
411.802	75.69
412.025	94.69
412.249	90.69
412.472	96.69
412.695	94.69
412.919	90.69
413.142	90.69
413.365	85.69
413.589	81.69
413.812	91.69
414.035	92.69
414.258	96.69
414.482	84.69
414.705	90.69
414.928	95.69
415.151	76.69
415.374	91.69
415.597	88.69
415.821	79.69
416.044	85.69
416.267	83.69
416.49	95.69
416.713	69.69
416.936	85.69
417.159	88.69
417.382	94.69
417.605	81.69
417.828	94.69
418.051	106.69
418.274	82.69
418.497	91.69
418.72	83.69
418.943	100.69
419.166	93.69
419.389	97.69
419.611	87.69
419.834	89.69
420.057	88.69
420.28	89.69
420.503	53.69
420.726	86.69
420.948	88.69
421.171	92.69
421.394	94.69
421.617	84.69
421.839	93.69
422.062	80.69
422.285	100.69
422.507	95.69
422.73	102.69
422.953	95.69
423.175	86.69
423.398	75.69
423.621	98.69
423.843	91.69
424.066	90.69
424.288	95.69
424.511	87.69
424.733	107.69
424.956	135.69
425.178	106.69
425.401	125.69
425.623	106.69
425.846	90.69
426.068	84.69
426.291	89.69
426.513	91.69
426.735	96.69
426.958	98.69
427.18	120.69
427.402	182.69
427.625	204.69
427.847	156.69
428.069	121.69
428.292	98.69
428.514	102.69
428.736	95.69
428.958	78.69
429.181	73.69
429.403	84.69
429.625	94.69
429.847	96.69
430.069	119.69
430.292	89.69
430.514	92.69
430.736	94.69
430.958	90.69
431.18	73.69
431.402	88.69
431.624	73.69
431.846	80.69
432.068	88.69
432.29	87.69
432.512	91.69
432.734	87.69
432.956	108.69
433.178	97.69
433.4	103.69
433.622	92.69
433.844	93.69
434.066	85.69
434.287	81.69
434.509	96.69
434.731	89.69
434.953	86.69
435.175	76.69
435.397	92.69
435.618	94.69
435.84	116.69
436.062	163.69
436.284	128.69
436.505	100.69
436.727	124.69
436.949	100.69
437.17	95.69
437.392	106.69
437.614	105.69
437.835	102.69
438.057	143.69
438.278	122.69
438.5	129.69
438.721	176.69
438.943	103.69
439.165	94.69
439.386	98.69
439.608	110.69
439.829	103.69
440.05	158.69
440.272	197.69
440.493	106.69
440.715	94.69
440.936	86.69
441.158	91.69
441.379	83.69
441.6	99.69
441.822	106.69
442.043	107.69
442.264	129.69
442.486	111.69
442.707	96.69
442.928	102.69
443.149	176.69
443.371	143.69
443.592	127.69
443.813	125.69
444.034	131.69
444.255	107.69
444.476	99.69
444.698	67.69
444.919	86.69
445.14	123.69
445.361	139.69
445.582	147.69
445.803	206.69
446.024	185.69
446.245	177.69
446.466	139.69
446.687	87.69
446.908	103.69
447.129	95.69
447.35	102.69
447.571	100.69
447.792	95.69
448.013	96.69
448.234	108.69
448.455	114.69
448.675	135.69
448.896	161.69
449.117	108.69
449.338	115.69
449.559	170.69
449.779	193.69
450	103.69
450.221	87.69
450.442	90.69
450.662	111.69
450.883	121.69
451.104	119.69
451.324	86.69
451.545	87.69
451.766	105.69
451.986	79.69
452.207	82.69
452.428	96.69
452.648	89.69
452.869	102.69
453.089	122.69
453.31	114.69
453.53	96.69
453.751	92.69
453.971	106.69
454.192	122.69
454.412	90.69
454.633	86.69
454.853	84.69
455.073	86.69
455.294	90.69
455.514	121.69
455.734	104.69
455.955	94.69
456.175	89.69
456.395	92.69
456.616	78.69
456.836	84.69
457.056	82.69
457.276	82.69
457.497	90.69
457.717	77.69
457.937	90.69
458.157	84.69
458.377	67.69
458.598	107.69
458.818	180.69
459.038	208.69
459.258	162.69
459.478	94.69
459.698	84.69
459.918	91.69
460.138	83.69
460.358	85.69
460.578	81.69
460.798	98.69
461.018	96.69
461.238	88.69
461.458	86.69
461.678	93.69
461.898	68.69
462.118	98.69
462.338	79.69
462.558	88.69
462.777	82.69
462.997	81.69
463.217	90.69
463.437	83.69
463.657	80.69
463.876	75.69
464.096	88.69
464.316	89.69
464.536	96.69
464.755	93.69
464.975	117.69
465.195	195.69
465.414	206.69
465.634	101.69
465.854	80.69
466.073	78.69
466.293	83.69
466.512	83.69
466.732	94.69
466.951	91.69
467.171	73.69
467.391	94.69
467.61	96.69
467.829	101.69
468.049	119.69
468.268	102.69
468.488	79.69
468.707	86.69
468.927	74.69
469.146	75.69
469.365	74.69
469.585	86.69
469.804	97.69
470.023	98.69
470.243	102.69
470.462	91.69
470.681	121.69
470.901	91.69
471.12	96.69
471.339	80.69
471.558	86.69
471.777	91.69
471.997	100.69
472.216	112.69
472.435	158.69
472.654	104.69
472.873	99.69
473.092	94.69
473.311	96.69
473.53	100.69
473.749	80.69
473.968	107.69
474.187	124.69
474.406	107.69
474.625	88.69
474.844	94.69
475.063	91.69
475.282	75.69
475.501	97.69
475.72	78.69
475.939	83.69
476.158	87.69
476.377	80.69
476.596	87.69
476.814	96.69
477.033	79.69
477.252	88.69
477.471	90.69
477.69	86.69
477.908	78.69
478.127	61.69
478.346	97.69
478.564	95.69
478.783	90.69
479.002	98.69
479.22	87.69
479.439	96.69
479.658	107.69
479.876	96.69
480.095	97.69
480.313	95.69
480.532	82.69
480.751	82.69
480.969	113.69
481.188	201.69
481.406	174.69
481.624	94.69
481.843	87.69
482.061	86.69
482.28	70.69
482.498	79.69
482.717	77.69
482.935	98.69
483.153	85.69
483.372	91.69
483.59	83.69
483.808	81.69
484.027	73.69
484.245	87.69
484.463	86.69
484.681	92.69
484.9	91.69
485.118	85.69
485.336	94.69
485.554	89.69
485.772	90.69
485.99	84.69
486.209	98.69
486.427	98.69
486.645	107.69
486.863	107.69
487.081	93.69
487.299	86.69
487.517	101.69
487.735	93.69
487.953	82.69
488.171	103.69
488.389	92.69
488.607	91.69
488.825	70.69
489.043	94.69
489.261	84.69
489.479	86.69
489.696	96.69
489.914	82.69
490.132	81.69
490.35	94.69
490.568	91.69
490.786	86.69
491.003	82.69
491.221	87.69
491.439	86.69
491.657	100.69
491.874	86.69
492.092	87.69
492.31	84.69
492.527	79.69
492.745	79.69
492.963	88.69
493.18	109.69
493.398	92.69
493.615	87.69
493.833	85.69
494.05	76.69
494.268	100.69
494.485	98.69
494.703	78.69
494.92	81.69
495.138	88.69
495.355	106.69
495.573	94.69
495.79	89.69
496.008	80.69
496.225	97.69
496.442	84.69
496.66	88.69
496.877	83.69
497.094	99.69
497.312	91.69
497.529	91.69
497.746	80.69
497.963	93.69
498.181	92.69
498.398	87.69
498.615	108.69
498.832	95.69
499.049	97.69
499.267	89.69
499.484	99.69
499.701	97.69
499.918	90.69
500.135	88.69
500.352	70.69
500.569	69.69
500.786	94.69
501.003	69.69
501.22	91.69
501.437	98.69
501.654	95.69
501.871	106.69
502.088	87.69
502.305	88.69
502.522	86.69
502.739	76.69
502.956	94.69
503.172	80.69
503.389	92.69
503.606	113.69
503.823	93.69
504.04	86.69
504.256	78.69
504.473	87.69
504.69	71.69
504.907	92.69
505.123	91.69
505.34	95.69
505.557	78.69
505.773	88.69
505.99	89.69
506.207	102.69
506.423	84.69
506.64	92.69
506.856	95.69
507.073	98.69
507.289	80.69
507.506	92.69
507.722	111.69
507.939	101.69
508.155	100.69
508.372	88.69
508.588	94.69
508.805	95.69
509.021	105.69
509.238	102.69
509.454	87.69
509.67	108.69
509.887	113.69
510.103	126.69
510.319	198.69
510.536	710.69
510.752	2313.69
510.968	638.69
511.184	160.69
511.401	107.69
511.617	107.69
511.833	89.69
512.049	92.69
512.265	93.69
512.481	106.69
512.698	94.69
512.914	101.69
513.13	87.69
513.346	95.69
513.562	80.69
513.778	93.69
513.994	102.69
514.21	104.69
514.426	119.69
514.642	151.69
514.858	134.69
515.074	190.69
515.29	543.69
515.506	1713.69
515.721	630.69
515.937	160.69
516.153	122.69
516.369	91.69
516.585	99.69
516.801	100.69
517.016	90.69
517.232	92.69
517.448	90.69
517.664	96.69
517.879	78.69
518.095	104.69
518.311	80.69
518.527	107.69
518.742	97.69
518.958	101.69
519.173	93.69
519.389	94.69
519.605	99.69
519.82	100.69
520.036	94.69
520.251	126.69
520.467	117.69
520.682	110.69
520.898	108.69
521.113	118.69
521.329	137.69
521.544	256.69
521.76	676.69
521.975	2930.69
522.19	1716.69
522.406	372.69
522.621	137.69
522.836	116.69
523.052	93.69
523.267	92.69
523.482	101.69
523.698	110.69
523.913	107.69
524.128	103.69
524.343	92.69
524.559	83.69
524.774	75.69
524.989	97.69
525.204	102.69
525.419	103.69
525.634	85.69
525.849	94.69
526.064	103.69
526.28	88.69
526.495	90.69
526.71	81.69
526.925	86.69
527.14	85.69
527.355	77.69
527.57	84.69
527.785	96.69
527.999	84.69
528.214	84.69
528.429	102.69
528.644	92.69
528.859	85.69
529.074	100.69
529.289	126.69
529.503	213.69
529.718	104.69
529.933	102.69
530.148	90.69
530.363	86.69
530.577	71.69
530.792	88.69
531.007	80.69
531.221	90.69
531.436	100.69
531.651	97.69
531.865	85.69
532.08	87.69
532.295	103.69
532.509	91.69
532.724	90.69
532.938	75.69
533.153	89.69
533.367	97.69
533.582	91.69
533.796	86.69
534.011	66.69
534.225	75.69
534.44	94.69
534.654	86.69
534.868	89.69
535.083	96.69
535.297	87.69
535.511	101.69
535.726	104.69
535.94	103.69
536.154	100.69
536.369	84.69
536.583	94.69
536.797	91.69
537.011	90.69
537.225	85.69
537.44	88.69
537.654	80.69
537.868	94.69
538.082	97.69
538.296	98.69
538.51	75.69
538.724	83.69
538.938	98.69
539.153	94.69
539.367	100.69
539.581	100.69
539.795	100.69
540.009	83.69
540.222	90.69
540.436	84.69
540.65	87.69
540.864	97.69
541.078	94.69
541.292	84.69
541.506	97.69
541.72	92.69
541.934	78.69
542.147	91.69
542.361	91.69
542.575	90.69
542.789	80.69
543.002	97.69
543.216	87.69
543.43	102.69
543.644	91.69
543.857	95.69
544.071	95.69
544.285	101.69
544.498	108.69
544.712	83.69
544.925	78.69
545.139	100.69
545.352	80.69
545.566	88.69
545.779	78.69
545.993	88.69
546.206	79.69
546.42	100.69
546.633	92.69
546.847	89.69
547.06	86.69
547.274	96.69
547.487	96.69
547.7	86.69
547.914	79.69
548.127	81.69
548.34	83.69
548.554	81.69
548.767	67.69
548.98	83.69
549.193	90.69
549.407	98.69
549.62	90.69
549.833	81.69
550.046	94.69
550.259	86.69
550.473	92.69
550.686	80.69
550.899	83.69
551.112	72.69
551.325	94.69
551.538	93.69
551.751	83.69
551.964	72.69
552.177	90.69
552.39	88.69
552.603	97.69
552.816	97.69
553.029	82.69
553.242	83.69
553.455	87.69
553.667	95.69
553.88	98.69
554.093	104.69
554.306	83.69
554.519	84.69
554.732	90.69
554.944	63.69
555.157	68.69
555.37	90.69
555.583	86.69
555.795	73.69
556.008	78.69
556.221	84.69
556.433	89.69
556.646	82.69
556.859	86.69
557.071	91.69
557.284	80.69
557.496	86.69
557.709	84.69
557.921	90.69
558.134	87.69
558.346	88.69
558.559	85.69
558.771	64.69
558.984	88.69
559.196	83.69
559.409	73.69
559.621	88.69
559.833	71.69
560.046	75.69
560.258	81.69
560.47	75.69
560.683	82.69
560.895	82.69
561.107	92.69
561.32	74.69
561.532	81.69
561.744	92.69
561.956	90.69
562.168	78.69
562.381	96.69
562.593	103.69
562.805	72.69
563.017	88.69
563.229	80.69
563.441	81.69
563.653	89.69
563.865	85.69
564.077	84.69
564.289	70.69
564.501	73.69
564.713	90.69
564.925	78.69
565.137	108.69
565.349	102.69
565.561	92.69
565.773	78.69
565.985	89.69
566.197	76.69
566.408	94.69
566.62	73.69
566.832	84.69
567.044	93.69
567.255	95.69
567.467	87.69
567.679	82.69
567.891	81.69
568.102	88.69
568.314	83.69
568.526	75.69
568.737	89.69
568.949	90.69
569.161	82.69
569.372	94.69
569.584	87.69
569.795	82.69
570.007	114.69
570.218	244.69
570.43	117.69
570.641	94.69
570.853	88.69
571.064	91.69
571.276	98.69
571.487	80.69
571.698	78.69
571.91	85.69
572.121	85.69
572.333	78.69
572.544	83.69
572.755	83.69
572.966	90.69
573.178	82.69
573.389	91.69
573.6	81.69
573.811	76.69
574.023	81.69
574.234	85.69
574.445	83.69
574.656	85.69
574.867	95.69
575.078	84.69
575.289	87.69
575.501	80.69
575.712	99.69
575.923	76.69
576.134	88.69
576.345	91.69
576.556	93.69
576.767	88.69
576.978	81.69
577.188	98.69
577.399	84.69
577.61	104.69
577.821	90.69
578.032	125.69
578.243	251.69
578.454	682.69
578.665	196.69
578.875	88.69
579.086	73.69
579.297	98.69
579.508	90.69
579.718	78.69
579.929	91.69
580.14	91.69
580.35	87.69
580.561	75.69
580.772	82.69
580.982	72.69
581.193	88.69
581.403	88.69
581.614	86.69
581.825	84.69
582.035	87.69
582.246	76.69
582.456	78.69
582.667	83.69
582.877	73.69
583.087	76.69
583.298	89.69
583.508	73.69
583.719	88.69
583.929	88.69
584.139	72.69
584.35	72.69
584.56	91.69
584.77	89.69
584.981	88.69
585.191	96.69
585.401	92.69
585.611	75.69
585.821	75.69
586.032	84.69
586.242	76.69
586.452	82.69
586.662	78.69
586.872	79.69
587.082	87.69
587.292	81.69
587.502	75.69
587.713	73.69
587.923	74.69
588.133	78.69
588.343	92.69
588.553	67.69
588.762	80.69
588.972	89.69
589.182	108.69
589.392	88.69
589.602	78.69
589.812	98.69
590.022	92.69
590.232	94.69
590.441	86.69
590.651	70.69
590.861	79.69
591.071	90.69
591.281	91.69
591.49	76.69
591.7	83.69
591.91	74.69
592.119	83.69
592.329	96.69
592.539	100.69
592.748	86.69
592.958	84.69
593.167	95.69
593.377	72.69
593.587	88.69
593.796	93.69
594.006	86.69
594.215	101.69
594.424	83.69
594.634	74.69
594.843	70.69
595.053	79.69
595.262	70.69
595.472	77.69
595.681	82.69
595.89	84.69
596.1	84.69
596.309	74.69
596.518	85.69
596.727	88.69
596.937	69.69
597.146	77.69
597.355	83.69
597.564	96.69
597.774	84.69
597.983	88.69
598.192	80.69
598.401	83.69
598.61	80.69
598.819	71.69
599.028	84.69
599.237	74.69
599.446	82.69
599.655	87.69
599.864	94.69
600.073	84.69
600.282	95.69
600.491	89.69
600.7	85.69
600.909	80.69
601.118	77.69
601.327	82.69
601.536	79.69
601.745	77.69
601.953	83.69
602.162	86.69
602.371	87.69
602.58	95.69
602.789	91.69
602.997	88.69
603.206	72.69
603.415	88.69
603.623	88.69
603.832	87.69
604.041	75.69
604.249	71.69
604.458	89.69
604.666	90.69
604.875	80.69
605.084	80.69
605.292	92.69
605.501	76.69
605.709	77.69
605.918	85.69
606.126	91.69
606.334	67.69
606.543	86.69
606.751	83.69
606.96	90.69
607.168	88.69
607.376	79.69
607.585	90.69
607.793	86.69
608.001	85.69
608.21	80.69
608.418	86.69
608.626	70.69
608.834	84.69
609.043	91.69
609.251	79.69
609.459	72.69
609.667	76.69
609.875	79.69
610.083	92.69
610.291	80.69
610.499	87.69
610.707	96.69
610.916	91.69
611.124	80.69
611.332	87.69
611.54	80.69
611.748	86.69
611.955	90.69
612.163	92.69
612.371	87.69
612.579	80.69
612.787	81.69
612.995	77.69
613.203	82.69
613.411	79.69
613.618	82.69
613.826	95.69
614.034	90.69
614.242	90.69
614.449	92.69
614.657	81.69
614.865	86.69
615.072	87.69
615.28	85.69
615.488	82.69
615.695	91.69
615.903	94.69
616.111	82.69
616.318	87.69
616.526	95.69
616.733	78.69
616.941	87.69
617.148	90.69
617.356	82.69
617.563	73.69
617.771	99.69
617.978	86.69
618.185	72.69
618.393	80.69
618.6	74.69
618.807	76.69
619.015	87.69
619.222	85.69
619.429	78.69
619.637	87.69
619.844	77.69
620.051	90.69
620.258	83.69
620.466	80.69
620.673	83.69
620.88	84.69
621.087	91.69
621.294	89.69
621.501	82.69
621.708	90.69
621.915	76.69
622.122	100.69
622.329	105.69
622.536	92.69
622.743	82.69
622.95	76.69
623.157	72.69
623.364	68.69
623.571	89.69
623.778	72.69
623.985	82.69
624.192	88.69
624.399	84.69
624.606	91.69
624.812	72.69
625.019	86.69
625.226	81.69
625.433	93.69
625.639	79.69
625.846	84.69
626.053	70.69
626.259	84.69
626.466	91.69
626.673	73.69
626.879	79.69
627.086	92.69
627.293	91.69
627.499	80.69
627.706	70.69
627.912	75.69
628.119	82.69
628.325	84.69
628.532	71.69
628.738	69.69
628.945	86.69
629.151	73.69
629.357	70.69
629.564	83.69
629.77	66.69
629.976	85.69
630.183	76.69
630.389	86.69
630.595	84.69
630.802	72.69
631.008	71.69
631.214	87.69
631.42	78.69
631.627	76.69
631.833	81.69
632.039	86.69
632.245	91.69
632.451	80.69
632.657	93.69
632.863	92.69
633.069	82.69
633.275	67.69
633.481	80.69
633.688	92.69
633.893	85.69
634.099	71.69
634.305	87.69
634.511	86.69
634.717	73.69
634.923	79.69
635.129	78.69
635.335	94.69
635.541	84.69
635.747	68.69
635.952	78.69
636.158	80.69
636.364	90.69
636.57	84.69
636.775	88.69
636.981	80.69
637.187	82.69
637.392	80.69
637.598	90.69
637.804	73.69
638.009	82.69
638.215	70.69
638.421	76.69
638.626	59.69
638.832	84.69
639.037	82.69
639.243	76.69
639.448	95.69
639.654	78.69
639.859	92.69
640.065	94.69
640.27	89.69
640.475	91.69
640.681	103.69
640.886	81.69
641.091	78.69
641.297	88.69
641.502	75.69
641.707	89.69
641.913	86.69
642.118	84.69
642.323	69.69
642.528	82.69
642.733	88.69
642.939	83.69
643.144	82.69
643.349	96.69
643.554	85.69
643.759	76.69
643.964	86.69
644.169	82.69
644.374	91.69
644.579	73.69
644.784	79.69
644.989	85.69
645.194	84.69
645.399	80.69
645.604	88.69
645.809	82.69
646.014	82.69
646.219	86.69
646.423	71.69
646.628	66.69
646.833	80.69
647.038	80.69
647.243	87.69
647.447	82.69
647.652	87.69
647.857	83.69
648.062	86.69
648.266	85.69
648.471	84.69
648.676	91.69
648.88	99.69
649.085	101.69
649.289	90.69
649.494	100.69
649.698	138.69
649.903	106.69
650.107	95.69
650.312	79.69
650.516	79.69
650.721	73.69
650.925	84.69
651.13	90.69
651.334	77.69
651.539	87.69
651.743	82.69
651.947	76.69
652.152	89.69
652.356	85.69
652.56	95.69
652.764	82.69
652.969	77.69
653.173	89.69
653.377	94.69
653.581	90.69
653.785	95.69
653.99	90.69
654.194	83.69
654.398	91.69
654.602	86.69
654.806	86.69
655.01	107.69
655.214	81.69
655.418	85.69
655.622	73.69
655.826	88.69
656.03	82.69
656.234	87.69
656.438	90.69
656.642	87.69
656.846	89.69
657.049	55.69
657.253	89.69
657.457	71.69
657.661	76.69
657.865	94.69
658.068	83.69
658.272	81.69
658.476	72.69
658.68	84.69
658.883	70.69
659.087	78.69
659.291	83.69
659.494	78.69
659.698	71.69
659.901	69.69
660.105	79.69
660.309	70.69
660.512	85.69
660.716	92.69
660.919	71.69
661.123	74.69
661.326	80.69
661.53	78.69
661.733	75.69
661.936	76.69
662.14	80.69
662.343	84.69
662.546	84.69
662.75	76.69
662.953	81.69
663.156	72.69
663.36	69.69
663.563	90.69
663.766	89.69
663.969	81.69
664.173	86.69
664.376	73.69
664.579	82.69
664.782	82.69
664.985	69.69
665.188	84.69
665.391	84.69
665.594	81.69
665.797	67.69
666	86.69
666.203	66.69
666.406	75.69
666.609	82.69
666.812	85.69
667.015	74.69
667.218	75.69
667.421	76.69
667.624	75.69
667.827	84.69
668.03	94.69
668.232	84.69
668.435	86.69
668.638	83.69
668.841	85.69
669.043	85.69
669.246	74.69
669.449	72.69
669.651	68.69
669.854	64.69
670.057	85.69
670.259	78.69
670.462	80.69
670.665	71.69
670.867	91.69
671.07	82.69
671.272	78.69
671.475	94.69
671.677	75.69
671.88	88.69
672.082	71.69
672.284	86.69
672.487	93.69
672.689	93.69
672.892	83.69
