Data from Circ_1981_H10_HRD10591_00034.txt Node
Date: Wed Jan 03 12:34:27 EST 2024
User: Yrep
Spectrometer: HR+D1059
Trigger mode: 1
Integration Time (sec): 1.000000E-1
Scans to average: 1
Electric dark correction enabled: true
Nonlinearity correction enabled: false
Boxcar width: 0
XAxis mode: Wavelengths
Number of Pixels in Spectrum: 2048
>>>>>Begin Spectral Data<<<<<
223.165	-18.19
223.4	-18.19
223.635	-18.19
223.869	-9.19
224.104	-14.19
224.338	-18.19
224.573	-22.19
224.808	-6.19
225.042	-17.19
225.277	-5.19
225.511	-7.19
225.746	-2.19
225.98	10.81
226.215	20.81
226.449	25.81
226.683	10.81
226.918	25.81
227.152	25.81
227.387	25.81
227.621	32.81
227.856	41.81
228.09	37.81
228.324	57.81
228.559	43.81
228.793	55.81
229.027	61.81
229.262	52.81
229.496	69.81
229.73	91.81
229.964	73.81
230.199	59.81
230.433	87.81
230.667	92.81
230.901	58.81
231.136	75.81
231.37	70.81
231.604	54.81
231.838	86.81
232.072	63.81
232.306	85.81
232.541	86.81
232.775	75.81
233.009	70.81
233.243	87.81
233.477	75.81
233.711	75.81
233.945	82.81
234.179	79.81
234.413	87.81
234.647	81.81
234.881	83.81
235.115	81.81
235.349	89.81
235.583	73.81
235.817	89.81
236.051	80.81
236.285	81.81
236.519	89.81
236.753	84.81
236.987	79.81
237.221	81.81
237.455	87.81
237.689	80.81
237.922	71.81
238.156	91.81
238.39	68.81
238.624	67.81
238.858	70.81
239.091	68.81
239.325	81.81
239.559	81.81
239.793	85.81
240.027	80.81
240.26	81.81
240.494	63.81
240.728	72.81
240.961	71.81
241.195	81.81
241.429	67.81
241.662	85.81
241.896	87.81
242.13	74.81
242.363	62.81
242.597	70.81
242.83	77.81
243.064	66.81
243.298	83.81
243.531	74.81
243.765	85.81
243.998	65.81
244.232	68.81
244.465	93.81
244.699	74.81
244.932	65.81
245.166	88.81
245.399	83.81
245.633	83.81
245.866	93.81
246.099	72.81
246.333	70.81
246.566	69.81
246.8	68.81
247.033	81.81
247.266	76.81
247.5	72.81
247.733	76.81
247.966	87.81
248.2	82.81
248.433	67.81
248.666	71.81
248.899	88.81
249.133	90.81
249.366	98.81
249.599	97.81
249.832	79.81
250.066	78.81
250.299	87.81
250.532	81.81
250.765	79.81
250.998	76.81
251.231	66.81
251.465	63.81
251.698	71.81
251.931	91.81
252.164	91.81
252.397	67.81
252.63	84.81
252.863	83.81
253.096	93.81
253.329	67.81
253.562	74.81
253.795	82.81
254.028	79.81
254.261	71.81
254.494	79.81
254.727	87.81
254.96	89.81
255.193	84.81
255.426	81.81
255.659	66.81
255.892	95.81
256.124	85.81
256.357	67.81
256.59	98.81
256.823	90.81
257.056	71.81
257.289	74.81
257.521	84.81
257.754	78.81
257.987	65.81
258.22	87.81
258.452	71.81
258.685	76.81
258.918	75.81
259.151	93.81
259.383	82.81
259.616	85.81
259.849	92.81
260.081	71.81
260.314	85.81
260.547	86.81
260.779	60.81
261.012	75.81
261.244	89.81
261.477	88.81
261.71	105.81
261.942	129.81
262.175	131.81
262.407	93.81
262.64	82.81
262.872	85.81
263.105	77.81
263.337	67.81
263.57	93.81
263.802	87.81
264.035	71.81
264.267	76.81
264.499	81.81
264.732	79.81
264.964	96.81
265.197	85.81
265.429	87.81
265.661	77.81
265.894	73.81
266.126	83.81
266.358	68.81
266.591	70.81
266.823	76.81
267.055	71.81
267.287	93.81
267.52	87.81
267.752	89.81
267.984	88.81
268.216	77.81
268.448	76.81
268.681	94.81
268.913	85.81
269.145	95.81
269.377	77.81
269.609	72.81
269.841	75.81
270.073	82.81
270.306	95.81
270.538	89.81
270.77	76.81
271.002	84.81
271.234	84.81
271.466	83.81
271.698	80.81
271.93	90.81
272.162	96.81
272.394	90.81
272.626	91.81
272.858	89.81
273.09	99.81
273.322	76.81
273.553	72.81
273.785	83.81
274.017	81.81
274.249	72.81
274.481	93.81
274.713	74.81
274.945	88.81
275.176	81.81
275.408	85.81
275.64	92.81
275.872	83.81
276.104	91.81
276.335	90.81
276.567	115.81
276.799	113.81
277.031	123.81
277.262	91.81
277.494	91.81
277.726	100.81
277.957	87.81
278.189	78.81
278.421	84.81
278.652	79.81
278.884	92.81
279.115	69.81
279.347	85.81
279.579	93.81
279.81	90.81
280.042	100.81
280.273	96.81
280.505	83.81
280.736	85.81
280.968	77.81
281.199	90.81
281.431	79.81
281.662	79.81
281.894	83.81
282.125	100.81
282.356	123.81
282.588	156.81
282.819	111.81
283.051	78.81
283.282	77.81
283.513	84.81
283.745	101.81
283.976	88.81
284.207	99.81
284.439	76.81
284.67	80.81
284.901	91.81
285.132	87.81
285.364	83.81
285.595	69.81
285.826	72.81
286.057	96.81
286.288	79.81
286.52	77.81
286.751	85.81
286.982	83.81
287.213	81.81
287.444	82.81
287.675	87.81
287.906	86.81
288.138	85.81
288.369	98.81
288.6	96.81
288.831	89.81
289.062	95.81
289.293	79.81
289.524	88.81
289.755	68.81
289.986	79.81
290.217	107.81
290.448	95.81
290.679	83.81
290.91	89.81
291.141	83.81
291.371	68.81
291.602	77.81
291.833	98.81
292.064	89.81
292.295	98.81
292.526	95.81
292.757	85.81
292.987	82.81
293.218	65.81
293.449	91.81
293.68	88.81
293.91	90.81
294.141	103.81
294.372	96.81
294.603	92.81
294.833	64.81
295.064	85.81
295.295	93.81
295.525	72.81
295.756	109.81
295.987	118.81
296.217	138.81
296.448	131.81
296.679	108.81
296.909	86.81
297.14	90.81
297.37	87.81
297.601	81.81
297.831	85.81
298.062	89.81
298.292	86.81
298.523	107.81
298.753	84.81
298.984	83.81
299.214	80.81
299.445	112.81
299.675	91.81
299.905	102.81
300.136	97.81
300.366	68.81
300.597	96.81
300.827	81.81
301.057	101.81
301.288	113.81
301.518	100.81
301.748	95.81
301.979	108.81
302.209	102.81
302.439	89.81
302.669	98.81
302.9	97.81
303.13	101.81
303.36	80.81
303.59	101.81
303.82	114.81
304.051	93.81
304.281	86.81
304.511	90.81
304.741	91.81
304.971	85.81
305.201	92.81
305.431	90.81
305.661	81.81
305.891	79.81
306.121	89.81
306.352	93.81
306.582	102.81
306.812	88.81
307.042	82.81
307.272	98.81
307.502	89.81
307.731	97.81
307.961	97.81
308.191	100.81
308.421	75.81
308.651	100.81
308.881	81.81
309.111	107.81
309.341	101.81
309.571	100.81
309.8	97.81
310.03	94.81
310.26	98.81
310.49	79.81
310.72	98.81
310.949	106.81
311.179	113.81
311.409	104.81
311.639	91.81
311.868	93.81
312.098	96.81
312.328	94.81
312.557	91.81
312.787	117.81
313.017	104.81
313.246	100.81
313.476	92.81
313.706	83.81
313.935	94.81
314.165	117.81
314.394	97.81
314.624	91.81
314.853	98.81
315.083	84.81
315.312	97.81
315.542	84.81
315.771	97.81
316.001	84.81
316.23	80.81
316.46	78.81
316.689	99.81
316.919	92.81
317.148	92.81
317.377	97.81
317.607	89.81
317.836	97.81
318.065	105.81
318.295	95.81
318.524	85.81
318.753	99.81
318.983	96.81
319.212	103.81
319.441	112.81
319.67	99.81
319.9	90.81
320.129	92.81
320.358	85.81
320.587	100.81
320.816	96.81
321.046	109.81
321.275	103.81
321.504	91.81
321.733	92.81
321.962	105.81
322.191	90.81
322.42	103.81
322.649	117.81
322.878	119.81
323.108	124.81
323.337	138.81
323.566	136.81
323.795	165.81
324.024	209.81
324.253	417.81
324.482	922.81
324.71	1880.81
324.939	2550.81
325.168	915.81
325.397	268.81
325.626	154.81
325.855	118.81
326.084	124.81
326.313	119.81
326.542	155.81
326.77	248.81
326.999	471.81
327.228	982.81
327.457	1810.81
327.686	1448.81
327.914	389.81
328.143	220.81
328.372	165.81
328.6	147.81
328.829	140.81
329.058	143.81
329.287	159.81
329.515	127.81
329.744	99.81
329.972	117.81
330.201	121.81
330.43	145.81
330.658	156.81
330.887	172.81
331.115	165.81
331.344	120.81
331.572	107.81
331.801	113.81
332.03	109.81
332.258	95.81
332.486	92.81
332.715	95.81
332.943	102.81
333.172	89.81
333.4	105.81
333.629	97.81
333.857	105.81
334.085	119.81
334.314	122.81
334.542	147.81
334.771	143.81
334.999	118.81
335.227	98.81
335.455	97.81
335.684	93.81
335.912	95.81
336.14	97.81
336.369	111.81
336.597	83.81
336.825	100.81
337.053	85.81
337.281	96.81
337.51	112.81
337.738	80.81
337.966	92.81
338.194	108.81
338.422	99.81
338.65	87.81
338.878	84.81
339.106	85.81
339.334	99.81
339.562	93.81
339.79	88.81
340.018	90.81
340.246	81.81
340.474	78.81
340.702	88.81
340.93	95.81
341.158	92.81
341.386	103.81
341.614	97.81
341.842	111.81
342.07	95.81
342.298	90.81
342.526	99.81
342.754	80.81
342.981	99.81
343.209	75.81
343.437	108.81
343.665	75.81
343.893	89.81
344.12	79.81
344.348	102.81
344.576	75.81
344.804	102.81
345.031	93.81
345.259	105.81
345.487	95.81
345.714	93.81
345.942	103.81
346.17	90.81
346.397	83.81
346.625	95.81
346.853	95.81
347.08	89.81
347.308	106.81
347.535	92.81
347.763	114.81
347.99	98.81
348.218	113.81
348.445	111.81
348.673	105.81
348.9	93.81
349.128	96.81
349.355	90.81
349.583	103.81
349.81	99.81
350.037	101.81
350.265	103.81
350.492	99.81
350.72	96.81
350.947	104.81
351.174	110.81
351.402	116.81
351.629	99.81
351.856	104.81
352.083	105.81
352.311	100.81
352.538	117.81
352.765	106.81
352.992	112.81
353.22	115.81
353.447	105.81
353.674	95.81
353.901	76.81
354.128	103.81
354.355	81.81
354.583	106.81
354.81	96.81
355.037	97.81
355.264	98.81
355.491	96.81
355.718	95.81
355.945	81.81
356.172	91.81
356.399	91.81
356.626	96.81
356.853	77.81
357.08	105.81
357.307	112.81
357.534	102.81
357.761	90.81
357.988	92.81
358.215	89.81
358.441	104.81
358.668	100.81
358.895	95.81
359.122	91.81
359.349	86.81
359.576	99.81
359.802	102.81
360.029	119.81
360.256	128.81
360.483	114.81
360.709	96.81
360.936	90.81
361.163	79.81
361.39	90.81
361.616	97.81
361.843	85.81
362.07	83.81
362.296	93.81
362.523	84.81
362.749	98.81
362.976	90.81
363.203	103.81
363.429	85.81
363.656	104.81
363.882	81.81
364.109	87.81
364.335	92.81
364.562	98.81
364.788	97.81
365.015	89.81
365.241	104.81
365.468	107.81
365.694	113.81
365.92	108.81
366.147	96.81
366.373	92.81
366.599	99.81
366.826	96.81
367.052	94.81
367.278	106.81
367.505	106.81
367.731	103.81
367.957	86.81
368.184	96.81
368.41	99.81
368.636	122.81
368.862	108.81
369.089	110.81
369.315	97.81
369.541	82.81
369.767	96.81
369.993	85.81
370.219	87.81
370.445	92.81
370.672	88.81
370.898	86.81
371.124	88.81
371.35	81.81
371.576	89.81
371.802	76.81
372.028	80.81
372.254	85.81
372.48	80.81
372.706	109.81
372.932	97.81
373.158	84.81
373.384	100.81
373.61	89.81
373.835	88.81
374.061	98.81
374.287	77.81
374.513	89.81
374.739	73.81
374.965	80.81
375.191	82.81
375.416	95.81
375.642	84.81
375.868	93.81
376.094	87.81
376.319	79.81
376.545	95.81
376.771	104.81
376.997	91.81
377.222	85.81
377.448	87.81
377.674	83.81
377.899	96.81
378.125	86.81
378.35	98.81
378.576	93.81
378.802	85.81
379.027	89.81
379.253	96.81
379.478	92.81
379.704	105.81
379.929	100.81
380.155	106.81
380.38	100.81
380.606	91.81
380.831	93.81
381.057	99.81
381.282	87.81
381.507	95.81
381.733	96.81
381.958	85.81
382.184	103.81
382.409	101.81
382.634	100.81
382.86	107.81
383.085	98.81
383.31	108.81
383.535	108.81
383.761	101.81
383.986	103.81
384.211	106.81
384.436	103.81
384.662	92.81
384.887	105.81
385.112	105.81
385.337	104.81
385.562	101.81
385.787	104.81
386.013	107.81
386.238	115.81
386.463	121.81
386.688	107.81
386.913	109.81
387.138	99.81
387.363	98.81
387.588	109.81
387.813	101.81
388.038	111.81
388.263	91.81
388.488	111.81
388.713	92.81
388.938	81.81
389.163	91.81
389.387	102.81
389.612	92.81
389.837	83.81
390.062	87.81
390.287	83.81
390.512	87.81
390.736	103.81
390.961	83.81
391.186	81.81
391.411	97.81
391.636	89.81
391.86	87.81
392.085	68.81
392.31	91.81
392.534	69.81
392.759	78.81
392.984	80.81
393.208	92.81
393.433	105.81
393.658	92.81
393.882	76.81
394.107	91.81
394.331	74.81
394.556	79.81
394.78	95.81
395.005	87.81
395.229	84.81
395.454	90.81
395.678	87.81
395.903	85.81
396.127	83.81
396.352	87.81
396.576	96.81
396.801	96.81
397.025	98.81
397.249	91.81
397.474	85.81
397.698	77.81
397.922	90.81
398.147	81.81
398.371	86.81
398.595	81.81
398.82	108.81
399.044	79.81
399.268	79.81
399.492	81.81
399.717	81.81
399.941	89.81
400.165	85.81
400.389	80.81
400.613	81.81
400.837	77.81
401.062	76.81
401.286	98.81
401.51	95.81
401.734	81.81
401.958	110.81
402.182	134.81
402.406	164.81
402.63	127.81
402.854	113.81
403.078	82.81
403.302	79.81
403.526	82.81
403.75	84.81
403.974	70.81
404.198	91.81
404.422	89.81
404.645	96.81
404.869	108.81
405.093	100.81
405.317	109.81
405.541	105.81
405.765	93.81
405.988	126.81
406.212	189.81
406.436	287.81
406.66	184.81
406.883	119.81
407.107	109.81
407.331	113.81
407.555	109.81
407.778	93.81
408.002	109.81
408.226	90.81
408.449	93.81
408.673	85.81
408.896	98.81
409.12	89.81
409.344	82.81
409.567	90.81
409.791	89.81
410.014	92.81
410.238	99.81
410.461	89.81
410.685	103.81
410.908	97.81
411.132	104.81
411.355	96.81
411.578	96.81
411.802	84.81
412.025	84.81
412.249	96.81
412.472	89.81
412.695	91.81
412.919	95.81
413.142	72.81
413.365	87.81
413.589	91.81
413.812	98.81
414.035	98.81
414.258	91.81
414.482	88.81
414.705	87.81
414.928	89.81
415.151	89.81
415.374	85.81
415.597	96.81
415.821	85.81
416.044	88.81
416.267	85.81
416.49	67.81
416.713	83.81
416.936	80.81
417.159	87.81
417.382	96.81
417.605	92.81
417.828	93.81
418.051	89.81
418.274	79.81
418.497	92.81
418.72	96.81
418.943	90.81
419.166	76.81
419.389	85.81
419.611	105.81
419.834	96.81
420.057	95.81
420.28	87.81
420.503	97.81
420.726	93.81
420.948	93.81
421.171	105.81
421.394	95.81
421.617	107.81
421.839	80.81
422.062	74.81
422.285	97.81
422.507	86.81
422.73	107.81
422.953	99.81
423.175	84.81
423.398	93.81
423.621	84.81
423.843	91.81
424.066	87.81
424.288	92.81
424.511	87.81
424.733	103.81
424.956	119.81
425.178	107.81
425.401	104.81
425.623	111.81
425.846	93.81
426.068	103.81
426.291	97.81
426.513	87.81
426.735	103.81
426.958	88.81
427.18	116.81
427.402	154.81
427.625	220.81
427.847	163.81
428.069	113.81
428.292	91.81
428.514	81.81
428.736	88.81
428.958	76.81
429.181	84.81
429.403	81.81
429.625	90.81
429.847	89.81
430.069	107.81
430.292	98.81
430.514	81.81
430.736	99.81
430.958	82.81
431.18	76.81
431.402	76.81
431.624	81.81
431.846	87.81
432.068	91.81
432.29	76.81
432.512	85.81
432.734	85.81
432.956	80.81
433.178	106.81
433.4	94.81
433.622	89.81
433.844	101.81
434.066	92.81
434.287	98.81
434.509	90.81
434.731	97.81
434.953	89.81
435.175	80.81
435.397	92.81
435.618	91.81
435.84	111.81
436.062	115.81
436.284	121.81
436.505	104.81
436.727	97.81
436.949	92.81
437.17	70.81
437.392	86.81
437.614	84.81
437.835	115.81
438.057	138.81
438.278	133.81
438.5	130.81
438.721	145.81
438.943	110.81
439.165	86.81
439.386	78.81
439.608	104.81
439.829	97.81
440.05	133.81
440.272	165.81
440.493	117.81
440.715	107.81
440.936	94.81
441.158	87.81
441.379	82.81
441.6	91.81
441.822	94.81
442.043	101.81
442.264	125.81
442.486	123.81
442.707	86.81
442.928	108.81
443.149	155.81
443.371	158.81
443.592	118.81
443.813	120.81
444.034	116.81
444.255	106.81
444.476	89.81
444.698	84.81
444.919	84.81
445.14	133.81
445.361	129.81
445.582	128.81
445.803	179.81
446.024	159.81
446.245	163.81
446.466	132.81
446.687	104.81
446.908	100.81
447.129	88.81
447.35	93.81
447.571	87.81
447.792	99.81
448.013	106.81
448.234	90.81
448.455	109.81
448.675	122.81
448.896	129.81
449.117	104.81
449.338	124.81
449.559	156.81
449.779	162.81
450	105.81
450.221	94.81
450.442	95.81
450.662	93.81
450.883	114.81
451.104	123.81
451.324	105.81
451.545	86.81
451.766	91.81
451.986	76.81
452.207	99.81
452.428	97.81
452.648	93.81
452.869	114.81
453.089	115.81
453.31	131.81
453.53	97.81
453.751	96.81
453.971	118.81
454.192	128.81
454.412	94.81
454.633	88.81
454.853	69.81
455.073	91.81
455.294	89.81
455.514	106.81
455.734	97.81
455.955	87.81
456.175	69.81
456.395	73.81
456.616	104.81
456.836	76.81
457.056	88.81
457.276	91.81
457.497	75.81
457.717	87.81
457.937	91.81
458.157	80.81
458.377	94.81
458.598	132.81
458.818	182.81
459.038	216.81
459.258	137.81
459.478	83.81
459.698	84.81
459.918	85.81
460.138	89.81
460.358	76.81
460.578	94.81
460.798	82.81
461.018	99.81
461.238	102.81
461.458	85.81
461.678	85.81
461.898	89.81
462.118	73.81
462.338	88.81
462.558	97.81
462.777	80.81
462.997	91.81
463.217	82.81
463.437	77.81
463.657	83.81
463.876	102.81
464.096	87.81
464.316	101.81
464.536	103.81
464.755	90.81
464.975	115.81
465.195	195.81
465.414	207.81
465.634	105.81
465.854	99.81
466.073	77.81
466.293	71.81
466.512	77.81
466.732	90.81
466.951	90.81
467.171	92.81
467.391	105.81
467.61	115.81
467.829	113.81
468.049	112.81
468.268	104.81
468.488	95.81
468.707	75.81
468.927	79.81
469.146	79.81
469.365	82.81
469.585	93.81
469.804	103.81
470.023	102.81
470.243	95.81
470.462	104.81
470.681	123.81
470.901	73.81
471.12	85.81
471.339	81.81
471.558	95.81
471.777	81.81
471.997	95.81
472.216	119.81
472.435	174.81
472.654	88.81
472.873	93.81
473.092	92.81
473.311	95.81
473.53	83.81
473.749	89.81
473.968	88.81
474.187	122.81
474.406	109.81
474.625	99.81
474.844	92.81
475.063	94.81
475.282	95.81
475.501	75.81
475.72	85.81
475.939	83.81
476.158	67.81
476.377	85.81
476.596	90.81
476.814	94.81
477.033	99.81
477.252	92.81
477.471	93.81
477.69	99.81
477.908	90.81
478.127	81.81
478.346	88.81
478.564	79.81
478.783	87.81
479.002	100.81
479.22	75.81
479.439	105.81
479.658	103.81
479.876	90.81
480.095	89.81
480.313	96.81
480.532	99.81
480.751	89.81
480.969	121.81
481.188	246.81
481.406	178.81
481.624	100.81
481.843	85.81
482.061	81.81
482.28	82.81
482.498	89.81
482.717	86.81
482.935	69.81
483.153	80.81
483.372	96.81
483.59	90.81
483.808	83.81
484.027	94.81
484.245	91.81
484.463	97.81
484.681	106.81
484.9	83.81
485.118	97.81
485.336	96.81
485.554	108.81
485.772	107.81
485.99	111.81
486.209	91.81
486.427	103.81
486.645	112.81
486.863	124.81
487.081	105.81
487.299	104.81
487.517	105.81
487.735	92.81
487.953	76.81
488.171	104.81
488.389	94.81
488.607	109.81
488.825	105.81
489.043	92.81
489.261	84.81
489.479	76.81
489.696	76.81
489.914	73.81
490.132	73.81
490.35	87.81
490.568	86.81
490.786	93.81
491.003	71.81
491.221	99.81
491.439	92.81
491.657	92.81
491.874	95.81
492.092	89.81
492.31	82.81
492.527	98.81
492.745	93.81
492.963	89.81
493.18	91.81
493.398	89.81
493.615	85.81
493.833	84.81
494.05	102.81
494.268	76.81
494.485	80.81
494.703	95.81
494.92	84.81
495.138	108.81
495.355	87.81
495.573	99.81
495.79	94.81
496.008	84.81
496.225	98.81
496.442	91.81
496.66	91.81
496.877	92.81
497.094	95.81
497.312	91.81
497.529	83.81
497.746	92.81
497.963	89.81
498.181	100.81
498.398	98.81
498.615	100.81
498.832	94.81
499.049	83.81
499.267	87.81
499.484	84.81
499.701	84.81
499.918	82.81
500.135	88.81
500.352	90.81
500.569	86.81
500.786	81.81
501.003	99.81
501.22	83.81
501.437	81.81
501.654	100.81
501.871	114.81
502.088	95.81
502.305	83.81
502.522	99.81
502.739	91.81
502.956	95.81
503.172	93.81
503.389	90.81
503.606	114.81
503.823	96.81
504.04	94.81
504.256	92.81
504.473	88.81
504.69	88.81
504.907	99.81
505.123	89.81
505.34	79.81
505.557	77.81
505.773	100.81
505.99	89.81
506.207	79.81
506.423	91.81
506.64	83.81
506.856	80.81
507.073	83.81
507.289	89.81
507.506	104.81
507.722	104.81
507.939	128.81
508.155	103.81
508.372	99.81
508.588	97.81
508.805	104.81
509.021	92.81
509.238	91.81
509.454	104.81
509.67	106.81
509.887	99.81
510.103	136.81
510.319	229.81
510.536	844.81
510.752	2787.81
510.968	744.81
511.184	185.81
511.401	114.81
511.617	102.81
511.833	94.81
512.049	99.81
512.265	97.81
512.481	103.81
512.698	93.81
512.914	101.81
513.13	100.81
513.346	88.81
513.562	83.81
513.778	87.81
513.994	104.81
514.21	110.81
514.426	124.81
514.642	148.81
514.858	131.81
515.074	199.81
515.29	579.81
515.506	2093.81
515.721	753.81
515.937	185.81
516.153	124.81
516.369	111.81
516.585	95.81
516.801	95.81
517.016	81.81
517.232	85.81
517.448	96.81
517.664	101.81
517.879	98.81
518.095	95.81
518.311	98.81
518.527	100.81
518.742	91.81
518.958	105.81
519.173	104.81
519.389	92.81
519.605	101.81
519.82	91.81
520.036	115.81
520.251	116.81
520.467	124.81
520.682	108.81
520.898	116.81
521.113	135.81
521.329	165.81
521.544	274.81
521.76	776.81
521.975	3479.81
522.19	2064.81
522.406	419.81
522.621	154.81
522.836	116.81
523.052	97.81
523.267	89.81
523.482	93.81
523.698	105.81
523.913	127.81
524.128	101.81
524.343	100.81
524.559	96.81
524.774	87.81
524.989	83.81
525.204	104.81
525.419	108.81
525.634	87.81
525.849	104.81
526.064	88.81
526.28	90.81
526.495	84.81
526.71	88.81
526.925	86.81
527.14	91.81
527.355	90.81
527.57	76.81
527.785	89.81
527.999	75.81
528.214	90.81
528.429	91.81
528.644	105.81
528.859	91.81
529.074	96.81
529.289	155.81
529.503	232.81
529.718	109.81
529.933	88.81
530.148	93.81
530.363	104.81
530.577	74.81
530.792	86.81
531.007	97.81
531.221	96.81
531.436	85.81
531.651	83.81
531.865	95.81
532.08	93.81
532.295	105.81
532.509	95.81
532.724	84.81
532.938	103.81
533.153	93.81
533.367	107.81
533.582	98.81
533.796	90.81
534.011	91.81
534.225	91.81
534.44	103.81
534.654	81.81
534.868	91.81
535.083	79.81
535.297	98.81
535.511	99.81
535.726	107.81
535.94	100.81
536.154	95.81
536.369	85.81
536.583	103.81
536.797	102.81
537.011	96.81
537.225	83.81
537.44	97.81
537.654	90.81
537.868	84.81
538.082	97.81
538.296	87.81
538.51	83.81
538.724	98.81
538.938	86.81
539.153	88.81
539.367	115.81
539.581	101.81
539.795	92.81
540.009	91.81
540.222	91.81
540.436	79.81
540.65	87.81
540.864	97.81
541.078	103.81
541.292	88.81
541.506	93.81
541.72	92.81
541.934	83.81
542.147	83.81
542.361	87.81
542.575	84.81
542.789	87.81
543.002	85.81
543.216	86.81
543.43	105.81
543.644	89.81
543.857	92.81
544.071	100.81
544.285	87.81
544.498	94.81
544.712	79.81
544.925	83.81
545.139	91.81
545.352	97.81
545.566	90.81
545.779	93.81
545.993	93.81
546.206	90.81
546.42	86.81
546.633	72.81
546.847	86.81
547.06	93.81
547.274	89.81
547.487	110.81
547.7	91.81
547.914	100.81
548.127	71.81
548.34	82.81
548.554	74.81
548.767	92.81
548.98	83.81
549.193	79.81
549.407	86.81
549.62	79.81
549.833	98.81
550.046	92.81
550.259	84.81
550.473	87.81
550.686	83.81
550.899	88.81
551.112	94.81
551.325	91.81
551.538	73.81
551.751	84.81
551.964	79.81
552.177	85.81
552.39	89.81
552.603	92.81
552.816	85.81
553.029	83.81
553.242	92.81
553.455	106.81
553.667	113.81
553.88	112.81
554.093	100.81
554.306	81.81
554.519	94.81
554.732	95.81
554.944	79.81
555.157	81.81
555.37	83.81
555.583	88.81
555.795	103.81
556.008	87.81
556.221	82.81
556.433	86.81
556.646	83.81
556.859	89.81
557.071	101.81
557.284	101.81
557.496	93.81
557.709	91.81
557.921	83.81
558.134	85.81
558.346	92.81
558.559	97.81
558.771	91.81
558.984	97.81
559.196	85.81
559.409	80.81
559.621	85.81
559.833	85.81
560.046	88.81
560.258	89.81
560.47	75.81
560.683	93.81
560.895	92.81
561.107	74.81
561.32	87.81
561.532	84.81
561.744	103.81
561.956	87.81
562.168	100.81
562.381	100.81
562.593	83.81
562.805	95.81
563.017	86.81
563.229	87.81
563.441	86.81
563.653	87.81
563.865	91.81
564.077	72.81
564.289	82.81
564.501	92.81
564.713	100.81
564.925	97.81
565.137	115.81
565.349	100.81
565.561	78.81
565.773	93.81
565.985	90.81
566.197	80.81
566.408	73.81
566.62	95.81
566.832	89.81
567.044	86.81
567.255	91.81
567.467	88.81
567.679	88.81
567.891	87.81
568.102	95.81
568.314	98.81
568.526	85.81
568.737	92.81
568.949	81.81
569.161	85.81
569.372	81.81
569.584	87.81
569.795	76.81
570.007	113.81
570.218	255.81
570.43	143.81
570.641	95.81
570.853	101.81
571.064	85.81
571.276	96.81
571.487	89.81
571.698	91.81
571.91	85.81
572.121	84.81
572.333	102.81
572.544	95.81
572.755	85.81
572.966	75.81
573.178	84.81
573.389	99.81
573.6	89.81
573.811	88.81
574.023	87.81
574.234	101.81
574.445	101.81
574.656	89.81
574.867	95.81
575.078	87.81
575.289	97.81
575.501	90.81
575.712	90.81
575.923	97.81
576.134	90.81
576.345	84.81
576.556	93.81
576.767	118.81
576.978	87.81
577.188	96.81
577.399	99.81
577.61	102.81
577.821	88.81
578.032	126.81
578.243	291.81
578.454	860.81
578.665	245.81
578.875	104.81
579.086	102.81
579.297	87.81
579.508	86.81
579.718	98.81
579.929	83.81
580.14	93.81
580.35	79.81
580.561	89.81
580.772	83.81
580.982	84.81
581.193	93.81
581.403	85.81
581.614	84.81
581.825	84.81
582.035	95.81
582.246	98.81
582.456	90.81
582.667	99.81
582.877	76.81
583.087	71.81
583.298	89.81
583.508	101.81
583.719	82.81
583.929	87.81
584.139	61.81
584.35	75.81
584.56	72.81
584.77	79.81
584.981	87.81
585.191	89.81
585.401	90.81
585.611	84.81
585.821	106.81
586.032	93.81
586.242	96.81
586.452	81.81
586.662	92.81
586.872	85.81
587.082	81.81
587.292	77.81
587.502	88.81
587.713	89.81
587.923	80.81
588.133	92.81
588.343	85.81
588.553	75.81
588.762	89.81
588.972	91.81
589.182	133.81
589.392	108.81
589.602	96.81
589.812	118.81
590.022	94.81
590.232	92.81
590.441	83.81
590.651	79.81
590.861	73.81
591.071	68.81
591.281	78.81
591.49	87.81
591.7	93.81
591.91	81.81
592.119	80.81
592.329	83.81
592.539	91.81
592.748	82.81
592.958	83.81
593.167	88.81
593.377	79.81
593.587	90.81
593.796	74.81
594.006	77.81
594.215	85.81
594.424	84.81
594.634	80.81
594.843	88.81
595.053	92.81
595.262	92.81
595.472	79.81
595.681	80.81
595.89	87.81
596.1	86.81
596.309	86.81
596.518	84.81
596.727	85.81
596.937	85.81
597.146	86.81
597.355	91.81
597.564	84.81
597.774	85.81
597.983	90.81
598.192	76.81
598.401	75.81
598.61	85.81
598.819	79.81
599.028	84.81
599.237	85.81
599.446	83.81
599.655	90.81
599.864	94.81
600.073	83.81
600.282	81.81
600.491	72.81
600.7	77.81
600.909	79.81
601.118	91.81
601.327	82.81
601.536	101.81
601.745	85.81
601.953	89.81
602.162	91.81
602.371	89.81
602.58	91.81
602.789	84.81
602.997	81.81
603.206	87.81
603.415	89.81
603.623	88.81
603.832	98.81
604.041	83.81
604.249	80.81
604.458	84.81
604.666	93.81
604.875	80.81
605.084	90.81
605.292	90.81
605.501	86.81
605.709	74.81
605.918	79.81
606.126	87.81
606.334	80.81
606.543	85.81
606.751	84.81
606.96	90.81
607.168	75.81
607.376	87.81
607.585	91.81
607.793	88.81
608.001	68.81
608.21	86.81
608.418	86.81
608.626	97.81
608.834	84.81
609.043	89.81
609.251	89.81
609.459	69.81
609.667	73.81
609.875	85.81
610.083	83.81
610.291	89.81
610.499	97.81
610.707	76.81
610.916	74.81
611.124	89.81
611.332	80.81
611.54	71.81
611.748	83.81
611.955	89.81
612.163	85.81
612.371	97.81
612.579	85.81
612.787	85.81
612.995	111.81
613.203	78.81
613.411	88.81
613.618	83.81
613.826	88.81
614.034	77.81
614.242	100.81
614.449	85.81
614.657	92.81
614.865	88.81
615.072	91.81
615.28	83.81
615.488	93.81
615.695	93.81
615.903	87.81
616.111	101.81
616.318	84.81
616.526	82.81
616.733	88.81
616.941	74.81
617.148	87.81
617.356	90.81
617.563	82.81
617.771	81.81
617.978	74.81
618.185	79.81
618.393	82.81
618.6	87.81
618.807	81.81
619.015	95.81
619.222	84.81
619.429	93.81
619.637	82.81
619.844	83.81
620.051	99.81
620.258	81.81
620.466	87.81
620.673	93.81
620.88	77.81
621.087	84.81
621.294	76.81
621.501	68.81
621.708	85.81
621.915	86.81
622.122	88.81
622.329	88.81
622.536	91.81
622.743	95.81
622.95	84.81
623.157	77.81
623.364	91.81
623.571	100.81
623.778	84.81
623.985	83.81
624.192	84.81
624.399	83.81
624.606	79.81
624.812	81.81
625.019	89.81
625.226	76.81
625.433	76.81
625.639	90.81
625.846	79.81
626.053	72.81
626.259	89.81
626.466	90.81
626.673	84.81
626.879	93.81
627.086	80.81
627.293	88.81
627.499	85.81
627.706	79.81
627.912	94.81
628.119	88.81
628.325	85.81
628.532	82.81
628.738	83.81
628.945	84.81
629.151	89.81
629.357	86.81
629.564	80.81
629.77	76.81
629.976	92.81
630.183	86.81
630.389	88.81
630.595	88.81
630.802	81.81
631.008	81.81
631.214	77.81
631.42	76.81
631.627	89.81
631.833	83.81
632.039	75.81
632.245	77.81
632.451	80.81
632.657	81.81
632.863	78.81
633.069	86.81
633.275	99.81
633.481	73.81
633.688	91.81
633.893	85.81
634.099	89.81
634.305	83.81
634.511	84.81
634.717	85.81
634.923	82.81
635.129	91.81
635.335	81.81
635.541	72.81
635.747	81.81
635.952	81.81
636.158	93.81
636.364	85.81
636.57	92.81
636.775	74.81
636.981	82.81
637.187	81.81
637.392	92.81
637.598	88.81
637.804	85.81
638.009	91.81
638.215	75.81
638.421	85.81
638.626	87.81
638.832	90.81
639.037	76.81
639.243	84.81
639.448	75.81
639.654	92.81
639.859	84.81
640.065	99.81
640.27	86.81
640.475	91.81
640.681	83.81
640.886	83.81
641.091	77.81
641.297	107.81
641.502	99.81
641.707	85.81
641.913	75.81
642.118	72.81
642.323	91.81
642.528	96.81
642.733	85.81
642.939	71.81
643.144	89.81
643.349	86.81
643.554	92.81
643.759	77.81
643.964	84.81
644.169	86.81
644.374	97.81
644.579	90.81
644.784	77.81
644.989	89.81
645.194	77.81
645.399	83.81
645.604	90.81
645.809	85.81
646.014	82.81
646.219	93.81
646.423	77.81
646.628	98.81
646.833	87.81
647.038	87.81
647.243	87.81
647.447	81.81
647.652	92.81
647.857	108.81
648.062	90.81
648.266	83.81
648.471	90.81
648.676	95.81
648.88	84.81
649.085	90.81
649.289	88.81
649.494	114.81
649.698	134.81
649.903	101.81
650.107	93.81
650.312	98.81
650.516	87.81
650.721	79.81
650.925	69.81
651.13	70.81
651.334	86.81
651.539	81.81
651.743	75.81
651.947	70.81
652.152	74.81
652.356	84.81
652.56	88.81
652.764	81.81
652.969	85.81
653.173	71.81
653.377	74.81
653.581	79.81
653.785	99.81
653.99	79.81
654.194	94.81
654.398	84.81
654.602	86.81
654.806	107.81
655.01	108.81
655.214	91.81
655.418	85.81
655.622	79.81
655.826	77.81
656.03	77.81
656.234	84.81
656.438	98.81
656.642	83.81
656.846	82.81
657.049	71.81
657.253	86.81
657.457	101.81
657.661	89.81
657.865	76.81
658.068	103.81
658.272	83.81
658.476	86.81
658.68	79.81
658.883	80.81
659.087	76.81
659.291	83.81
659.494	73.81
659.698	88.81
659.901	79.81
660.105	86.81
660.309	86.81
660.512	76.81
660.716	61.81
660.919	73.81
661.123	71.81
661.326	76.81
661.53	85.81
661.733	87.81
661.936	83.81
662.14	83.81
662.343	85.81
662.546	74.81
662.75	75.81
662.953	80.81
663.156	87.81
663.36	82.81
663.563	73.81
663.766	87.81
663.969	86.81
664.173	92.81
664.376	79.81
664.579	73.81
664.782	79.81
664.985	84.81
665.188	81.81
665.391	67.81
665.594	85.81
665.797	78.81
666	75.81
666.203	76.81
666.406	64.81
666.609	80.81
666.812	75.81
667.015	92.81
667.218	80.81
667.421	72.81
667.624	87.81
667.827	79.81
668.03	85.81
668.232	79.81
668.435	87.81
668.638	76.81
668.841	83.81
669.043	83.81
669.246	82.81
669.449	72.81
669.651	78.81
669.854	73.81
670.057	88.81
670.259	90.81
670.462	84.81
670.665	80.81
670.867	88.81
671.07	83.81
671.272	81.81
671.475	79.81
671.677	66.81
671.88	79.81
672.082	74.81
672.284	70.81
672.487	72.81
672.689	80.81
672.892	71.81
