Data from Penny_3_HRD10591_00009.txt Node
Date: Wed Nov 05 15:35:13 EST 2025
User: Yrep
Spectrometer: HR+D1059
Trigger mode: 1
Integration Time (sec): 1.000000E-1
Scans to average: 1
Electric dark correction enabled: true
Nonlinearity correction enabled: false
Boxcar width: 0
XAxis mode: Wavelengths
Number of Pixels in Spectrum: 2048
>>>>>Begin Spectral Data<<<<<
223.165	-13.12
223.4	-13.12
223.635	-13.12
223.869	-26.12
224.104	-21.12
224.338	-25.12
224.573	-4.12
224.808	-18.12
225.042	-13.12
225.277	-9.12
225.511	-3.12
225.746	11.88
225.98	-6.12
226.215	26.88
226.449	19.88
226.683	19.88
226.918	33.88
227.152	26.88
227.387	11.88
227.621	39.88
227.856	46.88
228.09	53.88
228.324	53.88
228.559	49.88
228.793	48.88
229.027	58.88
229.262	72.88
229.496	67.88
229.73	65.88
229.964	56.88
230.199	69.88
230.433	77.88
230.667	73.88
230.901	72.88
231.136	66.88
231.37	87.88
231.604	85.88
231.838	92.88
232.072	81.88
232.306	79.88
232.541	79.88
232.775	68.88
233.009	76.88
233.243	80.88
233.477	74.88
233.711	83.88
233.945	77.88
234.179	82.88
234.413	82.88
234.647	82.88
234.881	83.88
235.115	64.88
235.349	95.88
235.583	70.88
235.817	69.88
236.051	75.88
236.285	77.88
236.519	63.88
236.753	58.88
236.987	50.88
237.221	60.88
237.455	62.88
237.689	77.88
237.922	67.88
238.156	66.88
238.39	51.88
238.624	73.88
238.858	75.88
239.091	69.88
239.325	76.88
239.559	71.88
239.793	65.88
240.027	75.88
240.26	69.88
240.494	75.88
240.728	63.88
240.961	82.88
241.195	54.88
241.429	81.88
241.662	91.88
241.896	78.88
242.13	73.88
242.363	73.88
242.597	56.88
242.83	69.88
243.064	84.88
243.298	82.88
243.531	77.88
243.765	61.88
243.998	69.88
244.232	81.88
244.465	77.88
244.699	75.88
244.932	71.88
245.166	79.88
245.399	70.88
245.633	83.88
245.866	83.88
246.099	89.88
246.333	81.88
246.566	84.88
246.8	79.88
247.033	63.88
247.266	74.88
247.5	70.88
247.733	66.88
247.966	83.88
248.2	71.88
248.433	68.88
248.666	78.88
248.899	79.88
249.133	83.88
249.366	75.88
249.599	74.88
249.832	81.88
250.066	62.88
250.299	82.88
250.532	76.88
250.765	76.88
250.998	62.88
251.231	70.88
251.465	67.88
251.698	79.88
251.931	74.88
252.164	84.88
252.397	71.88
252.63	86.88
252.863	81.88
253.096	70.88
253.329	83.88
253.562	77.88
253.795	74.88
254.028	81.88
254.261	79.88
254.494	87.88
254.727	77.88
254.96	65.88
255.193	79.88
255.426	72.88
255.659	72.88
255.892	77.88
256.124	78.88
256.357	83.88
256.59	82.88
256.823	77.88
257.056	70.88
257.289	65.88
257.521	85.88
257.754	67.88
257.987	76.88
258.22	83.88
258.452	84.88
258.685	73.88
258.918	75.88
259.151	76.88
259.383	71.88
259.616	71.88
259.849	81.88
260.081	87.88
260.314	73.88
260.547	81.88
260.779	79.88
261.012	74.88
261.244	91.88
261.477	92.88
261.71	85.88
261.942	71.88
262.175	82.88
262.407	77.88
262.64	71.88
262.872	72.88
263.105	75.88
263.337	78.88
263.57	87.88
263.802	87.88
264.035	91.88
264.267	70.88
264.499	77.88
264.732	78.88
264.964	85.88
265.197	69.88
265.429	84.88
265.661	83.88
265.894	81.88
266.126	78.88
266.358	84.88
266.591	88.88
266.823	72.88
267.055	80.88
267.287	92.88
267.52	81.88
267.752	86.88
267.984	79.88
268.216	81.88
268.448	88.88
268.681	82.88
268.913	85.88
269.145	72.88
269.377	81.88
269.609	75.88
269.841	93.88
270.073	77.88
270.306	73.88
270.538	79.88
270.77	77.88
271.002	77.88
271.234	82.88
271.466	93.88
271.698	71.88
271.93	83.88
272.162	78.88
272.394	66.88
272.626	85.88
272.858	94.88
273.09	81.88
273.322	73.88
273.553	75.88
273.785	82.88
274.017	85.88
274.249	79.88
274.481	81.88
274.713	71.88
274.945	87.88
275.176	69.88
275.408	94.88
275.64	89.88
275.872	74.88
276.104	77.88
276.335	80.88
276.567	88.88
276.799	67.88
277.031	73.88
277.262	78.88
277.494	72.88
277.726	77.88
277.957	72.88
278.189	80.88
278.421	90.88
278.652	77.88
278.884	85.88
279.115	91.88
279.347	85.88
279.579	79.88
279.81	84.88
280.042	79.88
280.273	83.88
280.505	72.88
280.736	82.88
280.968	73.88
281.199	75.88
281.431	83.88
281.662	62.88
281.894	88.88
282.125	89.88
282.356	79.88
282.588	88.88
282.819	82.88
283.051	80.88
283.282	67.88
283.513	90.88
283.745	89.88
283.976	96.88
284.207	75.88
284.439	73.88
284.67	81.88
284.901	69.88
285.132	89.88
285.364	85.88
285.595	70.88
285.826	93.88
286.057	89.88
286.288	72.88
286.52	87.88
286.751	80.88
286.982	79.88
287.213	83.88
287.444	74.88
287.675	84.88
287.906	82.88
288.138	80.88
288.369	71.88
288.6	75.88
288.831	78.88
289.062	85.88
289.293	93.88
289.524	82.88
289.755	72.88
289.986	79.88
290.217	77.88
290.448	73.88
290.679	90.88
290.91	81.88
291.141	78.88
291.371	73.88
291.602	85.88
291.833	95.88
292.064	66.88
292.295	78.88
292.526	87.88
292.757	81.88
292.987	75.88
293.218	87.88
293.449	89.88
293.68	77.88
293.91	77.88
294.141	72.88
294.372	84.88
294.603	75.88
294.833	94.88
295.064	76.88
295.295	72.88
295.525	78.88
295.756	85.88
295.987	70.88
296.217	89.88
296.448	70.88
296.679	85.88
296.909	90.88
297.14	88.88
297.37	93.88
297.601	81.88
297.831	93.88
298.062	86.88
298.292	94.88
298.523	88.88
298.753	85.88
298.984	92.88
299.214	100.88
299.445	71.88
299.675	71.88
299.905	78.88
300.136	81.88
300.366	76.88
300.597	82.88
300.827	84.88
301.057	89.88
301.288	84.88
301.518	76.88
301.748	82.88
301.979	87.88
302.209	63.88
302.439	84.88
302.669	70.88
302.9	81.88
303.13	81.88
303.36	80.88
303.59	66.88
303.82	76.88
304.051	69.88
304.281	86.88
304.511	88.88
304.741	68.88
304.971	75.88
305.201	83.88
305.431	83.88
305.661	79.88
305.891	71.88
306.121	71.88
306.352	76.88
306.582	70.88
306.812	83.88
307.042	81.88
307.272	80.88
307.502	87.88
307.731	67.88
307.961	86.88
308.191	87.88
308.421	83.88
308.651	89.88
308.881	76.88
309.111	69.88
309.341	92.88
309.571	81.88
309.8	83.88
310.03	78.88
310.26	96.88
310.49	59.88
310.72	75.88
310.949	82.88
311.179	79.88
311.409	83.88
311.639	83.88
311.868	83.88
312.098	81.88
312.328	93.88
312.557	89.88
312.787	86.88
313.017	77.88
313.246	71.88
313.476	84.88
313.706	73.88
313.935	93.88
314.165	83.88
314.394	89.88
314.624	74.88
314.853	89.88
315.083	87.88
315.312	79.88
315.542	83.88
315.771	81.88
316.001	85.88
316.23	86.88
316.46	88.88
316.689	81.88
316.919	65.88
317.148	75.88
317.377	81.88
317.607	93.88
317.836	73.88
318.065	77.88
318.295	73.88
318.524	73.88
318.753	76.88
318.983	71.88
319.212	70.88
319.441	75.88
319.67	72.88
319.9	71.88
320.129	78.88
320.358	79.88
320.587	75.88
320.816	91.88
321.046	80.88
321.275	93.88
321.504	84.88
321.733	91.88
321.962	70.88
322.191	90.88
322.42	88.88
322.649	90.88
322.878	85.88
323.108	82.88
323.337	69.88
323.566	81.88
323.795	75.88
324.024	81.88
324.253	110.88
324.482	120.88
324.71	149.88
324.939	152.88
325.168	94.88
325.397	80.88
325.626	96.88
325.855	93.88
326.084	88.88
326.313	90.88
326.542	89.88
326.77	88.88
326.999	94.88
327.228	99.88
327.457	150.88
327.686	129.88
327.914	100.88
328.143	95.88
328.372	111.88
328.6	104.88
328.829	80.88
329.058	78.88
329.287	80.88
329.515	89.88
329.744	108.88
329.972	123.88
330.201	124.88
330.43	133.88
330.658	112.88
330.887	82.88
331.115	88.88
331.344	93.88
331.572	88.88
331.801	78.88
332.03	89.88
332.258	78.88
332.486	80.88
332.715	82.88
332.943	81.88
333.172	70.88
333.4	84.88
333.629	73.88
333.857	101.88
334.085	112.88
334.314	145.88
334.542	160.88
334.771	142.88
334.999	88.88
335.227	75.88
335.455	84.88
335.684	87.88
335.912	72.88
336.14	91.88
336.369	93.88
336.597	75.88
336.825	83.88
337.053	94.88
337.281	79.88
337.51	80.88
337.738	67.88
337.966	87.88
338.194	69.88
338.422	83.88
338.65	64.88
338.878	85.88
339.106	87.88
339.334	74.88
339.562	77.88
339.79	72.88
340.018	86.88
340.246	81.88
340.474	74.88
340.702	88.88
340.93	87.88
341.158	71.88
341.386	63.88
341.614	73.88
341.842	78.88
342.07	79.88
342.298	76.88
342.526	80.88
342.754	80.88
342.981	85.88
343.209	89.88
343.437	83.88
343.665	94.88
343.893	74.88
344.12	85.88
344.348	73.88
344.576	93.88
344.804	83.88
345.031	80.88
345.259	77.88
345.487	85.88
345.714	91.88
345.942	85.88
346.17	83.88
346.397	74.88
346.625	74.88
346.853	76.88
347.08	74.88
347.308	75.88
347.535	86.88
347.763	85.88
347.99	75.88
348.218	70.88
348.445	88.88
348.673	90.88
348.9	101.88
349.128	72.88
349.355	79.88
349.583	85.88
349.81	86.88
350.037	70.88
350.265	81.88
350.492	77.88
350.72	90.88
350.947	86.88
351.174	84.88
351.402	74.88
351.629	87.88
351.856	92.88
352.083	83.88
352.311	75.88
352.538	78.88
352.765	83.88
352.992	88.88
353.22	88.88
353.447	80.88
353.674	75.88
353.901	76.88
354.128	79.88
354.355	73.88
354.583	79.88
354.81	81.88
355.037	78.88
355.264	95.88
355.491	82.88
355.718	87.88
355.945	84.88
356.172	90.88
356.399	81.88
356.626	79.88
356.853	70.88
357.08	82.88
357.307	92.88
357.534	78.88
357.761	81.88
357.988	74.88
358.215	85.88
358.441	92.88
358.668	59.88
358.895	64.88
359.122	84.88
359.349	87.88
359.576	77.88
359.802	74.88
360.029	71.88
360.256	77.88
360.483	74.88
360.709	94.88
360.936	90.88
361.163	82.88
361.39	79.88
361.616	67.88
361.843	93.88
362.07	84.88
362.296	77.88
362.523	76.88
362.749	81.88
362.976	76.88
363.203	78.88
363.429	85.88
363.656	73.88
363.882	74.88
364.109	89.88
364.335	87.88
364.562	92.88
364.788	76.88
365.015	92.88
365.241	74.88
365.468	76.88
365.694	81.88
365.92	81.88
366.147	76.88
366.373	83.88
366.599	57.88
366.826	81.88
367.052	96.88
367.278	76.88
367.505	83.88
367.731	74.88
367.957	66.88
368.184	78.88
368.41	77.88
368.636	86.88
368.862	77.88
369.089	79.88
369.315	69.88
369.541	74.88
369.767	81.88
369.993	73.88
370.219	89.88
370.445	88.88
370.672	94.88
370.898	86.88
371.124	84.88
371.35	84.88
371.576	78.88
371.802	80.88
372.028	75.88
372.254	92.88
372.48	86.88
372.706	94.88
372.932	70.88
373.158	72.88
373.384	96.88
373.61	78.88
373.835	82.88
374.061	65.88
374.287	67.88
374.513	85.88
374.739	81.88
374.965	69.88
375.191	81.88
375.416	81.88
375.642	84.88
375.868	79.88
376.094	75.88
376.319	85.88
376.545	75.88
376.771	79.88
376.997	75.88
377.222	65.88
377.448	82.88
377.674	81.88
377.899	81.88
378.125	92.88
378.35	63.88
378.576	71.88
378.802	67.88
379.027	73.88
379.253	76.88
379.478	85.88
379.704	75.88
379.929	74.88
380.155	73.88
380.38	74.88
380.606	65.88
380.831	83.88
381.057	72.88
381.282	83.88
381.507	77.88
381.733	86.88
381.958	90.88
382.184	89.88
382.409	72.88
382.634	85.88
382.86	64.88
383.085	79.88
383.31	82.88
383.535	78.88
383.761	84.88
383.986	96.88
384.211	64.88
384.436	80.88
384.662	73.88
384.887	85.88
385.112	73.88
385.337	69.88
385.562	80.88
385.787	76.88
386.013	83.88
386.238	77.88
386.463	80.88
386.688	86.88
386.913	84.88
387.138	73.88
387.363	73.88
387.588	91.88
387.813	71.88
388.038	83.88
388.263	70.88
388.488	73.88
388.713	83.88
388.938	81.88
389.163	71.88
389.387	82.88
389.612	87.88
389.837	89.88
390.062	95.88
390.287	69.88
390.512	75.88
390.736	73.88
390.961	70.88
391.186	79.88
391.411	74.88
391.636	72.88
391.86	83.88
392.085	81.88
392.31	93.88
392.534	75.88
392.759	65.88
392.984	80.88
393.208	70.88
393.433	81.88
393.658	80.88
393.882	82.88
394.107	74.88
394.331	79.88
394.556	78.88
394.78	72.88
395.005	70.88
395.229	69.88
395.454	75.88
395.678	80.88
395.903	74.88
396.127	93.88
396.352	76.88
396.576	72.88
396.801	72.88
397.025	81.88
397.249	79.88
397.474	89.88
397.698	81.88
397.922	83.88
398.147	74.88
398.371	78.88
398.595	76.88
398.82	71.88
399.044	85.88
399.268	69.88
399.492	81.88
399.717	86.88
399.941	79.88
400.165	79.88
400.389	73.88
400.613	82.88
400.837	85.88
401.062	70.88
401.286	65.88
401.51	77.88
401.734	78.88
401.958	70.88
402.182	81.88
402.406	75.88
402.63	76.88
402.854	82.88
403.078	74.88
403.302	78.88
403.526	86.88
403.75	77.88
403.974	71.88
404.198	76.88
404.422	74.88
404.645	71.88
404.869	101.88
405.093	62.88
405.317	85.88
405.541	71.88
405.765	85.88
405.988	84.88
406.212	87.88
406.436	72.88
406.66	99.88
406.883	65.88
407.107	76.88
407.331	73.88
407.555	85.88
407.778	79.88
408.002	90.88
408.226	76.88
408.449	77.88
408.673	84.88
408.896	81.88
409.12	61.88
409.344	76.88
409.567	76.88
409.791	66.88
410.014	79.88
410.238	85.88
410.461	74.88
410.685	87.88
410.908	88.88
411.132	71.88
411.355	79.88
411.578	85.88
411.802	75.88
412.025	65.88
412.249	63.88
412.472	83.88
412.695	79.88
412.919	81.88
413.142	75.88
413.365	87.88
413.589	77.88
413.812	81.88
414.035	74.88
414.258	76.88
414.482	69.88
414.705	78.88
414.928	64.88
415.151	82.88
415.374	79.88
415.597	72.88
415.821	75.88
416.044	75.88
416.267	69.88
416.49	68.88
416.713	79.88
416.936	88.88
417.159	82.88
417.382	71.88
417.605	69.88
417.828	74.88
418.051	83.88
418.274	75.88
418.497	78.88
418.72	71.88
418.943	85.88
419.166	85.88
419.389	84.88
419.611	72.88
419.834	81.88
420.057	71.88
420.28	75.88
420.503	84.88
420.726	82.88
420.948	83.88
421.171	67.88
421.394	72.88
421.617	65.88
421.839	81.88
422.062	86.88
422.285	90.88
422.507	75.88
422.73	65.88
422.953	81.88
423.175	71.88
423.398	73.88
423.621	74.88
423.843	65.88
424.066	83.88
424.288	74.88
424.511	69.88
424.733	91.88
424.956	74.88
425.178	74.88
425.401	80.88
425.623	73.88
425.846	83.88
426.068	73.88
426.291	85.88
426.513	89.88
426.735	83.88
426.958	77.88
427.18	73.88
427.402	88.88
427.625	82.88
427.847	93.88
428.069	81.88
428.292	75.88
428.514	75.88
428.736	85.88
428.958	71.88
429.181	66.88
429.403	71.88
429.625	72.88
429.847	85.88
430.069	76.88
430.292	90.88
430.514	77.88
430.736	87.88
430.958	86.88
431.18	69.88
431.402	89.88
431.624	72.88
431.846	73.88
432.068	81.88
432.29	88.88
432.512	82.88
432.734	78.88
432.956	86.88
433.178	74.88
433.4	77.88
433.622	82.88
433.844	72.88
434.066	78.88
434.287	61.88
434.509	71.88
434.731	69.88
434.953	86.88
435.175	69.88
435.397	77.88
435.618	81.88
435.84	79.88
436.062	84.88
436.284	70.88
436.505	58.88
436.727	82.88
436.949	75.88
437.17	65.88
437.392	76.88
437.614	82.88
437.835	72.88
438.057	81.88
438.278	77.88
438.5	79.88
438.721	85.88
438.943	88.88
439.165	79.88
439.386	85.88
439.608	85.88
439.829	75.88
440.05	71.88
440.272	82.88
440.493	85.88
440.715	69.88
440.936	78.88
441.158	69.88
441.379	65.88
441.6	89.88
441.822	83.88
442.043	75.88
442.264	71.88
442.486	73.88
442.707	81.88
442.928	75.88
443.149	89.88
443.371	97.88
443.592	76.88
443.813	72.88
444.034	79.88
444.255	83.88
444.476	81.88
444.698	70.88
444.919	80.88
445.14	145.88
445.361	117.88
445.582	82.88
445.803	65.88
446.024	83.88
446.245	82.88
446.466	81.88
446.687	72.88
446.908	90.88
447.129	62.88
447.35	85.88
447.571	81.88
447.792	68.88
448.013	65.88
448.234	70.88
448.455	82.88
448.675	81.88
448.896	62.88
449.117	73.88
449.338	78.88
449.559	74.88
449.779	83.88
450	79.88
450.221	75.88
450.442	69.88
450.662	63.88
450.883	79.88
451.104	80.88
451.324	81.88
451.545	78.88
451.766	70.88
451.986	76.88
452.207	66.88
452.428	70.88
452.648	88.88
452.869	79.88
453.089	93.88
453.31	80.88
453.53	87.88
453.751	93.88
453.971	78.88
454.192	73.88
454.412	77.88
454.633	79.88
454.853	75.88
455.073	85.88
455.294	79.88
455.514	79.88
455.734	69.88
455.955	79.88
456.175	74.88
456.395	69.88
456.616	71.88
456.836	78.88
457.056	77.88
457.276	80.88
457.497	88.88
457.717	83.88
457.937	74.88
458.157	74.88
458.377	67.88
458.598	67.88
458.818	83.88
459.038	85.88
459.258	80.88
459.478	75.88
459.698	86.88
459.918	73.88
460.138	80.88
460.358	89.88
460.578	76.88
460.798	79.88
461.018	86.88
461.238	86.88
461.458	81.88
461.678	74.88
461.898	81.88
462.118	67.88
462.338	93.88
462.558	86.88
462.777	77.88
462.997	70.88
463.217	73.88
463.437	70.88
463.657	76.88
463.876	76.88
464.096	78.88
464.316	83.88
464.536	73.88
464.755	81.88
464.975	90.88
465.195	87.88
465.414	85.88
465.634	78.88
465.854	82.88
466.073	95.88
466.293	73.88
466.512	69.88
466.732	86.88
466.951	72.88
467.171	78.88
467.391	83.88
467.61	67.88
467.829	86.88
468.049	113.88
468.268	105.88
468.488	92.88
468.707	75.88
468.927	86.88
469.146	74.88
469.365	85.88
469.585	83.88
469.804	81.88
470.023	76.88
470.243	84.88
470.462	91.88
470.681	82.88
470.901	84.88
471.12	78.88
471.339	73.88
471.558	79.88
471.777	85.88
471.997	97.88
472.216	147.88
472.435	180.88
472.654	101.88
472.873	90.88
473.092	77.88
473.311	84.88
473.53	76.88
473.749	80.88
473.968	77.88
474.187	85.88
474.406	75.88
474.625	82.88
474.844	86.88
475.063	65.88
475.282	65.88
475.501	84.88
475.72	77.88
475.939	73.88
476.158	78.88
476.377	75.88
476.596	76.88
476.814	90.88
477.033	75.88
477.252	86.88
477.471	71.88
477.69	72.88
477.908	70.88
478.127	69.88
478.346	73.88
478.564	86.88
478.783	77.88
479.002	88.88
479.22	72.88
479.439	81.88
479.658	104.88
479.876	73.88
480.095	85.88
480.313	76.88
480.532	76.88
480.751	98.88
480.969	137.88
481.188	260.88
481.406	190.88
481.624	90.88
481.843	77.88
482.061	63.88
482.28	87.88
482.498	79.88
482.717	95.88
482.935	76.88
483.153	69.88
483.372	83.88
483.59	81.88
483.808	80.88
484.027	91.88
484.245	80.88
484.463	69.88
484.681	76.88
484.9	83.88
485.118	95.88
485.336	81.88
485.554	85.88
485.772	74.88
485.99	70.88
486.209	75.88
486.427	79.88
486.645	70.88
486.863	54.88
487.081	73.88
487.299	89.88
487.517	87.88
487.735	83.88
487.953	81.88
488.171	87.88
488.389	72.88
488.607	76.88
488.825	83.88
489.043	74.88
489.261	86.88
489.479	84.88
489.696	75.88
489.914	77.88
490.132	85.88
490.35	83.88
490.568	74.88
490.786	84.88
491.003	81.88
491.221	91.88
491.439	69.88
491.657	87.88
491.874	79.88
492.092	88.88
492.31	85.88
492.527	68.88
492.745	85.88
492.963	94.88
493.18	79.88
493.398	82.88
493.615	71.88
493.833	72.88
494.05	65.88
494.268	75.88
494.485	96.88
494.703	73.88
494.92	78.88
495.138	65.88
495.355	75.88
495.573	66.88
495.79	70.88
496.008	95.88
496.225	97.88
496.442	77.88
496.66	87.88
496.877	80.88
497.094	88.88
497.312	79.88
497.529	69.88
497.746	77.88
497.963	81.88
498.181	72.88
498.398	75.88
498.615	68.88
498.832	82.88
499.049	78.88
499.267	82.88
499.484	84.88
499.701	69.88
499.918	75.88
500.135	82.88
500.352	79.88
500.569	73.88
500.786	90.88
501.003	72.88
501.22	93.88
501.437	75.88
501.654	79.88
501.871	93.88
502.088	83.88
502.305	89.88
502.522	69.88
502.739	78.88
502.956	74.88
503.172	77.88
503.389	70.88
503.606	85.88
503.823	74.88
504.04	83.88
504.256	95.88
504.473	77.88
504.69	80.88
504.907	89.88
505.123	86.88
505.34	75.88
505.557	90.88
505.773	79.88
505.99	82.88
506.207	85.88
506.423	61.88
506.64	87.88
506.856	81.88
507.073	85.88
507.289	75.88
507.506	90.88
507.722	74.88
507.939	69.88
508.155	100.88
508.372	71.88
508.588	80.88
508.805	87.88
509.021	87.88
509.238	95.88
509.454	82.88
509.67	74.88
509.887	66.88
510.103	82.88
510.319	81.88
510.536	132.88
510.752	189.88
510.968	124.88
511.184	96.88
511.401	67.88
511.617	61.88
511.833	73.88
512.049	69.88
512.265	74.88
512.481	79.88
512.698	82.88
512.914	76.88
513.13	96.88
513.346	74.88
513.562	71.88
513.778	77.88
513.994	83.88
514.21	73.88
514.426	89.88
514.642	73.88
514.858	88.88
515.074	104.88
515.29	122.88
515.506	192.88
515.721	113.88
515.937	89.88
516.153	72.88
516.369	88.88
516.585	91.88
516.801	67.88
517.016	89.88
517.232	76.88
517.448	73.88
517.664	81.88
517.879	84.88
518.095	73.88
518.311	85.88
518.527	76.88
518.742	73.88
518.958	73.88
519.173	68.88
519.389	70.88
519.605	73.88
519.82	63.88
520.036	80.88
520.251	89.88
520.467	75.88
520.682	81.88
520.898	93.88
521.113	98.88
521.329	82.88
521.544	98.88
521.76	126.88
521.975	279.88
522.19	174.88
522.406	109.88
522.621	98.88
522.836	82.88
523.052	70.88
523.267	65.88
523.482	88.88
523.698	79.88
523.913	79.88
524.128	77.88
524.343	78.88
524.559	70.88
524.774	80.88
524.989	69.88
525.204	86.88
525.419	81.88
525.634	69.88
525.849	75.88
526.064	65.88
526.28	89.88
526.495	91.88
526.71	84.88
526.925	74.88
527.14	73.88
527.355	89.88
527.57	84.88
527.785	75.88
527.999	77.88
528.214	67.88
528.429	78.88
528.644	81.88
528.859	85.88
529.074	79.88
529.289	93.88
529.503	84.88
529.718	79.88
529.933	87.88
530.148	59.88
530.363	72.88
530.577	73.88
530.792	65.88
531.007	81.88
531.221	69.88
531.436	82.88
531.651	79.88
531.865	87.88
532.08	73.88
532.295	84.88
532.509	73.88
532.724	63.88
532.938	85.88
533.153	75.88
533.367	58.88
533.582	82.88
533.796	78.88
534.011	81.88
534.225	79.88
534.44	89.88
534.654	90.88
534.868	62.88
535.083	79.88
535.297	67.88
535.511	72.88
535.726	90.88
535.94	83.88
536.154	73.88
536.369	89.88
536.583	87.88
536.797	80.88
537.011	81.88
537.225	90.88
537.44	78.88
537.654	79.88
537.868	84.88
538.082	77.88
538.296	80.88
538.51	79.88
538.724	70.88
538.938	81.88
539.153	85.88
539.367	92.88
539.581	87.88
539.795	72.88
540.009	71.88
540.222	82.88
540.436	95.88
540.65	67.88
540.864	65.88
541.078	70.88
541.292	78.88
541.506	85.88
541.72	74.88
541.934	97.88
542.147	75.88
542.361	78.88
542.575	71.88
542.789	79.88
543.002	83.88
543.216	74.88
543.43	70.88
543.644	75.88
543.857	82.88
544.071	71.88
544.285	77.88
544.498	71.88
544.712	76.88
544.925	61.88
545.139	77.88
545.352	75.88
545.566	85.88
545.779	81.88
545.993	85.88
546.206	87.88
546.42	86.88
546.633	83.88
546.847	86.88
547.06	79.88
547.274	85.88
547.487	64.88
547.7	73.88
547.914	78.88
548.127	76.88
548.34	79.88
548.554	82.88
548.767	68.88
548.98	77.88
549.193	87.88
549.407	88.88
549.62	67.88
549.833	70.88
550.046	91.88
550.259	84.88
550.473	81.88
550.686	98.88
550.899	79.88
551.112	85.88
551.325	81.88
551.538	82.88
551.751	100.88
551.964	84.88
552.177	80.88
552.39	72.88
552.603	84.88
552.816	79.88
553.029	71.88
553.242	67.88
553.455	99.88
553.667	92.88
553.88	73.88
554.093	79.88
554.306	86.88
554.519	80.88
554.732	96.88
554.944	85.88
555.157	75.88
555.37	83.88
555.583	81.88
555.795	95.88
556.008	85.88
556.221	73.88
556.433	72.88
556.646	76.88
556.859	76.88
557.071	81.88
557.284	72.88
557.496	73.88
557.709	70.88
557.921	87.88
558.134	79.88
558.346	80.88
558.559	73.88
558.771	88.88
558.984	73.88
559.196	80.88
559.409	78.88
559.621	60.88
559.833	78.88
560.046	84.88
560.258	89.88
560.47	81.88
560.683	85.88
560.895	74.88
561.107	87.88
561.32	75.88
561.532	76.88
561.744	85.88
561.956	77.88
562.168	61.88
562.381	76.88
562.593	87.88
562.805	94.88
563.017	88.88
563.229	93.88
563.441	72.88
563.653	84.88
563.865	79.88
564.077	72.88
564.289	89.88
564.501	74.88
564.713	87.88
564.925	74.88
565.137	80.88
565.349	72.88
565.561	80.88
565.773	77.88
565.985	69.88
566.197	81.88
566.408	89.88
566.62	85.88
566.832	79.88
567.044	74.88
567.255	83.88
567.467	79.88
567.679	88.88
567.891	72.88
568.102	81.88
568.314	60.88
568.526	81.88
568.737	94.88
568.949	74.88
569.161	77.88
569.372	58.88
569.584	76.88
569.795	81.88
570.007	78.88
570.218	76.88
570.43	81.88
570.641	68.88
570.853	81.88
571.064	87.88
571.276	83.88
571.487	93.88
571.698	88.88
571.91	85.88
572.121	78.88
572.333	74.88
572.544	81.88
572.755	81.88
572.966	71.88
573.178	91.88
573.389	81.88
573.6	80.88
573.811	74.88
574.023	82.88
574.234	86.88
574.445	75.88
574.656	91.88
574.867	68.88
575.078	85.88
575.289	82.88
575.501	68.88
575.712	77.88
575.923	73.88
576.134	70.88
576.345	79.88
576.556	76.88
576.767	95.88
576.978	95.88
577.188	82.88
577.399	75.88
577.61	79.88
577.821	69.88
578.032	73.88
578.243	101.88
578.454	117.88
578.665	80.88
578.875	90.88
579.086	90.88
579.297	81.88
579.508	79.88
579.718	83.88
579.929	87.88
580.14	78.88
580.35	83.88
580.561	75.88
580.772	71.88
580.982	85.88
581.193	84.88
581.403	80.88
581.614	77.88
581.825	62.88
582.035	91.88
582.246	86.88
582.456	67.88
582.667	80.88
582.877	87.88
583.087	99.88
583.298	75.88
583.508	73.88
583.719	75.88
583.929	82.88
584.139	86.88
584.35	86.88
584.56	85.88
584.77	86.88
584.981	80.88
585.191	89.88
585.401	72.88
585.611	87.88
585.821	83.88
586.032	76.88
586.242	74.88
586.452	89.88
586.662	83.88
586.872	72.88
587.082	63.88
587.292	88.88
587.502	86.88
587.713	88.88
587.923	68.88
588.133	77.88
588.343	85.88
588.553	93.88
588.762	87.88
588.972	77.88
589.182	85.88
589.392	68.88
589.602	87.88
589.812	89.88
590.022	91.88
590.232	93.88
590.441	73.88
590.651	73.88
590.861	83.88
591.071	95.88
591.281	80.88
591.49	77.88
591.7	66.88
591.91	83.88
592.119	81.88
592.329	85.88
592.539	79.88
592.748	89.88
592.958	57.88
593.167	85.88
593.377	76.88
593.587	87.88
593.796	78.88
594.006	73.88
594.215	72.88
594.424	77.88
594.634	87.88
594.843	79.88
595.053	89.88
595.262	79.88
595.472	77.88
595.681	72.88
595.89	88.88
596.1	75.88
596.309	83.88
596.518	86.88
596.727	85.88
596.937	84.88
597.146	65.88
597.355	93.88
597.564	65.88
597.774	99.88
597.983	76.88
598.192	71.88
598.401	78.88
598.61	76.88
598.819	79.88
599.028	67.88
599.237	75.88
599.446	62.88
599.655	72.88
599.864	77.88
600.073	90.88
600.282	81.88
600.491	90.88
600.7	79.88
600.909	70.88
601.118	81.88
601.327	74.88
601.536	86.88
601.745	81.88
601.953	75.88
602.162	88.88
602.371	82.88
602.58	79.88
602.789	74.88
602.997	73.88
603.206	81.88
603.415	74.88
603.623	74.88
603.832	69.88
604.041	75.88
604.249	82.88
604.458	76.88
604.666	69.88
604.875	65.88
605.084	71.88
605.292	75.88
605.501	85.88
605.709	83.88
605.918	75.88
606.126	78.88
606.334	84.88
606.543	76.88
606.751	76.88
606.96	97.88
607.168	70.88
607.376	79.88
607.585	74.88
607.793	92.88
608.001	67.88
608.21	80.88
608.418	69.88
608.626	68.88
608.834	80.88
609.043	72.88
609.251	69.88
609.459	82.88
609.667	97.88
609.875	86.88
610.083	63.88
610.291	79.88
610.499	81.88
610.707	82.88
610.916	79.88
611.124	88.88
611.332	97.88
611.54	74.88
611.748	82.88
611.955	72.88
612.163	91.88
612.371	90.88
612.579	79.88
612.787	79.88
612.995	84.88
613.203	94.88
613.411	80.88
613.618	81.88
613.826	72.88
614.034	79.88
614.242	85.88
614.449	80.88
614.657	82.88
614.865	90.88
615.072	88.88
615.28	83.88
615.488	73.88
615.695	82.88
615.903	71.88
616.111	81.88
616.318	86.88
616.526	72.88
616.733	84.88
616.941	69.88
617.148	83.88
617.356	73.88
617.563	79.88
617.771	78.88
617.978	71.88
618.185	85.88
618.393	81.88
618.6	83.88
618.807	87.88
619.015	88.88
619.222	82.88
619.429	62.88
619.637	73.88
619.844	67.88
620.051	83.88
620.258	83.88
620.466	85.88
620.673	86.88
620.88	91.88
621.087	90.88
621.294	83.88
621.501	70.88
621.708	79.88
621.915	83.88
622.122	95.88
622.329	80.88
622.536	89.88
622.743	74.88
622.95	75.88
623.157	75.88
623.364	86.88
623.571	79.88
623.778	85.88
623.985	82.88
624.192	66.88
624.399	74.88
624.606	81.88
624.812	63.88
625.019	82.88
625.226	76.88
625.433	90.88
625.639	71.88
625.846	87.88
626.053	75.88
626.259	75.88
626.466	79.88
626.673	89.88
626.879	67.88
627.086	77.88
627.293	85.88
627.499	89.88
627.706	82.88
627.912	84.88
628.119	80.88
628.325	82.88
628.532	85.88
628.738	81.88
628.945	57.88
629.151	63.88
629.357	76.88
629.564	84.88
629.77	73.88
629.976	83.88
630.183	65.88
630.389	89.88
630.595	71.88
630.802	74.88
631.008	94.88
631.214	78.88
631.42	94.88
631.627	79.88
631.833	81.88
632.039	75.88
632.245	88.88
632.451	97.88
632.657	81.88
632.863	74.88
633.069	77.88
633.275	85.88
633.481	87.88
633.688	89.88
633.893	80.88
634.099	89.88
634.305	82.88
634.511	85.88
634.717	74.88
634.923	73.88
635.129	83.88
635.335	65.88
635.541	93.88
635.747	79.88
635.952	92.88
636.158	83.88
636.364	68.88
636.57	104.88
636.775	90.88
636.981	78.88
637.187	84.88
637.392	88.88
637.598	82.88
637.804	81.88
638.009	75.88
638.215	80.88
638.421	89.88
638.626	72.88
638.832	89.88
639.037	78.88
639.243	79.88
639.448	80.88
639.654	77.88
639.859	81.88
640.065	70.88
640.27	85.88
640.475	85.88
640.681	86.88
640.886	102.88
641.091	84.88
641.297	89.88
641.502	82.88
641.707	86.88
641.913	80.88
642.118	79.88
642.323	87.88
642.528	99.88
642.733	81.88
642.939	81.88
643.144	82.88
643.349	90.88
643.554	82.88
643.759	76.88
643.964	71.88
644.169	70.88
644.374	78.88
644.579	75.88
644.784	69.88
644.989	73.88
645.194	91.88
645.399	72.88
645.604	82.88
645.809	69.88
646.014	85.88
646.219	82.88
646.423	76.88
646.628	74.88
646.833	83.88
647.038	82.88
647.243	75.88
647.447	83.88
647.652	71.88
647.857	63.88
648.062	86.88
648.266	66.88
648.471	71.88
648.676	68.88
648.88	74.88
649.085	87.88
649.289	81.88
649.494	71.88
649.698	73.88
649.903	81.88
650.107	83.88
650.312	87.88
650.516	84.88
650.721	77.88
650.925	67.88
651.13	81.88
651.334	82.88
651.539	83.88
651.743	96.88
651.947	83.88
652.152	81.88
652.356	81.88
652.56	90.88
652.764	79.88
652.969	81.88
653.173	91.88
653.377	76.88
653.581	79.88
653.785	84.88
653.99	79.88
654.194	73.88
654.398	78.88
654.602	75.88
654.806	80.88
655.01	79.88
655.214	77.88
655.418	70.88
655.622	85.88
655.826	91.88
656.03	78.88
656.234	88.88
656.438	72.88
656.642	64.88
656.846	69.88
657.049	65.88
657.253	87.88
657.457	81.88
657.661	74.88
657.865	72.88
658.068	86.88
658.272	79.88
658.476	80.88
658.68	77.88
658.883	84.88
659.087	82.88
659.291	86.88
659.494	85.88
659.698	63.88
659.901	82.88
660.105	83.88
660.309	72.88
660.512	71.88
660.716	73.88
660.919	75.88
661.123	88.88
661.326	76.88
661.53	88.88
661.733	79.88
661.936	69.88
662.14	78.88
662.343	83.88
662.546	77.88
662.75	92.88
662.953	76.88
663.156	78.88
663.36	73.88
663.563	75.88
663.766	80.88
663.969	75.88
664.173	68.88
664.376	63.88
664.579	76.88
664.782	68.88
664.985	81.88
665.188	83.88
665.391	84.88
665.594	81.88
665.797	83.88
666	70.88
666.203	76.88
666.406	67.88
666.609	91.88
666.812	82.88
667.015	79.88
667.218	88.88
667.421	83.88
667.624	83.88
667.827	85.88
668.03	58.88
668.232	82.88
668.435	68.88
668.638	82.88
668.841	82.88
669.043	81.88
669.246	75.88
669.449	83.88
669.651	89.88
669.854	76.88
670.057	78.88
670.259	81.88
670.462	76.88
670.665	71.88
670.867	78.88
671.07	88.88
671.272	70.88
671.475	77.88
671.677	75.88
671.88	87.88
672.082	81.88
672.284	79.88
672.487	94.88
672.689	60.88
672.892	73.88
