Data from Penny_3_HRD10591_00004.txt Node
Date: Wed Nov 05 15:35:10 EST 2025
User: Yrep
Spectrometer: HR+D1059
Trigger mode: 1
Integration Time (sec): 1.000000E-1
Scans to average: 1
Electric dark correction enabled: true
Nonlinearity correction enabled: false
Boxcar width: 0
XAxis mode: Wavelengths
Number of Pixels in Spectrum: 2048
>>>>>Begin Spectral Data<<<<<
223.165	-4.38
223.4	-4.38
223.635	-4.38
223.869	-10.38
224.104	-11.38
224.338	-21.38
224.573	-16.38
224.808	-18.38
225.042	-7.38
225.277	-12.38
225.511	9.62
225.746	4.62
225.98	8.62
226.215	5.62
226.449	5.62
226.683	17.62
226.918	17.62
227.152	32.62
227.387	32.62
227.621	39.62
227.856	43.62
228.09	58.62
228.324	53.62
228.559	64.62
228.793	56.62
229.027	68.62
229.262	58.62
229.496	62.62
229.73	81.62
229.964	72.62
230.199	71.62
230.433	73.62
230.667	68.62
230.901	68.62
231.136	79.62
231.37	67.62
231.604	77.62
231.838	68.62
232.072	78.62
232.306	89.62
232.541	83.62
232.775	83.62
233.009	83.62
233.243	77.62
233.477	83.62
233.711	97.62
233.945	85.62
234.179	88.62
234.413	75.62
234.647	91.62
234.881	86.62
235.115	87.62
235.349	81.62
235.583	87.62
235.817	95.62
236.051	90.62
236.285	81.62
236.519	82.62
236.753	77.62
236.987	67.62
237.221	80.62
237.455	75.62
237.689	67.62
237.922	79.62
238.156	87.62
238.39	71.62
238.624	74.62
238.858	77.62
239.091	69.62
239.325	81.62
239.559	74.62
239.793	69.62
240.027	79.62
240.26	64.62
240.494	79.62
240.728	72.62
240.961	89.62
241.195	87.62
241.429	80.62
241.662	83.62
241.896	82.62
242.13	83.62
242.363	75.62
242.597	79.62
242.83	79.62
243.064	74.62
243.298	80.62
243.531	77.62
243.765	78.62
243.998	78.62
244.232	76.62
244.465	86.62
244.699	79.62
244.932	75.62
245.166	74.62
245.399	77.62
245.633	81.62
245.866	92.62
246.099	80.62
246.333	84.62
246.566	69.62
246.8	84.62
247.033	77.62
247.266	60.62
247.5	87.62
247.733	69.62
247.966	71.62
248.2	86.62
248.433	73.62
248.666	77.62
248.899	84.62
249.133	80.62
249.366	77.62
249.599	67.62
249.832	73.62
250.066	77.62
250.299	85.62
250.532	89.62
250.765	71.62
250.998	76.62
251.231	71.62
251.465	70.62
251.698	79.62
251.931	77.62
252.164	80.62
252.397	75.62
252.63	86.62
252.863	87.62
253.096	75.62
253.329	89.62
253.562	82.62
253.795	90.62
254.028	82.62
254.261	88.62
254.494	84.62
254.727	101.62
254.96	81.62
255.193	84.62
255.426	98.62
255.659	86.62
255.892	82.62
256.124	89.62
256.357	89.62
256.59	92.62
256.823	81.62
257.056	81.62
257.289	65.62
257.521	70.62
257.754	78.62
257.987	73.62
258.22	74.62
258.452	75.62
258.685	84.62
258.918	88.62
259.151	88.62
259.383	86.62
259.616	78.62
259.849	70.62
260.081	80.62
260.314	82.62
260.547	66.62
260.779	79.62
261.012	83.62
261.244	89.62
261.477	77.62
261.71	78.62
261.942	72.62
262.175	86.62
262.407	92.62
262.64	81.62
262.872	93.62
263.105	85.62
263.337	88.62
263.57	83.62
263.802	88.62
264.035	81.62
264.267	81.62
264.499	82.62
264.732	79.62
264.964	70.62
265.197	75.62
265.429	76.62
265.661	79.62
265.894	79.62
266.126	69.62
266.358	81.62
266.591	77.62
266.823	99.62
267.055	92.62
267.287	85.62
267.52	76.62
267.752	84.62
267.984	83.62
268.216	68.62
268.448	80.62
268.681	77.62
268.913	77.62
269.145	77.62
269.377	85.62
269.609	71.62
269.841	69.62
270.073	82.62
270.306	71.62
270.538	89.62
270.77	92.62
271.002	104.62
271.234	78.62
271.466	70.62
271.698	77.62
271.93	77.62
272.162	93.62
272.394	76.62
272.626	89.62
272.858	94.62
273.09	67.62
273.322	91.62
273.553	79.62
273.785	80.62
274.017	84.62
274.249	77.62
274.481	76.62
274.713	72.62
274.945	76.62
275.176	80.62
275.408	79.62
275.64	87.62
275.872	78.62
276.104	80.62
276.335	70.62
276.567	90.62
276.799	84.62
277.031	82.62
277.262	75.62
277.494	96.62
277.726	90.62
277.957	76.62
278.189	86.62
278.421	71.62
278.652	78.62
278.884	76.62
279.115	77.62
279.347	85.62
279.579	80.62
279.81	87.62
280.042	73.62
280.273	90.62
280.505	93.62
280.736	74.62
280.968	100.62
281.199	85.62
281.431	84.62
281.662	85.62
281.894	85.62
282.125	87.62
282.356	101.62
282.588	73.62
282.819	89.62
283.051	87.62
283.282	88.62
283.513	99.62
283.745	86.62
283.976	83.62
284.207	89.62
284.439	90.62
284.67	94.62
284.901	87.62
285.132	84.62
285.364	79.62
285.595	81.62
285.826	88.62
286.057	95.62
286.288	91.62
286.52	86.62
286.751	74.62
286.982	86.62
287.213	73.62
287.444	68.62
287.675	88.62
287.906	95.62
288.138	86.62
288.369	92.62
288.6	92.62
288.831	72.62
289.062	87.62
289.293	81.62
289.524	81.62
289.755	75.62
289.986	100.62
290.217	90.62
290.448	73.62
290.679	84.62
290.91	84.62
291.141	85.62
291.371	89.62
291.602	85.62
291.833	73.62
292.064	85.62
292.295	77.62
292.526	81.62
292.757	92.62
292.987	95.62
293.218	85.62
293.449	82.62
293.68	101.62
293.91	84.62
294.141	82.62
294.372	91.62
294.603	91.62
294.833	88.62
295.064	77.62
295.295	80.62
295.525	73.62
295.756	94.62
295.987	79.62
296.217	95.62
296.448	85.62
296.679	80.62
296.909	86.62
297.14	81.62
297.37	81.62
297.601	81.62
297.831	89.62
298.062	82.62
298.292	87.62
298.523	84.62
298.753	76.62
298.984	83.62
299.214	87.62
299.445	89.62
299.675	73.62
299.905	79.62
300.136	76.62
300.366	73.62
300.597	75.62
300.827	101.62
301.057	85.62
301.288	69.62
301.518	79.62
301.748	68.62
301.979	99.62
302.209	77.62
302.439	90.62
302.669	88.62
302.9	85.62
303.13	79.62
303.36	78.62
303.59	85.62
303.82	84.62
304.051	84.62
304.281	90.62
304.511	84.62
304.741	78.62
304.971	87.62
305.201	87.62
305.431	100.62
305.661	84.62
305.891	89.62
306.121	73.62
306.352	91.62
306.582	87.62
306.812	94.62
307.042	74.62
307.272	74.62
307.502	87.62
307.731	94.62
307.961	95.62
308.191	84.62
308.421	93.62
308.651	78.62
308.881	79.62
309.111	72.62
309.341	78.62
309.571	88.62
309.8	76.62
310.03	99.62
310.26	83.62
310.49	100.62
310.72	87.62
310.949	97.62
311.179	81.62
311.409	91.62
311.639	80.62
311.868	91.62
312.098	86.62
312.328	81.62
312.557	85.62
312.787	77.62
313.017	107.62
313.246	94.62
313.476	74.62
313.706	88.62
313.935	86.62
314.165	79.62
314.394	76.62
314.624	79.62
314.853	64.62
315.083	89.62
315.312	74.62
315.542	98.62
315.771	82.62
316.001	89.62
316.23	84.62
316.46	84.62
316.689	84.62
316.919	91.62
317.148	87.62
317.377	86.62
317.607	90.62
317.836	90.62
318.065	96.62
318.295	85.62
318.524	71.62
318.753	87.62
318.983	83.62
319.212	87.62
319.441	89.62
319.67	89.62
319.9	94.62
320.129	92.62
320.358	72.62
320.587	92.62
320.816	95.62
321.046	86.62
321.275	78.62
321.504	93.62
321.733	102.62
321.962	94.62
322.191	82.62
322.42	89.62
322.649	95.62
322.878	96.62
323.108	90.62
323.337	86.62
323.566	88.62
323.795	88.62
324.024	104.62
324.253	118.62
324.482	121.62
324.71	150.62
324.939	161.62
325.168	119.62
325.397	83.62
325.626	109.62
325.855	95.62
326.084	86.62
326.313	90.62
326.542	75.62
326.77	91.62
326.999	97.62
327.228	124.62
327.457	141.62
327.686	124.62
327.914	116.62
328.143	109.62
328.372	117.62
328.6	93.62
328.829	77.62
329.058	94.62
329.287	88.62
329.515	82.62
329.744	101.62
329.972	121.62
330.201	126.62
330.43	133.62
330.658	108.62
330.887	103.62
331.115	87.62
331.344	88.62
331.572	91.62
331.801	85.62
332.03	92.62
332.258	95.62
332.486	78.62
332.715	75.62
332.943	91.62
333.172	83.62
333.4	80.62
333.629	86.62
333.857	85.62
334.085	104.62
334.314	145.62
334.542	169.62
334.771	131.62
334.999	99.62
335.227	76.62
335.455	92.62
335.684	95.62
335.912	91.62
336.14	89.62
336.369	87.62
336.597	92.62
336.825	89.62
337.053	94.62
337.281	87.62
337.51	81.62
337.738	95.62
337.966	79.62
338.194	77.62
338.422	81.62
338.65	94.62
338.878	86.62
339.106	91.62
339.334	94.62
339.562	90.62
339.79	74.62
340.018	88.62
340.246	105.62
340.474	96.62
340.702	92.62
340.93	88.62
341.158	91.62
341.386	88.62
341.614	88.62
341.842	73.62
342.07	78.62
342.298	81.62
342.526	84.62
342.754	74.62
342.981	93.62
343.209	79.62
343.437	101.62
343.665	88.62
343.893	97.62
344.12	84.62
344.348	84.62
344.576	84.62
344.804	87.62
345.031	79.62
345.259	87.62
345.487	83.62
345.714	85.62
345.942	79.62
346.17	77.62
346.397	85.62
346.625	98.62
346.853	93.62
347.08	82.62
347.308	81.62
347.535	79.62
347.763	78.62
347.99	94.62
348.218	85.62
348.445	92.62
348.673	86.62
348.9	91.62
349.128	91.62
349.355	73.62
349.583	75.62
349.81	68.62
350.037	85.62
350.265	87.62
350.492	80.62
350.72	102.62
350.947	84.62
351.174	87.62
351.402	87.62
351.629	80.62
351.856	87.62
352.083	91.62
352.311	84.62
352.538	93.62
352.765	85.62
352.992	92.62
353.22	83.62
353.447	84.62
353.674	93.62
353.901	79.62
354.128	90.62
354.355	83.62
354.583	93.62
354.81	93.62
355.037	96.62
355.264	88.62
355.491	81.62
355.718	78.62
355.945	73.62
356.172	76.62
356.399	80.62
356.626	76.62
356.853	89.62
357.08	83.62
357.307	86.62
357.534	86.62
357.761	92.62
357.988	77.62
358.215	88.62
358.441	83.62
358.668	87.62
358.895	82.62
359.122	87.62
359.349	74.62
359.576	81.62
359.802	88.62
360.029	91.62
360.256	97.62
360.483	77.62
360.709	85.62
360.936	91.62
361.163	89.62
361.39	97.62
361.616	87.62
361.843	96.62
362.07	83.62
362.296	87.62
362.523	89.62
362.749	78.62
362.976	92.62
363.203	72.62
363.429	82.62
363.656	85.62
363.882	87.62
364.109	87.62
364.335	92.62
364.562	83.62
364.788	86.62
365.015	90.62
365.241	87.62
365.468	86.62
365.694	86.62
365.92	94.62
366.147	87.62
366.373	84.62
366.599	83.62
366.826	93.62
367.052	81.62
367.278	88.62
367.505	86.62
367.731	97.62
367.957	89.62
368.184	105.62
368.41	80.62
368.636	91.62
368.862	77.62
369.089	90.62
369.315	84.62
369.541	82.62
369.767	79.62
369.993	83.62
370.219	91.62
370.445	82.62
370.672	93.62
370.898	83.62
371.124	86.62
371.35	85.62
371.576	85.62
371.802	92.62
372.028	81.62
372.254	85.62
372.48	89.62
372.706	94.62
372.932	83.62
373.158	100.62
373.384	89.62
373.61	87.62
373.835	84.62
374.061	83.62
374.287	99.62
374.513	80.62
374.739	75.62
374.965	87.62
375.191	84.62
375.416	76.62
375.642	71.62
375.868	88.62
376.094	88.62
376.319	95.62
376.545	94.62
376.771	87.62
376.997	92.62
377.222	95.62
377.448	79.62
377.674	84.62
377.899	96.62
378.125	96.62
378.35	84.62
378.576	79.62
378.802	79.62
379.027	78.62
379.253	97.62
379.478	86.62
379.704	86.62
379.929	83.62
380.155	78.62
380.38	91.62
380.606	91.62
380.831	77.62
381.057	88.62
381.282	94.62
381.507	89.62
381.733	77.62
381.958	82.62
382.184	77.62
382.409	87.62
382.634	87.62
382.86	82.62
383.085	83.62
383.31	73.62
383.535	80.62
383.761	87.62
383.986	77.62
384.211	82.62
384.436	84.62
384.662	96.62
384.887	89.62
385.112	86.62
385.337	97.62
385.562	87.62
385.787	82.62
386.013	91.62
386.238	75.62
386.463	88.62
386.688	111.62
386.913	81.62
387.138	77.62
387.363	87.62
387.588	81.62
387.813	92.62
388.038	68.62
388.263	93.62
388.488	79.62
388.713	79.62
388.938	89.62
389.163	80.62
389.387	71.62
389.612	88.62
389.837	83.62
390.062	88.62
390.287	92.62
390.512	83.62
390.736	57.62
390.961	80.62
391.186	86.62
391.411	75.62
391.636	88.62
391.86	85.62
392.085	99.62
392.31	79.62
392.534	76.62
392.759	99.62
392.984	87.62
393.208	82.62
393.433	88.62
393.658	73.62
393.882	83.62
394.107	78.62
394.331	77.62
394.556	82.62
394.78	85.62
395.005	86.62
395.229	77.62
395.454	89.62
395.678	85.62
395.903	78.62
396.127	80.62
396.352	69.62
396.576	85.62
396.801	79.62
397.025	70.62
397.249	80.62
397.474	76.62
397.698	89.62
397.922	88.62
398.147	88.62
398.371	88.62
398.595	74.62
398.82	87.62
399.044	80.62
399.268	83.62
399.492	91.62
399.717	98.62
399.941	80.62
400.165	80.62
400.389	84.62
400.613	79.62
400.837	75.62
401.062	65.62
401.286	77.62
401.51	90.62
401.734	85.62
401.958	77.62
402.182	85.62
402.406	83.62
402.63	85.62
402.854	87.62
403.078	62.62
403.302	87.62
403.526	78.62
403.75	77.62
403.974	79.62
404.198	88.62
404.422	73.62
404.645	81.62
404.869	84.62
405.093	85.62
405.317	84.62
405.541	78.62
405.765	94.62
405.988	87.62
406.212	106.62
406.436	101.62
406.66	90.62
406.883	84.62
407.107	82.62
407.331	81.62
407.555	100.62
407.778	82.62
408.002	83.62
408.226	82.62
408.449	87.62
408.673	81.62
408.896	83.62
409.12	82.62
409.344	72.62
409.567	86.62
409.791	90.62
410.014	84.62
410.238	87.62
410.461	68.62
410.685	81.62
410.908	76.62
411.132	83.62
411.355	81.62
411.578	93.62
411.802	92.62
412.025	77.62
412.249	82.62
412.472	89.62
412.695	85.62
412.919	72.62
413.142	97.62
413.365	79.62
413.589	78.62
413.812	82.62
414.035	83.62
414.258	89.62
414.482	72.62
414.705	85.62
414.928	80.62
415.151	91.62
415.374	87.62
415.597	86.62
415.821	88.62
416.044	97.62
416.267	96.62
416.49	87.62
416.713	91.62
416.936	85.62
417.159	66.62
417.382	91.62
417.605	89.62
417.828	83.62
418.051	76.62
418.274	71.62
418.497	68.62
418.72	81.62
418.943	90.62
419.166	72.62
419.389	85.62
419.611	85.62
419.834	81.62
420.057	73.62
420.28	93.62
420.503	90.62
420.726	75.62
420.948	88.62
421.171	95.62
421.394	91.62
421.617	102.62
421.839	82.62
422.062	79.62
422.285	83.62
422.507	85.62
422.73	70.62
422.953	80.62
423.175	81.62
423.398	87.62
423.621	87.62
423.843	72.62
424.066	67.62
424.288	84.62
424.511	78.62
424.733	92.62
424.956	91.62
425.178	76.62
425.401	77.62
425.623	87.62
425.846	77.62
426.068	79.62
426.291	87.62
426.513	85.62
426.735	100.62
426.958	79.62
427.18	86.62
427.402	81.62
427.625	91.62
427.847	102.62
428.069	90.62
428.292	82.62
428.514	78.62
428.736	89.62
428.958	67.62
429.181	82.62
429.403	80.62
429.625	87.62
429.847	95.62
430.069	91.62
430.292	89.62
430.514	93.62
430.736	100.62
430.958	92.62
431.18	76.62
431.402	72.62
431.624	87.62
431.846	73.62
432.068	84.62
432.29	94.62
432.512	89.62
432.734	87.62
432.956	81.62
433.178	88.62
433.4	87.62
433.622	85.62
433.844	84.62
434.066	72.62
434.287	82.62
434.509	84.62
434.731	76.62
434.953	90.62
435.175	85.62
435.397	86.62
435.618	89.62
435.84	95.62
436.062	86.62
436.284	83.62
436.505	86.62
436.727	80.62
436.949	59.62
437.17	80.62
437.392	82.62
437.614	88.62
437.835	92.62
438.057	81.62
438.278	85.62
438.5	81.62
438.721	77.62
438.943	96.62
439.165	93.62
439.386	101.62
439.608	73.62
439.829	75.62
440.05	89.62
440.272	77.62
440.493	79.62
440.715	75.62
440.936	89.62
441.158	82.62
441.379	58.62
441.6	89.62
441.822	89.62
442.043	77.62
442.264	85.62
442.486	89.62
442.707	76.62
442.928	76.62
443.149	79.62
443.371	88.62
443.592	90.62
443.813	81.62
444.034	85.62
444.255	79.62
444.476	86.62
444.698	82.62
444.919	73.62
445.14	153.62
445.361	129.62
445.582	82.62
445.803	87.62
446.024	75.62
446.245	87.62
446.466	105.62
446.687	107.62
446.908	86.62
447.129	88.62
447.35	91.62
447.571	87.62
447.792	82.62
448.013	79.62
448.234	88.62
448.455	77.62
448.675	95.62
448.896	82.62
449.117	89.62
449.338	88.62
449.559	67.62
449.779	67.62
450	76.62
450.221	89.62
450.442	91.62
450.662	84.62
450.883	85.62
451.104	86.62
451.324	82.62
451.545	69.62
451.766	87.62
451.986	87.62
452.207	83.62
452.428	95.62
452.648	109.62
452.869	82.62
453.089	77.62
453.31	82.62
453.53	85.62
453.751	87.62
453.971	64.62
454.192	81.62
454.412	90.62
454.633	92.62
454.853	80.62
455.073	85.62
455.294	75.62
455.514	80.62
455.734	89.62
455.955	79.62
456.175	95.62
456.395	82.62
456.616	86.62
456.836	71.62
457.056	85.62
457.276	83.62
457.497	89.62
457.717	94.62
457.937	85.62
458.157	92.62
458.377	88.62
458.598	76.62
458.818	96.62
459.038	96.62
459.258	91.62
459.478	72.62
459.698	78.62
459.918	75.62
460.138	78.62
460.358	89.62
460.578	103.62
460.798	75.62
461.018	72.62
461.238	87.62
461.458	91.62
461.678	97.62
461.898	108.62
462.118	88.62
462.338	87.62
462.558	87.62
462.777	92.62
462.997	81.62
463.217	83.62
463.437	82.62
463.657	78.62
463.876	95.62
464.096	86.62
464.316	86.62
464.536	78.62
464.755	82.62
464.975	88.62
465.195	88.62
465.414	89.62
465.634	87.62
465.854	73.62
466.073	82.62
466.293	90.62
466.512	79.62
466.732	88.62
466.951	92.62
467.171	87.62
467.391	79.62
467.61	81.62
467.829	83.62
468.049	111.62
468.268	116.62
468.488	102.62
468.707	79.62
468.927	78.62
469.146	89.62
469.365	77.62
469.585	90.62
469.804	78.62
470.023	98.62
470.243	102.62
470.462	95.62
470.681	88.62
470.901	76.62
471.12	78.62
471.339	92.62
471.558	81.62
471.777	87.62
471.997	109.62
472.216	132.62
472.435	182.62
472.654	99.62
472.873	88.62
473.092	86.62
473.311	88.62
473.53	85.62
473.749	82.62
473.968	91.62
474.187	89.62
474.406	94.62
474.625	91.62
474.844	88.62
475.063	70.62
475.282	81.62
475.501	101.62
475.72	90.62
475.939	79.62
476.158	97.62
476.377	83.62
476.596	75.62
476.814	91.62
477.033	82.62
477.252	92.62
477.471	101.62
477.69	85.62
477.908	80.62
478.127	88.62
478.346	77.62
478.564	87.62
478.783	99.62
479.002	81.62
479.22	78.62
479.439	87.62
479.658	84.62
479.876	84.62
480.095	84.62
480.313	91.62
480.532	88.62
480.751	91.62
480.969	168.62
481.188	283.62
481.406	159.62
481.624	91.62
481.843	85.62
482.061	76.62
482.28	88.62
482.498	95.62
482.717	75.62
482.935	83.62
483.153	97.62
483.372	78.62
483.59	89.62
483.808	73.62
484.027	87.62
484.245	87.62
484.463	80.62
484.681	75.62
484.9	80.62
485.118	90.62
485.336	81.62
485.554	73.62
485.772	97.62
485.99	74.62
486.209	82.62
486.427	73.62
486.645	79.62
486.863	101.62
487.081	79.62
487.299	97.62
487.517	76.62
487.735	74.62
487.953	80.62
488.171	85.62
488.389	82.62
488.607	93.62
488.825	81.62
489.043	76.62
489.261	77.62
489.479	76.62
489.696	82.62
489.914	96.62
490.132	81.62
490.35	74.62
490.568	96.62
490.786	71.62
491.003	93.62
491.221	85.62
491.439	93.62
491.657	85.62
491.874	83.62
492.092	84.62
492.31	87.62
492.527	77.62
492.745	88.62
492.963	89.62
493.18	93.62
493.398	95.62
493.615	100.62
493.833	101.62
494.05	90.62
494.268	83.62
494.485	81.62
494.703	76.62
494.92	99.62
495.138	89.62
495.355	77.62
495.573	91.62
495.79	94.62
496.008	101.62
496.225	81.62
496.442	75.62
496.66	95.62
496.877	95.62
497.094	90.62
497.312	77.62
497.529	86.62
497.746	75.62
497.963	73.62
498.181	80.62
498.398	96.62
498.615	94.62
498.832	93.62
499.049	82.62
499.267	89.62
499.484	92.62
499.701	84.62
499.918	90.62
500.135	99.62
500.352	91.62
500.569	83.62
500.786	83.62
501.003	95.62
501.22	95.62
501.437	95.62
501.654	79.62
501.871	79.62
502.088	81.62
502.305	80.62
502.522	73.62
502.739	91.62
502.956	81.62
503.172	86.62
503.389	87.62
503.606	79.62
503.823	71.62
504.04	97.62
504.256	87.62
504.473	82.62
504.69	90.62
504.907	82.62
505.123	79.62
505.34	81.62
505.557	79.62
505.773	94.62
505.99	81.62
506.207	94.62
506.423	71.62
506.64	80.62
506.856	96.62
507.073	95.62
507.289	81.62
507.506	85.62
507.722	84.62
507.939	88.62
508.155	89.62
508.372	83.62
508.588	89.62
508.805	81.62
509.021	89.62
509.238	92.62
509.454	90.62
509.67	88.62
509.887	90.62
510.103	87.62
510.319	83.62
510.536	157.62
510.752	222.62
510.968	121.62
511.184	89.62
511.401	84.62
511.617	85.62
511.833	82.62
512.049	94.62
512.265	87.62
512.481	98.62
512.698	80.62
512.914	82.62
513.13	87.62
513.346	77.62
513.562	84.62
513.778	87.62
513.994	72.62
514.21	81.62
514.426	78.62
514.642	83.62
514.858	115.62
515.074	94.62
515.29	143.62
515.506	181.62
515.721	108.62
515.937	95.62
516.153	82.62
516.369	94.62
516.585	81.62
516.801	84.62
517.016	86.62
517.232	87.62
517.448	91.62
517.664	88.62
517.879	81.62
518.095	96.62
518.311	77.62
518.527	90.62
518.742	95.62
518.958	90.62
519.173	83.62
519.389	90.62
519.605	95.62
519.82	80.62
520.036	79.62
520.251	91.62
520.467	85.62
520.682	76.62
520.898	89.62
521.113	74.62
521.329	91.62
521.544	101.62
521.76	153.62
521.975	278.62
522.19	202.62
522.406	94.62
522.621	100.62
522.836	82.62
523.052	79.62
523.267	85.62
523.482	99.62
523.698	103.62
523.913	90.62
524.128	71.62
524.343	75.62
524.559	104.62
524.774	96.62
524.989	88.62
525.204	84.62
525.419	92.62
525.634	95.62
525.849	89.62
526.064	72.62
526.28	93.62
526.495	82.62
526.71	81.62
526.925	87.62
527.14	86.62
527.355	83.62
527.57	90.62
527.785	90.62
527.999	74.62
528.214	76.62
528.429	87.62
528.644	69.62
528.859	71.62
529.074	84.62
529.289	80.62
529.503	107.62
529.718	83.62
529.933	84.62
530.148	98.62
530.363	77.62
530.577	82.62
530.792	80.62
531.007	88.62
531.221	88.62
531.436	87.62
531.651	104.62
531.865	92.62
532.08	79.62
532.295	75.62
532.509	90.62
532.724	99.62
532.938	92.62
533.153	84.62
533.367	79.62
533.582	72.62
533.796	84.62
534.011	80.62
534.225	85.62
534.44	79.62
534.654	79.62
534.868	84.62
535.083	87.62
535.297	79.62
535.511	87.62
535.726	82.62
535.94	79.62
536.154	79.62
536.369	87.62
536.583	91.62
536.797	92.62
537.011	92.62
537.225	89.62
537.44	86.62
537.654	86.62
537.868	80.62
538.082	72.62
538.296	82.62
538.51	81.62
538.724	99.62
538.938	73.62
539.153	104.62
539.367	79.62
539.581	82.62
539.795	102.62
540.009	94.62
540.222	101.62
540.436	85.62
540.65	94.62
540.864	82.62
541.078	95.62
541.292	99.62
541.506	92.62
541.72	96.62
541.934	87.62
542.147	77.62
542.361	75.62
542.575	78.62
542.789	97.62
543.002	92.62
543.216	107.62
543.43	97.62
543.644	85.62
543.857	83.62
544.071	79.62
544.285	75.62
544.498	96.62
544.712	81.62
544.925	98.62
545.139	93.62
545.352	89.62
545.566	90.62
545.779	93.62
545.993	99.62
546.206	84.62
546.42	71.62
546.633	86.62
546.847	85.62
547.06	87.62
547.274	87.62
547.487	75.62
547.7	95.62
547.914	71.62
548.127	80.62
548.34	89.62
548.554	88.62
548.767	92.62
548.98	84.62
549.193	95.62
549.407	85.62
549.62	93.62
549.833	88.62
550.046	81.62
550.259	88.62
550.473	81.62
550.686	94.62
550.899	99.62
551.112	88.62
551.325	77.62
551.538	89.62
551.751	119.62
551.964	80.62
552.177	87.62
552.39	91.62
552.603	91.62
552.816	88.62
553.029	93.62
553.242	98.62
553.455	79.62
553.667	95.62
553.88	81.62
554.093	81.62
554.306	93.62
554.519	96.62
554.732	90.62
554.944	93.62
555.157	91.62
555.37	92.62
555.583	84.62
555.795	75.62
556.008	83.62
556.221	77.62
556.433	78.62
556.646	85.62
556.859	87.62
557.071	76.62
557.284	92.62
557.496	80.62
557.709	97.62
557.921	71.62
558.134	91.62
558.346	95.62
558.559	85.62
558.771	82.62
558.984	89.62
559.196	86.62
559.409	95.62
559.621	72.62
559.833	89.62
560.046	88.62
560.258	96.62
560.47	83.62
560.683	100.62
560.895	81.62
561.107	94.62
561.32	81.62
561.532	95.62
561.744	90.62
561.956	94.62
562.168	78.62
562.381	88.62
562.593	95.62
562.805	94.62
563.017	102.62
563.229	83.62
563.441	73.62
563.653	94.62
563.865	75.62
564.077	73.62
564.289	94.62
564.501	96.62
564.713	87.62
564.925	101.62
565.137	95.62
565.349	80.62
565.561	86.62
565.773	83.62
565.985	88.62
566.197	88.62
566.408	72.62
566.62	81.62
566.832	93.62
567.044	77.62
567.255	90.62
567.467	94.62
567.679	87.62
567.891	70.62
568.102	78.62
568.314	83.62
568.526	87.62
568.737	86.62
568.949	84.62
569.161	80.62
569.372	94.62
569.584	76.62
569.795	94.62
570.007	95.62
570.218	96.62
570.43	87.62
570.641	78.62
570.853	91.62
571.064	87.62
571.276	92.62
571.487	96.62
571.698	91.62
571.91	75.62
572.121	75.62
572.333	85.62
572.544	83.62
572.755	84.62
572.966	82.62
573.178	87.62
573.389	95.62
573.6	91.62
573.811	96.62
574.023	79.62
574.234	80.62
574.445	78.62
574.656	85.62
574.867	77.62
575.078	80.62
575.289	63.62
575.501	87.62
575.712	82.62
575.923	79.62
576.134	96.62
576.345	82.62
576.556	79.62
576.767	94.62
576.978	100.62
577.188	89.62
577.399	91.62
577.61	96.62
577.821	88.62
578.032	86.62
578.243	104.62
578.454	127.62
578.665	97.62
578.875	89.62
579.086	80.62
579.297	85.62
579.508	87.62
579.718	95.62
579.929	86.62
580.14	82.62
580.35	92.62
580.561	88.62
580.772	96.62
580.982	81.62
581.193	83.62
581.403	103.62
581.614	95.62
581.825	84.62
582.035	101.62
582.246	89.62
582.456	88.62
582.667	98.62
582.877	65.62
583.087	89.62
583.298	96.62
583.508	95.62
583.719	76.62
583.929	81.62
584.139	79.62
584.35	87.62
584.56	83.62
584.77	89.62
584.981	93.62
585.191	84.62
585.401	96.62
585.611	91.62
585.821	90.62
586.032	94.62
586.242	87.62
586.452	85.62
586.662	85.62
586.872	88.62
587.082	74.62
587.292	86.62
587.502	80.62
587.713	90.62
587.923	89.62
588.133	95.62
588.343	84.62
588.553	80.62
588.762	76.62
588.972	88.62
589.182	89.62
589.392	98.62
589.602	89.62
589.812	86.62
590.022	93.62
590.232	73.62
590.441	81.62
590.651	91.62
590.861	75.62
591.071	94.62
591.281	103.62
591.49	81.62
591.7	76.62
591.91	77.62
592.119	98.62
592.329	77.62
592.539	95.62
592.748	92.62
592.958	96.62
593.167	97.62
593.377	98.62
593.587	95.62
593.796	85.62
594.006	105.62
594.215	68.62
594.424	86.62
594.634	73.62
594.843	87.62
595.053	93.62
595.262	89.62
595.472	91.62
595.681	87.62
595.89	84.62
596.1	98.62
596.309	74.62
596.518	80.62
596.727	80.62
596.937	89.62
597.146	87.62
597.355	88.62
597.564	92.62
597.774	84.62
597.983	79.62
598.192	89.62
598.401	87.62
598.61	83.62
598.819	73.62
599.028	87.62
599.237	84.62
599.446	84.62
599.655	86.62
599.864	88.62
600.073	82.62
600.282	87.62
600.491	82.62
600.7	87.62
600.909	90.62
601.118	96.62
601.327	84.62
601.536	77.62
601.745	87.62
601.953	77.62
602.162	93.62
602.371	87.62
602.58	81.62
602.789	96.62
602.997	91.62
603.206	90.62
603.415	91.62
603.623	80.62
603.832	81.62
604.041	85.62
604.249	85.62
604.458	84.62
604.666	82.62
604.875	85.62
605.084	77.62
605.292	83.62
605.501	85.62
605.709	93.62
605.918	81.62
606.126	99.62
606.334	98.62
606.543	94.62
606.751	92.62
606.96	88.62
607.168	76.62
607.376	93.62
607.585	87.62
607.793	81.62
608.001	75.62
608.21	104.62
608.418	101.62
608.626	92.62
608.834	100.62
609.043	87.62
609.251	89.62
609.459	92.62
609.667	73.62
609.875	82.62
610.083	87.62
610.291	85.62
610.499	86.62
610.707	84.62
610.916	93.62
611.124	100.62
611.332	89.62
611.54	71.62
611.748	82.62
611.955	84.62
612.163	93.62
612.371	93.62
612.579	75.62
612.787	67.62
612.995	80.62
613.203	81.62
613.411	88.62
613.618	73.62
613.826	100.62
614.034	74.62
614.242	85.62
614.449	92.62
614.657	73.62
614.865	87.62
615.072	75.62
615.28	79.62
615.488	71.62
615.695	95.62
615.903	84.62
616.111	73.62
616.318	104.62
616.526	85.62
616.733	87.62
616.941	86.62
617.148	79.62
617.356	80.62
617.563	89.62
617.771	81.62
617.978	89.62
618.185	91.62
618.393	80.62
618.6	80.62
618.807	74.62
619.015	84.62
619.222	90.62
619.429	82.62
619.637	77.62
619.844	87.62
620.051	85.62
620.258	94.62
620.466	85.62
620.673	91.62
620.88	84.62
621.087	88.62
621.294	84.62
621.501	84.62
621.708	74.62
621.915	90.62
622.122	85.62
622.329	72.62
622.536	91.62
622.743	78.62
622.95	89.62
623.157	83.62
623.364	72.62
623.571	81.62
623.778	79.62
623.985	88.62
624.192	97.62
624.399	87.62
624.606	91.62
624.812	93.62
625.019	88.62
625.226	85.62
625.433	95.62
625.639	91.62
625.846	72.62
626.053	80.62
626.259	92.62
626.466	81.62
626.673	90.62
626.879	93.62
627.086	81.62
627.293	85.62
627.499	81.62
627.706	69.62
627.912	83.62
628.119	82.62
628.325	96.62
628.532	87.62
628.738	99.62
628.945	84.62
629.151	83.62
629.357	81.62
629.564	73.62
629.77	85.62
629.976	79.62
630.183	87.62
630.389	82.62
630.595	85.62
630.802	73.62
631.008	105.62
631.214	94.62
631.42	95.62
631.627	69.62
631.833	86.62
632.039	88.62
632.245	96.62
632.451	81.62
632.657	81.62
632.863	96.62
633.069	96.62
633.275	81.62
633.481	88.62
633.688	81.62
633.893	80.62
634.099	73.62
634.305	77.62
634.511	68.62
634.717	87.62
634.923	90.62
635.129	75.62
635.335	90.62
635.541	82.62
635.747	79.62
635.952	92.62
636.158	89.62
636.364	111.62
636.57	104.62
636.775	94.62
636.981	81.62
637.187	80.62
637.392	83.62
637.598	75.62
637.804	77.62
638.009	91.62
638.215	81.62
638.421	66.62
638.626	91.62
638.832	89.62
639.037	78.62
639.243	74.62
639.448	81.62
639.654	80.62
639.859	82.62
640.065	85.62
640.27	94.62
640.475	94.62
640.681	86.62
640.886	93.62
641.091	89.62
641.297	86.62
641.502	76.62
641.707	87.62
641.913	77.62
642.118	76.62
642.323	90.62
642.528	89.62
642.733	98.62
642.939	89.62
643.144	95.62
643.349	88.62
643.554	91.62
643.759	80.62
643.964	83.62
644.169	78.62
644.374	98.62
644.579	91.62
644.784	86.62
644.989	80.62
645.194	95.62
645.399	84.62
645.604	88.62
645.809	90.62
646.014	75.62
646.219	81.62
646.423	72.62
646.628	81.62
646.833	90.62
647.038	99.62
647.243	69.62
647.447	92.62
647.652	97.62
647.857	93.62
648.062	99.62
648.266	79.62
648.471	91.62
648.676	97.62
648.88	82.62
649.085	70.62
649.289	96.62
649.494	92.62
649.698	88.62
649.903	80.62
650.107	91.62
650.312	90.62
650.516	73.62
650.721	80.62
650.925	92.62
651.13	75.62
651.334	96.62
651.539	84.62
651.743	73.62
651.947	81.62
652.152	82.62
652.356	76.62
652.56	82.62
652.764	85.62
652.969	91.62
653.173	84.62
653.377	90.62
653.581	74.62
653.785	76.62
653.99	81.62
654.194	86.62
654.398	88.62
654.602	80.62
654.806	95.62
655.01	104.62
655.214	94.62
655.418	80.62
655.622	86.62
655.826	83.62
656.03	76.62
656.234	86.62
656.438	87.62
656.642	96.62
656.846	88.62
657.049	65.62
657.253	69.62
657.457	91.62
657.661	76.62
657.865	82.62
658.068	93.62
658.272	89.62
658.476	75.62
658.68	84.62
658.883	90.62
659.087	94.62
659.291	93.62
659.494	93.62
659.698	82.62
659.901	85.62
660.105	88.62
660.309	69.62
660.512	94.62
660.716	93.62
660.919	85.62
661.123	87.62
661.326	81.62
661.53	71.62
661.733	87.62
661.936	76.62
662.14	79.62
662.343	77.62
662.546	95.62
662.75	78.62
662.953	82.62
663.156	92.62
663.36	77.62
663.563	87.62
663.766	83.62
663.969	81.62
664.173	77.62
664.376	90.62
664.579	78.62
664.782	78.62
664.985	82.62
665.188	75.62
665.391	78.62
665.594	75.62
665.797	76.62
666	91.62
666.203	94.62
666.406	95.62
666.609	79.62
666.812	85.62
667.015	72.62
667.218	96.62
667.421	79.62
667.624	72.62
667.827	81.62
668.03	74.62
668.232	75.62
668.435	85.62
668.638	79.62
668.841	88.62
669.043	80.62
669.246	62.62
669.449	87.62
669.651	76.62
669.854	93.62
670.057	90.62
670.259	84.62
670.462	80.62
670.665	76.62
670.867	78.62
671.07	76.62
671.272	93.62
671.475	78.62
671.677	73.62
671.88	90.62
672.082	77.62
672.284	91.62
672.487	99.62
672.689	84.62
672.892	65.62
