Data from BG_HRD10591_065.txt Node
Date: Fri May 16 15:33:39 EDT 2025
User: Yrep
Spectrometer: HR+D1059
Trigger mode: 1
Integration Time (sec): 1.000000E-1
Scans to average: 1
Electric dark correction enabled: true
Nonlinearity correction enabled: false
Boxcar width: 0
XAxis mode: Wavelengths
Number of Pixels in Spectrum: 2048
>>>>>Begin Spectral Data<<<<<
223.165	-17.62
223.4	-17.62
223.635	-17.62
223.869	-14.62
224.104	-15.62
224.338	-22.62
224.573	-11.62
224.808	-6.62
225.042	-19.62
225.277	-0.62
225.511	-3.62
225.746	2.38
225.98	-1.62
226.215	23.38
226.449	15.38
226.683	10.38
226.918	21.38
227.152	41.38
227.387	45.38
227.621	35.38
227.856	50.38
228.09	31.38
228.324	43.38
228.559	55.38
228.793	55.38
229.027	58.38
229.262	62.38
229.496	64.38
229.73	71.38
229.964	74.38
230.199	80.38
230.433	68.38
230.667	81.38
230.901	65.38
231.136	63.38
231.37	65.38
231.604	72.38
231.838	83.38
232.072	77.38
232.306	78.38
232.541	67.38
232.775	87.38
233.009	62.38
233.243	77.38
233.477	71.38
233.711	84.38
233.945	83.38
234.179	66.38
234.413	93.38
234.647	66.38
234.881	88.38
235.115	71.38
235.349	74.38
235.583	54.38
235.817	68.38
236.051	63.38
236.285	83.38
236.519	82.38
236.753	75.38
236.987	72.38
237.221	78.38
237.455	84.38
237.689	81.38
237.922	92.38
238.156	69.38
238.39	69.38
238.624	79.38
238.858	76.38
239.091	66.38
239.325	64.38
239.559	68.38
239.793	86.38
240.027	63.38
240.26	74.38
240.494	59.38
240.728	70.38
240.961	67.38
241.195	79.38
241.429	69.38
241.662	67.38
241.896	74.38
242.13	69.38
242.363	74.38
242.597	73.38
242.83	73.38
243.064	82.38
243.298	67.38
243.531	74.38
243.765	73.38
243.998	100.38
244.232	80.38
244.465	83.38
244.699	66.38
244.932	67.38
245.166	83.38
245.399	83.38
245.633	75.38
245.866	86.38
246.099	72.38
246.333	77.38
246.566	72.38
246.8	95.38
247.033	77.38
247.266	74.38
247.5	77.38
247.733	88.38
247.966	79.38
248.2	74.38
248.433	79.38
248.666	65.38
248.899	67.38
249.133	72.38
249.366	93.38
249.599	80.38
249.832	90.38
250.066	72.38
250.299	77.38
250.532	77.38
250.765	60.38
250.998	72.38
251.231	81.38
251.465	75.38
251.698	92.38
251.931	80.38
252.164	78.38
252.397	71.38
252.63	67.38
252.863	69.38
253.096	79.38
253.329	82.38
253.562	66.38
253.795	76.38
254.028	85.38
254.261	87.38
254.494	89.38
254.727	75.38
254.96	64.38
255.193	91.38
255.426	57.38
255.659	80.38
255.892	86.38
256.124	77.38
256.357	87.38
256.59	91.38
256.823	81.38
257.056	70.38
257.289	76.38
257.521	87.38
257.754	79.38
257.987	80.38
258.22	76.38
258.452	87.38
258.685	84.38
258.918	73.38
259.151	82.38
259.383	73.38
259.616	88.38
259.849	75.38
260.081	79.38
260.314	88.38
260.547	79.38
260.779	63.38
261.012	74.38
261.244	79.38
261.477	77.38
261.71	67.38
261.942	84.38
262.175	85.38
262.407	78.38
262.64	69.38
262.872	69.38
263.105	79.38
263.337	87.38
263.57	67.38
263.802	70.38
264.035	89.38
264.267	92.38
264.499	86.38
264.732	74.38
264.964	82.38
265.197	61.38
265.429	74.38
265.661	70.38
265.894	94.38
266.126	74.38
266.358	77.38
266.591	77.38
266.823	78.38
267.055	65.38
267.287	72.38
267.52	83.38
267.752	73.38
267.984	65.38
268.216	87.38
268.448	90.38
268.681	64.38
268.913	92.38
269.145	74.38
269.377	88.38
269.609	82.38
269.841	79.38
270.073	80.38
270.306	82.38
270.538	76.38
270.77	96.38
271.002	76.38
271.234	88.38
271.466	84.38
271.698	87.38
271.93	65.38
272.162	84.38
272.394	87.38
272.626	81.38
272.858	90.38
273.09	89.38
273.322	75.38
273.553	73.38
273.785	84.38
274.017	72.38
274.249	79.38
274.481	75.38
274.713	84.38
274.945	81.38
275.176	88.38
275.408	76.38
275.64	92.38
275.872	80.38
276.104	86.38
276.335	73.38
276.567	68.38
276.799	80.38
277.031	77.38
277.262	72.38
277.494	90.38
277.726	86.38
277.957	78.38
278.189	77.38
278.421	84.38
278.652	80.38
278.884	87.38
279.115	87.38
279.347	74.38
279.579	89.38
279.81	81.38
280.042	84.38
280.273	92.38
280.505	89.38
280.736	87.38
280.968	90.38
281.199	72.38
281.431	95.38
281.662	87.38
281.894	65.38
282.125	74.38
282.356	71.38
282.588	90.38
282.819	77.38
283.051	85.38
283.282	84.38
283.513	81.38
283.745	65.38
283.976	86.38
284.207	88.38
284.439	78.38
284.67	82.38
284.901	88.38
285.132	99.38
285.364	71.38
285.595	84.38
285.826	75.38
286.057	76.38
286.288	75.38
286.52	94.38
286.751	79.38
286.982	88.38
287.213	67.38
287.444	90.38
287.675	93.38
287.906	89.38
288.138	79.38
288.369	92.38
288.6	88.38
288.831	89.38
289.062	83.38
289.293	78.38
289.524	72.38
289.755	86.38
289.986	94.38
290.217	78.38
290.448	79.38
290.679	83.38
290.91	88.38
291.141	78.38
291.371	76.38
291.602	80.38
291.833	84.38
292.064	89.38
292.295	92.38
292.526	57.38
292.757	84.38
292.987	80.38
293.218	80.38
293.449	73.38
293.68	62.38
293.91	81.38
294.141	73.38
294.372	90.38
294.603	83.38
294.833	82.38
295.064	99.38
295.295	93.38
295.525	76.38
295.756	76.38
295.987	75.38
296.217	77.38
296.448	88.38
296.679	90.38
296.909	86.38
297.14	81.38
297.37	85.38
297.601	87.38
297.831	82.38
298.062	97.38
298.292	76.38
298.523	81.38
298.753	75.38
298.984	89.38
299.214	84.38
299.445	89.38
299.675	77.38
299.905	81.38
300.136	92.38
300.366	87.38
300.597	106.38
300.827	90.38
301.057	86.38
301.288	79.38
301.518	91.38
301.748	75.38
301.979	96.38
302.209	86.38
302.439	85.38
302.669	81.38
302.9	82.38
303.13	78.38
303.36	82.38
303.59	85.38
303.82	75.38
304.051	79.38
304.281	84.38
304.511	82.38
304.741	80.38
304.971	72.38
305.201	84.38
305.431	77.38
305.661	82.38
305.891	80.38
306.121	91.38
306.352	87.38
306.582	90.38
306.812	77.38
307.042	97.38
307.272	64.38
307.502	90.38
307.731	88.38
307.961	96.38
308.191	78.38
308.421	80.38
308.651	78.38
308.881	78.38
309.111	78.38
309.341	97.38
309.571	80.38
309.8	82.38
310.03	78.38
310.26	87.38
310.49	94.38
310.72	93.38
310.949	64.38
311.179	79.38
311.409	92.38
311.639	76.38
311.868	87.38
312.098	86.38
312.328	83.38
312.557	71.38
312.787	85.38
313.017	91.38
313.246	82.38
313.476	86.38
313.706	93.38
313.935	78.38
314.165	88.38
314.394	85.38
314.624	98.38
314.853	101.38
315.083	67.38
315.312	82.38
315.542	68.38
315.771	81.38
316.001	82.38
316.23	78.38
316.46	78.38
316.689	80.38
316.919	73.38
317.148	76.38
317.377	94.38
317.607	75.38
317.836	95.38
318.065	88.38
318.295	89.38
318.524	72.38
318.753	94.38
318.983	78.38
319.212	90.38
319.441	91.38
319.67	85.38
319.9	87.38
320.129	94.38
320.358	72.38
320.587	81.38
320.816	80.38
321.046	90.38
321.275	74.38
321.504	91.38
321.733	84.38
321.962	100.38
322.191	87.38
322.42	81.38
322.649	71.38
322.878	84.38
323.108	84.38
323.337	78.38
323.566	81.38
323.795	81.38
324.024	81.38
324.253	98.38
324.482	82.38
324.71	86.38
324.939	75.38
325.168	65.38
325.397	79.38
325.626	80.38
325.855	90.38
326.084	81.38
326.313	79.38
326.542	80.38
326.77	93.38
326.999	82.38
327.228	96.38
327.457	79.38
327.686	82.38
327.914	86.38
328.143	97.38
328.372	84.38
328.6	78.38
328.829	83.38
329.058	82.38
329.287	77.38
329.515	80.38
329.744	72.38
329.972	89.38
330.201	65.38
330.43	76.38
330.658	86.38
330.887	85.38
331.115	90.38
331.344	78.38
331.572	78.38
331.801	73.38
332.03	80.38
332.258	69.38
332.486	83.38
332.715	88.38
332.943	77.38
333.172	82.38
333.4	90.38
333.629	79.38
333.857	91.38
334.085	65.38
334.314	93.38
334.542	82.38
334.771	83.38
334.999	86.38
335.227	93.38
335.455	80.38
335.684	89.38
335.912	70.38
336.14	64.38
336.369	80.38
336.597	83.38
336.825	83.38
337.053	69.38
337.281	86.38
337.51	87.38
337.738	82.38
337.966	104.38
338.194	86.38
338.422	98.38
338.65	91.38
338.878	91.38
339.106	97.38
339.334	79.38
339.562	88.38
339.79	77.38
340.018	72.38
340.246	76.38
340.474	88.38
340.702	84.38
340.93	90.38
341.158	92.38
341.386	80.38
341.614	81.38
341.842	79.38
342.07	83.38
342.298	84.38
342.526	79.38
342.754	95.38
342.981	90.38
343.209	76.38
343.437	103.38
343.665	86.38
343.893	86.38
344.12	84.38
344.348	88.38
344.576	98.38
344.804	91.38
345.031	99.38
345.259	97.38
345.487	79.38
345.714	79.38
345.942	76.38
346.17	93.38
346.397	84.38
346.625	78.38
346.853	91.38
347.08	77.38
347.308	88.38
347.535	80.38
347.763	80.38
347.99	84.38
348.218	69.38
348.445	74.38
348.673	92.38
348.9	80.38
349.128	74.38
349.355	87.38
349.583	84.38
349.81	67.38
350.037	81.38
350.265	73.38
350.492	82.38
350.72	82.38
350.947	79.38
351.174	85.38
351.402	92.38
351.629	84.38
351.856	80.38
352.083	88.38
352.311	85.38
352.538	97.38
352.765	82.38
352.992	97.38
353.22	87.38
353.447	83.38
353.674	78.38
353.901	86.38
354.128	80.38
354.355	76.38
354.583	80.38
354.81	86.38
355.037	74.38
355.264	81.38
355.491	73.38
355.718	87.38
355.945	74.38
356.172	102.38
356.399	91.38
356.626	77.38
356.853	90.38
357.08	70.38
357.307	91.38
357.534	82.38
357.761	64.38
357.988	83.38
358.215	81.38
358.441	72.38
358.668	91.38
358.895	85.38
359.122	88.38
359.349	82.38
359.576	68.38
359.802	75.38
360.029	76.38
360.256	83.38
360.483	85.38
360.709	87.38
360.936	90.38
361.163	89.38
361.39	88.38
361.616	80.38
361.843	77.38
362.07	84.38
362.296	86.38
362.523	89.38
362.749	88.38
362.976	84.38
363.203	85.38
363.429	86.38
363.656	82.38
363.882	72.38
364.109	73.38
364.335	92.38
364.562	73.38
364.788	62.38
365.015	87.38
365.241	80.38
365.468	89.38
365.694	84.38
365.92	80.38
366.147	88.38
366.373	81.38
366.599	77.38
366.826	76.38
367.052	76.38
367.278	83.38
367.505	76.38
367.731	90.38
367.957	87.38
368.184	86.38
368.41	88.38
368.636	82.38
368.862	70.38
369.089	92.38
369.315	75.38
369.541	76.38
369.767	80.38
369.993	67.38
370.219	82.38
370.445	72.38
370.672	74.38
370.898	89.38
371.124	76.38
371.35	69.38
371.576	88.38
371.802	93.38
372.028	81.38
372.254	82.38
372.48	97.38
372.706	74.38
372.932	81.38
373.158	76.38
373.384	77.38
373.61	82.38
373.835	98.38
374.061	83.38
374.287	75.38
374.513	88.38
374.739	82.38
374.965	82.38
375.191	88.38
375.416	79.38
375.642	82.38
375.868	86.38
376.094	88.38
376.319	78.38
376.545	95.38
376.771	74.38
376.997	78.38
377.222	87.38
377.448	87.38
377.674	89.38
377.899	65.38
378.125	90.38
378.35	92.38
378.576	89.38
378.802	77.38
379.027	86.38
379.253	82.38
379.478	73.38
379.704	95.38
379.929	77.38
380.155	72.38
380.38	81.38
380.606	81.38
380.831	80.38
381.057	81.38
381.282	87.38
381.507	86.38
381.733	77.38
381.958	79.38
382.184	65.38
382.409	69.38
382.634	60.38
382.86	84.38
383.085	97.38
383.31	80.38
383.535	80.38
383.761	81.38
383.986	79.38
384.211	78.38
384.436	94.38
384.662	81.38
384.887	81.38
385.112	74.38
385.337	86.38
385.562	72.38
385.787	83.38
386.013	79.38
386.238	83.38
386.463	83.38
386.688	90.38
386.913	83.38
387.138	86.38
387.363	76.38
387.588	73.38
387.813	72.38
388.038	83.38
388.263	97.38
388.488	86.38
388.713	96.38
388.938	87.38
389.163	91.38
389.387	75.38
389.612	98.38
389.837	86.38
390.062	76.38
390.287	71.38
390.512	85.38
390.736	88.38
390.961	82.38
391.186	76.38
391.411	91.38
391.636	78.38
391.86	78.38
392.085	74.38
392.31	68.38
392.534	86.38
392.759	74.38
392.984	86.38
393.208	81.38
393.433	93.38
393.658	73.38
393.882	86.38
394.107	86.38
394.331	91.38
394.556	109.38
394.78	83.38
395.005	78.38
395.229	78.38
395.454	83.38
395.678	69.38
395.903	74.38
396.127	88.38
396.352	67.38
396.576	89.38
396.801	78.38
397.025	68.38
397.249	95.38
397.474	94.38
397.698	76.38
397.922	70.38
398.147	83.38
398.371	80.38
398.595	81.38
398.82	91.38
399.044	86.38
399.268	96.38
399.492	82.38
399.717	86.38
399.941	75.38
400.165	71.38
400.389	75.38
400.613	84.38
400.837	78.38
401.062	87.38
401.286	74.38
401.51	90.38
401.734	91.38
401.958	82.38
402.182	69.38
402.406	86.38
402.63	73.38
402.854	87.38
403.078	80.38
403.302	76.38
403.526	90.38
403.75	91.38
403.974	79.38
404.198	80.38
404.422	86.38
404.645	85.38
404.869	81.38
405.093	73.38
405.317	72.38
405.541	76.38
405.765	89.38
405.988	86.38
406.212	88.38
406.436	83.38
406.66	91.38
406.883	80.38
407.107	72.38
407.331	92.38
407.555	80.38
407.778	82.38
408.002	72.38
408.226	78.38
408.449	74.38
408.673	80.38
408.896	86.38
409.12	90.38
409.344	74.38
409.567	73.38
409.791	98.38
410.014	68.38
410.238	91.38
410.461	79.38
410.685	77.38
410.908	82.38
411.132	84.38
411.355	91.38
411.578	82.38
411.802	80.38
412.025	75.38
412.249	88.38
412.472	70.38
412.695	89.38
412.919	92.38
413.142	89.38
413.365	84.38
413.589	73.38
413.812	81.38
414.035	79.38
414.258	84.38
414.482	74.38
414.705	83.38
414.928	91.38
415.151	91.38
415.374	74.38
415.597	65.38
415.821	86.38
416.044	68.38
416.267	77.38
416.49	63.38
416.713	64.38
416.936	82.38
417.159	83.38
417.382	74.38
417.605	84.38
417.828	80.38
418.051	84.38
418.274	85.38
418.497	76.38
418.72	81.38
418.943	72.38
419.166	86.38
419.389	86.38
419.611	80.38
419.834	80.38
420.057	72.38
420.28	74.38
420.503	82.38
420.726	78.38
420.948	79.38
421.171	78.38
421.394	84.38
421.617	78.38
421.839	85.38
422.062	72.38
422.285	76.38
422.507	84.38
422.73	89.38
422.953	81.38
423.175	83.38
423.398	79.38
423.621	90.38
423.843	83.38
424.066	72.38
424.288	75.38
424.511	77.38
424.733	63.38
424.956	78.38
425.178	91.38
425.401	86.38
425.623	80.38
425.846	76.38
426.068	86.38
426.291	67.38
426.513	75.38
426.735	86.38
426.958	59.38
427.18	71.38
427.402	79.38
427.625	78.38
427.847	76.38
428.069	76.38
428.292	74.38
428.514	65.38
428.736	75.38
428.958	76.38
429.181	61.38
429.403	79.38
429.625	70.38
429.847	83.38
430.069	86.38
430.292	78.38
430.514	79.38
430.736	80.38
430.958	71.38
431.18	86.38
431.402	90.38
431.624	83.38
431.846	82.38
432.068	71.38
432.29	88.38
432.512	83.38
432.734	83.38
432.956	88.38
433.178	90.38
433.4	75.38
433.622	71.38
433.844	73.38
434.066	77.38
434.287	75.38
434.509	78.38
434.731	80.38
434.953	82.38
435.175	86.38
435.397	85.38
435.618	85.38
435.84	81.38
436.062	76.38
436.284	79.38
436.505	76.38
436.727	78.38
436.949	81.38
437.17	68.38
437.392	74.38
437.614	78.38
437.835	76.38
438.057	92.38
438.278	78.38
438.5	78.38
438.721	77.38
438.943	75.38
439.165	76.38
439.386	77.38
439.608	78.38
439.829	76.38
440.05	78.38
440.272	82.38
440.493	72.38
440.715	86.38
440.936	65.38
441.158	78.38
441.379	80.38
441.6	92.38
441.822	65.38
442.043	70.38
442.264	85.38
442.486	82.38
442.707	84.38
442.928	75.38
443.149	89.38
443.371	88.38
443.592	79.38
443.813	78.38
444.034	73.38
444.255	88.38
444.476	82.38
444.698	66.38
444.919	88.38
445.14	153.38
445.361	124.38
445.582	82.38
445.803	87.38
446.024	86.38
446.245	89.38
446.466	78.38
446.687	75.38
446.908	87.38
447.129	63.38
447.35	68.38
447.571	80.38
447.792	80.38
448.013	80.38
448.234	82.38
448.455	68.38
448.675	90.38
448.896	73.38
449.117	83.38
449.338	82.38
449.559	77.38
449.779	82.38
450	67.38
450.221	88.38
450.442	74.38
450.662	86.38
450.883	79.38
451.104	89.38
451.324	65.38
451.545	82.38
451.766	75.38
451.986	85.38
452.207	77.38
452.428	81.38
452.648	89.38
452.869	84.38
453.089	85.38
453.31	74.38
453.53	82.38
453.751	76.38
453.971	86.38
454.192	94.38
454.412	74.38
454.633	68.38
454.853	74.38
455.073	86.38
455.294	84.38
455.514	77.38
455.734	79.38
455.955	78.38
456.175	64.38
456.395	77.38
456.616	91.38
456.836	86.38
457.056	74.38
457.276	76.38
457.497	79.38
457.717	77.38
457.937	71.38
458.157	78.38
458.377	76.38
458.598	78.38
458.818	79.38
459.038	66.38
459.258	84.38
459.478	92.38
459.698	81.38
459.918	71.38
460.138	72.38
460.358	84.38
460.578	74.38
460.798	78.38
461.018	80.38
461.238	79.38
461.458	77.38
461.678	79.38
461.898	78.38
462.118	75.38
462.338	82.38
462.558	94.38
462.777	83.38
462.997	80.38
463.217	83.38
463.437	71.38
463.657	71.38
463.876	74.38
464.096	74.38
464.316	84.38
464.536	69.38
464.755	96.38
464.975	80.38
465.195	69.38
465.414	82.38
465.634	78.38
465.854	83.38
466.073	65.38
466.293	92.38
466.512	87.38
466.732	67.38
466.951	79.38
467.171	69.38
467.391	69.38
467.61	70.38
467.829	86.38
468.049	74.38
468.268	77.38
468.488	87.38
468.707	83.38
468.927	88.38
469.146	84.38
469.365	72.38
469.585	80.38
469.804	80.38
470.023	73.38
470.243	86.38
470.462	77.38
470.681	74.38
470.901	88.38
471.12	77.38
471.339	74.38
471.558	75.38
471.777	81.38
471.997	77.38
472.216	81.38
472.435	89.38
472.654	78.38
472.873	78.38
473.092	90.38
473.311	71.38
473.53	81.38
473.749	72.38
473.968	89.38
474.187	76.38
474.406	86.38
474.625	86.38
474.844	79.38
475.063	74.38
475.282	66.38
475.501	86.38
475.72	94.38
475.939	78.38
476.158	70.38
476.377	80.38
476.596	75.38
476.814	76.38
477.033	94.38
477.252	58.38
477.471	83.38
477.69	86.38
477.908	89.38
478.127	85.38
478.346	83.38
478.564	64.38
478.783	79.38
479.002	86.38
479.22	62.38
479.439	86.38
479.658	79.38
479.876	79.38
480.095	80.38
480.313	79.38
480.532	78.38
480.751	74.38
480.969	86.38
481.188	72.38
481.406	79.38
481.624	87.38
481.843	90.38
482.061	78.38
482.28	78.38
482.498	76.38
482.717	80.38
482.935	75.38
483.153	69.38
483.372	77.38
483.59	82.38
483.808	73.38
484.027	89.38
484.245	82.38
484.463	74.38
484.681	93.38
484.9	89.38
485.118	82.38
485.336	89.38
485.554	76.38
485.772	78.38
485.99	81.38
486.209	80.38
486.427	85.38
486.645	92.38
486.863	80.38
487.081	80.38
487.299	71.38
487.517	86.38
487.735	79.38
487.953	88.38
488.171	77.38
488.389	83.38
488.607	74.38
488.825	86.38
489.043	70.38
489.261	93.38
489.479	91.38
489.696	75.38
489.914	73.38
490.132	90.38
490.35	83.38
490.568	74.38
490.786	74.38
491.003	87.38
491.221	82.38
491.439	74.38
491.657	87.38
491.874	77.38
492.092	85.38
492.31	80.38
492.527	80.38
492.745	83.38
492.963	74.38
493.18	70.38
493.398	95.38
493.615	82.38
493.833	89.38
494.05	91.38
494.268	77.38
494.485	79.38
494.703	89.38
494.92	90.38
495.138	83.38
495.355	75.38
495.573	87.38
495.79	90.38
496.008	72.38
496.225	81.38
496.442	68.38
496.66	95.38
496.877	72.38
497.094	82.38
497.312	64.38
497.529	88.38
497.746	92.38
497.963	83.38
498.181	82.38
498.398	66.38
498.615	62.38
498.832	69.38
499.049	75.38
499.267	90.38
499.484	77.38
499.701	82.38
499.918	94.38
500.135	72.38
500.352	85.38
500.569	82.38
500.786	86.38
501.003	71.38
501.22	85.38
501.437	85.38
501.654	82.38
501.871	84.38
502.088	82.38
502.305	81.38
502.522	78.38
502.739	99.38
502.956	79.38
503.172	91.38
503.389	82.38
503.606	69.38
503.823	83.38
504.04	85.38
504.256	92.38
504.473	92.38
504.69	68.38
504.907	67.38
505.123	77.38
505.34	70.38
505.557	74.38
505.773	83.38
505.99	90.38
506.207	70.38
506.423	80.38
506.64	90.38
506.856	78.38
507.073	88.38
507.289	87.38
507.506	70.38
507.722	76.38
507.939	73.38
508.155	78.38
508.372	82.38
508.588	81.38
508.805	89.38
509.021	80.38
509.238	83.38
509.454	88.38
509.67	89.38
509.887	82.38
510.103	83.38
510.319	74.38
510.536	77.38
510.752	77.38
510.968	75.38
511.184	77.38
511.401	79.38
511.617	89.38
511.833	68.38
512.049	74.38
512.265	74.38
512.481	92.38
512.698	71.38
512.914	88.38
513.13	81.38
513.346	88.38
513.562	74.38
513.778	74.38
513.994	74.38
514.21	82.38
514.426	85.38
514.642	83.38
514.858	82.38
515.074	97.38
515.29	72.38
515.506	83.38
515.721	83.38
515.937	75.38
516.153	79.38
516.369	81.38
516.585	74.38
516.801	87.38
517.016	76.38
517.232	78.38
517.448	87.38
517.664	78.38
517.879	83.38
518.095	82.38
518.311	72.38
518.527	68.38
518.742	74.38
518.958	78.38
519.173	82.38
519.389	68.38
519.605	74.38
519.82	81.38
520.036	64.38
520.251	70.38
520.467	61.38
520.682	70.38
520.898	89.38
521.113	94.38
521.329	74.38
521.544	82.38
521.76	63.38
521.975	75.38
522.19	76.38
522.406	83.38
522.621	86.38
522.836	77.38
523.052	80.38
523.267	92.38
523.482	84.38
523.698	84.38
523.913	82.38
524.128	67.38
524.343	79.38
524.559	88.38
524.774	86.38
524.989	85.38
525.204	84.38
525.419	88.38
525.634	61.38
525.849	88.38
526.064	94.38
526.28	89.38
526.495	87.38
526.71	75.38
526.925	86.38
527.14	91.38
527.355	71.38
527.57	68.38
527.785	76.38
527.999	63.38
528.214	73.38
528.429	84.38
528.644	90.38
528.859	87.38
529.074	76.38
529.289	78.38
529.503	83.38
529.718	71.38
529.933	77.38
530.148	84.38
530.363	81.38
530.577	108.38
530.792	73.38
531.007	86.38
531.221	87.38
531.436	84.38
531.651	72.38
531.865	70.38
532.08	83.38
532.295	80.38
532.509	80.38
532.724	92.38
532.938	81.38
533.153	82.38
533.367	84.38
533.582	78.38
533.796	78.38
534.011	93.38
534.225	78.38
534.44	77.38
534.654	86.38
534.868	80.38
535.083	84.38
535.297	78.38
535.511	77.38
535.726	94.38
535.94	72.38
536.154	75.38
536.369	91.38
536.583	87.38
536.797	104.38
537.011	81.38
537.225	67.38
537.44	77.38
537.654	86.38
537.868	82.38
538.082	73.38
538.296	73.38
538.51	94.38
538.724	77.38
538.938	89.38
539.153	74.38
539.367	83.38
539.581	91.38
539.795	91.38
540.009	91.38
540.222	88.38
540.436	68.38
540.65	83.38
540.864	94.38
541.078	90.38
541.292	89.38
541.506	86.38
541.72	86.38
541.934	74.38
542.147	87.38
542.361	74.38
542.575	76.38
542.789	84.38
543.002	84.38
543.216	80.38
543.43	94.38
543.644	77.38
543.857	77.38
544.071	77.38
544.285	84.38
544.498	74.38
544.712	83.38
544.925	69.38
545.139	91.38
545.352	81.38
545.566	80.38
545.779	82.38
545.993	82.38
546.206	66.38
546.42	77.38
546.633	86.38
546.847	89.38
547.06	74.38
547.274	95.38
547.487	91.38
547.7	79.38
547.914	81.38
548.127	88.38
548.34	79.38
548.554	79.38
548.767	75.38
548.98	90.38
549.193	82.38
549.407	76.38
549.62	72.38
549.833	76.38
550.046	82.38
550.259	89.38
550.473	85.38
550.686	84.38
550.899	82.38
551.112	86.38
551.325	76.38
551.538	63.38
551.751	87.38
551.964	83.38
552.177	93.38
552.39	77.38
552.603	77.38
552.816	77.38
553.029	87.38
553.242	87.38
553.455	81.38
553.667	96.38
553.88	90.38
554.093	89.38
554.306	79.38
554.519	74.38
554.732	80.38
554.944	80.38
555.157	104.38
555.37	87.38
555.583	90.38
555.795	75.38
556.008	71.38
556.221	89.38
556.433	88.38
556.646	85.38
556.859	93.38
557.071	72.38
557.284	88.38
557.496	78.38
557.709	88.38
557.921	72.38
558.134	87.38
558.346	76.38
558.559	79.38
558.771	72.38
558.984	89.38
559.196	83.38
559.409	74.38
559.621	83.38
559.833	87.38
560.046	72.38
560.258	88.38
560.47	96.38
560.683	86.38
560.895	86.38
561.107	84.38
561.32	84.38
561.532	88.38
561.744	83.38
561.956	89.38
562.168	87.38
562.381	74.38
562.593	76.38
562.805	68.38
563.017	87.38
563.229	83.38
563.441	82.38
563.653	82.38
563.865	81.38
564.077	78.38
564.289	86.38
564.501	78.38
564.713	87.38
564.925	86.38
565.137	77.38
565.349	81.38
565.561	78.38
565.773	75.38
565.985	85.38
566.197	85.38
566.408	97.38
566.62	86.38
566.832	89.38
567.044	81.38
567.255	80.38
567.467	84.38
567.679	78.38
567.891	79.38
568.102	87.38
568.314	63.38
568.526	71.38
568.737	80.38
568.949	72.38
569.161	78.38
569.372	80.38
569.584	86.38
569.795	91.38
570.007	83.38
570.218	86.38
570.43	76.38
570.641	91.38
570.853	78.38
571.064	74.38
571.276	90.38
571.487	76.38
571.698	81.38
571.91	92.38
572.121	90.38
572.333	88.38
572.544	85.38
572.755	79.38
572.966	80.38
573.178	82.38
573.389	77.38
573.6	79.38
573.811	72.38
574.023	79.38
574.234	90.38
574.445	86.38
574.656	73.38
574.867	70.38
575.078	83.38
575.289	81.38
575.501	95.38
575.712	74.38
575.923	76.38
576.134	79.38
576.345	74.38
576.556	90.38
576.767	86.38
576.978	85.38
577.188	63.38
577.399	76.38
577.61	86.38
577.821	79.38
578.032	86.38
578.243	75.38
578.454	86.38
578.665	80.38
578.875	71.38
579.086	79.38
579.297	86.38
579.508	84.38
579.718	102.38
579.929	85.38
580.14	80.38
580.35	73.38
580.561	68.38
580.772	92.38
580.982	80.38
581.193	86.38
581.403	84.38
581.614	73.38
581.825	77.38
582.035	74.38
582.246	61.38
582.456	86.38
582.667	76.38
582.877	86.38
583.087	89.38
583.298	83.38
583.508	85.38
583.719	92.38
583.929	97.38
584.139	84.38
584.35	90.38
584.56	86.38
584.77	75.38
584.981	75.38
585.191	86.38
585.401	91.38
585.611	88.38
585.821	96.38
586.032	75.38
586.242	88.38
586.452	82.38
586.662	82.38
586.872	74.38
587.082	80.38
587.292	90.38
587.502	72.38
587.713	86.38
587.923	71.38
588.133	102.38
588.343	84.38
588.553	74.38
588.762	82.38
588.972	87.38
589.182	98.38
589.392	79.38
589.602	83.38
589.812	81.38
590.022	75.38
590.232	78.38
590.441	91.38
590.651	76.38
590.861	78.38
591.071	69.38
591.281	79.38
591.49	79.38
591.7	83.38
591.91	88.38
592.119	94.38
592.329	93.38
592.539	99.38
592.748	98.38
592.958	78.38
593.167	78.38
593.377	84.38
593.587	102.38
593.796	88.38
594.006	74.38
594.215	80.38
594.424	71.38
594.634	81.38
594.843	76.38
595.053	81.38
595.262	106.38
595.472	92.38
595.681	91.38
595.89	87.38
596.1	82.38
596.309	92.38
596.518	82.38
596.727	88.38
596.937	86.38
597.146	75.38
597.355	102.38
597.564	87.38
597.774	70.38
597.983	82.38
598.192	74.38
598.401	75.38
598.61	101.38
598.819	87.38
599.028	83.38
599.237	91.38
599.446	84.38
599.655	83.38
599.864	91.38
600.073	95.38
600.282	76.38
600.491	80.38
600.7	77.38
600.909	83.38
601.118	87.38
601.327	90.38
601.536	89.38
601.745	86.38
601.953	98.38
602.162	78.38
602.371	69.38
602.58	90.38
602.789	88.38
602.997	86.38
603.206	87.38
603.415	76.38
603.623	83.38
603.832	91.38
604.041	84.38
604.249	94.38
604.458	89.38
604.666	81.38
604.875	84.38
605.084	86.38
605.292	82.38
605.501	85.38
605.709	76.38
605.918	74.38
606.126	74.38
606.334	84.38
606.543	85.38
606.751	86.38
606.96	87.38
607.168	85.38
607.376	84.38
607.585	106.38
607.793	89.38
608.001	80.38
608.21	90.38
608.418	83.38
608.626	88.38
608.834	86.38
609.043	89.38
609.251	83.38
609.459	84.38
609.667	92.38
609.875	76.38
610.083	64.38
610.291	74.38
610.499	84.38
610.707	71.38
610.916	77.38
611.124	81.38
611.332	88.38
611.54	78.38
611.748	89.38
611.955	100.38
612.163	95.38
612.371	76.38
612.579	81.38
612.787	93.38
612.995	89.38
613.203	79.38
613.411	75.38
613.618	94.38
613.826	71.38
614.034	92.38
614.242	85.38
614.449	76.38
614.657	76.38
614.865	77.38
615.072	76.38
615.28	76.38
615.488	92.38
615.695	91.38
615.903	85.38
616.111	70.38
616.318	88.38
616.526	90.38
616.733	66.38
616.941	76.38
617.148	87.38
617.356	80.38
617.563	83.38
617.771	88.38
617.978	83.38
618.185	83.38
618.393	91.38
618.6	81.38
618.807	88.38
619.015	68.38
619.222	79.38
619.429	81.38
619.637	83.38
619.844	68.38
620.051	73.38
620.258	72.38
620.466	74.38
620.673	96.38
620.88	81.38
621.087	80.38
621.294	99.38
621.501	86.38
621.708	76.38
621.915	80.38
622.122	72.38
622.329	75.38
622.536	90.38
622.743	92.38
622.95	78.38
623.157	78.38
623.364	71.38
623.571	80.38
623.778	84.38
623.985	89.38
624.192	85.38
624.399	79.38
624.606	98.38
624.812	86.38
625.019	80.38
625.226	88.38
625.433	90.38
625.639	90.38
625.846	73.38
626.053	89.38
626.259	75.38
626.466	78.38
626.673	72.38
626.879	89.38
627.086	95.38
627.293	74.38
627.499	79.38
627.706	84.38
627.912	73.38
628.119	74.38
628.325	89.38
628.532	75.38
628.738	85.38
628.945	81.38
629.151	75.38
629.357	91.38
629.564	87.38
629.77	82.38
629.976	84.38
630.183	79.38
630.389	85.38
630.595	72.38
630.802	86.38
631.008	75.38
631.214	81.38
631.42	80.38
631.627	91.38
631.833	84.38
632.039	103.38
632.245	88.38
632.451	83.38
632.657	80.38
632.863	79.38
633.069	83.38
633.275	92.38
633.481	76.38
633.688	72.38
633.893	81.38
634.099	74.38
634.305	78.38
634.511	90.38
634.717	74.38
634.923	87.38
635.129	71.38
635.335	76.38
635.541	71.38
635.747	90.38
635.952	90.38
636.158	77.38
636.364	86.38
636.57	71.38
636.775	90.38
636.981	86.38
637.187	73.38
637.392	76.38
637.598	90.38
637.804	72.38
638.009	85.38
638.215	71.38
638.421	79.38
638.626	72.38
638.832	74.38
639.037	75.38
639.243	80.38
639.448	82.38
639.654	87.38
639.859	87.38
640.065	78.38
640.27	78.38
640.475	87.38
640.681	68.38
640.886	74.38
641.091	60.38
641.297	81.38
641.502	92.38
641.707	75.38
641.913	72.38
642.118	81.38
642.323	79.38
642.528	94.38
642.733	89.38
642.939	93.38
643.144	85.38
643.349	82.38
643.554	70.38
643.759	83.38
643.964	83.38
644.169	99.38
644.374	77.38
644.579	85.38
644.784	79.38
644.989	84.38
645.194	77.38
645.399	66.38
645.604	91.38
645.809	67.38
646.014	72.38
646.219	87.38
646.423	95.38
646.628	85.38
646.833	74.38
647.038	88.38
647.243	75.38
647.447	86.38
647.652	81.38
647.857	84.38
648.062	82.38
648.266	87.38
648.471	85.38
648.676	86.38
648.88	87.38
649.085	74.38
649.289	94.38
649.494	76.38
649.698	88.38
649.903	91.38
650.107	92.38
650.312	95.38
650.516	89.38
650.721	84.38
650.925	76.38
651.13	72.38
651.334	71.38
651.539	75.38
651.743	83.38
651.947	78.38
652.152	83.38
652.356	87.38
652.56	74.38
652.764	86.38
652.969	93.38
653.173	87.38
653.377	85.38
653.581	87.38
653.785	89.38
653.99	87.38
654.194	91.38
654.398	80.38
654.602	90.38
654.806	85.38
655.01	75.38
655.214	65.38
655.418	77.38
655.622	76.38
655.826	78.38
656.03	84.38
656.234	88.38
656.438	81.38
656.642	78.38
656.846	84.38
657.049	73.38
657.253	83.38
657.457	87.38
657.661	81.38
657.865	79.38
658.068	77.38
658.272	65.38
658.476	104.38
658.68	88.38
658.883	89.38
659.087	82.38
659.291	84.38
659.494	76.38
659.698	82.38
659.901	74.38
660.105	84.38
660.309	80.38
660.512	88.38
660.716	80.38
660.919	80.38
661.123	74.38
661.326	84.38
661.53	78.38
661.733	86.38
661.936	58.38
662.14	66.38
662.343	77.38
662.546	87.38
662.75	79.38
662.953	79.38
663.156	75.38
663.36	86.38
663.563	84.38
663.766	78.38
663.969	79.38
664.173	65.38
664.376	82.38
664.579	78.38
664.782	80.38
664.985	75.38
665.188	101.38
665.391	83.38
665.594	77.38
665.797	90.38
666	79.38
666.203	80.38
666.406	81.38
666.609	88.38
666.812	84.38
667.015	83.38
667.218	84.38
667.421	79.38
667.624	69.38
667.827	89.38
668.03	76.38
668.232	73.38
668.435	80.38
668.638	72.38
668.841	88.38
669.043	75.38
669.246	81.38
669.449	78.38
669.651	88.38
669.854	74.38
670.057	87.38
670.259	87.38
670.462	81.38
670.665	72.38
670.867	90.38
671.07	77.38
671.272	74.38
671.475	79.38
671.677	69.38
671.88	80.38
672.082	84.38
672.284	80.38
672.487	71.38
672.689	69.38
672.892	76.38
