Data from BG_HRD10591_047.txt Node
Date: Fri May 16 15:33:30 EDT 2025
User: Yrep
Spectrometer: HR+D1059
Trigger mode: 1
Integration Time (sec): 1.000000E-1
Scans to average: 1
Electric dark correction enabled: true
Nonlinearity correction enabled: false
Boxcar width: 0
XAxis mode: Wavelengths
Number of Pixels in Spectrum: 2048
>>>>>Begin Spectral Data<<<<<
223.165	-4.25
223.4	-4.25
223.635	-4.25
223.869	-16.25
224.104	-25.25
224.338	-10.25
224.573	-33.25
224.808	-11.25
225.042	-16.25
225.277	-5.25
225.511	4.75
225.746	13.75
225.98	9.75
226.215	12.75
226.449	15.75
226.683	16.75
226.918	12.75
227.152	35.75
227.387	36.75
227.621	41.75
227.856	46.75
228.09	40.75
228.324	53.75
228.559	56.75
228.793	60.75
229.027	40.75
229.262	63.75
229.496	55.75
229.73	58.75
229.964	71.75
230.199	77.75
230.433	77.75
230.667	83.75
230.901	73.75
231.136	71.75
231.37	71.75
231.604	87.75
231.838	85.75
232.072	73.75
232.306	85.75
232.541	74.75
232.775	77.75
233.009	80.75
233.243	78.75
233.477	78.75
233.711	81.75
233.945	75.75
234.179	81.75
234.413	74.75
234.647	86.75
234.881	83.75
235.115	76.75
235.349	69.75
235.583	78.75
235.817	72.75
236.051	63.75
236.285	83.75
236.519	74.75
236.753	75.75
236.987	75.75
237.221	59.75
237.455	59.75
237.689	77.75
237.922	68.75
238.156	73.75
238.39	67.75
238.624	61.75
238.858	80.75
239.091	59.75
239.325	72.75
239.559	69.75
239.793	50.75
240.027	82.75
240.26	74.75
240.494	85.75
240.728	96.75
240.961	81.75
241.195	72.75
241.429	75.75
241.662	65.75
241.896	71.75
242.13	93.75
242.363	80.75
242.597	75.75
242.83	78.75
243.064	73.75
243.298	79.75
243.531	96.75
243.765	86.75
243.998	65.75
244.232	63.75
244.465	85.75
244.699	75.75
244.932	83.75
245.166	71.75
245.399	66.75
245.633	81.75
245.866	77.75
246.099	83.75
246.333	62.75
246.566	69.75
246.8	79.75
247.033	75.75
247.266	79.75
247.5	78.75
247.733	69.75
247.966	74.75
248.2	78.75
248.433	80.75
248.666	74.75
248.899	75.75
249.133	70.75
249.366	84.75
249.599	91.75
249.832	78.75
250.066	76.75
250.299	83.75
250.532	74.75
250.765	78.75
250.998	58.75
251.231	67.75
251.465	90.75
251.698	72.75
251.931	76.75
252.164	57.75
252.397	73.75
252.63	81.75
252.863	83.75
253.096	83.75
253.329	90.75
253.562	85.75
253.795	64.75
254.028	76.75
254.261	71.75
254.494	64.75
254.727	78.75
254.96	79.75
255.193	72.75
255.426	77.75
255.659	82.75
255.892	79.75
256.124	96.75
256.357	71.75
256.59	69.75
256.823	84.75
257.056	76.75
257.289	71.75
257.521	84.75
257.754	81.75
257.987	71.75
258.22	83.75
258.452	77.75
258.685	64.75
258.918	75.75
259.151	65.75
259.383	91.75
259.616	77.75
259.849	80.75
260.081	80.75
260.314	83.75
260.547	75.75
260.779	75.75
261.012	73.75
261.244	79.75
261.477	71.75
261.71	82.75
261.942	85.75
262.175	84.75
262.407	80.75
262.64	79.75
262.872	79.75
263.105	68.75
263.337	80.75
263.57	72.75
263.802	65.75
264.035	78.75
264.267	88.75
264.499	79.75
264.732	86.75
264.964	80.75
265.197	84.75
265.429	73.75
265.661	91.75
265.894	75.75
266.126	80.75
266.358	79.75
266.591	77.75
266.823	80.75
267.055	77.75
267.287	84.75
267.52	79.75
267.752	85.75
267.984	63.75
268.216	75.75
268.448	80.75
268.681	89.75
268.913	85.75
269.145	78.75
269.377	77.75
269.609	80.75
269.841	80.75
270.073	95.75
270.306	89.75
270.538	83.75
270.77	69.75
271.002	57.75
271.234	81.75
271.466	69.75
271.698	89.75
271.93	91.75
272.162	75.75
272.394	88.75
272.626	71.75
272.858	86.75
273.09	86.75
273.322	86.75
273.553	71.75
273.785	70.75
274.017	80.75
274.249	84.75
274.481	78.75
274.713	72.75
274.945	69.75
275.176	72.75
275.408	81.75
275.64	75.75
275.872	60.75
276.104	79.75
276.335	93.75
276.567	78.75
276.799	85.75
277.031	78.75
277.262	83.75
277.494	77.75
277.726	85.75
277.957	83.75
278.189	73.75
278.421	77.75
278.652	86.75
278.884	82.75
279.115	84.75
279.347	72.75
279.579	80.75
279.81	89.75
280.042	88.75
280.273	86.75
280.505	77.75
280.736	84.75
280.968	79.75
281.199	79.75
281.431	76.75
281.662	79.75
281.894	91.75
282.125	82.75
282.356	87.75
282.588	67.75
282.819	93.75
283.051	79.75
283.282	71.75
283.513	79.75
283.745	77.75
283.976	71.75
284.207	74.75
284.439	88.75
284.67	78.75
284.901	78.75
285.132	81.75
285.364	63.75
285.595	85.75
285.826	74.75
286.057	69.75
286.288	78.75
286.52	79.75
286.751	87.75
286.982	83.75
287.213	77.75
287.444	76.75
287.675	77.75
287.906	86.75
288.138	79.75
288.369	83.75
288.6	72.75
288.831	89.75
289.062	83.75
289.293	87.75
289.524	77.75
289.755	79.75
289.986	86.75
290.217	69.75
290.448	77.75
290.679	103.75
290.91	87.75
291.141	65.75
291.371	83.75
291.602	79.75
291.833	90.75
292.064	90.75
292.295	79.75
292.526	83.75
292.757	77.75
292.987	85.75
293.218	81.75
293.449	87.75
293.68	73.75
293.91	73.75
294.141	89.75
294.372	65.75
294.603	80.75
294.833	83.75
295.064	86.75
295.295	79.75
295.525	95.75
295.756	77.75
295.987	77.75
296.217	95.75
296.448	91.75
296.679	93.75
296.909	85.75
297.14	79.75
297.37	75.75
297.601	73.75
297.831	88.75
298.062	73.75
298.292	86.75
298.523	101.75
298.753	82.75
298.984	85.75
299.214	81.75
299.445	66.75
299.675	87.75
299.905	91.75
300.136	88.75
300.366	92.75
300.597	79.75
300.827	87.75
301.057	89.75
301.288	88.75
301.518	72.75
301.748	81.75
301.979	86.75
302.209	83.75
302.439	55.75
302.669	78.75
302.9	83.75
303.13	92.75
303.36	78.75
303.59	101.75
303.82	78.75
304.051	78.75
304.281	90.75
304.511	87.75
304.741	69.75
304.971	73.75
305.201	91.75
305.431	81.75
305.661	89.75
305.891	79.75
306.121	77.75
306.352	73.75
306.582	76.75
306.812	91.75
307.042	74.75
307.272	73.75
307.502	88.75
307.731	86.75
307.961	80.75
308.191	86.75
308.421	99.75
308.651	89.75
308.881	84.75
309.111	94.75
309.341	89.75
309.571	82.75
309.8	100.75
310.03	76.75
310.26	84.75
310.49	83.75
310.72	83.75
310.949	80.75
311.179	83.75
311.409	76.75
311.639	87.75
311.868	75.75
312.098	92.75
312.328	84.75
312.557	83.75
312.787	84.75
313.017	87.75
313.246	90.75
313.476	80.75
313.706	77.75
313.935	89.75
314.165	86.75
314.394	102.75
314.624	81.75
314.853	96.75
315.083	88.75
315.312	82.75
315.542	84.75
315.771	88.75
316.001	65.75
316.23	74.75
316.46	77.75
316.689	84.75
316.919	77.75
317.148	82.75
317.377	87.75
317.607	75.75
317.836	73.75
318.065	79.75
318.295	87.75
318.524	85.75
318.753	75.75
318.983	84.75
319.212	82.75
319.441	82.75
319.67	84.75
319.9	85.75
320.129	88.75
320.358	85.75
320.587	83.75
320.816	75.75
321.046	91.75
321.275	89.75
321.504	87.75
321.733	76.75
321.962	68.75
322.191	95.75
322.42	89.75
322.649	79.75
322.878	85.75
323.108	85.75
323.337	110.75
323.566	80.75
323.795	84.75
324.024	79.75
324.253	98.75
324.482	90.75
324.71	89.75
324.939	88.75
325.168	72.75
325.397	84.75
325.626	83.75
325.855	81.75
326.084	71.75
326.313	89.75
326.542	78.75
326.77	83.75
326.999	99.75
327.228	79.75
327.457	79.75
327.686	81.75
327.914	97.75
328.143	104.75
328.372	75.75
328.6	83.75
328.829	82.75
329.058	88.75
329.287	78.75
329.515	81.75
329.744	79.75
329.972	80.75
330.201	73.75
330.43	87.75
330.658	77.75
330.887	88.75
331.115	75.75
331.344	90.75
331.572	75.75
331.801	87.75
332.03	73.75
332.258	84.75
332.486	77.75
332.715	85.75
332.943	84.75
333.172	92.75
333.4	88.75
333.629	89.75
333.857	95.75
334.085	77.75
334.314	86.75
334.542	77.75
334.771	94.75
334.999	79.75
335.227	75.75
335.455	79.75
335.684	88.75
335.912	81.75
336.14	87.75
336.369	92.75
336.597	83.75
336.825	88.75
337.053	77.75
337.281	71.75
337.51	85.75
337.738	77.75
337.966	78.75
338.194	91.75
338.422	88.75
338.65	91.75
338.878	88.75
339.106	82.75
339.334	90.75
339.562	84.75
339.79	84.75
340.018	80.75
340.246	83.75
340.474	94.75
340.702	88.75
340.93	75.75
341.158	81.75
341.386	77.75
341.614	82.75
341.842	86.75
342.07	79.75
342.298	84.75
342.526	77.75
342.754	94.75
342.981	95.75
343.209	90.75
343.437	104.75
343.665	83.75
343.893	75.75
344.12	78.75
344.348	96.75
344.576	80.75
344.804	80.75
345.031	96.75
345.259	67.75
345.487	89.75
345.714	101.75
345.942	76.75
346.17	83.75
346.397	83.75
346.625	83.75
346.853	88.75
347.08	76.75
347.308	62.75
347.535	71.75
347.763	83.75
347.99	79.75
348.218	76.75
348.445	93.75
348.673	81.75
348.9	72.75
349.128	96.75
349.355	88.75
349.583	80.75
349.81	87.75
350.037	75.75
350.265	86.75
350.492	88.75
350.72	74.75
350.947	91.75
351.174	75.75
351.402	91.75
351.629	86.75
351.856	89.75
352.083	89.75
352.311	81.75
352.538	93.75
352.765	79.75
352.992	85.75
353.22	72.75
353.447	77.75
353.674	86.75
353.901	82.75
354.128	83.75
354.355	74.75
354.583	90.75
354.81	66.75
355.037	86.75
355.264	77.75
355.491	86.75
355.718	90.75
355.945	88.75
356.172	78.75
356.399	83.75
356.626	88.75
356.853	85.75
357.08	99.75
357.307	78.75
357.534	79.75
357.761	81.75
357.988	79.75
358.215	90.75
358.441	82.75
358.668	72.75
358.895	93.75
359.122	79.75
359.349	92.75
359.576	82.75
359.802	80.75
360.029	87.75
360.256	74.75
360.483	59.75
360.709	92.75
360.936	83.75
361.163	75.75
361.39	81.75
361.616	77.75
361.843	89.75
362.07	83.75
362.296	76.75
362.523	80.75
362.749	81.75
362.976	76.75
363.203	78.75
363.429	77.75
363.656	92.75
363.882	88.75
364.109	92.75
364.335	89.75
364.562	80.75
364.788	74.75
365.015	77.75
365.241	88.75
365.468	87.75
365.694	83.75
365.92	81.75
366.147	87.75
366.373	95.75
366.599	88.75
366.826	76.75
367.052	76.75
367.278	93.75
367.505	89.75
367.731	97.75
367.957	86.75
368.184	75.75
368.41	88.75
368.636	83.75
368.862	83.75
369.089	72.75
369.315	84.75
369.541	72.75
369.767	77.75
369.993	88.75
370.219	75.75
370.445	76.75
370.672	77.75
370.898	86.75
371.124	85.75
371.35	86.75
371.576	80.75
371.802	80.75
372.028	68.75
372.254	82.75
372.48	84.75
372.706	88.75
372.932	85.75
373.158	86.75
373.384	76.75
373.61	81.75
373.835	72.75
374.061	86.75
374.287	94.75
374.513	84.75
374.739	82.75
374.965	93.75
375.191	88.75
375.416	65.75
375.642	85.75
375.868	78.75
376.094	71.75
376.319	72.75
376.545	89.75
376.771	82.75
376.997	79.75
377.222	73.75
377.448	89.75
377.674	91.75
377.899	91.75
378.125	80.75
378.35	88.75
378.576	70.75
378.802	83.75
379.027	85.75
379.253	88.75
379.478	84.75
379.704	75.75
379.929	88.75
380.155	89.75
380.38	96.75
380.606	92.75
380.831	77.75
381.057	84.75
381.282	91.75
381.507	80.75
381.733	87.75
381.958	86.75
382.184	94.75
382.409	76.75
382.634	94.75
382.86	89.75
383.085	86.75
383.31	82.75
383.535	81.75
383.761	77.75
383.986	85.75
384.211	89.75
384.436	89.75
384.662	84.75
384.887	69.75
385.112	70.75
385.337	89.75
385.562	76.75
385.787	85.75
386.013	96.75
386.238	83.75
386.463	101.75
386.688	87.75
386.913	68.75
387.138	70.75
387.363	84.75
387.588	101.75
387.813	74.75
388.038	96.75
388.263	89.75
388.488	85.75
388.713	83.75
388.938	79.75
389.163	83.75
389.387	93.75
389.612	71.75
389.837	80.75
390.062	83.75
390.287	81.75
390.512	84.75
390.736	76.75
390.961	85.75
391.186	78.75
391.411	93.75
391.636	94.75
391.86	78.75
392.085	92.75
392.31	81.75
392.534	81.75
392.759	89.75
392.984	71.75
393.208	84.75
393.433	94.75
393.658	84.75
393.882	84.75
394.107	73.75
394.331	79.75
394.556	72.75
394.78	75.75
395.005	98.75
395.229	93.75
395.454	75.75
395.678	101.75
395.903	80.75
396.127	85.75
396.352	96.75
396.576	89.75
396.801	94.75
397.025	76.75
397.249	87.75
397.474	103.75
397.698	88.75
397.922	86.75
398.147	72.75
398.371	83.75
398.595	85.75
398.82	88.75
399.044	83.75
399.268	95.75
399.492	94.75
399.717	81.75
399.941	80.75
400.165	97.75
400.389	81.75
400.613	89.75
400.837	74.75
401.062	85.75
401.286	84.75
401.51	88.75
401.734	81.75
401.958	98.75
402.182	80.75
402.406	59.75
402.63	87.75
402.854	96.75
403.078	71.75
403.302	81.75
403.526	91.75
403.75	80.75
403.974	84.75
404.198	82.75
404.422	77.75
404.645	91.75
404.869	93.75
405.093	84.75
405.317	88.75
405.541	89.75
405.765	87.75
405.988	73.75
406.212	78.75
406.436	95.75
406.66	85.75
406.883	92.75
407.107	80.75
407.331	99.75
407.555	97.75
407.778	90.75
408.002	88.75
408.226	100.75
408.449	65.75
408.673	82.75
408.896	80.75
409.12	99.75
409.344	80.75
409.567	77.75
409.791	79.75
410.014	89.75
410.238	97.75
410.461	102.75
410.685	106.75
410.908	95.75
411.132	89.75
411.355	83.75
411.578	87.75
411.802	91.75
412.025	68.75
412.249	78.75
412.472	85.75
412.695	83.75
412.919	76.75
413.142	83.75
413.365	99.75
413.589	84.75
413.812	92.75
414.035	89.75
414.258	84.75
414.482	83.75
414.705	79.75
414.928	92.75
415.151	72.75
415.374	79.75
415.597	83.75
415.821	67.75
416.044	101.75
416.267	73.75
416.49	107.75
416.713	81.75
416.936	99.75
417.159	86.75
417.382	72.75
417.605	82.75
417.828	79.75
418.051	87.75
418.274	84.75
418.497	79.75
418.72	75.75
418.943	77.75
419.166	92.75
419.389	94.75
419.611	87.75
419.834	66.75
420.057	76.75
420.28	78.75
420.503	84.75
420.726	80.75
420.948	103.75
421.171	79.75
421.394	72.75
421.617	76.75
421.839	83.75
422.062	95.75
422.285	71.75
422.507	73.75
422.73	68.75
422.953	86.75
423.175	78.75
423.398	80.75
423.621	87.75
423.843	79.75
424.066	81.75
424.288	88.75
424.511	96.75
424.733	99.75
424.956	80.75
425.178	76.75
425.401	86.75
425.623	97.75
425.846	84.75
426.068	95.75
426.291	92.75
426.513	83.75
426.735	87.75
426.958	78.75
427.18	89.75
427.402	92.75
427.625	69.75
427.847	67.75
428.069	79.75
428.292	84.75
428.514	71.75
428.736	79.75
428.958	80.75
429.181	86.75
429.403	73.75
429.625	81.75
429.847	83.75
430.069	98.75
430.292	99.75
430.514	86.75
430.736	87.75
430.958	82.75
431.18	91.75
431.402	90.75
431.624	94.75
431.846	86.75
432.068	80.75
432.29	94.75
432.512	95.75
432.734	78.75
432.956	96.75
433.178	85.75
433.4	86.75
433.622	78.75
433.844	73.75
434.066	73.75
434.287	76.75
434.509	78.75
434.731	77.75
434.953	97.75
435.175	86.75
435.397	94.75
435.618	93.75
435.84	87.75
436.062	92.75
436.284	92.75
436.505	93.75
436.727	89.75
436.949	83.75
437.17	73.75
437.392	90.75
437.614	85.75
437.835	69.75
438.057	78.75
438.278	89.75
438.5	72.75
438.721	76.75
438.943	67.75
439.165	75.75
439.386	88.75
439.608	90.75
439.829	84.75
440.05	91.75
440.272	76.75
440.493	88.75
440.715	87.75
440.936	94.75
441.158	82.75
441.379	92.75
441.6	84.75
441.822	89.75
442.043	97.75
442.264	99.75
442.486	89.75
442.707	83.75
442.928	82.75
443.149	88.75
443.371	83.75
443.592	76.75
443.813	69.75
444.034	87.75
444.255	87.75
444.476	75.75
444.698	96.75
444.919	85.75
445.14	148.75
445.361	127.75
445.582	83.75
445.803	87.75
446.024	83.75
446.245	88.75
446.466	78.75
446.687	80.75
446.908	89.75
447.129	95.75
447.35	80.75
447.571	96.75
447.792	79.75
448.013	81.75
448.234	79.75
448.455	76.75
448.675	85.75
448.896	63.75
449.117	80.75
449.338	84.75
449.559	92.75
449.779	86.75
450	83.75
450.221	97.75
450.442	76.75
450.662	87.75
450.883	94.75
451.104	90.75
451.324	88.75
451.545	90.75
451.766	97.75
451.986	85.75
452.207	84.75
452.428	86.75
452.648	83.75
452.869	89.75
453.089	69.75
453.31	83.75
453.53	80.75
453.751	83.75
453.971	85.75
454.192	81.75
454.412	69.75
454.633	67.75
454.853	94.75
455.073	82.75
455.294	88.75
455.514	101.75
455.734	79.75
455.955	79.75
456.175	89.75
456.395	83.75
456.616	83.75
456.836	96.75
457.056	87.75
457.276	77.75
457.497	68.75
457.717	83.75
457.937	77.75
458.157	76.75
458.377	83.75
458.598	89.75
458.818	87.75
459.038	75.75
459.258	80.75
459.478	82.75
459.698	95.75
459.918	91.75
460.138	80.75
460.358	84.75
460.578	71.75
460.798	94.75
461.018	92.75
461.238	87.75
461.458	116.75
461.678	91.75
461.898	99.75
462.118	93.75
462.338	85.75
462.558	90.75
462.777	83.75
462.997	76.75
463.217	91.75
463.437	89.75
463.657	88.75
463.876	86.75
464.096	85.75
464.316	80.75
464.536	76.75
464.755	78.75
464.975	82.75
465.195	80.75
465.414	94.75
465.634	82.75
465.854	78.75
466.073	80.75
466.293	87.75
466.512	78.75
466.732	83.75
466.951	81.75
467.171	86.75
467.391	92.75
467.61	83.75
467.829	92.75
468.049	79.75
468.268	91.75
468.488	91.75
468.707	83.75
468.927	85.75
469.146	79.75
469.365	75.75
469.585	83.75
469.804	81.75
470.023	85.75
470.243	81.75
470.462	91.75
470.681	89.75
470.901	104.75
471.12	73.75
471.339	85.75
471.558	84.75
471.777	77.75
471.997	77.75
472.216	91.75
472.435	71.75
472.654	88.75
472.873	79.75
473.092	81.75
473.311	78.75
473.53	76.75
473.749	76.75
473.968	89.75
474.187	70.75
474.406	77.75
474.625	92.75
474.844	89.75
475.063	83.75
475.282	85.75
475.501	83.75
475.72	84.75
475.939	88.75
476.158	92.75
476.377	90.75
476.596	95.75
476.814	85.75
477.033	77.75
477.252	82.75
477.471	95.75
477.69	63.75
477.908	85.75
478.127	83.75
478.346	79.75
478.564	86.75
478.783	96.75
479.002	83.75
479.22	96.75
479.439	94.75
479.658	74.75
479.876	78.75
480.095	83.75
480.313	85.75
480.532	91.75
480.751	97.75
480.969	96.75
481.188	73.75
481.406	85.75
481.624	78.75
481.843	86.75
482.061	88.75
482.28	88.75
482.498	75.75
482.717	70.75
482.935	85.75
483.153	82.75
483.372	83.75
483.59	84.75
483.808	71.75
484.027	98.75
484.245	91.75
484.463	92.75
484.681	90.75
484.9	87.75
485.118	85.75
485.336	89.75
485.554	84.75
485.772	80.75
485.99	86.75
486.209	99.75
486.427	83.75
486.645	93.75
486.863	80.75
487.081	90.75
487.299	78.75
487.517	89.75
487.735	81.75
487.953	87.75
488.171	90.75
488.389	91.75
488.607	80.75
488.825	75.75
489.043	96.75
489.261	109.75
489.479	92.75
489.696	88.75
489.914	92.75
490.132	84.75
490.35	81.75
490.568	89.75
490.786	96.75
491.003	74.75
491.221	93.75
491.439	79.75
491.657	79.75
491.874	89.75
492.092	68.75
492.31	81.75
492.527	76.75
492.745	91.75
492.963	81.75
493.18	75.75
493.398	86.75
493.615	87.75
493.833	88.75
494.05	94.75
494.268	86.75
494.485	82.75
494.703	81.75
494.92	89.75
495.138	80.75
495.355	87.75
495.573	83.75
495.79	91.75
496.008	93.75
496.225	77.75
496.442	98.75
496.66	85.75
496.877	87.75
497.094	78.75
497.312	79.75
497.529	84.75
497.746	91.75
497.963	100.75
498.181	86.75
498.398	96.75
498.615	96.75
498.832	83.75
499.049	110.75
499.267	95.75
499.484	81.75
499.701	93.75
499.918	108.75
500.135	101.75
500.352	103.75
500.569	118.75
500.786	106.75
501.003	110.75
501.22	109.75
501.437	99.75
501.654	86.75
501.871	111.75
502.088	85.75
502.305	101.75
502.522	91.75
502.739	79.75
502.956	87.75
503.172	95.75
503.389	90.75
503.606	83.75
503.823	94.75
504.04	95.75
504.256	89.75
504.473	80.75
504.69	81.75
504.907	90.75
505.123	96.75
505.34	78.75
505.557	91.75
505.773	101.75
505.99	89.75
506.207	81.75
506.423	94.75
506.64	84.75
506.856	70.75
507.073	84.75
507.289	82.75
507.506	80.75
507.722	84.75
507.939	86.75
508.155	87.75
508.372	88.75
508.588	79.75
508.805	79.75
509.021	81.75
509.238	78.75
509.454	89.75
509.67	86.75
509.887	90.75
510.103	105.75
510.319	73.75
510.536	82.75
510.752	85.75
510.968	81.75
511.184	86.75
511.401	72.75
511.617	91.75
511.833	92.75
512.049	87.75
512.265	99.75
512.481	84.75
512.698	88.75
512.914	84.75
513.13	96.75
513.346	89.75
513.562	83.75
513.778	103.75
513.994	84.75
514.21	92.75
514.426	95.75
514.642	85.75
514.858	79.75
515.074	85.75
515.29	81.75
515.506	104.75
515.721	100.75
515.937	92.75
516.153	90.75
516.369	83.75
516.585	85.75
516.801	82.75
517.016	91.75
517.232	80.75
517.448	99.75
517.664	91.75
517.879	89.75
518.095	92.75
518.311	84.75
518.527	94.75
518.742	79.75
518.958	97.75
519.173	91.75
519.389	84.75
519.605	79.75
519.82	87.75
520.036	97.75
520.251	99.75
520.467	89.75
520.682	85.75
520.898	87.75
521.113	95.75
521.329	91.75
521.544	75.75
521.76	78.75
521.975	95.75
522.19	100.75
522.406	81.75
522.621	89.75
522.836	77.75
523.052	81.75
523.267	95.75
523.482	89.75
523.698	96.75
523.913	93.75
524.128	80.75
524.343	68.75
524.559	85.75
524.774	91.75
524.989	104.75
525.204	93.75
525.419	105.75
525.634	93.75
525.849	78.75
526.064	97.75
526.28	93.75
526.495	71.75
526.71	87.75
526.925	95.75
527.14	88.75
527.355	81.75
527.57	91.75
527.785	75.75
527.999	97.75
528.214	79.75
528.429	90.75
528.644	99.75
528.859	84.75
529.074	79.75
529.289	83.75
529.503	83.75
529.718	97.75
529.933	84.75
530.148	89.75
530.363	95.75
530.577	78.75
530.792	78.75
531.007	70.75
531.221	78.75
531.436	88.75
531.651	99.75
531.865	74.75
532.08	72.75
532.295	87.75
532.509	72.75
532.724	83.75
532.938	89.75
533.153	85.75
533.367	72.75
533.582	83.75
533.796	74.75
534.011	85.75
534.225	79.75
534.44	81.75
534.654	89.75
534.868	107.75
535.083	74.75
535.297	94.75
535.511	85.75
535.726	85.75
535.94	74.75
536.154	79.75
536.369	88.75
536.583	89.75
536.797	92.75
537.011	106.75
537.225	92.75
537.44	70.75
537.654	85.75
537.868	79.75
538.082	83.75
538.296	90.75
538.51	91.75
538.724	89.75
538.938	85.75
539.153	96.75
539.367	92.75
539.581	84.75
539.795	76.75
540.009	104.75
540.222	89.75
540.436	73.75
540.65	87.75
540.864	80.75
541.078	80.75
541.292	83.75
541.506	79.75
541.72	85.75
541.934	89.75
542.147	87.75
542.361	87.75
542.575	85.75
542.789	94.75
543.002	87.75
543.216	81.75
543.43	99.75
543.644	91.75
543.857	74.75
544.071	80.75
544.285	96.75
544.498	91.75
544.712	83.75
544.925	77.75
545.139	84.75
545.352	89.75
545.566	69.75
545.779	88.75
545.993	79.75
546.206	84.75
546.42	85.75
546.633	88.75
546.847	79.75
547.06	96.75
547.274	73.75
547.487	82.75
547.7	80.75
547.914	99.75
548.127	78.75
548.34	90.75
548.554	96.75
548.767	85.75
548.98	72.75
549.193	78.75
549.407	87.75
549.62	79.75
549.833	89.75
550.046	86.75
550.259	91.75
550.473	93.75
550.686	76.75
550.899	88.75
551.112	95.75
551.325	91.75
551.538	77.75
551.751	82.75
551.964	83.75
552.177	95.75
552.39	87.75
552.603	85.75
552.816	96.75
553.029	103.75
553.242	82.75
553.455	91.75
553.667	101.75
553.88	93.75
554.093	86.75
554.306	81.75
554.519	72.75
554.732	90.75
554.944	73.75
555.157	92.75
555.37	79.75
555.583	84.75
555.795	84.75
556.008	80.75
556.221	85.75
556.433	83.75
556.646	97.75
556.859	93.75
557.071	79.75
557.284	79.75
557.496	98.75
557.709	87.75
557.921	89.75
558.134	87.75
558.346	69.75
558.559	96.75
558.771	88.75
558.984	102.75
559.196	91.75
559.409	82.75
559.621	83.75
559.833	84.75
560.046	80.75
560.258	84.75
560.47	59.75
560.683	67.75
560.895	79.75
561.107	88.75
561.32	83.75
561.532	101.75
561.744	100.75
561.956	87.75
562.168	91.75
562.381	88.75
562.593	83.75
562.805	91.75
563.017	81.75
563.229	92.75
563.441	85.75
563.653	85.75
563.865	84.75
564.077	93.75
564.289	76.75
564.501	81.75
564.713	85.75
564.925	74.75
565.137	83.75
565.349	94.75
565.561	92.75
565.773	81.75
565.985	87.75
566.197	91.75
566.408	90.75
566.62	84.75
566.832	77.75
567.044	91.75
567.255	87.75
567.467	95.75
567.679	97.75
567.891	78.75
568.102	87.75
568.314	85.75
568.526	104.75
568.737	99.75
568.949	92.75
569.161	78.75
569.372	79.75
569.584	96.75
569.795	94.75
570.007	79.75
570.218	77.75
570.43	75.75
570.641	78.75
570.853	88.75
571.064	86.75
571.276	71.75
571.487	92.75
571.698	81.75
571.91	78.75
572.121	81.75
572.333	83.75
572.544	81.75
572.755	72.75
572.966	89.75
573.178	81.75
573.389	80.75
573.6	91.75
573.811	89.75
574.023	69.75
574.234	84.75
574.445	95.75
574.656	82.75
574.867	89.75
575.078	83.75
575.289	87.75
575.501	85.75
575.712	66.75
575.923	78.75
576.134	80.75
576.345	79.75
576.556	65.75
576.767	94.75
576.978	81.75
577.188	81.75
577.399	76.75
577.61	100.75
577.821	85.75
578.032	75.75
578.243	85.75
578.454	88.75
578.665	87.75
578.875	90.75
579.086	72.75
579.297	81.75
579.508	87.75
579.718	87.75
579.929	75.75
580.14	74.75
580.35	78.75
580.561	80.75
580.772	76.75
580.982	81.75
581.193	76.75
581.403	83.75
581.614	102.75
581.825	77.75
582.035	81.75
582.246	89.75
582.456	89.75
582.667	75.75
582.877	80.75
583.087	78.75
583.298	75.75
583.508	90.75
583.719	82.75
583.929	80.75
584.139	85.75
584.35	91.75
584.56	84.75
584.77	84.75
584.981	78.75
585.191	82.75
585.401	85.75
585.611	94.75
585.821	81.75
586.032	81.75
586.242	79.75
586.452	94.75
586.662	73.75
586.872	86.75
587.082	85.75
587.292	89.75
587.502	86.75
587.713	88.75
587.923	85.75
588.133	91.75
588.343	91.75
588.553	74.75
588.762	75.75
588.972	75.75
589.182	86.75
589.392	77.75
589.602	85.75
589.812	83.75
590.022	84.75
590.232	78.75
590.441	73.75
590.651	91.75
590.861	83.75
591.071	83.75
591.281	80.75
591.49	87.75
591.7	85.75
591.91	99.75
592.119	80.75
592.329	79.75
592.539	89.75
592.748	82.75
592.958	97.75
593.167	81.75
593.377	93.75
593.587	89.75
593.796	78.75
594.006	84.75
594.215	87.75
594.424	88.75
594.634	86.75
594.843	86.75
595.053	73.75
595.262	90.75
595.472	85.75
595.681	82.75
595.89	80.75
596.1	92.75
596.309	79.75
596.518	83.75
596.727	83.75
596.937	85.75
597.146	74.75
597.355	77.75
597.564	73.75
597.774	88.75
597.983	89.75
598.192	78.75
598.401	84.75
598.61	86.75
598.819	73.75
599.028	91.75
599.237	87.75
599.446	100.75
599.655	88.75
599.864	80.75
600.073	75.75
600.282	88.75
600.491	84.75
600.7	87.75
600.909	84.75
601.118	97.75
601.327	85.75
601.536	85.75
601.745	81.75
601.953	79.75
602.162	70.75
602.371	81.75
602.58	78.75
602.789	76.75
602.997	99.75
603.206	83.75
603.415	80.75
603.623	88.75
603.832	86.75
604.041	85.75
604.249	88.75
604.458	63.75
604.666	76.75
604.875	83.75
605.084	78.75
605.292	81.75
605.501	80.75
605.709	83.75
605.918	81.75
606.126	85.75
606.334	75.75
606.543	73.75
606.751	67.75
606.96	80.75
607.168	94.75
607.376	90.75
607.585	88.75
607.793	81.75
608.001	69.75
608.21	80.75
608.418	89.75
608.626	77.75
608.834	84.75
609.043	86.75
609.251	79.75
609.459	63.75
609.667	91.75
609.875	75.75
610.083	93.75
610.291	93.75
610.499	80.75
610.707	89.75
610.916	74.75
611.124	89.75
611.332	76.75
611.54	73.75
611.748	83.75
611.955	77.75
612.163	71.75
612.371	69.75
612.579	68.75
612.787	75.75
612.995	81.75
613.203	65.75
613.411	72.75
613.618	81.75
613.826	83.75
614.034	68.75
614.242	76.75
614.449	86.75
614.657	89.75
614.865	72.75
615.072	79.75
615.28	69.75
615.488	75.75
615.695	85.75
615.903	84.75
616.111	66.75
616.318	99.75
616.526	79.75
616.733	82.75
616.941	92.75
617.148	80.75
617.356	69.75
617.563	86.75
617.771	77.75
617.978	83.75
618.185	77.75
618.393	70.75
618.6	79.75
618.807	78.75
619.015	80.75
619.222	80.75
619.429	77.75
619.637	85.75
619.844	91.75
620.051	78.75
620.258	88.75
620.466	89.75
620.673	102.75
620.88	78.75
621.087	89.75
621.294	87.75
621.501	76.75
621.708	80.75
621.915	73.75
622.122	87.75
622.329	83.75
622.536	85.75
622.743	75.75
622.95	77.75
623.157	81.75
623.364	78.75
623.571	81.75
623.778	71.75
623.985	83.75
624.192	91.75
624.399	80.75
624.606	89.75
624.812	93.75
625.019	73.75
625.226	85.75
625.433	66.75
625.639	86.75
625.846	97.75
626.053	90.75
626.259	84.75
626.466	75.75
626.673	79.75
626.879	77.75
627.086	83.75
627.293	81.75
627.499	83.75
627.706	75.75
627.912	88.75
628.119	84.75
628.325	70.75
628.532	82.75
628.738	81.75
628.945	92.75
629.151	74.75
629.357	68.75
629.564	82.75
629.77	76.75
629.976	83.75
630.183	72.75
630.389	83.75
630.595	85.75
630.802	81.75
631.008	68.75
631.214	75.75
631.42	68.75
631.627	78.75
631.833	82.75
632.039	77.75
632.245	83.75
632.451	76.75
632.657	71.75
632.863	91.75
633.069	88.75
633.275	91.75
633.481	80.75
633.688	81.75
633.893	69.75
634.099	80.75
634.305	73.75
634.511	80.75
634.717	72.75
634.923	78.75
635.129	80.75
635.335	78.75
635.541	83.75
635.747	71.75
635.952	84.75
636.158	90.75
636.364	87.75
636.57	85.75
636.775	85.75
636.981	83.75
637.187	84.75
637.392	84.75
637.598	74.75
637.804	75.75
638.009	69.75
638.215	83.75
638.421	71.75
638.626	88.75
638.832	79.75
639.037	69.75
639.243	81.75
639.448	79.75
639.654	79.75
639.859	94.75
640.065	77.75
640.27	79.75
640.475	86.75
640.681	80.75
640.886	71.75
641.091	79.75
641.297	90.75
641.502	74.75
641.707	91.75
641.913	85.75
642.118	68.75
642.323	83.75
642.528	71.75
642.733	79.75
642.939	81.75
643.144	65.75
643.349	88.75
643.554	72.75
643.759	77.75
643.964	71.75
644.169	88.75
644.374	86.75
644.579	84.75
644.784	65.75
644.989	72.75
645.194	69.75
645.399	77.75
645.604	84.75
645.809	85.75
646.014	84.75
646.219	73.75
646.423	75.75
646.628	82.75
646.833	81.75
647.038	81.75
647.243	74.75
647.447	80.75
647.652	97.75
647.857	89.75
648.062	69.75
648.266	71.75
648.471	71.75
648.676	81.75
648.88	83.75
649.085	73.75
649.289	84.75
649.494	79.75
649.698	77.75
649.903	88.75
650.107	81.75
650.312	98.75
650.516	86.75
650.721	87.75
650.925	69.75
651.13	84.75
651.334	89.75
651.539	71.75
651.743	80.75
651.947	59.75
652.152	80.75
652.356	87.75
652.56	78.75
652.764	79.75
652.969	79.75
653.173	78.75
653.377	80.75
653.581	75.75
653.785	70.75
653.99	76.75
654.194	85.75
654.398	71.75
654.602	80.75
654.806	81.75
655.01	87.75
655.214	73.75
655.418	85.75
655.622	77.75
655.826	69.75
656.03	77.75
656.234	76.75
656.438	90.75
656.642	83.75
656.846	85.75
657.049	71.75
657.253	103.75
657.457	76.75
657.661	75.75
657.865	72.75
658.068	73.75
658.272	60.75
658.476	87.75
658.68	71.75
658.883	90.75
659.087	91.75
659.291	74.75
659.494	95.75
659.698	67.75
659.901	86.75
660.105	84.75
660.309	93.75
660.512	91.75
660.716	92.75
660.919	85.75
661.123	75.75
661.326	79.75
661.53	79.75
661.733	96.75
661.936	81.75
662.14	72.75
662.343	81.75
662.546	80.75
662.75	66.75
662.953	79.75
663.156	83.75
663.36	79.75
663.563	69.75
663.766	84.75
663.969	81.75
664.173	84.75
664.376	77.75
664.579	67.75
664.782	80.75
664.985	74.75
665.188	72.75
665.391	83.75
665.594	79.75
665.797	77.75
666	72.75
666.203	78.75
666.406	69.75
666.609	79.75
666.812	59.75
667.015	83.75
667.218	77.75
667.421	73.75
667.624	80.75
667.827	81.75
668.03	66.75
668.232	74.75
668.435	75.75
668.638	72.75
668.841	94.75
669.043	72.75
669.246	77.75
669.449	75.75
669.651	72.75
669.854	76.75
670.057	70.75
670.259	75.75
670.462	80.75
670.665	71.75
670.867	98.75
671.07	88.75
671.272	71.75
671.475	87.75
671.677	64.75
671.88	80.75
672.082	68.75
672.284	78.75
672.487	75.75
672.689	83.75
672.892	77.75
