Data from BG_HRD10591_094.txt Node
Date: Fri May 16 15:33:53 EDT 2025
User: Yrep
Spectrometer: HR+D1059
Trigger mode: 1
Integration Time (sec): 1.000000E-1
Scans to average: 1
Electric dark correction enabled: true
Nonlinearity correction enabled: false
Boxcar width: 0
XAxis mode: Wavelengths
Number of Pixels in Spectrum: 2048
>>>>>Begin Spectral Data<<<<<
223.165	-35.19
223.4	-35.19
223.635	-35.19
223.869	-18.19
224.104	-9.19
224.338	-23.19
224.573	-4.19
224.808	-3.19
225.042	-11.19
225.277	2.81
225.511	-6.19
225.746	8.81
225.98	12.81
226.215	13.81
226.449	22.81
226.683	12.81
226.918	14.81
227.152	21.81
227.387	30.81
227.621	40.81
227.856	45.81
228.09	56.81
228.324	46.81
228.559	52.81
228.793	64.81
229.027	74.81
229.262	59.81
229.496	68.81
229.73	66.81
229.964	71.81
230.199	77.81
230.433	67.81
230.667	82.81
230.901	66.81
231.136	90.81
231.37	92.81
231.604	77.81
231.838	80.81
232.072	65.81
232.306	78.81
232.541	90.81
232.775	80.81
233.009	95.81
233.243	87.81
233.477	82.81
233.711	81.81
233.945	91.81
234.179	84.81
234.413	86.81
234.647	81.81
234.881	75.81
235.115	75.81
235.349	61.81
235.583	77.81
235.817	83.81
236.051	74.81
236.285	87.81
236.519	78.81
236.753	86.81
236.987	72.81
237.221	66.81
237.455	80.81
237.689	63.81
237.922	63.81
238.156	63.81
238.39	80.81
238.624	69.81
238.858	80.81
239.091	60.81
239.325	75.81
239.559	59.81
239.793	60.81
240.027	65.81
240.26	78.81
240.494	80.81
240.728	61.81
240.961	68.81
241.195	81.81
241.429	90.81
241.662	73.81
241.896	69.81
242.13	73.81
242.363	69.81
242.597	77.81
242.83	81.81
243.064	78.81
243.298	52.81
243.531	82.81
243.765	58.81
243.998	67.81
244.232	74.81
244.465	81.81
244.699	73.81
244.932	71.81
245.166	71.81
245.399	71.81
245.633	67.81
245.866	72.81
246.099	67.81
246.333	68.81
246.566	88.81
246.8	71.81
247.033	72.81
247.266	75.81
247.5	80.81
247.733	81.81
247.966	70.81
248.2	93.81
248.433	74.81
248.666	69.81
248.899	79.81
249.133	84.81
249.366	91.81
249.599	74.81
249.832	73.81
250.066	70.81
250.299	60.81
250.532	79.81
250.765	88.81
250.998	74.81
251.231	85.81
251.465	78.81
251.698	70.81
251.931	81.81
252.164	75.81
252.397	87.81
252.63	80.81
252.863	81.81
253.096	77.81
253.329	81.81
253.562	56.81
253.795	70.81
254.028	94.81
254.261	78.81
254.494	77.81
254.727	80.81
254.96	66.81
255.193	80.81
255.426	74.81
255.659	73.81
255.892	76.81
256.124	84.81
256.357	73.81
256.59	65.81
256.823	72.81
257.056	75.81
257.289	96.81
257.521	87.81
257.754	73.81
257.987	75.81
258.22	86.81
258.452	74.81
258.685	70.81
258.918	69.81
259.151	82.81
259.383	91.81
259.616	71.81
259.849	72.81
260.081	85.81
260.314	75.81
260.547	74.81
260.779	71.81
261.012	75.81
261.244	80.81
261.477	77.81
261.71	72.81
261.942	84.81
262.175	80.81
262.407	75.81
262.64	84.81
262.872	80.81
263.105	88.81
263.337	78.81
263.57	72.81
263.802	72.81
264.035	91.81
264.267	88.81
264.499	86.81
264.732	82.81
264.964	73.81
265.197	74.81
265.429	87.81
265.661	85.81
265.894	77.81
266.126	78.81
266.358	74.81
266.591	72.81
266.823	88.81
267.055	78.81
267.287	81.81
267.52	77.81
267.752	81.81
267.984	71.81
268.216	80.81
268.448	77.81
268.681	70.81
268.913	83.81
269.145	69.81
269.377	88.81
269.609	85.81
269.841	79.81
270.073	85.81
270.306	70.81
270.538	78.81
270.77	87.81
271.002	70.81
271.234	70.81
271.466	85.81
271.698	79.81
271.93	80.81
272.162	78.81
272.394	94.81
272.626	81.81
272.858	76.81
273.09	81.81
273.322	87.81
273.553	96.81
273.785	87.81
274.017	79.81
274.249	74.81
274.481	77.81
274.713	68.81
274.945	68.81
275.176	83.81
275.408	71.81
275.64	81.81
275.872	71.81
276.104	86.81
276.335	75.81
276.567	86.81
276.799	76.81
277.031	66.81
277.262	75.81
277.494	91.81
277.726	87.81
277.957	93.81
278.189	85.81
278.421	63.81
278.652	71.81
278.884	72.81
279.115	89.81
279.347	81.81
279.579	76.81
279.81	76.81
280.042	82.81
280.273	78.81
280.505	86.81
280.736	78.81
280.968	74.81
281.199	86.81
281.431	75.81
281.662	78.81
281.894	90.81
282.125	70.81
282.356	82.81
282.588	81.81
282.819	69.81
283.051	85.81
283.282	67.81
283.513	93.81
283.745	81.81
283.976	80.81
284.207	73.81
284.439	90.81
284.67	100.81
284.901	74.81
285.132	80.81
285.364	95.81
285.595	73.81
285.826	67.81
286.057	74.81
286.288	78.81
286.52	78.81
286.751	72.81
286.982	63.81
287.213	75.81
287.444	95.81
287.675	80.81
287.906	87.81
288.138	82.81
288.369	91.81
288.6	82.81
288.831	67.81
289.062	80.81
289.293	91.81
289.524	76.81
289.755	90.81
289.986	78.81
290.217	87.81
290.448	74.81
290.679	95.81
290.91	92.81
291.141	71.81
291.371	83.81
291.602	76.81
291.833	95.81
292.064	85.81
292.295	70.81
292.526	76.81
292.757	73.81
292.987	77.81
293.218	76.81
293.449	92.81
293.68	84.81
293.91	100.81
294.141	80.81
294.372	83.81
294.603	83.81
294.833	84.81
295.064	87.81
295.295	81.81
295.525	78.81
295.756	88.81
295.987	82.81
296.217	62.81
296.448	84.81
296.679	84.81
296.909	78.81
297.14	94.81
297.37	85.81
297.601	76.81
297.831	76.81
298.062	80.81
298.292	81.81
298.523	87.81
298.753	84.81
298.984	93.81
299.214	87.81
299.445	89.81
299.675	71.81
299.905	88.81
300.136	72.81
300.366	71.81
300.597	76.81
300.827	77.81
301.057	70.81
301.288	88.81
301.518	86.81
301.748	90.81
301.979	86.81
302.209	88.81
302.439	78.81
302.669	94.81
302.9	80.81
303.13	83.81
303.36	85.81
303.59	86.81
303.82	80.81
304.051	94.81
304.281	77.81
304.511	88.81
304.741	79.81
304.971	69.81
305.201	83.81
305.431	71.81
305.661	72.81
305.891	70.81
306.121	88.81
306.352	83.81
306.582	83.81
306.812	78.81
307.042	76.81
307.272	79.81
307.502	74.81
307.731	78.81
307.961	84.81
308.191	74.81
308.421	94.81
308.651	73.81
308.881	74.81
309.111	86.81
309.341	82.81
309.571	90.81
309.8	73.81
310.03	79.81
310.26	81.81
310.49	80.81
310.72	95.81
310.949	90.81
311.179	83.81
311.409	85.81
311.639	76.81
311.868	81.81
312.098	81.81
312.328	83.81
312.557	69.81
312.787	78.81
313.017	90.81
313.246	66.81
313.476	70.81
313.706	88.81
313.935	84.81
314.165	85.81
314.394	72.81
314.624	83.81
314.853	83.81
315.083	87.81
315.312	78.81
315.542	80.81
315.771	74.81
316.001	66.81
316.23	85.81
316.46	80.81
316.689	83.81
316.919	81.81
317.148	77.81
317.377	70.81
317.607	89.81
317.836	85.81
318.065	82.81
318.295	79.81
318.524	86.81
318.753	84.81
318.983	81.81
319.212	86.81
319.441	63.81
319.67	79.81
319.9	79.81
320.129	96.81
320.358	69.81
320.587	80.81
320.816	84.81
321.046	88.81
321.275	94.81
321.504	89.81
321.733	80.81
321.962	79.81
322.191	74.81
322.42	86.81
322.649	80.81
322.878	94.81
323.108	76.81
323.337	85.81
323.566	85.81
323.795	77.81
324.024	85.81
324.253	84.81
324.482	74.81
324.71	87.81
324.939	80.81
325.168	91.81
325.397	91.81
325.626	90.81
325.855	79.81
326.084	79.81
326.313	93.81
326.542	88.81
326.77	90.81
326.999	78.81
327.228	97.81
327.457	93.81
327.686	87.81
327.914	88.81
328.143	82.81
328.372	82.81
328.6	93.81
328.829	84.81
329.058	80.81
329.287	78.81
329.515	88.81
329.744	80.81
329.972	93.81
330.201	78.81
330.43	84.81
330.658	88.81
330.887	80.81
331.115	76.81
331.344	77.81
331.572	77.81
331.801	78.81
332.03	82.81
332.258	63.81
332.486	98.81
332.715	84.81
332.943	92.81
333.172	78.81
333.4	88.81
333.629	75.81
333.857	90.81
334.085	89.81
334.314	86.81
334.542	78.81
334.771	75.81
334.999	84.81
335.227	88.81
335.455	66.81
335.684	73.81
335.912	72.81
336.14	82.81
336.369	81.81
336.597	69.81
336.825	76.81
337.053	78.81
337.281	74.81
337.51	78.81
337.738	73.81
337.966	73.81
338.194	74.81
338.422	66.81
338.65	73.81
338.878	93.81
339.106	72.81
339.334	82.81
339.562	97.81
339.79	91.81
340.018	92.81
340.246	93.81
340.474	95.81
340.702	89.81
340.93	88.81
341.158	86.81
341.386	85.81
341.614	84.81
341.842	83.81
342.07	86.81
342.298	90.81
342.526	76.81
342.754	83.81
342.981	89.81
343.209	88.81
343.437	104.81
343.665	95.81
343.893	85.81
344.12	92.81
344.348	78.81
344.576	77.81
344.804	67.81
345.031	76.81
345.259	83.81
345.487	92.81
345.714	86.81
345.942	84.81
346.17	85.81
346.397	89.81
346.625	80.81
346.853	80.81
347.08	58.81
347.308	82.81
347.535	81.81
347.763	86.81
347.99	98.81
348.218	81.81
348.445	82.81
348.673	76.81
348.9	69.81
349.128	87.81
349.355	91.81
349.583	89.81
349.81	76.81
350.037	73.81
350.265	79.81
350.492	88.81
350.72	78.81
350.947	76.81
351.174	101.81
351.402	83.81
351.629	86.81
351.856	75.81
352.083	84.81
352.311	81.81
352.538	74.81
352.765	106.81
352.992	88.81
353.22	92.81
353.447	72.81
353.674	87.81
353.901	88.81
354.128	73.81
354.355	77.81
354.583	73.81
354.81	97.81
355.037	91.81
355.264	77.81
355.491	76.81
355.718	77.81
355.945	79.81
356.172	67.81
356.399	69.81
356.626	74.81
356.853	74.81
357.08	98.81
357.307	75.81
357.534	86.81
357.761	76.81
357.988	77.81
358.215	86.81
358.441	84.81
358.668	84.81
358.895	73.81
359.122	88.81
359.349	69.81
359.576	88.81
359.802	73.81
360.029	95.81
360.256	70.81
360.483	79.81
360.709	66.81
360.936	79.81
361.163	84.81
361.39	83.81
361.616	95.81
361.843	95.81
362.07	84.81
362.296	72.81
362.523	82.81
362.749	80.81
362.976	63.81
363.203	87.81
363.429	84.81
363.656	81.81
363.882	72.81
364.109	85.81
364.335	86.81
364.562	85.81
364.788	82.81
365.015	95.81
365.241	66.81
365.468	78.81
365.694	88.81
365.92	81.81
366.147	74.81
366.373	79.81
366.599	74.81
366.826	90.81
367.052	84.81
367.278	73.81
367.505	76.81
367.731	101.81
367.957	76.81
368.184	75.81
368.41	75.81
368.636	100.81
368.862	85.81
369.089	65.81
369.315	83.81
369.541	72.81
369.767	81.81
369.993	86.81
370.219	82.81
370.445	68.81
370.672	66.81
370.898	63.81
371.124	79.81
371.35	76.81
371.576	70.81
371.802	64.81
372.028	80.81
372.254	83.81
372.48	88.81
372.706	65.81
372.932	80.81
373.158	79.81
373.384	92.81
373.61	67.81
373.835	76.81
374.061	90.81
374.287	88.81
374.513	78.81
374.739	71.81
374.965	89.81
375.191	74.81
375.416	76.81
375.642	80.81
375.868	92.81
376.094	81.81
376.319	79.81
376.545	73.81
376.771	76.81
376.997	86.81
377.222	96.81
377.448	81.81
377.674	81.81
377.899	87.81
378.125	81.81
378.35	84.81
378.576	69.81
378.802	84.81
379.027	86.81
379.253	89.81
379.478	81.81
379.704	79.81
379.929	89.81
380.155	79.81
380.38	81.81
380.606	62.81
380.831	65.81
381.057	82.81
381.282	92.81
381.507	77.81
381.733	84.81
381.958	73.81
382.184	87.81
382.409	71.81
382.634	88.81
382.86	74.81
383.085	77.81
383.31	76.81
383.535	75.81
383.761	86.81
383.986	75.81
384.211	90.81
384.436	72.81
384.662	79.81
384.887	77.81
385.112	74.81
385.337	78.81
385.562	81.81
385.787	61.81
386.013	83.81
386.238	78.81
386.463	76.81
386.688	111.81
386.913	88.81
387.138	75.81
387.363	78.81
387.588	92.81
387.813	85.81
388.038	88.81
388.263	85.81
388.488	64.81
388.713	72.81
388.938	76.81
389.163	87.81
389.387	80.81
389.612	71.81
389.837	71.81
390.062	79.81
390.287	84.81
390.512	66.81
390.736	82.81
390.961	85.81
391.186	71.81
391.411	74.81
391.636	72.81
391.86	67.81
392.085	77.81
392.31	88.81
392.534	77.81
392.759	83.81
392.984	89.81
393.208	79.81
393.433	79.81
393.658	82.81
393.882	85.81
394.107	82.81
394.331	71.81
394.556	93.81
394.78	85.81
395.005	77.81
395.229	81.81
395.454	65.81
395.678	70.81
395.903	80.81
396.127	74.81
396.352	77.81
396.576	91.81
396.801	72.81
397.025	80.81
397.249	74.81
397.474	84.81
397.698	93.81
397.922	67.81
398.147	83.81
398.371	68.81
398.595	92.81
398.82	74.81
399.044	62.81
399.268	80.81
399.492	81.81
399.717	86.81
399.941	85.81
400.165	74.81
400.389	79.81
400.613	88.81
400.837	88.81
401.062	82.81
401.286	74.81
401.51	83.81
401.734	69.81
401.958	89.81
402.182	82.81
402.406	67.81
402.63	91.81
402.854	76.81
403.078	92.81
403.302	77.81
403.526	81.81
403.75	82.81
403.974	75.81
404.198	70.81
404.422	89.81
404.645	93.81
404.869	75.81
405.093	90.81
405.317	94.81
405.541	65.81
405.765	82.81
405.988	72.81
406.212	85.81
406.436	68.81
406.66	64.81
406.883	84.81
407.107	71.81
407.331	80.81
407.555	77.81
407.778	69.81
408.002	77.81
408.226	77.81
408.449	78.81
408.673	71.81
408.896	78.81
409.12	75.81
409.344	77.81
409.567	72.81
409.791	82.81
410.014	73.81
410.238	89.81
410.461	83.81
410.685	76.81
410.908	74.81
411.132	76.81
411.355	62.81
411.578	100.81
411.802	90.81
412.025	77.81
412.249	72.81
412.472	80.81
412.695	72.81
412.919	82.81
413.142	71.81
413.365	78.81
413.589	76.81
413.812	79.81
414.035	80.81
414.258	88.81
414.482	80.81
414.705	81.81
414.928	91.81
415.151	84.81
415.374	75.81
415.597	80.81
415.821	77.81
416.044	92.81
416.267	89.81
416.49	81.81
416.713	65.81
416.936	75.81
417.159	72.81
417.382	85.81
417.605	80.81
417.828	81.81
418.051	82.81
418.274	92.81
418.497	91.81
418.72	77.81
418.943	87.81
419.166	87.81
419.389	81.81
419.611	97.81
419.834	94.81
420.057	94.81
420.28	78.81
420.503	86.81
420.726	89.81
420.948	65.81
421.171	70.81
421.394	62.81
421.617	74.81
421.839	91.81
422.062	86.81
422.285	80.81
422.507	76.81
422.73	65.81
422.953	75.81
423.175	80.81
423.398	72.81
423.621	81.81
423.843	80.81
424.066	75.81
424.288	86.81
424.511	72.81
424.733	74.81
424.956	71.81
425.178	74.81
425.401	77.81
425.623	81.81
425.846	72.81
426.068	76.81
426.291	73.81
426.513	91.81
426.735	91.81
426.958	75.81
427.18	72.81
427.402	60.81
427.625	76.81
427.847	58.81
428.069	64.81
428.292	74.81
428.514	74.81
428.736	68.81
428.958	81.81
429.181	70.81
429.403	84.81
429.625	73.81
429.847	77.81
430.069	81.81
430.292	87.81
430.514	70.81
430.736	75.81
430.958	80.81
431.18	86.81
431.402	88.81
431.624	76.81
431.846	70.81
432.068	89.81
432.29	82.81
432.512	89.81
432.734	72.81
432.956	76.81
433.178	82.81
433.4	79.81
433.622	87.81
433.844	85.81
434.066	63.81
434.287	76.81
434.509	70.81
434.731	81.81
434.953	80.81
435.175	98.81
435.397	79.81
435.618	94.81
435.84	78.81
436.062	67.81
436.284	71.81
436.505	82.81
436.727	72.81
436.949	77.81
437.17	74.81
437.392	84.81
437.614	85.81
437.835	58.81
438.057	80.81
438.278	70.81
438.5	78.81
438.721	99.81
438.943	74.81
439.165	73.81
439.386	66.81
439.608	80.81
439.829	76.81
440.05	71.81
440.272	86.81
440.493	80.81
440.715	74.81
440.936	81.81
441.158	74.81
441.379	80.81
441.6	81.81
441.822	87.81
442.043	76.81
442.264	72.81
442.486	81.81
442.707	61.81
442.928	72.81
443.149	80.81
443.371	79.81
443.592	69.81
443.813	79.81
444.034	66.81
444.255	97.81
444.476	74.81
444.698	75.81
444.919	66.81
445.14	140.81
445.361	108.81
445.582	82.81
445.803	71.81
446.024	76.81
446.245	82.81
446.466	86.81
446.687	64.81
446.908	93.81
447.129	79.81
447.35	81.81
447.571	73.81
447.792	85.81
448.013	64.81
448.234	84.81
448.455	77.81
448.675	77.81
448.896	70.81
449.117	80.81
449.338	84.81
449.559	81.81
449.779	89.81
450	66.81
450.221	66.81
450.442	77.81
450.662	79.81
450.883	80.81
451.104	66.81
451.324	78.81
451.545	69.81
451.766	89.81
451.986	71.81
452.207	86.81
452.428	79.81
452.648	70.81
452.869	77.81
453.089	87.81
453.31	65.81
453.53	65.81
453.751	75.81
453.971	72.81
454.192	64.81
454.412	63.81
454.633	79.81
454.853	76.81
455.073	79.81
455.294	75.81
455.514	77.81
455.734	71.81
455.955	84.81
456.175	59.81
456.395	80.81
456.616	75.81
456.836	86.81
457.056	77.81
457.276	71.81
457.497	89.81
457.717	83.81
457.937	77.81
458.157	84.81
458.377	78.81
458.598	74.81
458.818	91.81
459.038	70.81
459.258	79.81
459.478	80.81
459.698	66.81
459.918	87.81
460.138	69.81
460.358	91.81
460.578	72.81
460.798	77.81
461.018	72.81
461.238	80.81
461.458	86.81
461.678	80.81
461.898	65.81
462.118	81.81
462.338	64.81
462.558	77.81
462.777	75.81
462.997	85.81
463.217	63.81
463.437	61.81
463.657	81.81
463.876	72.81
464.096	85.81
464.316	89.81
464.536	82.81
464.755	71.81
464.975	80.81
465.195	74.81
465.414	80.81
465.634	72.81
465.854	85.81
466.073	85.81
466.293	73.81
466.512	72.81
466.732	91.81
466.951	67.81
467.171	74.81
467.391	82.81
467.61	75.81
467.829	85.81
468.049	79.81
468.268	78.81
468.488	82.81
468.707	85.81
468.927	84.81
469.146	67.81
469.365	77.81
469.585	80.81
469.804	78.81
470.023	72.81
470.243	61.81
470.462	76.81
470.681	81.81
470.901	73.81
471.12	72.81
471.339	96.81
471.558	77.81
471.777	81.81
471.997	74.81
472.216	77.81
472.435	81.81
472.654	78.81
472.873	77.81
473.092	90.81
473.311	85.81
473.53	69.81
473.749	86.81
473.968	78.81
474.187	80.81
474.406	73.81
474.625	75.81
474.844	88.81
475.063	81.81
475.282	68.81
475.501	81.81
475.72	90.81
475.939	80.81
476.158	73.81
476.377	74.81
476.596	78.81
476.814	80.81
477.033	81.81
477.252	82.81
477.471	89.81
477.69	73.81
477.908	79.81
478.127	80.81
478.346	87.81
478.564	91.81
478.783	74.81
479.002	72.81
479.22	82.81
479.439	73.81
479.658	86.81
479.876	66.81
480.095	87.81
480.313	77.81
480.532	82.81
480.751	74.81
480.969	83.81
481.188	89.81
481.406	87.81
481.624	73.81
481.843	82.81
482.061	80.81
482.28	70.81
482.498	75.81
482.717	78.81
482.935	76.81
483.153	75.81
483.372	85.81
483.59	80.81
483.808	72.81
484.027	81.81
484.245	75.81
484.463	56.81
484.681	77.81
484.9	76.81
485.118	85.81
485.336	79.81
485.554	84.81
485.772	72.81
485.99	91.81
486.209	71.81
486.427	78.81
486.645	84.81
486.863	73.81
487.081	69.81
487.299	87.81
487.517	78.81
487.735	68.81
487.953	89.81
488.171	93.81
488.389	79.81
488.607	75.81
488.825	85.81
489.043	71.81
489.261	84.81
489.479	74.81
489.696	77.81
489.914	73.81
490.132	81.81
490.35	89.81
490.568	59.81
490.786	72.81
491.003	92.81
491.221	70.81
491.439	83.81
491.657	83.81
491.874	96.81
492.092	77.81
492.31	77.81
492.527	74.81
492.745	72.81
492.963	79.81
493.18	71.81
493.398	69.81
493.615	73.81
493.833	70.81
494.05	88.81
494.268	79.81
494.485	78.81
494.703	86.81
494.92	81.81
495.138	78.81
495.355	84.81
495.573	78.81
495.79	72.81
496.008	70.81
496.225	81.81
496.442	73.81
496.66	88.81
496.877	76.81
497.094	77.81
497.312	74.81
497.529	69.81
497.746	76.81
497.963	77.81
498.181	69.81
498.398	74.81
498.615	96.81
498.832	84.81
499.049	74.81
499.267	79.81
499.484	74.81
499.701	64.81
499.918	84.81
500.135	88.81
500.352	78.81
500.569	81.81
500.786	80.81
501.003	74.81
501.22	96.81
501.437	71.81
501.654	78.81
501.871	72.81
502.088	81.81
502.305	79.81
502.522	78.81
502.739	80.81
502.956	89.81
503.172	80.81
503.389	84.81
503.606	84.81
503.823	81.81
504.04	80.81
504.256	76.81
504.473	87.81
504.69	84.81
504.907	75.81
505.123	78.81
505.34	74.81
505.557	69.81
505.773	98.81
505.99	66.81
506.207	89.81
506.423	77.81
506.64	76.81
506.856	72.81
507.073	89.81
507.289	84.81
507.506	102.81
507.722	97.81
507.939	92.81
508.155	70.81
508.372	85.81
508.588	73.81
508.805	76.81
509.021	76.81
509.238	65.81
509.454	75.81
509.67	64.81
509.887	80.81
510.103	77.81
510.319	74.81
510.536	77.81
510.752	82.81
510.968	90.81
511.184	74.81
511.401	77.81
511.617	76.81
511.833	83.81
512.049	85.81
512.265	76.81
512.481	74.81
512.698	72.81
512.914	82.81
513.13	81.81
513.346	72.81
513.562	78.81
513.778	88.81
513.994	77.81
514.21	71.81
514.426	78.81
514.642	78.81
514.858	84.81
515.074	70.81
515.29	79.81
515.506	79.81
515.721	83.81
515.937	72.81
516.153	65.81
516.369	74.81
516.585	75.81
516.801	90.81
517.016	76.81
517.232	87.81
517.448	70.81
517.664	77.81
517.879	94.81
518.095	86.81
518.311	79.81
518.527	74.81
518.742	74.81
518.958	82.81
519.173	72.81
519.389	68.81
519.605	84.81
519.82	85.81
520.036	82.81
520.251	79.81
520.467	69.81
520.682	78.81
520.898	82.81
521.113	84.81
521.329	80.81
521.544	72.81
521.76	82.81
521.975	88.81
522.19	80.81
522.406	81.81
522.621	73.81
522.836	69.81
523.052	75.81
523.267	77.81
523.482	63.81
523.698	79.81
523.913	80.81
524.128	70.81
524.343	74.81
524.559	86.81
524.774	78.81
524.989	77.81
525.204	85.81
525.419	89.81
525.634	86.81
525.849	86.81
526.064	86.81
526.28	87.81
526.495	79.81
526.71	70.81
526.925	81.81
527.14	72.81
527.355	73.81
527.57	90.81
527.785	90.81
527.999	78.81
528.214	78.81
528.429	92.81
528.644	69.81
528.859	72.81
529.074	84.81
529.289	84.81
529.503	84.81
529.718	82.81
529.933	78.81
530.148	82.81
530.363	88.81
530.577	84.81
530.792	87.81
531.007	88.81
531.221	75.81
531.436	74.81
531.651	91.81
531.865	81.81
532.08	83.81
532.295	76.81
532.509	97.81
532.724	84.81
532.938	92.81
533.153	84.81
533.367	77.81
533.582	91.81
533.796	92.81
534.011	72.81
534.225	87.81
534.44	80.81
534.654	80.81
534.868	78.81
535.083	84.81
535.297	78.81
535.511	90.81
535.726	86.81
535.94	80.81
536.154	88.81
536.369	83.81
536.583	79.81
536.797	82.81
537.011	81.81
537.225	88.81
537.44	75.81
537.654	71.81
537.868	77.81
538.082	71.81
538.296	83.81
538.51	95.81
538.724	86.81
538.938	73.81
539.153	86.81
539.367	87.81
539.581	74.81
539.795	73.81
540.009	81.81
540.222	74.81
540.436	80.81
540.65	80.81
540.864	89.81
541.078	81.81
541.292	85.81
541.506	78.81
541.72	61.81
541.934	75.81
542.147	75.81
542.361	81.81
542.575	85.81
542.789	78.81
543.002	79.81
543.216	85.81
543.43	76.81
543.644	84.81
543.857	80.81
544.071	80.81
544.285	80.81
544.498	91.81
544.712	82.81
544.925	88.81
545.139	65.81
545.352	66.81
545.566	71.81
545.779	76.81
545.993	80.81
546.206	86.81
546.42	91.81
546.633	69.81
546.847	81.81
547.06	101.81
547.274	76.81
547.487	72.81
547.7	70.81
547.914	78.81
548.127	86.81
548.34	66.81
548.554	84.81
548.767	76.81
548.98	74.81
549.193	77.81
549.407	70.81
549.62	75.81
549.833	70.81
550.046	74.81
550.259	68.81
550.473	61.81
550.686	71.81
550.899	66.81
551.112	78.81
551.325	84.81
551.538	76.81
551.751	73.81
551.964	70.81
552.177	78.81
552.39	80.81
552.603	74.81
552.816	92.81
553.029	88.81
553.242	88.81
553.455	75.81
553.667	100.81
553.88	78.81
554.093	75.81
554.306	90.81
554.519	77.81
554.732	85.81
554.944	78.81
555.157	79.81
555.37	62.81
555.583	86.81
555.795	69.81
556.008	86.81
556.221	84.81
556.433	78.81
556.646	89.81
556.859	70.81
557.071	78.81
557.284	69.81
557.496	82.81
557.709	65.81
557.921	97.81
558.134	87.81
558.346	75.81
558.559	82.81
558.771	72.81
558.984	86.81
559.196	82.81
559.409	79.81
559.621	76.81
559.833	79.81
560.046	89.81
560.258	85.81
560.47	77.81
560.683	83.81
560.895	80.81
561.107	88.81
561.32	81.81
561.532	71.81
561.744	86.81
561.956	90.81
562.168	80.81
562.381	73.81
562.593	86.81
562.805	90.81
563.017	77.81
563.229	96.81
563.441	78.81
563.653	83.81
563.865	91.81
564.077	75.81
564.289	77.81
564.501	83.81
564.713	84.81
564.925	74.81
565.137	79.81
565.349	87.81
565.561	80.81
565.773	84.81
565.985	80.81
566.197	72.81
566.408	87.81
566.62	85.81
566.832	89.81
567.044	86.81
567.255	78.81
567.467	82.81
567.679	92.81
567.891	79.81
568.102	76.81
568.314	85.81
568.526	74.81
568.737	86.81
568.949	89.81
569.161	95.81
569.372	86.81
569.584	76.81
569.795	89.81
570.007	67.81
570.218	86.81
570.43	68.81
570.641	72.81
570.853	79.81
571.064	77.81
571.276	81.81
571.487	82.81
571.698	79.81
571.91	73.81
572.121	76.81
572.333	85.81
572.544	66.81
572.755	80.81
572.966	70.81
573.178	84.81
573.389	93.81
573.6	80.81
573.811	92.81
574.023	91.81
574.234	96.81
574.445	89.81
574.656	87.81
574.867	70.81
575.078	86.81
575.289	92.81
575.501	97.81
575.712	81.81
575.923	69.81
576.134	70.81
576.345	88.81
576.556	86.81
576.767	84.81
576.978	87.81
577.188	77.81
577.399	86.81
577.61	76.81
577.821	85.81
578.032	76.81
578.243	57.81
578.454	68.81
578.665	90.81
578.875	67.81
579.086	94.81
579.297	74.81
579.508	76.81
579.718	78.81
579.929	61.81
580.14	76.81
580.35	86.81
580.561	86.81
580.772	96.81
580.982	92.81
581.193	85.81
581.403	72.81
581.614	95.81
581.825	84.81
582.035	70.81
582.246	67.81
582.456	85.81
582.667	69.81
582.877	77.81
583.087	79.81
583.298	71.81
583.508	94.81
583.719	77.81
583.929	94.81
584.139	81.81
584.35	76.81
584.56	86.81
584.77	76.81
584.981	74.81
585.191	89.81
585.401	82.81
585.611	75.81
585.821	85.81
586.032	80.81
586.242	87.81
586.452	88.81
586.662	99.81
586.872	90.81
587.082	76.81
587.292	75.81
587.502	82.81
587.713	64.81
587.923	97.81
588.133	78.81
588.343	78.81
588.553	91.81
588.762	73.81
588.972	86.81
589.182	78.81
589.392	94.81
589.602	73.81
589.812	77.81
590.022	78.81
590.232	80.81
590.441	83.81
590.651	72.81
590.861	72.81
591.071	77.81
591.281	91.81
591.49	84.81
591.7	87.81
591.91	77.81
592.119	87.81
592.329	81.81
592.539	87.81
592.748	89.81
592.958	71.81
593.167	70.81
593.377	79.81
593.587	69.81
593.796	82.81
594.006	69.81
594.215	64.81
594.424	72.81
594.634	72.81
594.843	74.81
595.053	74.81
595.262	89.81
595.472	78.81
595.681	78.81
595.89	73.81
596.1	93.81
596.309	75.81
596.518	69.81
596.727	85.81
596.937	79.81
597.146	84.81
597.355	88.81
597.564	83.81
597.774	76.81
597.983	78.81
598.192	83.81
598.401	80.81
598.61	85.81
598.819	85.81
599.028	77.81
599.237	71.81
599.446	79.81
599.655	84.81
599.864	78.81
600.073	75.81
600.282	81.81
600.491	79.81
600.7	92.81
600.909	84.81
601.118	81.81
601.327	75.81
601.536	74.81
601.745	84.81
601.953	73.81
602.162	76.81
602.371	69.81
602.58	78.81
602.789	82.81
602.997	85.81
603.206	88.81
603.415	74.81
603.623	81.81
603.832	74.81
604.041	70.81
604.249	75.81
604.458	86.81
604.666	81.81
604.875	80.81
605.084	90.81
605.292	72.81
605.501	82.81
605.709	86.81
605.918	96.81
606.126	75.81
606.334	94.81
606.543	90.81
606.751	77.81
606.96	77.81
607.168	82.81
607.376	90.81
607.585	89.81
607.793	90.81
608.001	85.81
608.21	76.81
608.418	84.81
608.626	87.81
608.834	95.81
609.043	76.81
609.251	91.81
609.459	78.81
609.667	86.81
609.875	84.81
610.083	92.81
610.291	82.81
610.499	72.81
610.707	78.81
610.916	76.81
611.124	81.81
611.332	77.81
611.54	73.81
611.748	74.81
611.955	77.81
612.163	85.81
612.371	81.81
612.579	96.81
612.787	70.81
612.995	85.81
613.203	85.81
613.411	81.81
613.618	80.81
613.826	72.81
614.034	85.81
614.242	82.81
614.449	79.81
614.657	78.81
614.865	78.81
615.072	94.81
615.28	78.81
615.488	78.81
615.695	93.81
615.903	79.81
616.111	91.81
616.318	80.81
616.526	91.81
616.733	81.81
616.941	81.81
617.148	90.81
617.356	66.81
617.563	89.81
617.771	58.81
617.978	83.81
618.185	84.81
618.393	66.81
618.6	84.81
618.807	77.81
619.015	69.81
619.222	81.81
619.429	73.81
619.637	92.81
619.844	78.81
620.051	86.81
620.258	86.81
620.466	88.81
620.673	65.81
620.88	78.81
621.087	87.81
621.294	90.81
621.501	77.81
621.708	84.81
621.915	90.81
622.122	78.81
622.329	81.81
622.536	97.81
622.743	66.81
622.95	78.81
623.157	81.81
623.364	83.81
623.571	78.81
623.778	88.81
623.985	71.81
624.192	84.81
624.399	84.81
624.606	81.81
624.812	76.81
625.019	83.81
625.226	85.81
625.433	78.81
625.639	79.81
625.846	94.81
626.053	61.81
626.259	74.81
626.466	71.81
626.673	76.81
626.879	85.81
627.086	86.81
627.293	94.81
627.499	86.81
627.706	81.81
627.912	82.81
628.119	97.81
628.325	84.81
628.532	80.81
628.738	76.81
628.945	85.81
629.151	88.81
629.357	87.81
629.564	72.81
629.77	74.81
629.976	79.81
630.183	78.81
630.389	78.81
630.595	83.81
630.802	71.81
631.008	79.81
631.214	73.81
631.42	89.81
631.627	82.81
631.833	87.81
632.039	74.81
632.245	69.81
632.451	90.81
632.657	85.81
632.863	83.81
633.069	83.81
633.275	95.81
633.481	62.81
633.688	100.81
633.893	92.81
634.099	73.81
634.305	89.81
634.511	64.81
634.717	85.81
634.923	70.81
635.129	85.81
635.335	81.81
635.541	76.81
635.747	89.81
635.952	80.81
636.158	74.81
636.364	77.81
636.57	78.81
636.775	97.81
636.981	83.81
637.187	77.81
637.392	70.81
637.598	88.81
637.804	92.81
638.009	86.81
638.215	90.81
638.421	73.81
638.626	84.81
638.832	85.81
639.037	77.81
639.243	87.81
639.448	85.81
639.654	81.81
639.859	92.81
640.065	69.81
640.27	78.81
640.475	80.81
640.681	81.81
640.886	67.81
641.091	90.81
641.297	87.81
641.502	74.81
641.707	79.81
641.913	94.81
642.118	78.81
642.323	80.81
642.528	81.81
642.733	65.81
642.939	81.81
643.144	89.81
643.349	75.81
643.554	74.81
643.759	80.81
643.964	75.81
644.169	102.81
644.374	74.81
644.579	75.81
644.784	84.81
644.989	85.81
645.194	80.81
645.399	81.81
645.604	77.81
645.809	84.81
646.014	97.81
646.219	82.81
646.423	84.81
646.628	84.81
646.833	86.81
647.038	75.81
647.243	75.81
647.447	90.81
647.652	89.81
647.857	91.81
648.062	78.81
648.266	73.81
648.471	72.81
648.676	77.81
648.88	71.81
649.085	79.81
649.289	80.81
649.494	80.81
649.698	74.81
649.903	76.81
650.107	80.81
650.312	87.81
650.516	90.81
650.721	77.81
650.925	74.81
651.13	74.81
651.334	73.81
651.539	86.81
651.743	76.81
651.947	84.81
652.152	98.81
652.356	96.81
652.56	82.81
652.764	78.81
652.969	89.81
653.173	78.81
653.377	86.81
653.581	78.81
653.785	76.81
653.99	77.81
654.194	65.81
654.398	90.81
654.602	86.81
654.806	78.81
655.01	82.81
655.214	71.81
655.418	88.81
655.622	71.81
655.826	74.81
656.03	94.81
656.234	78.81
656.438	81.81
656.642	67.81
656.846	78.81
657.049	91.81
657.253	90.81
657.457	73.81
657.661	87.81
657.865	80.81
658.068	70.81
658.272	80.81
658.476	93.81
658.68	80.81
658.883	92.81
659.087	83.81
659.291	77.81
659.494	71.81
659.698	95.81
659.901	74.81
660.105	84.81
660.309	80.81
660.512	80.81
660.716	76.81
660.919	72.81
661.123	61.81
661.326	78.81
661.53	77.81
661.733	71.81
661.936	74.81
662.14	68.81
662.343	78.81
662.546	86.81
662.75	62.81
662.953	74.81
663.156	84.81
663.36	73.81
663.563	74.81
663.766	62.81
663.969	89.81
664.173	88.81
664.376	83.81
664.579	70.81
664.782	72.81
664.985	83.81
665.188	76.81
665.391	76.81
665.594	91.81
665.797	88.81
666	98.81
666.203	82.81
666.406	87.81
666.609	75.81
666.812	78.81
667.015	82.81
667.218	82.81
667.421	76.81
667.624	91.81
667.827	79.81
668.03	89.81
668.232	81.81
668.435	76.81
668.638	88.81
668.841	93.81
669.043	92.81
669.246	76.81
669.449	85.81
669.651	87.81
669.854	84.81
670.057	84.81
670.259	80.81
670.462	66.81
670.665	83.81
670.867	88.81
671.07	74.81
671.272	85.81
671.475	82.81
671.677	66.81
671.88	82.81
672.082	77.81
672.284	79.81
672.487	80.81
672.689	77.81
672.892	80.81
