Data from BG_HRD10591_027.txt Node
Date: Fri May 16 15:33:20 EDT 2025
User: Yrep
Spectrometer: HR+D1059
Trigger mode: 1
Integration Time (sec): 1.000000E-1
Scans to average: 1
Electric dark correction enabled: true
Nonlinearity correction enabled: false
Boxcar width: 0
XAxis mode: Wavelengths
Number of Pixels in Spectrum: 2048
>>>>>Begin Spectral Data<<<<<
223.165	-6.62
223.4	-6.62
223.635	-6.62
223.869	-10.62
224.104	-16.62
224.338	-15.62
224.573	-17.62
224.808	-21.62
225.042	1.38
225.277	-4.62
225.511	-10.62
225.746	5.38
225.98	14.38
226.215	9.38
226.449	18.38
226.683	10.38
226.918	25.38
227.152	19.38
227.387	53.38
227.621	43.38
227.856	50.38
228.09	63.38
228.324	48.38
228.559	51.38
228.793	56.38
229.027	65.38
229.262	70.38
229.496	75.38
229.73	68.38
229.964	75.38
230.199	84.38
230.433	89.38
230.667	88.38
230.901	81.38
231.136	73.38
231.37	96.38
231.604	77.38
231.838	84.38
232.072	82.38
232.306	75.38
232.541	79.38
232.775	89.38
233.009	87.38
233.243	85.38
233.477	89.38
233.711	83.38
233.945	91.38
234.179	86.38
234.413	77.38
234.647	71.38
234.881	65.38
235.115	77.38
235.349	93.38
235.583	93.38
235.817	96.38
236.051	90.38
236.285	92.38
236.519	78.38
236.753	66.38
236.987	82.38
237.221	78.38
237.455	81.38
237.689	88.38
237.922	67.38
238.156	79.38
238.39	82.38
238.624	73.38
238.858	83.38
239.091	94.38
239.325	77.38
239.559	63.38
239.793	74.38
240.027	78.38
240.26	77.38
240.494	79.38
240.728	86.38
240.961	69.38
241.195	82.38
241.429	78.38
241.662	79.38
241.896	91.38
242.13	75.38
242.363	84.38
242.597	94.38
242.83	81.38
243.064	71.38
243.298	71.38
243.531	74.38
243.765	65.38
243.998	80.38
244.232	80.38
244.465	85.38
244.699	97.38
244.932	72.38
245.166	72.38
245.399	91.38
245.633	80.38
245.866	92.38
246.099	88.38
246.333	94.38
246.566	74.38
246.8	79.38
247.033	73.38
247.266	87.38
247.5	78.38
247.733	85.38
247.966	85.38
248.2	90.38
248.433	90.38
248.666	82.38
248.899	79.38
249.133	85.38
249.366	79.38
249.599	83.38
249.832	100.38
250.066	75.38
250.299	82.38
250.532	83.38
250.765	77.38
250.998	79.38
251.231	84.38
251.465	88.38
251.698	79.38
251.931	78.38
252.164	78.38
252.397	77.38
252.63	84.38
252.863	71.38
253.096	82.38
253.329	87.38
253.562	75.38
253.795	83.38
254.028	92.38
254.261	89.38
254.494	81.38
254.727	89.38
254.96	70.38
255.193	77.38
255.426	87.38
255.659	71.38
255.892	93.38
256.124	85.38
256.357	90.38
256.59	93.38
256.823	81.38
257.056	82.38
257.289	84.38
257.521	69.38
257.754	69.38
257.987	68.38
258.22	70.38
258.452	76.38
258.685	77.38
258.918	73.38
259.151	82.38
259.383	73.38
259.616	89.38
259.849	93.38
260.081	84.38
260.314	77.38
260.547	87.38
260.779	81.38
261.012	98.38
261.244	81.38
261.477	89.38
261.71	78.38
261.942	85.38
262.175	90.38
262.407	85.38
262.64	95.38
262.872	92.38
263.105	80.38
263.337	79.38
263.57	93.38
263.802	84.38
264.035	94.38
264.267	85.38
264.499	96.38
264.732	97.38
264.964	82.38
265.197	83.38
265.429	72.38
265.661	87.38
265.894	75.38
266.126	82.38
266.358	91.38
266.591	87.38
266.823	86.38
267.055	86.38
267.287	91.38
267.52	93.38
267.752	83.38
267.984	85.38
268.216	100.38
268.448	77.38
268.681	98.38
268.913	100.38
269.145	91.38
269.377	87.38
269.609	84.38
269.841	91.38
270.073	97.38
270.306	81.38
270.538	93.38
270.77	97.38
271.002	87.38
271.234	89.38
271.466	81.38
271.698	79.38
271.93	81.38
272.162	76.38
272.394	88.38
272.626	89.38
272.858	84.38
273.09	82.38
273.322	82.38
273.553	90.38
273.785	90.38
274.017	77.38
274.249	84.38
274.481	83.38
274.713	90.38
274.945	95.38
275.176	86.38
275.408	93.38
275.64	84.38
275.872	75.38
276.104	89.38
276.335	86.38
276.567	82.38
276.799	77.38
277.031	85.38
277.262	81.38
277.494	71.38
277.726	83.38
277.957	82.38
278.189	91.38
278.421	99.38
278.652	84.38
278.884	87.38
279.115	91.38
279.347	92.38
279.579	76.38
279.81	90.38
280.042	72.38
280.273	92.38
280.505	81.38
280.736	85.38
280.968	82.38
281.199	76.38
281.431	93.38
281.662	83.38
281.894	95.38
282.125	75.38
282.356	87.38
282.588	95.38
282.819	84.38
283.051	90.38
283.282	88.38
283.513	98.38
283.745	96.38
283.976	81.38
284.207	91.38
284.439	89.38
284.67	101.38
284.901	91.38
285.132	94.38
285.364	76.38
285.595	87.38
285.826	89.38
286.057	93.38
286.288	93.38
286.52	93.38
286.751	95.38
286.982	94.38
287.213	87.38
287.444	90.38
287.675	77.38
287.906	90.38
288.138	86.38
288.369	84.38
288.6	85.38
288.831	86.38
289.062	93.38
289.293	81.38
289.524	85.38
289.755	91.38
289.986	90.38
290.217	87.38
290.448	80.38
290.679	83.38
290.91	87.38
291.141	93.38
291.371	83.38
291.602	102.38
291.833	92.38
292.064	86.38
292.295	99.38
292.526	82.38
292.757	85.38
292.987	89.38
293.218	97.38
293.449	97.38
293.68	91.38
293.91	103.38
294.141	85.38
294.372	86.38
294.603	99.38
294.833	82.38
295.064	86.38
295.295	83.38
295.525	74.38
295.756	82.38
295.987	79.38
296.217	82.38
296.448	96.38
296.679	81.38
296.909	82.38
297.14	87.38
297.37	90.38
297.601	98.38
297.831	97.38
298.062	94.38
298.292	91.38
298.523	89.38
298.753	84.38
298.984	89.38
299.214	96.38
299.445	85.38
299.675	82.38
299.905	75.38
300.136	79.38
300.366	86.38
300.597	90.38
300.827	95.38
301.057	78.38
301.288	96.38
301.518	89.38
301.748	114.38
301.979	111.38
302.209	85.38
302.439	88.38
302.669	91.38
302.9	80.38
303.13	80.38
303.36	86.38
303.59	97.38
303.82	82.38
304.051	82.38
304.281	91.38
304.511	97.38
304.741	100.38
304.971	83.38
305.201	78.38
305.431	83.38
305.661	83.38
305.891	87.38
306.121	95.38
306.352	90.38
306.582	81.38
306.812	92.38
307.042	87.38
307.272	83.38
307.502	93.38
307.731	102.38
307.961	86.38
308.191	78.38
308.421	92.38
308.651	83.38
308.881	104.38
309.111	86.38
309.341	97.38
309.571	83.38
309.8	81.38
310.03	95.38
310.26	90.38
310.49	86.38
310.72	82.38
310.949	79.38
311.179	69.38
311.409	100.38
311.639	83.38
311.868	89.38
312.098	83.38
312.328	85.38
312.557	76.38
312.787	97.38
313.017	96.38
313.246	89.38
313.476	87.38
313.706	89.38
313.935	80.38
314.165	91.38
314.394	100.38
314.624	89.38
314.853	86.38
315.083	100.38
315.312	90.38
315.542	94.38
315.771	94.38
316.001	80.38
316.23	93.38
316.46	71.38
316.689	89.38
316.919	84.38
317.148	83.38
317.377	89.38
317.607	94.38
317.836	82.38
318.065	87.38
318.295	89.38
318.524	89.38
318.753	100.38
318.983	86.38
319.212	94.38
319.441	91.38
319.67	88.38
319.9	80.38
320.129	89.38
320.358	95.38
320.587	89.38
320.816	93.38
321.046	84.38
321.275	85.38
321.504	101.38
321.733	82.38
321.962	89.38
322.191	96.38
322.42	87.38
322.649	86.38
322.878	107.38
323.108	95.38
323.337	91.38
323.566	92.38
323.795	91.38
324.024	87.38
324.253	88.38
324.482	78.38
324.71	98.38
324.939	95.38
325.168	87.38
325.397	92.38
325.626	98.38
325.855	93.38
326.084	79.38
326.313	94.38
326.542	78.38
326.77	95.38
326.999	81.38
327.228	78.38
327.457	91.38
327.686	81.38
327.914	83.38
328.143	85.38
328.372	78.38
328.6	88.38
328.829	90.38
329.058	93.38
329.287	99.38
329.515	78.38
329.744	89.38
329.972	91.38
330.201	105.38
330.43	81.38
330.658	93.38
330.887	82.38
331.115	86.38
331.344	94.38
331.572	76.38
331.801	79.38
332.03	75.38
332.258	89.38
332.486	84.38
332.715	95.38
332.943	93.38
333.172	94.38
333.4	87.38
333.629	82.38
333.857	84.38
334.085	70.38
334.314	99.38
334.542	81.38
334.771	106.38
334.999	71.38
335.227	84.38
335.455	83.38
335.684	96.38
335.912	78.38
336.14	90.38
336.369	82.38
336.597	78.38
336.825	98.38
337.053	102.38
337.281	99.38
337.51	102.38
337.738	85.38
337.966	81.38
338.194	78.38
338.422	81.38
338.65	87.38
338.878	93.38
339.106	95.38
339.334	82.38
339.562	83.38
339.79	81.38
340.018	90.38
340.246	94.38
340.474	91.38
340.702	96.38
340.93	87.38
341.158	75.38
341.386	81.38
341.614	85.38
341.842	90.38
342.07	81.38
342.298	80.38
342.526	79.38
342.754	93.38
342.981	95.38
343.209	89.38
343.437	114.38
343.665	83.38
343.893	86.38
344.12	97.38
344.348	93.38
344.576	103.38
344.804	94.38
345.031	90.38
345.259	94.38
345.487	85.38
345.714	90.38
345.942	97.38
346.17	83.38
346.397	73.38
346.625	86.38
346.853	81.38
347.08	80.38
347.308	86.38
347.535	92.38
347.763	75.38
347.99	90.38
348.218	91.38
348.445	88.38
348.673	86.38
348.9	100.38
349.128	77.38
349.355	84.38
349.583	81.38
349.81	91.38
350.037	93.38
350.265	82.38
350.492	84.38
350.72	97.38
350.947	89.38
351.174	81.38
351.402	80.38
351.629	93.38
351.856	83.38
352.083	83.38
352.311	91.38
352.538	88.38
352.765	87.38
352.992	96.38
353.22	86.38
353.447	105.38
353.674	93.38
353.901	81.38
354.128	92.38
354.355	89.38
354.583	98.38
354.81	94.38
355.037	101.38
355.264	79.38
355.491	91.38
355.718	90.38
355.945	88.38
356.172	85.38
356.399	76.38
356.626	85.38
356.853	84.38
357.08	85.38
357.307	78.38
357.534	85.38
357.761	88.38
357.988	97.38
358.215	84.38
358.441	103.38
358.668	91.38
358.895	91.38
359.122	82.38
359.349	90.38
359.576	89.38
359.802	80.38
360.029	92.38
360.256	105.38
360.483	92.38
360.709	103.38
360.936	101.38
361.163	84.38
361.39	92.38
361.616	100.38
361.843	89.38
362.07	84.38
362.296	79.38
362.523	83.38
362.749	77.38
362.976	86.38
363.203	94.38
363.429	97.38
363.656	81.38
363.882	97.38
364.109	90.38
364.335	80.38
364.562	96.38
364.788	92.38
365.015	102.38
365.241	100.38
365.468	90.38
365.694	85.38
365.92	76.38
366.147	82.38
366.373	81.38
366.599	71.38
366.826	94.38
367.052	81.38
367.278	82.38
367.505	103.38
367.731	87.38
367.957	103.38
368.184	75.38
368.41	87.38
368.636	78.38
368.862	76.38
369.089	96.38
369.315	101.38
369.541	83.38
369.767	85.38
369.993	89.38
370.219	95.38
370.445	77.38
370.672	93.38
370.898	91.38
371.124	84.38
371.35	100.38
371.576	90.38
371.802	90.38
372.028	98.38
372.254	83.38
372.48	91.38
372.706	77.38
372.932	96.38
373.158	92.38
373.384	103.38
373.61	83.38
373.835	85.38
374.061	79.38
374.287	89.38
374.513	82.38
374.739	89.38
374.965	100.38
375.191	82.38
375.416	97.38
375.642	94.38
375.868	71.38
376.094	87.38
376.319	78.38
376.545	86.38
376.771	78.38
376.997	85.38
377.222	95.38
377.448	89.38
377.674	74.38
377.899	77.38
378.125	100.38
378.35	75.38
378.576	84.38
378.802	98.38
379.027	96.38
379.253	75.38
379.478	83.38
379.704	90.38
379.929	91.38
380.155	89.38
380.38	71.38
380.606	80.38
380.831	81.38
381.057	85.38
381.282	77.38
381.507	99.38
381.733	79.38
381.958	83.38
382.184	89.38
382.409	83.38
382.634	90.38
382.86	93.38
383.085	84.38
383.31	77.38
383.535	86.38
383.761	91.38
383.986	79.38
384.211	98.38
384.436	86.38
384.662	92.38
384.887	107.38
385.112	87.38
385.337	81.38
385.562	89.38
385.787	99.38
386.013	78.38
386.238	73.38
386.463	91.38
386.688	96.38
386.913	83.38
387.138	83.38
387.363	85.38
387.588	106.38
387.813	86.38
388.038	92.38
388.263	96.38
388.488	91.38
388.713	75.38
388.938	87.38
389.163	92.38
389.387	94.38
389.612	77.38
389.837	105.38
390.062	74.38
390.287	88.38
390.512	94.38
390.736	91.38
390.961	85.38
391.186	79.38
391.411	93.38
391.636	85.38
391.86	84.38
392.085	86.38
392.31	89.38
392.534	95.38
392.759	86.38
392.984	74.38
393.208	77.38
393.433	87.38
393.658	86.38
393.882	86.38
394.107	93.38
394.331	101.38
394.556	94.38
394.78	87.38
395.005	81.38
395.229	89.38
395.454	107.38
395.678	93.38
395.903	86.38
396.127	82.38
396.352	83.38
396.576	77.38
396.801	90.38
397.025	85.38
397.249	92.38
397.474	109.38
397.698	102.38
397.922	87.38
398.147	76.38
398.371	85.38
398.595	90.38
398.82	97.38
399.044	81.38
399.268	101.38
399.492	92.38
399.717	99.38
399.941	101.38
400.165	77.38
400.389	69.38
400.613	84.38
400.837	88.38
401.062	97.38
401.286	86.38
401.51	105.38
401.734	68.38
401.958	95.38
402.182	93.38
402.406	89.38
402.63	85.38
402.854	88.38
403.078	94.38
403.302	113.38
403.526	83.38
403.75	95.38
403.974	94.38
404.198	92.38
404.422	95.38
404.645	84.38
404.869	84.38
405.093	79.38
405.317	109.38
405.541	89.38
405.765	78.38
405.988	83.38
406.212	92.38
406.436	84.38
406.66	84.38
406.883	85.38
407.107	92.38
407.331	102.38
407.555	90.38
407.778	103.38
408.002	79.38
408.226	82.38
408.449	89.38
408.673	92.38
408.896	87.38
409.12	89.38
409.344	91.38
409.567	83.38
409.791	96.38
410.014	79.38
410.238	89.38
410.461	89.38
410.685	84.38
410.908	94.38
411.132	87.38
411.355	102.38
411.578	83.38
411.802	86.38
412.025	88.38
412.249	79.38
412.472	90.38
412.695	92.38
412.919	86.38
413.142	96.38
413.365	96.38
413.589	86.38
413.812	88.38
414.035	83.38
414.258	85.38
414.482	83.38
414.705	86.38
414.928	83.38
415.151	87.38
415.374	91.38
415.597	86.38
415.821	81.38
416.044	92.38
416.267	84.38
416.49	84.38
416.713	93.38
416.936	100.38
417.159	79.38
417.382	97.38
417.605	93.38
417.828	75.38
418.051	85.38
418.274	84.38
418.497	98.38
418.72	95.38
418.943	105.38
419.166	93.38
419.389	93.38
419.611	93.38
419.834	86.38
420.057	89.38
420.28	98.38
420.503	88.38
420.726	96.38
420.948	98.38
421.171	93.38
421.394	86.38
421.617	84.38
421.839	87.38
422.062	97.38
422.285	83.38
422.507	92.38
422.73	89.38
422.953	94.38
423.175	89.38
423.398	83.38
423.621	89.38
423.843	97.38
424.066	87.38
424.288	79.38
424.511	91.38
424.733	97.38
424.956	88.38
425.178	107.38
425.401	81.38
425.623	93.38
425.846	86.38
426.068	98.38
426.291	83.38
426.513	99.38
426.735	85.38
426.958	83.38
427.18	99.38
427.402	93.38
427.625	98.38
427.847	89.38
428.069	99.38
428.292	81.38
428.514	108.38
428.736	74.38
428.958	91.38
429.181	83.38
429.403	90.38
429.625	93.38
429.847	91.38
430.069	84.38
430.292	101.38
430.514	99.38
430.736	88.38
430.958	95.38
431.18	83.38
431.402	85.38
431.624	88.38
431.846	80.38
432.068	79.38
432.29	97.38
432.512	86.38
432.734	86.38
432.956	85.38
433.178	89.38
433.4	79.38
433.622	81.38
433.844	75.38
434.066	90.38
434.287	94.38
434.509	79.38
434.731	105.38
434.953	92.38
435.175	89.38
435.397	109.38
435.618	93.38
435.84	95.38
436.062	85.38
436.284	91.38
436.505	91.38
436.727	85.38
436.949	94.38
437.17	105.38
437.392	79.38
437.614	87.38
437.835	77.38
438.057	97.38
438.278	86.38
438.5	93.38
438.721	98.38
438.943	96.38
439.165	95.38
439.386	82.38
439.608	99.38
439.829	81.38
440.05	81.38
440.272	86.38
440.493	85.38
440.715	95.38
440.936	98.38
441.158	99.38
441.379	110.38
441.6	91.38
441.822	98.38
442.043	88.38
442.264	89.38
442.486	96.38
442.707	112.38
442.928	89.38
443.149	81.38
443.371	88.38
443.592	85.38
443.813	84.38
444.034	84.38
444.255	89.38
444.476	88.38
444.698	96.38
444.919	90.38
445.14	149.38
445.361	110.38
445.582	86.38
445.803	77.38
446.024	85.38
446.245	87.38
446.466	91.38
446.687	83.38
446.908	93.38
447.129	70.38
447.35	97.38
447.571	93.38
447.792	68.38
448.013	81.38
448.234	82.38
448.455	93.38
448.675	96.38
448.896	93.38
449.117	69.38
449.338	87.38
449.559	91.38
449.779	86.38
450	99.38
450.221	92.38
450.442	86.38
450.662	83.38
450.883	87.38
451.104	91.38
451.324	86.38
451.545	80.38
451.766	83.38
451.986	83.38
452.207	102.38
452.428	100.38
452.648	91.38
452.869	81.38
453.089	83.38
453.31	87.38
453.53	93.38
453.751	92.38
453.971	87.38
454.192	94.38
454.412	95.38
454.633	97.38
454.853	105.38
455.073	97.38
455.294	74.38
455.514	90.38
455.734	69.38
455.955	95.38
456.175	81.38
456.395	77.38
456.616	99.38
456.836	88.38
457.056	100.38
457.276	85.38
457.497	90.38
457.717	87.38
457.937	78.38
458.157	94.38
458.377	91.38
458.598	99.38
458.818	90.38
459.038	86.38
459.258	99.38
459.478	86.38
459.698	91.38
459.918	98.38
460.138	82.38
460.358	88.38
460.578	93.38
460.798	93.38
461.018	105.38
461.238	94.38
461.458	105.38
461.678	84.38
461.898	89.38
462.118	94.38
462.338	83.38
462.558	91.38
462.777	96.38
462.997	92.38
463.217	104.38
463.437	91.38
463.657	86.38
463.876	92.38
464.096	75.38
464.316	86.38
464.536	87.38
464.755	93.38
464.975	95.38
465.195	93.38
465.414	87.38
465.634	85.38
465.854	95.38
466.073	86.38
466.293	86.38
466.512	88.38
466.732	70.38
466.951	83.38
467.171	94.38
467.391	111.38
467.61	116.38
467.829	90.38
468.049	99.38
468.268	82.38
468.488	94.38
468.707	93.38
468.927	86.38
469.146	77.38
469.365	89.38
469.585	99.38
469.804	86.38
470.023	93.38
470.243	90.38
470.462	94.38
470.681	100.38
470.901	93.38
471.12	90.38
471.339	98.38
471.558	99.38
471.777	97.38
471.997	84.38
472.216	91.38
472.435	92.38
472.654	98.38
472.873	91.38
473.092	93.38
473.311	97.38
473.53	78.38
473.749	101.38
473.968	103.38
474.187	98.38
474.406	84.38
474.625	96.38
474.844	87.38
475.063	101.38
475.282	89.38
475.501	81.38
475.72	90.38
475.939	78.38
476.158	81.38
476.377	87.38
476.596	80.38
476.814	98.38
477.033	85.38
477.252	94.38
477.471	85.38
477.69	93.38
477.908	93.38
478.127	93.38
478.346	93.38
478.564	88.38
478.783	82.38
479.002	79.38
479.22	96.38
479.439	91.38
479.658	94.38
479.876	89.38
480.095	99.38
480.313	97.38
480.532	108.38
480.751	93.38
480.969	89.38
481.188	92.38
481.406	101.38
481.624	103.38
481.843	105.38
482.061	92.38
482.28	97.38
482.498	102.38
482.717	102.38
482.935	93.38
483.153	96.38
483.372	87.38
483.59	84.38
483.808	89.38
484.027	92.38
484.245	101.38
484.463	86.38
484.681	93.38
484.9	90.38
485.118	105.38
485.336	92.38
485.554	97.38
485.772	92.38
485.99	100.38
486.209	99.38
486.427	91.38
486.645	111.38
486.863	83.38
487.081	97.38
487.299	76.38
487.517	83.38
487.735	89.38
487.953	88.38
488.171	91.38
488.389	105.38
488.607	89.38
488.825	89.38
489.043	86.38
489.261	82.38
489.479	89.38
489.696	97.38
489.914	95.38
490.132	90.38
490.35	101.38
490.568	81.38
490.786	85.38
491.003	103.38
491.221	93.38
491.439	89.38
491.657	109.38
491.874	81.38
492.092	97.38
492.31	90.38
492.527	105.38
492.745	66.38
492.963	92.38
493.18	94.38
493.398	89.38
493.615	105.38
493.833	83.38
494.05	80.38
494.268	74.38
494.485	96.38
494.703	109.38
494.92	105.38
495.138	108.38
495.355	90.38
495.573	101.38
495.79	81.38
496.008	96.38
496.225	88.38
496.442	107.38
496.66	77.38
496.877	85.38
497.094	89.38
497.312	94.38
497.529	105.38
497.746	93.38
497.963	98.38
498.181	93.38
498.398	81.38
498.615	81.38
498.832	109.38
499.049	103.38
499.267	90.38
499.484	91.38
499.701	113.38
499.918	107.38
500.135	118.38
500.352	106.38
500.569	86.38
500.786	111.38
501.003	93.38
501.22	89.38
501.437	99.38
501.654	94.38
501.871	84.38
502.088	98.38
502.305	96.38
502.522	100.38
502.739	95.38
502.956	84.38
503.172	80.38
503.389	91.38
503.606	81.38
503.823	99.38
504.04	88.38
504.256	98.38
504.473	87.38
504.69	94.38
504.907	87.38
505.123	103.38
505.34	91.38
505.557	102.38
505.773	94.38
505.99	91.38
506.207	100.38
506.423	92.38
506.64	98.38
506.856	90.38
507.073	85.38
507.289	98.38
507.506	82.38
507.722	83.38
507.939	98.38
508.155	85.38
508.372	76.38
508.588	95.38
508.805	93.38
509.021	85.38
509.238	107.38
509.454	89.38
509.67	98.38
509.887	95.38
510.103	87.38
510.319	93.38
510.536	93.38
510.752	86.38
510.968	100.38
511.184	102.38
511.401	81.38
511.617	93.38
511.833	90.38
512.049	88.38
512.265	85.38
512.481	102.38
512.698	91.38
512.914	98.38
513.13	98.38
513.346	94.38
513.562	90.38
513.778	96.38
513.994	87.38
514.21	82.38
514.426	93.38
514.642	102.38
514.858	98.38
515.074	84.38
515.29	100.38
515.506	93.38
515.721	82.38
515.937	91.38
516.153	84.38
516.369	97.38
516.585	86.38
516.801	85.38
517.016	97.38
517.232	94.38
517.448	75.38
517.664	94.38
517.879	84.38
518.095	78.38
518.311	99.38
518.527	90.38
518.742	101.38
518.958	93.38
519.173	98.38
519.389	89.38
519.605	91.38
519.82	80.38
520.036	75.38
520.251	79.38
520.467	80.38
520.682	86.38
520.898	85.38
521.113	95.38
521.329	91.38
521.544	93.38
521.76	86.38
521.975	84.38
522.19	94.38
522.406	89.38
522.621	79.38
522.836	95.38
523.052	94.38
523.267	98.38
523.482	95.38
523.698	89.38
523.913	98.38
524.128	79.38
524.343	97.38
524.559	105.38
524.774	87.38
524.989	89.38
525.204	81.38
525.419	92.38
525.634	86.38
525.849	82.38
526.064	92.38
526.28	93.38
526.495	85.38
526.71	84.38
526.925	88.38
527.14	87.38
527.355	91.38
527.57	85.38
527.785	84.38
527.999	102.38
528.214	107.38
528.429	85.38
528.644	97.38
528.859	86.38
529.074	87.38
529.289	90.38
529.503	109.38
529.718	110.38
529.933	97.38
530.148	93.38
530.363	98.38
530.577	92.38
530.792	90.38
531.007	91.38
531.221	98.38
531.436	99.38
531.651	87.38
531.865	90.38
532.08	84.38
532.295	116.38
532.509	102.38
532.724	87.38
532.938	88.38
533.153	84.38
533.367	86.38
533.582	80.38
533.796	80.38
534.011	102.38
534.225	90.38
534.44	81.38
534.654	93.38
534.868	101.38
535.083	78.38
535.297	86.38
535.511	101.38
535.726	91.38
535.94	86.38
536.154	89.38
536.369	93.38
536.583	76.38
536.797	96.38
537.011	87.38
537.225	90.38
537.44	78.38
537.654	103.38
537.868	86.38
538.082	89.38
538.296	88.38
538.51	88.38
538.724	89.38
538.938	89.38
539.153	90.38
539.367	102.38
539.581	80.38
539.795	86.38
540.009	90.38
540.222	91.38
540.436	94.38
540.65	80.38
540.864	94.38
541.078	96.38
541.292	97.38
541.506	81.38
541.72	93.38
541.934	85.38
542.147	93.38
542.361	100.38
542.575	93.38
542.789	90.38
543.002	97.38
543.216	91.38
543.43	92.38
543.644	92.38
543.857	103.38
544.071	97.38
544.285	106.38
544.498	95.38
544.712	95.38
544.925	103.38
545.139	85.38
545.352	82.38
545.566	86.38
545.779	99.38
545.993	106.38
546.206	93.38
546.42	90.38
546.633	93.38
546.847	98.38
547.06	98.38
547.274	71.38
547.487	105.38
547.7	89.38
547.914	81.38
548.127	75.38
548.34	87.38
548.554	89.38
548.767	93.38
548.98	93.38
549.193	84.38
549.407	87.38
549.62	92.38
549.833	107.38
550.046	91.38
550.259	86.38
550.473	84.38
550.686	82.38
550.899	82.38
551.112	82.38
551.325	82.38
551.538	98.38
551.751	100.38
551.964	99.38
552.177	100.38
552.39	80.38
552.603	87.38
552.816	78.38
553.029	80.38
553.242	88.38
553.455	89.38
553.667	88.38
553.88	94.38
554.093	98.38
554.306	101.38
554.519	81.38
554.732	102.38
554.944	96.38
555.157	98.38
555.37	94.38
555.583	91.38
555.795	92.38
556.008	77.38
556.221	87.38
556.433	84.38
556.646	82.38
556.859	89.38
557.071	89.38
557.284	86.38
557.496	85.38
557.709	100.38
557.921	99.38
558.134	80.38
558.346	80.38
558.559	89.38
558.771	87.38
558.984	95.38
559.196	95.38
559.409	89.38
559.621	85.38
559.833	80.38
560.046	67.38
560.258	95.38
560.47	80.38
560.683	85.38
560.895	93.38
561.107	100.38
561.32	96.38
561.532	92.38
561.744	91.38
561.956	95.38
562.168	95.38
562.381	94.38
562.593	107.38
562.805	97.38
563.017	92.38
563.229	78.38
563.441	79.38
563.653	89.38
563.865	89.38
564.077	76.38
564.289	92.38
564.501	99.38
564.713	95.38
564.925	94.38
565.137	85.38
565.349	81.38
565.561	102.38
565.773	85.38
565.985	107.38
566.197	89.38
566.408	91.38
566.62	102.38
566.832	92.38
567.044	100.38
567.255	83.38
567.467	105.38
567.679	93.38
567.891	107.38
568.102	96.38
568.314	93.38
568.526	97.38
568.737	96.38
568.949	92.38
569.161	89.38
569.372	98.38
569.584	99.38
569.795	86.38
570.007	85.38
570.218	101.38
570.43	83.38
570.641	90.38
570.853	88.38
571.064	93.38
571.276	99.38
571.487	95.38
571.698	89.38
571.91	83.38
572.121	87.38
572.333	100.38
572.544	98.38
572.755	95.38
572.966	90.38
573.178	89.38
573.389	89.38
573.6	100.38
573.811	90.38
574.023	80.38
574.234	95.38
574.445	90.38
574.656	80.38
574.867	82.38
575.078	90.38
575.289	92.38
575.501	89.38
575.712	89.38
575.923	86.38
576.134	79.38
576.345	104.38
576.556	83.38
576.767	89.38
576.978	79.38
577.188	89.38
577.399	80.38
577.61	77.38
577.821	92.38
578.032	89.38
578.243	90.38
578.454	106.38
578.665	98.38
578.875	91.38
579.086	77.38
579.297	87.38
579.508	83.38
579.718	89.38
579.929	97.38
580.14	98.38
580.35	81.38
580.561	80.38
580.772	85.38
580.982	85.38
581.193	81.38
581.403	70.38
581.614	85.38
581.825	97.38
582.035	97.38
582.246	88.38
582.456	89.38
582.667	91.38
582.877	80.38
583.087	97.38
583.298	82.38
583.508	74.38
583.719	96.38
583.929	98.38
584.139	87.38
584.35	89.38
584.56	92.38
584.77	80.38
584.981	84.38
585.191	74.38
585.401	87.38
585.611	80.38
585.821	79.38
586.032	80.38
586.242	94.38
586.452	83.38
586.662	79.38
586.872	92.38
587.082	89.38
587.292	97.38
587.502	104.38
587.713	85.38
587.923	81.38
588.133	92.38
588.343	97.38
588.553	91.38
588.762	87.38
588.972	99.38
589.182	94.38
589.392	91.38
589.602	84.38
589.812	99.38
590.022	91.38
590.232	81.38
590.441	76.38
590.651	84.38
590.861	97.38
591.071	93.38
591.281	94.38
591.49	90.38
591.7	91.38
591.91	81.38
592.119	92.38
592.329	89.38
592.539	95.38
592.748	85.38
592.958	85.38
593.167	81.38
593.377	99.38
593.587	95.38
593.796	92.38
594.006	83.38
594.215	92.38
594.424	98.38
594.634	94.38
594.843	86.38
595.053	102.38
595.262	83.38
595.472	90.38
595.681	85.38
595.89	74.38
596.1	85.38
596.309	89.38
596.518	105.38
596.727	93.38
596.937	85.38
597.146	94.38
597.355	91.38
597.564	89.38
597.774	90.38
597.983	91.38
598.192	92.38
598.401	91.38
598.61	86.38
598.819	98.38
599.028	79.38
599.237	86.38
599.446	89.38
599.655	101.38
599.864	98.38
600.073	94.38
600.282	80.38
600.491	88.38
600.7	82.38
600.909	100.38
601.118	95.38
601.327	89.38
601.536	75.38
601.745	81.38
601.953	81.38
602.162	90.38
602.371	92.38
602.58	93.38
602.789	92.38
602.997	86.38
603.206	79.38
603.415	67.38
603.623	91.38
603.832	105.38
604.041	93.38
604.249	97.38
604.458	92.38
604.666	87.38
604.875	89.38
605.084	84.38
605.292	85.38
605.501	76.38
605.709	98.38
605.918	94.38
606.126	86.38
606.334	83.38
606.543	98.38
606.751	87.38
606.96	88.38
607.168	89.38
607.376	97.38
607.585	75.38
607.793	93.38
608.001	83.38
608.21	86.38
608.418	86.38
608.626	84.38
608.834	86.38
609.043	83.38
609.251	89.38
609.459	85.38
609.667	92.38
609.875	80.38
610.083	78.38
610.291	82.38
610.499	78.38
610.707	89.38
610.916	78.38
611.124	77.38
611.332	100.38
611.54	97.38
611.748	80.38
611.955	95.38
612.163	83.38
612.371	91.38
612.579	90.38
612.787	82.38
612.995	93.38
613.203	101.38
613.411	75.38
613.618	97.38
613.826	98.38
614.034	106.38
614.242	91.38
614.449	65.38
614.657	81.38
614.865	87.38
615.072	82.38
615.28	88.38
615.488	89.38
615.695	97.38
615.903	98.38
616.111	73.38
616.318	85.38
616.526	81.38
616.733	97.38
616.941	87.38
617.148	100.38
617.356	83.38
617.563	88.38
617.771	84.38
617.978	79.38
618.185	85.38
618.393	80.38
618.6	96.38
618.807	81.38
619.015	93.38
619.222	104.38
619.429	78.38
619.637	86.38
619.844	80.38
620.051	77.38
620.258	91.38
620.466	99.38
620.673	75.38
620.88	102.38
621.087	79.38
621.294	100.38
621.501	89.38
621.708	84.38
621.915	81.38
622.122	79.38
622.329	86.38
622.536	99.38
622.743	95.38
622.95	101.38
623.157	89.38
623.364	98.38
623.571	93.38
623.778	83.38
623.985	95.38
624.192	83.38
624.399	72.38
624.606	83.38
624.812	90.38
625.019	105.38
625.226	66.38
625.433	83.38
625.639	86.38
625.846	102.38
626.053	93.38
626.259	95.38
626.466	97.38
626.673	89.38
626.879	85.38
627.086	92.38
627.293	74.38
627.499	96.38
627.706	97.38
627.912	85.38
628.119	78.38
628.325	98.38
628.532	103.38
628.738	80.38
628.945	81.38
629.151	90.38
629.357	85.38
629.564	81.38
629.77	88.38
629.976	72.38
630.183	76.38
630.389	100.38
630.595	85.38
630.802	87.38
631.008	92.38
631.214	86.38
631.42	85.38
631.627	107.38
631.833	80.38
632.039	81.38
632.245	86.38
632.451	89.38
632.657	80.38
632.863	74.38
633.069	81.38
633.275	89.38
633.481	83.38
633.688	70.38
633.893	86.38
634.099	94.38
634.305	94.38
634.511	97.38
634.717	83.38
634.923	82.38
635.129	72.38
635.335	87.38
635.541	101.38
635.747	90.38
635.952	89.38
636.158	86.38
636.364	87.38
636.57	84.38
636.775	93.38
636.981	84.38
637.187	96.38
637.392	92.38
637.598	86.38
637.804	105.38
638.009	77.38
638.215	87.38
638.421	98.38
638.626	89.38
638.832	84.38
639.037	90.38
639.243	83.38
639.448	78.38
639.654	87.38
639.859	85.38
640.065	87.38
640.27	87.38
640.475	88.38
640.681	86.38
640.886	83.38
641.091	91.38
641.297	92.38
641.502	85.38
641.707	85.38
641.913	87.38
642.118	82.38
642.323	75.38
642.528	79.38
642.733	97.38
642.939	98.38
643.144	82.38
643.349	97.38
643.554	83.38
643.759	82.38
643.964	78.38
644.169	86.38
644.374	89.38
644.579	95.38
644.784	74.38
644.989	97.38
645.194	89.38
645.399	91.38
645.604	78.38
645.809	85.38
646.014	95.38
646.219	84.38
646.423	87.38
646.628	100.38
646.833	74.38
647.038	98.38
647.243	100.38
647.447	74.38
647.652	77.38
647.857	83.38
648.062	84.38
648.266	88.38
648.471	90.38
648.676	89.38
648.88	93.38
649.085	94.38
649.289	76.38
649.494	65.38
649.698	89.38
649.903	91.38
650.107	90.38
650.312	78.38
650.516	86.38
650.721	101.38
650.925	92.38
651.13	71.38
651.334	83.38
651.539	96.38
651.743	89.38
651.947	96.38
652.152	95.38
652.356	94.38
652.56	90.38
652.764	76.38
652.969	92.38
653.173	76.38
653.377	81.38
653.581	81.38
653.785	74.38
653.99	91.38
654.194	83.38
654.398	89.38
654.602	90.38
654.806	85.38
655.01	80.38
655.214	84.38
655.418	72.38
655.622	92.38
655.826	76.38
656.03	81.38
656.234	97.38
656.438	90.38
656.642	71.38
656.846	88.38
657.049	86.38
657.253	105.38
657.457	76.38
657.661	75.38
657.865	83.38
658.068	85.38
658.272	93.38
658.476	97.38
658.68	84.38
658.883	91.38
659.087	97.38
659.291	72.38
659.494	93.38
659.698	71.38
659.901	95.38
660.105	83.38
660.309	82.38
660.512	73.38
660.716	91.38
660.919	95.38
661.123	80.38
661.326	86.38
661.53	70.38
661.733	77.38
661.936	75.38
662.14	69.38
662.343	91.38
662.546	92.38
662.75	94.38
662.953	84.38
663.156	92.38
663.36	83.38
663.563	70.38
663.766	89.38
663.969	74.38
664.173	96.38
664.376	100.38
664.579	77.38
664.782	88.38
664.985	91.38
665.188	71.38
665.391	93.38
665.594	69.38
665.797	80.38
666	85.38
666.203	69.38
666.406	81.38
666.609	76.38
666.812	102.38
667.015	89.38
667.218	78.38
667.421	93.38
667.624	74.38
667.827	81.38
668.03	92.38
668.232	87.38
668.435	77.38
668.638	93.38
668.841	90.38
669.043	86.38
669.246	95.38
669.449	85.38
669.651	103.38
669.854	79.38
670.057	82.38
670.259	85.38
670.462	100.38
670.665	82.38
670.867	77.38
671.07	89.38
671.272	83.38
671.475	78.38
671.677	83.38
671.88	82.38
672.082	84.38
672.284	78.38
672.487	82.38
672.689	84.38
672.892	72.38
