Data from TenMicroDelayPb_HRD10591_00009.txt Node
Date: Mon Nov 24 14:58:36 EST 2025
User: Yrep
Spectrometer: HR+D1059
Trigger mode: 5
Integration Time (sec): 1.000000E0
Scans to average: 1
Electric dark correction enabled: true
Nonlinearity correction enabled: false
Boxcar width: 0
XAxis mode: Wavelengths
Number of Pixels in Spectrum: 2048
>>>>>Begin Spectral Data<<<<<
223.165	-35.69
223.4	-35.69
223.635	-35.69
223.869	-38.69
224.104	-40.69
224.338	-8.69
224.573	-13.69
224.808	-3.69
225.042	10.31
225.277	-15.69
225.511	3.31
225.746	22.31
225.98	12.31
226.215	10.31
226.449	26.31
226.683	14.31
226.918	17.31
227.152	40.31
227.387	36.31
227.621	38.31
227.856	55.31
228.09	39.31
228.324	50.31
228.559	59.31
228.793	62.31
229.027	79.31
229.262	94.31
229.496	81.31
229.73	69.31
229.964	102.31
230.199	93.31
230.433	71.31
230.667	92.31
230.901	91.31
231.136	89.31
231.37	85.31
231.604	82.31
231.838	94.31
232.072	89.31
232.306	92.31
232.541	90.31
232.775	98.31
233.009	78.31
233.243	81.31
233.477	89.31
233.711	84.31
233.945	99.31
234.179	107.31
234.413	102.31
234.647	100.31
234.881	94.31
235.115	89.31
235.349	99.31
235.583	108.31
235.817	91.31
236.051	89.31
236.285	95.31
236.519	101.31
236.753	86.31
236.987	93.31
237.221	92.31
237.455	85.31
237.689	72.31
237.922	99.31
238.156	94.31
238.39	70.31
238.624	88.31
238.858	102.31
239.091	96.31
239.325	83.31
239.559	94.31
239.793	85.31
240.027	109.31
240.26	82.31
240.494	96.31
240.728	84.31
240.961	90.31
241.195	89.31
241.429	94.31
241.662	95.31
241.896	98.31
242.13	85.31
242.363	85.31
242.597	80.31
242.83	92.31
243.064	75.31
243.298	82.31
243.531	84.31
243.765	90.31
243.998	85.31
244.232	93.31
244.465	99.31
244.699	94.31
244.932	98.31
245.166	105.31
245.399	102.31
245.633	101.31
245.866	100.31
246.099	102.31
246.333	90.31
246.566	99.31
246.8	97.31
247.033	92.31
247.266	95.31
247.5	89.31
247.733	90.31
247.966	90.31
248.2	83.31
248.433	106.31
248.666	85.31
248.899	100.31
249.133	93.31
249.366	111.31
249.599	95.31
249.832	94.31
250.066	101.31
250.299	95.31
250.532	98.31
250.765	96.31
250.998	110.31
251.231	89.31
251.465	103.31
251.698	110.31
251.931	93.31
252.164	86.31
252.397	105.31
252.63	109.31
252.863	126.31
253.096	110.31
253.329	95.31
253.562	89.31
253.795	111.31
254.028	113.31
254.261	107.31
254.494	107.31
254.727	106.31
254.96	95.31
255.193	94.31
255.426	122.31
255.659	95.31
255.892	119.31
256.124	101.31
256.357	118.31
256.59	113.31
256.823	109.31
257.056	98.31
257.289	112.31
257.521	113.31
257.754	109.31
257.987	100.31
258.22	134.31
258.452	123.31
258.685	101.31
258.918	112.31
259.151	118.31
259.383	111.31
259.616	103.31
259.849	111.31
260.081	103.31
260.314	115.31
260.547	116.31
260.779	116.31
261.012	121.31
261.244	139.31
261.477	158.31
261.71	151.31
261.942	144.31
262.175	138.31
262.407	114.31
262.64	118.31
262.872	118.31
263.105	123.31
263.337	137.31
263.57	109.31
263.802	124.31
264.035	108.31
264.267	114.31
264.499	116.31
264.732	117.31
264.964	134.31
265.197	118.31
265.429	131.31
265.661	138.31
265.894	113.31
266.126	111.31
266.358	133.31
266.591	143.31
266.823	138.31
267.055	108.31
267.287	117.31
267.52	112.31
267.752	113.31
267.984	118.31
268.216	106.31
268.448	121.31
268.681	109.31
268.913	113.31
269.145	103.31
269.377	111.31
269.609	110.31
269.841	96.31
270.073	114.31
270.306	104.31
270.538	129.31
270.77	118.31
271.002	108.31
271.234	125.31
271.466	118.31
271.698	107.31
271.93	107.31
272.162	108.31
272.394	124.31
272.626	110.31
272.858	116.31
273.09	123.31
273.322	106.31
273.553	131.31
273.785	115.31
274.017	108.31
274.249	113.31
274.481	107.31
274.713	118.31
274.945	115.31
275.176	122.31
275.408	112.31
275.64	117.31
275.872	96.31
276.104	109.31
276.335	110.31
276.567	116.31
276.799	114.31
277.031	128.31
277.262	109.31
277.494	127.31
277.726	126.31
277.957	127.31
278.189	121.31
278.421	126.31
278.652	131.31
278.884	141.31
279.115	135.31
279.347	141.31
279.579	160.31
279.81	145.31
280.042	178.31
280.273	197.31
280.505	194.31
280.736	147.31
280.968	164.31
281.199	138.31
281.431	141.31
281.662	142.31
281.894	149.31
282.125	147.31
282.356	159.31
282.588	156.31
282.819	160.31
283.051	138.31
283.282	156.31
283.513	189.31
283.745	162.31
283.976	145.31
284.207	124.31
284.439	149.31
284.67	142.31
284.901	130.31
285.132	121.31
285.364	123.31
285.595	129.31
285.826	136.31
286.057	143.31
286.288	128.31
286.52	121.31
286.751	135.31
286.982	141.31
287.213	147.31
287.444	173.31
287.675	161.31
287.906	143.31
288.138	127.31
288.369	127.31
288.6	122.31
288.831	120.31
289.062	137.31
289.293	128.31
289.524	124.31
289.755	127.31
289.986	131.31
290.217	114.31
290.448	113.31
290.679	132.31
290.91	131.31
291.141	106.31
291.371	132.31
291.602	116.31
291.833	125.31
292.064	127.31
292.295	126.31
292.526	127.31
292.757	119.31
292.987	130.31
293.218	114.31
293.449	126.31
293.68	123.31
293.91	116.31
294.141	130.31
294.372	123.31
294.603	122.31
294.833	117.31
295.064	127.31
295.295	111.31
295.525	114.31
295.756	139.31
295.987	140.31
296.217	110.31
296.448	120.31
296.679	108.31
296.909	125.31
297.14	131.31
297.37	125.31
297.601	127.31
297.831	129.31
298.062	139.31
298.292	131.31
298.523	132.31
298.753	127.31
298.984	135.31
299.214	139.31
299.445	131.31
299.675	122.31
299.905	134.31
300.136	126.31
300.366	125.31
300.597	126.31
300.827	111.31
301.057	135.31
301.288	123.31
301.518	127.31
301.748	141.31
301.979	188.31
302.209	143.31
302.439	117.31
302.669	111.31
302.9	122.31
303.13	120.31
303.36	135.31
303.59	115.31
303.82	129.31
304.051	135.31
304.281	127.31
304.511	141.31
304.741	132.31
304.971	130.31
305.201	145.31
305.431	136.31
305.661	139.31
305.891	135.31
306.121	147.31
306.352	122.31
306.582	138.31
306.812	104.31
307.042	111.31
307.272	133.31
307.502	120.31
307.731	146.31
307.961	127.31
308.191	130.31
308.421	129.31
308.651	133.31
308.881	126.31
309.111	130.31
309.341	130.31
309.571	123.31
309.8	128.31
310.03	126.31
310.26	119.31
310.49	136.31
310.72	121.31
310.949	142.31
311.179	124.31
311.409	124.31
311.639	118.31
311.868	139.31
312.098	139.31
312.328	144.31
312.557	128.31
312.787	125.31
313.017	137.31
313.246	149.31
313.476	145.31
313.706	131.31
313.935	135.31
314.165	128.31
314.394	143.31
314.624	139.31
314.853	153.31
315.083	148.31
315.312	152.31
315.542	115.31
315.771	131.31
316.001	137.31
316.23	145.31
316.46	141.31
316.689	158.31
316.919	145.31
317.148	131.31
317.377	156.31
317.607	158.31
317.836	153.31
318.065	137.31
318.295	141.31
318.524	132.31
318.753	129.31
318.983	131.31
319.212	132.31
319.441	131.31
319.67	138.31
319.9	129.31
320.129	133.31
320.358	144.31
320.587	142.31
320.816	136.31
321.046	139.31
321.275	141.31
321.504	142.31
321.733	136.31
321.962	129.31
322.191	146.31
322.42	134.31
322.649	137.31
322.878	127.31
323.108	144.31
323.337	133.31
323.566	143.31
323.795	138.31
324.024	126.31
324.253	139.31
324.482	137.31
324.71	148.31
324.939	143.31
325.168	143.31
325.397	125.31
325.626	123.31
325.855	139.31
326.084	126.31
326.313	158.31
326.542	142.31
326.77	133.31
326.999	121.31
327.228	127.31
327.457	141.31
327.686	141.31
327.914	124.31
328.143	164.31
328.372	131.31
328.6	138.31
328.829	121.31
329.058	120.31
329.287	123.31
329.515	130.31
329.744	150.31
329.972	139.31
330.201	139.31
330.43	133.31
330.658	126.31
330.887	140.31
331.115	153.31
331.344	141.31
331.572	162.31
331.801	131.31
332.03	156.31
332.258	147.31
332.486	151.31
332.715	123.31
332.943	138.31
333.172	143.31
333.4	132.31
333.629	138.31
333.857	134.31
334.085	129.31
334.314	124.31
334.542	134.31
334.771	136.31
334.999	140.31
335.227	147.31
335.455	142.31
335.684	134.31
335.912	144.31
336.14	119.31
336.369	133.31
336.597	132.31
336.825	138.31
337.053	145.31
337.281	140.31
337.51	136.31
337.738	143.31
337.966	137.31
338.194	135.31
338.422	141.31
338.65	135.31
338.878	134.31
339.106	139.31
339.334	150.31
339.562	115.31
339.79	139.31
340.018	128.31
340.246	138.31
340.474	141.31
340.702	121.31
340.93	140.31
341.158	131.31
341.386	123.31
341.614	135.31
341.842	127.31
342.07	133.31
342.298	137.31
342.526	129.31
342.754	137.31
342.981	139.31
343.209	134.31
343.437	190.31
343.665	136.31
343.893	137.31
344.12	151.31
344.348	136.31
344.576	135.31
344.804	149.31
345.031	121.31
345.259	133.31
345.487	157.31
345.714	139.31
345.942	139.31
346.17	132.31
346.397	132.31
346.625	143.31
346.853	140.31
347.08	132.31
347.308	160.31
347.535	151.31
347.763	132.31
347.99	145.31
348.218	139.31
348.445	139.31
348.673	126.31
348.9	133.31
349.128	143.31
349.355	133.31
349.583	139.31
349.81	126.31
350.037	140.31
350.265	133.31
350.492	146.31
350.72	130.31
350.947	150.31
351.174	137.31
351.402	128.31
351.629	134.31
351.856	142.31
352.083	123.31
352.311	135.31
352.538	137.31
352.765	128.31
352.992	162.31
353.22	137.31
353.447	124.31
353.674	129.31
353.901	146.31
354.128	129.31
354.355	119.31
354.583	124.31
354.81	134.31
355.037	148.31
355.264	141.31
355.491	146.31
355.718	130.31
355.945	143.31
356.172	156.31
356.399	129.31
356.626	141.31
356.853	189.31
357.08	226.31
357.307	246.31
357.534	248.31
357.761	213.31
357.988	187.31
358.215	175.31
358.441	162.31
358.668	155.31
358.895	142.31
359.122	166.31
359.349	149.31
359.576	139.31
359.802	129.31
360.029	148.31
360.256	144.31
360.483	138.31
360.709	142.31
360.936	167.31
361.163	155.31
361.39	147.31
361.616	138.31
361.843	133.31
362.07	147.31
362.296	145.31
362.523	146.31
362.749	146.31
362.976	157.31
363.203	191.31
363.429	162.31
363.656	200.31
363.882	249.31
364.109	313.31
364.335	258.31
364.562	193.31
364.788	164.31
365.015	184.31
365.241	154.31
365.468	163.31
365.694	163.31
365.92	143.31
366.147	158.31
366.373	172.31
366.599	163.31
366.826	165.31
367.052	204.31
367.278	197.31
367.505	189.31
367.731	231.31
367.957	219.31
368.184	305.31
368.41	356.31
368.636	303.31
368.862	237.31
369.089	203.31
369.315	186.31
369.541	173.31
369.767	163.31
369.993	147.31
370.219	143.31
370.445	147.31
370.672	159.31
370.898	159.31
371.124	160.31
371.35	159.31
371.576	166.31
371.802	150.31
372.028	147.31
372.254	138.31
372.48	153.31
372.706	159.31
372.932	149.31
373.158	164.31
373.384	190.31
373.61	197.31
373.835	227.31
374.061	276.31
374.287	249.31
374.513	191.31
374.739	174.31
374.965	163.31
375.191	169.31
375.416	169.31
375.642	156.31
375.868	166.31
376.094	142.31
376.319	134.31
376.545	154.31
376.771	141.31
376.997	156.31
377.222	136.31
377.448	150.31
377.674	126.31
377.899	149.31
378.125	131.31
378.35	141.31
378.576	155.31
378.802	142.31
379.027	139.31
379.253	165.31
379.478	158.31
379.704	140.31
379.929	153.31
380.155	136.31
380.38	151.31
380.606	134.31
380.831	133.31
381.057	185.31
381.282	141.31
381.507	137.31
381.733	142.31
381.958	154.31
382.184	134.31
382.409	129.31
382.634	144.31
382.86	160.31
383.085	152.31
383.31	157.31
383.535	161.31
383.761	155.31
383.986	166.31
384.211	130.31
384.436	132.31
384.662	153.31
384.887	135.31
385.112	140.31
385.337	149.31
385.562	139.31
385.787	161.31
386.013	158.31
386.238	163.31
386.463	162.31
386.688	189.31
386.913	142.31
387.138	138.31
387.363	154.31
387.588	159.31
387.813	161.31
388.038	159.31
388.263	161.31
388.488	139.31
388.713	138.31
388.938	136.31
389.163	152.31
389.387	160.31
389.612	150.31
389.837	149.31
390.062	163.31
390.287	148.31
390.512	146.31
390.736	150.31
390.961	136.31
391.186	152.31
391.411	148.31
391.636	141.31
391.86	155.31
392.085	162.31
392.31	145.31
392.534	138.31
392.759	153.31
392.984	151.31
393.208	156.31
393.433	153.31
393.658	165.31
393.882	148.31
394.107	147.31
394.331	158.31
394.556	146.31
394.78	172.31
395.005	156.31
395.229	148.31
395.454	163.31
395.678	151.31
395.903	162.31
396.127	159.31
396.352	153.31
396.576	148.31
396.801	156.31
397.025	163.31
397.249	156.31
397.474	173.31
397.698	157.31
397.922	161.31
398.147	156.31
398.371	156.31
398.595	143.31
398.82	161.31
399.044	149.31
399.268	146.31
399.492	170.31
399.717	172.31
399.941	165.31
400.165	152.31
400.389	159.31
400.613	161.31
400.837	157.31
401.062	165.31
401.286	186.31
401.51	183.31
401.734	175.31
401.958	172.31
402.182	183.31
402.406	163.31
402.63	170.31
402.854	175.31
403.078	166.31
403.302	171.31
403.526	167.31
403.75	157.31
403.974	167.31
404.198	187.31
404.422	189.31
404.645	180.31
404.869	201.31
405.093	216.31
405.317	267.31
405.541	338.31
405.765	463.31
405.988	496.31
406.212	385.31
406.436	294.31
406.66	244.31
406.883	237.31
407.107	208.31
407.331	209.31
407.555	195.31
407.778	207.31
408.002	177.31
408.226	207.31
408.449	200.31
408.673	187.31
408.896	179.31
409.12	158.31
409.344	168.31
409.567	192.31
409.791	175.31
410.014	181.31
410.238	176.31
410.461	185.31
410.685	170.31
410.908	165.31
411.132	189.31
411.355	171.31
411.578	162.31
411.802	169.31
412.025	186.31
412.249	170.31
412.472	173.31
412.695	171.31
412.919	175.31
413.142	166.31
413.365	158.31
413.589	172.31
413.812	159.31
414.035	176.31
414.258	180.31
414.482	161.31
414.705	172.31
414.928	166.31
415.151	170.31
415.374	174.31
415.597	159.31
415.821	159.31
416.044	177.31
416.267	154.31
416.49	169.31
416.713	181.31
416.936	191.31
417.159	159.31
417.382	153.31
417.605	168.31
417.828	174.31
418.051	156.31
418.274	161.31
418.497	163.31
418.72	166.31
418.943	160.31
419.166	174.31
419.389	177.31
419.611	171.31
419.834	170.31
420.057	171.31
420.28	169.31
420.503	170.31
420.726	153.31
420.948	173.31
421.171	172.31
421.394	161.31
421.617	162.31
421.839	160.31
422.062	163.31
422.285	195.31
422.507	178.31
422.73	182.31
422.953	170.31
423.175	169.31
423.398	182.31
423.621	202.31
423.843	203.31
424.066	217.31
424.288	216.31
424.511	239.31
424.733	261.31
424.956	246.31
425.178	234.31
425.401	213.31
425.623	216.31
425.846	200.31
426.068	213.31
426.291	187.31
426.513	193.31
426.735	194.31
426.958	187.31
427.18	177.31
427.402	189.31
427.625	183.31
427.847	193.31
428.069	176.31
428.292	190.31
428.514	179.31
428.736	177.31
428.958	181.31
429.181	161.31
429.403	172.31
429.625	175.31
429.847	174.31
430.069	172.31
430.292	186.31
430.514	169.31
430.736	166.31
430.958	169.31
431.18	178.31
431.402	159.31
431.624	151.31
431.846	152.31
432.068	162.31
432.29	158.31
432.512	175.31
432.734	183.31
432.956	182.31
433.178	193.31
433.4	165.31
433.622	190.31
433.844	189.31
434.066	175.31
434.287	147.31
434.509	174.31
434.731	181.31
434.953	188.31
435.175	177.31
435.397	170.31
435.618	171.31
435.84	165.31
436.062	173.31
436.284	175.31
436.505	186.31
436.727	176.31
436.949	201.31
437.17	177.31
437.392	176.31
437.614	203.31
437.835	187.31
438.057	188.31
438.278	188.31
438.5	214.31
438.721	242.31
438.943	235.31
439.165	258.31
439.386	240.31
439.608	219.31
439.829	203.31
440.05	222.31
440.272	202.31
440.493	223.31
440.715	222.31
440.936	241.31
441.158	224.31
441.379	218.31
441.6	203.31
441.822	198.31
442.043	205.31
442.264	185.31
442.486	199.31
442.707	179.31
442.928	196.31
443.149	199.31
443.371	200.31
443.592	191.31
443.813	193.31
444.034	163.31
444.255	209.31
444.476	201.31
444.698	197.31
444.919	205.31
445.14	506.31
445.361	327.31
445.582	209.31
445.803	192.31
446.024	198.31
446.245	175.31
446.466	189.31
446.687	184.31
446.908	183.31
447.129	195.31
447.35	203.31
447.571	190.31
447.792	197.31
448.013	172.31
448.234	178.31
448.455	174.31
448.675	188.31
448.896	189.31
449.117	184.31
449.338	191.31
449.559	188.31
449.779	173.31
450	171.31
450.221	164.31
450.442	171.31
450.662	164.31
450.883	152.31
451.104	175.31
451.324	157.31
451.545	174.31
451.766	171.31
451.986	183.31
452.207	190.31
452.428	166.31
452.648	175.31
452.869	169.31
453.089	193.31
453.31	168.31
453.53	170.31
453.751	155.31
453.971	173.31
454.192	130.31
454.412	160.31
454.633	156.31
454.853	176.31
455.073	154.31
455.294	161.31
455.514	168.31
455.734	164.31
455.955	152.31
456.175	155.31
456.395	174.31
456.616	163.31
456.836	157.31
457.056	140.31
457.276	162.31
457.497	148.31
457.717	144.31
457.937	154.31
458.157	147.31
458.377	126.31
458.598	139.31
458.818	155.31
459.038	158.31
459.258	175.31
459.478	156.31
459.698	163.31
459.918	147.31
460.138	175.31
460.358	173.31
460.578	169.31
460.798	173.31
461.018	187.31
461.238	164.31
461.458	159.31
461.678	158.31
461.898	167.31
462.118	173.31
462.338	165.31
462.558	167.31
462.777	140.31
462.997	169.31
463.217	153.31
463.437	149.31
463.657	161.31
463.876	170.31
464.096	165.31
464.316	163.31
464.536	185.31
464.755	184.31
464.975	156.31
465.195	180.31
465.414	179.31
465.634	159.31
465.854	156.31
466.073	135.31
466.293	143.31
466.512	152.31
466.732	162.31
466.951	153.31
467.171	161.31
467.391	173.31
467.61	169.31
467.829	157.31
468.049	169.31
468.268	163.31
468.488	159.31
468.707	163.31
468.927	164.31
469.146	172.31
469.365	174.31
469.585	173.31
469.804	162.31
470.023	163.31
470.243	174.31
470.462	185.31
470.681	194.31
470.901	178.31
471.12	172.31
471.339	174.31
471.558	168.31
471.777	174.31
471.997	176.31
472.216	161.31
472.435	149.31
472.654	166.31
472.873	163.31
473.092	165.31
473.311	166.31
473.53	175.31
473.749	156.31
473.968	163.31
474.187	170.31
474.406	142.31
474.625	166.31
474.844	159.31
475.063	167.31
475.282	159.31
475.501	159.31
475.72	183.31
475.939	162.31
476.158	165.31
476.377	167.31
476.596	153.31
476.814	173.31
477.033	156.31
477.252	171.31
477.471	171.31
477.69	180.31
477.908	173.31
478.127	196.31
478.346	175.31
478.564	181.31
478.783	170.31
479.002	179.31
479.22	188.31
479.439	178.31
479.658	189.31
479.876	171.31
480.095	161.31
480.313	174.31
480.532	187.31
480.751	178.31
480.969	158.31
481.188	169.31
481.406	173.31
481.624	150.31
481.843	153.31
482.061	162.31
482.28	160.31
482.498	158.31
482.717	158.31
482.935	173.31
483.153	182.31
483.372	183.31
483.59	183.31
483.808	187.31
484.027	186.31
484.245	187.31
484.463	186.31
484.681	200.31
484.9	188.31
485.118	190.31
485.336	179.31
485.554	173.31
485.772	161.31
485.99	178.31
486.209	187.31
486.427	172.31
486.645	175.31
486.863	183.31
487.081	163.31
487.299	166.31
487.517	194.31
487.735	179.31
487.953	209.31
488.171	211.31
488.389	198.31
488.607	176.31
488.825	187.31
489.043	177.31
489.261	202.31
489.479	186.31
489.696	182.31
489.914	184.31
490.132	175.31
490.35	205.31
490.568	210.31
490.786	185.31
491.003	197.31
491.221	198.31
491.439	209.31
491.657	211.31
491.874	222.31
492.092	221.31
492.31	229.31
492.527	209.31
492.745	219.31
492.963	205.31
493.18	198.31
493.398	213.31
493.615	189.31
493.833	190.31
494.05	189.31
494.268	209.31
494.485	206.31
494.703	203.31
494.92	215.31
495.138	207.31
495.355	210.31
495.573	213.31
495.79	200.31
496.008	218.31
496.225	178.31
496.442	207.31
496.66	226.31
496.877	203.31
497.094	235.31
497.312	201.31
497.529	179.31
497.746	204.31
497.963	199.31
498.181	196.31
498.398	193.31
498.615	212.31
498.832	189.31
499.049	196.31
499.267	213.31
499.484	205.31
499.701	221.31
499.918	210.31
500.135	234.31
500.352	225.31
500.569	263.31
500.786	307.31
501.003	262.31
501.22	233.31
501.437	227.31
501.654	207.31
501.871	233.31
502.088	194.31
502.305	215.31
502.522	227.31
502.739	202.31
502.956	210.31
503.172	190.31
503.389	206.31
503.606	202.31
503.823	194.31
504.04	207.31
504.256	211.31
504.473	215.31
504.69	204.31
504.907	238.31
505.123	195.31
505.34	214.31
505.557	196.31
505.773	195.31
505.99	196.31
506.207	193.31
506.423	196.31
506.64	200.31
506.856	189.31
507.073	189.31
507.289	177.31
507.506	181.31
507.722	197.31
507.939	177.31
508.155	190.31
508.372	176.31
508.588	176.31
508.805	183.31
509.021	151.31
509.238	169.31
509.454	165.31
509.67	164.31
509.887	164.31
510.103	173.31
510.319	166.31
510.536	174.31
510.752	149.31
510.968	146.31
511.184	157.31
511.401	163.31
511.617	169.31
511.833	157.31
512.049	167.31
512.265	171.31
512.481	170.31
512.698	160.31
512.914	153.31
513.13	163.31
513.346	173.31
513.562	174.31
513.778	169.31
513.994	168.31
514.21	162.31
514.426	163.31
514.642	172.31
514.858	168.31
515.074	174.31
515.29	185.31
515.506	178.31
515.721	163.31
515.937	185.31
516.153	173.31
516.369	167.31
516.585	164.31
516.801	164.31
517.016	164.31
517.232	181.31
517.448	178.31
517.664	184.31
517.879	161.31
518.095	175.31
518.311	158.31
518.527	158.31
518.742	171.31
518.958	155.31
519.173	179.31
519.389	169.31
519.605	169.31
519.82	162.31
520.036	173.31
520.251	174.31
520.467	168.31
520.682	159.31
520.898	155.31
521.113	174.31
521.329	172.31
521.544	167.31
521.76	175.31
521.975	156.31
522.19	162.31
522.406	161.31
522.621	177.31
522.836	159.31
523.052	162.31
523.267	183.31
523.482	157.31
523.698	159.31
523.913	174.31
524.128	141.31
524.343	163.31
524.559	186.31
524.774	160.31
524.989	160.31
525.204	155.31
525.419	164.31
525.634	156.31
525.849	162.31
526.064	146.31
526.28	166.31
526.495	146.31
526.71	145.31
526.925	155.31
527.14	147.31
527.355	147.31
527.57	160.31
527.785	149.31
527.999	160.31
528.214	161.31
528.429	150.31
528.644	166.31
528.859	168.31
529.074	166.31
529.289	181.31
529.503	163.31
529.718	173.31
529.933	175.31
530.148	147.31
530.363	163.31
530.577	165.31
530.792	142.31
531.007	149.31
531.221	153.31
531.436	146.31
531.651	163.31
531.865	137.31
532.08	166.31
532.295	173.31
532.509	149.31
532.724	137.31
532.938	173.31
533.153	164.31
533.367	151.31
533.582	162.31
533.796	173.31
534.011	160.31
534.225	150.31
534.44	141.31
534.654	159.31
534.868	164.31
535.083	158.31
535.297	152.31
535.511	185.31
535.726	165.31
535.94	166.31
536.154	150.31
536.369	170.31
536.583	151.31
536.797	169.31
537.011	166.31
537.225	183.31
537.44	193.31
537.654	185.31
537.868	174.31
538.082	173.31
538.296	170.31
538.51	184.31
538.724	173.31
538.938	157.31
539.153	173.31
539.367	190.31
539.581	161.31
539.795	146.31
540.009	159.31
540.222	163.31
540.436	167.31
540.65	152.31
540.864	166.31
541.078	169.31
541.292	166.31
541.506	158.31
541.72	154.31
541.934	152.31
542.147	171.31
542.361	184.31
542.575	158.31
542.789	145.31
543.002	157.31
543.216	155.31
543.43	143.31
543.644	148.31
543.857	155.31
544.071	164.31
544.285	158.31
544.498	145.31
544.712	167.31
544.925	172.31
545.139	150.31
545.352	167.31
545.566	155.31
545.779	151.31
545.993	174.31
546.206	160.31
546.42	145.31
546.633	148.31
546.847	171.31
547.06	163.31
547.274	141.31
547.487	156.31
547.7	145.31
547.914	158.31
548.127	165.31
548.34	155.31
548.554	145.31
548.767	165.31
548.98	163.31
549.193	153.31
549.407	155.31
549.62	142.31
549.833	154.31
550.046	158.31
550.259	142.31
550.473	153.31
550.686	157.31
550.899	165.31
551.112	166.31
551.325	141.31
551.538	150.31
551.751	164.31
551.964	152.31
552.177	156.31
552.39	153.31
552.603	167.31
552.816	159.31
553.029	141.31
553.242	153.31
553.455	149.31
553.667	172.31
553.88	178.31
554.093	166.31
554.306	159.31
554.519	156.31
554.732	159.31
554.944	185.31
555.157	161.31
555.37	169.31
555.583	152.31
555.795	162.31
556.008	148.31
556.221	154.31
556.433	157.31
556.646	157.31
556.859	145.31
557.071	139.31
557.284	175.31
557.496	171.31
557.709	159.31
557.921	168.31
558.134	169.31
558.346	153.31
558.559	173.31
558.771	154.31
558.984	157.31
559.196	163.31
559.409	162.31
559.621	167.31
559.833	169.31
560.046	195.31
560.258	196.31
560.47	199.31
560.683	237.31
560.895	261.31
561.107	267.31
561.32	236.31
561.532	203.31
561.744	173.31
561.956	188.31
562.168	172.31
562.381	173.31
562.593	162.31
562.805	155.31
563.017	163.31
563.229	160.31
563.441	143.31
563.653	154.31
563.865	127.31
564.077	147.31
564.289	153.31
564.501	158.31
564.713	143.31
564.925	155.31
565.137	125.31
565.349	153.31
565.561	150.31
565.773	162.31
565.985	151.31
566.197	150.31
566.408	149.31
566.62	137.31
566.832	163.31
567.044	155.31
567.255	142.31
567.467	170.31
567.679	142.31
567.891	147.31
568.102	152.31
568.314	166.31
568.526	146.31
568.737	141.31
568.949	146.31
569.161	146.31
569.372	126.31
569.584	137.31
569.795	133.31
570.007	143.31
570.218	138.31
570.43	121.31
570.641	126.31
570.853	124.31
571.064	133.31
571.276	145.31
571.487	139.31
571.698	128.31
571.91	129.31
572.121	138.31
572.333	119.31
572.544	121.31
572.755	131.31
572.966	122.31
573.178	141.31
573.389	133.31
573.6	108.31
573.811	127.31
574.023	126.31
574.234	122.31
574.445	134.31
574.656	108.31
574.867	126.31
575.078	129.31
575.289	126.31
575.501	147.31
575.712	132.31
575.923	132.31
576.134	129.31
576.345	123.31
576.556	130.31
576.767	147.31
576.978	110.31
577.188	139.31
577.399	122.31
577.61	122.31
577.821	126.31
578.032	122.31
578.243	138.31
578.454	138.31
578.665	130.31
578.875	123.31
579.086	128.31
579.297	112.31
579.508	122.31
579.718	136.31
579.929	135.31
580.14	126.31
580.35	108.31
580.561	132.31
580.772	122.31
580.982	127.31
581.193	113.31
581.403	129.31
581.614	129.31
581.825	118.31
582.035	103.31
582.246	116.31
582.456	112.31
582.667	127.31
582.877	125.31
583.087	109.31
583.298	134.31
583.508	117.31
583.719	113.31
583.929	118.31
584.139	112.31
584.35	118.31
584.56	136.31
584.77	112.31
584.981	106.31
585.191	122.31
585.401	120.31
585.611	119.31
585.821	138.31
586.032	117.31
586.242	115.31
586.452	123.31
586.662	132.31
586.872	121.31
587.082	118.31
587.292	125.31
587.502	125.31
587.713	121.31
587.923	124.31
588.133	121.31
588.343	124.31
588.553	125.31
588.762	144.31
588.972	135.31
589.182	129.31
589.392	117.31
589.602	110.31
589.812	101.31
590.022	127.31
590.232	109.31
590.441	117.31
590.651	100.31
590.861	116.31
591.071	112.31
591.281	120.31
591.49	111.31
591.7	115.31
591.91	137.31
592.119	122.31
592.329	126.31
592.539	118.31
592.748	114.31
592.958	122.31
593.167	110.31
593.377	127.31
593.587	160.31
593.796	131.31
594.006	112.31
594.215	116.31
594.424	127.31
594.634	106.31
594.843	122.31
595.053	116.31
595.262	113.31
595.472	124.31
595.681	122.31
595.89	105.31
596.1	109.31
596.309	109.31
596.518	106.31
596.727	112.31
596.937	110.31
597.146	118.31
597.355	115.31
597.564	93.31
597.774	126.31
597.983	97.31
598.192	109.31
598.401	102.31
598.61	112.31
598.819	106.31
599.028	108.31
599.237	111.31
599.446	125.31
599.655	131.31
599.864	120.31
600.073	98.31
600.282	115.31
600.491	107.31
600.7	118.31
600.909	116.31
601.118	110.31
601.327	107.31
601.536	128.31
601.745	117.31
601.953	122.31
602.162	110.31
602.371	116.31
602.58	110.31
602.789	120.31
602.997	129.31
603.206	151.31
603.415	119.31
603.623	100.31
603.832	106.31
604.041	107.31
604.249	120.31
604.458	105.31
604.666	115.31
604.875	106.31
605.084	115.31
605.292	102.31
605.501	111.31
605.709	126.31
605.918	129.31
606.126	110.31
606.334	111.31
606.543	110.31
606.751	111.31
606.96	111.31
607.168	113.31
607.376	115.31
607.585	108.31
607.793	113.31
608.001	125.31
608.21	100.31
608.418	107.31
608.626	111.31
608.834	119.31
609.043	126.31
609.251	103.31
609.459	105.31
609.667	113.31
609.875	115.31
610.083	113.31
610.291	113.31
610.499	116.31
610.707	105.31
610.916	108.31
611.124	121.31
611.332	117.31
611.54	107.31
611.748	115.31
611.955	116.31
612.163	109.31
612.371	105.31
612.579	103.31
612.787	110.31
612.995	138.31
613.203	132.31
613.411	121.31
613.618	105.31
613.826	101.31
614.034	102.31
614.242	124.31
614.449	100.31
614.657	109.31
614.865	113.31
615.072	100.31
615.28	103.31
615.488	124.31
615.695	105.31
615.903	103.31
616.111	124.31
616.318	135.31
616.526	118.31
616.733	125.31
616.941	106.31
617.148	122.31
617.356	111.31
617.563	113.31
617.771	118.31
617.978	103.31
618.185	118.31
618.393	123.31
618.6	116.31
618.807	107.31
619.015	88.31
619.222	100.31
619.429	124.31
619.637	116.31
619.844	124.31
620.051	116.31
620.258	98.31
620.466	127.31
620.673	98.31
620.88	100.31
621.087	101.31
621.294	113.31
621.501	109.31
621.708	124.31
621.915	108.31
622.122	102.31
622.329	119.31
622.536	107.31
622.743	98.31
622.95	102.31
623.157	104.31
623.364	91.31
623.571	105.31
623.778	106.31
623.985	110.31
624.192	112.31
624.399	113.31
624.606	110.31
624.812	105.31
625.019	103.31
625.226	101.31
625.433	123.31
625.639	124.31
625.846	108.31
626.053	113.31
626.259	110.31
626.466	104.31
626.673	94.31
626.879	105.31
627.086	115.31
627.293	131.31
627.499	106.31
627.706	101.31
627.912	105.31
628.119	95.31
628.325	103.31
628.532	113.31
628.738	95.31
628.945	115.31
629.151	97.31
629.357	94.31
629.564	106.31
629.77	116.31
629.976	100.31
630.183	100.31
630.389	101.31
630.595	97.31
630.802	97.31
631.008	98.31
631.214	126.31
631.42	111.31
631.627	127.31
631.833	96.31
632.039	113.31
632.245	109.31
632.451	94.31
632.657	97.31
632.863	85.31
633.069	107.31
633.275	115.31
633.481	95.31
633.688	119.31
633.893	115.31
634.099	111.31
634.305	107.31
634.511	92.31
634.717	121.31
634.923	101.31
635.129	85.31
635.335	89.31
635.541	97.31
635.747	91.31
635.952	96.31
636.158	108.31
636.364	93.31
636.57	107.31
636.775	105.31
636.981	100.31
637.187	102.31
637.392	107.31
637.598	98.31
637.804	99.31
638.009	110.31
638.215	101.31
638.421	89.31
638.626	86.31
638.832	92.31
639.037	87.31
639.243	95.31
639.448	101.31
639.654	116.31
639.859	101.31
640.065	95.31
640.27	122.31
640.475	116.31
640.681	103.31
640.886	95.31
641.091	91.31
641.297	120.31
641.502	105.31
641.707	92.31
641.913	103.31
642.118	83.31
642.323	109.31
642.528	117.31
642.733	113.31
642.939	101.31
643.144	100.31
643.349	111.31
643.554	106.31
643.759	107.31
643.964	82.31
644.169	102.31
644.374	102.31
644.579	112.31
644.784	100.31
644.989	103.31
645.194	83.31
645.399	116.31
645.604	99.31
645.809	121.31
646.014	95.31
646.219	107.31
646.423	91.31
646.628	97.31
646.833	91.31
647.038	123.31
647.243	108.31
647.447	103.31
647.652	101.31
647.857	86.31
648.062	88.31
648.266	96.31
648.471	97.31
648.676	94.31
648.88	97.31
649.085	97.31
649.289	91.31
649.494	89.31
649.698	103.31
649.903	108.31
650.107	105.31
650.312	121.31
650.516	94.31
650.721	99.31
650.925	87.31
651.13	92.31
651.334	83.31
651.539	105.31
651.743	101.31
651.947	107.31
652.152	102.31
652.356	98.31
652.56	109.31
652.764	89.31
652.969	81.31
653.173	96.31
653.377	93.31
653.581	92.31
653.785	105.31
653.99	96.31
654.194	83.31
654.398	102.31
654.602	95.31
654.806	83.31
655.01	98.31
655.214	97.31
655.418	85.31
655.622	106.31
655.826	90.31
656.03	76.31
656.234	97.31
656.438	89.31
656.642	94.31
656.846	91.31
657.049	99.31
657.253	106.31
657.457	91.31
657.661	105.31
657.865	90.31
658.068	89.31
658.272	81.31
658.476	100.31
658.68	73.31
658.883	79.31
659.087	87.31
659.291	100.31
659.494	105.31
659.698	86.31
659.901	91.31
660.105	86.31
660.309	79.31
660.512	83.31
660.716	85.31
660.919	99.31
661.123	112.31
661.326	80.31
661.53	90.31
661.733	112.31
661.936	83.31
662.14	84.31
662.343	87.31
662.546	91.31
662.75	98.31
662.953	99.31
663.156	125.31
663.36	102.31
663.563	92.31
663.766	91.31
663.969	89.31
664.173	95.31
664.376	92.31
664.579	85.31
664.782	90.31
664.985	92.31
665.188	77.31
665.391	93.31
665.594	84.31
665.797	80.31
666	86.31
666.203	103.31
666.406	80.31
666.609	82.31
666.812	107.31
667.015	87.31
667.218	105.31
667.421	89.31
667.624	93.31
667.827	103.31
668.03	92.31
668.232	82.31
668.435	94.31
668.638	81.31
668.841	86.31
669.043	85.31
669.246	94.31
669.449	85.31
669.651	102.31
669.854	89.31
670.057	79.31
670.259	77.31
670.462	83.31
670.665	80.31
670.867	89.31
671.07	92.31
671.272	105.31
671.475	106.31
671.677	87.31
671.88	80.31
672.082	84.31
672.284	96.31
672.487	102.31
672.689	84.31
672.892	91.31
