Data from Soil_50_3_HRD10591_00007.txt Node
Date: Thu Feb 19 11:32:23 EST 2026
User: Yrep
Spectrometer: HR+D1059
Trigger mode: 1
Integration Time (sec): 1.000000E-1
Scans to average: 1
Electric dark correction enabled: true
Nonlinearity correction enabled: false
Boxcar width: 0
XAxis mode: Wavelengths
Number of Pixels in Spectrum: 2048
>>>>>Begin Spectral Data<<<<<
223.165	-20.25
223.4	-20.25
223.635	-20.25
223.869	-22.25
224.104	-27.25
224.338	-7.25
224.573	-25.25
224.808	-11.25
225.042	-10.25
225.277	2.75
225.511	11.75
225.746	0.75
225.98	11.75
226.215	8.75
226.449	4.75
226.683	13.75
226.918	29.75
227.152	39.75
227.387	48.75
227.621	27.75
227.856	35.75
228.09	40.75
228.324	38.75
228.559	57.75
228.793	50.75
229.027	57.75
229.262	65.75
229.496	66.75
229.73	59.75
229.964	70.75
230.199	60.75
230.433	69.75
230.667	66.75
230.901	66.75
231.136	64.75
231.37	67.75
231.604	81.75
231.838	65.75
232.072	82.75
232.306	67.75
232.541	70.75
232.775	69.75
233.009	77.75
233.243	80.75
233.477	70.75
233.711	82.75
233.945	73.75
234.179	78.75
234.413	78.75
234.647	85.75
234.881	71.75
235.115	87.75
235.349	86.75
235.583	78.75
235.817	78.75
236.051	79.75
236.285	67.75
236.519	72.75
236.753	76.75
236.987	73.75
237.221	78.75
237.455	78.75
237.689	68.75
237.922	81.75
238.156	76.75
238.39	76.75
238.624	70.75
238.858	74.75
239.091	80.75
239.325	80.75
239.559	78.75
239.793	62.75
240.027	79.75
240.26	68.75
240.494	66.75
240.728	69.75
240.961	66.75
241.195	63.75
241.429	79.75
241.662	61.75
241.896	62.75
242.13	67.75
242.363	65.75
242.597	68.75
242.83	64.75
243.064	74.75
243.298	68.75
243.531	68.75
243.765	67.75
243.998	82.75
244.232	78.75
244.465	76.75
244.699	75.75
244.932	87.75
245.166	79.75
245.399	70.75
245.633	65.75
245.866	70.75
246.099	73.75
246.333	70.75
246.566	68.75
246.8	63.75
247.033	75.75
247.266	82.75
247.5	70.75
247.733	76.75
247.966	64.75
248.2	78.75
248.433	77.75
248.666	75.75
248.899	73.75
249.133	78.75
249.366	70.75
249.599	72.75
249.832	71.75
250.066	71.75
250.299	67.75
250.532	81.75
250.765	77.75
250.998	76.75
251.231	72.75
251.465	85.75
251.698	79.75
251.931	81.75
252.164	68.75
252.397	84.75
252.63	69.75
252.863	82.75
253.096	80.75
253.329	84.75
253.562	71.75
253.795	77.75
254.028	68.75
254.261	77.75
254.494	53.75
254.727	70.75
254.96	74.75
255.193	78.75
255.426	80.75
255.659	66.75
255.892	76.75
256.124	62.75
256.357	77.75
256.59	83.75
256.823	75.75
257.056	84.75
257.289	68.75
257.521	70.75
257.754	83.75
257.987	81.75
258.22	76.75
258.452	69.75
258.685	80.75
258.918	72.75
259.151	74.75
259.383	75.75
259.616	66.75
259.849	80.75
260.081	56.75
260.314	68.75
260.547	78.75
260.779	77.75
261.012	77.75
261.244	96.75
261.477	87.75
261.71	78.75
261.942	90.75
262.175	72.75
262.407	69.75
262.64	84.75
262.872	76.75
263.105	69.75
263.337	82.75
263.57	76.75
263.802	84.75
264.035	69.75
264.267	83.75
264.499	76.75
264.732	86.75
264.964	76.75
265.197	84.75
265.429	69.75
265.661	77.75
265.894	72.75
266.126	76.75
266.358	82.75
266.591	78.75
266.823	84.75
267.055	78.75
267.287	74.75
267.52	81.75
267.752	82.75
267.984	74.75
268.216	83.75
268.448	90.75
268.681	80.75
268.913	86.75
269.145	65.75
269.377	78.75
269.609	72.75
269.841	68.75
270.073	91.75
270.306	81.75
270.538	86.75
270.77	75.75
271.002	84.75
271.234	76.75
271.466	94.75
271.698	74.75
271.93	83.75
272.162	74.75
272.394	79.75
272.626	82.75
272.858	81.75
273.09	85.75
273.322	87.75
273.553	83.75
273.785	80.75
274.017	84.75
274.249	83.75
274.481	74.75
274.713	70.75
274.945	84.75
275.176	93.75
275.408	78.75
275.64	82.75
275.872	80.75
276.104	84.75
276.335	83.75
276.567	79.75
276.799	101.75
277.031	85.75
277.262	92.75
277.494	87.75
277.726	91.75
277.957	87.75
278.189	86.75
278.421	68.75
278.652	90.75
278.884	93.75
279.115	100.75
279.347	129.75
279.579	136.75
279.81	140.75
280.042	129.75
280.273	112.75
280.505	113.75
280.736	95.75
280.968	82.75
281.199	101.75
281.431	96.75
281.662	78.75
281.894	75.75
282.125	77.75
282.356	87.75
282.588	83.75
282.819	78.75
283.051	77.75
283.282	85.75
283.513	79.75
283.745	86.75
283.976	81.75
284.207	97.75
284.439	78.75
284.67	76.75
284.901	89.75
285.132	86.75
285.364	80.75
285.595	87.75
285.826	77.75
286.057	94.75
286.288	91.75
286.52	80.75
286.751	82.75
286.982	83.75
287.213	89.75
287.444	82.75
287.675	84.75
287.906	84.75
288.138	79.75
288.369	89.75
288.6	80.75
288.831	109.75
289.062	79.75
289.293	77.75
289.524	84.75
289.755	89.75
289.986	87.75
290.217	76.75
290.448	86.75
290.679	90.75
290.91	92.75
291.141	80.75
291.371	86.75
291.602	74.75
291.833	81.75
292.064	87.75
292.295	86.75
292.526	80.75
292.757	87.75
292.987	87.75
293.218	89.75
293.449	75.75
293.68	104.75
293.91	86.75
294.141	88.75
294.372	80.75
294.603	85.75
294.833	90.75
295.064	76.75
295.295	80.75
295.525	78.75
295.756	89.75
295.987	86.75
296.217	80.75
296.448	87.75
296.679	86.75
296.909	92.75
297.14	73.75
297.37	92.75
297.601	84.75
297.831	82.75
298.062	94.75
298.292	72.75
298.523	91.75
298.753	78.75
298.984	94.75
299.214	83.75
299.445	72.75
299.675	82.75
299.905	90.75
300.136	91.75
300.366	72.75
300.597	84.75
300.827	86.75
301.057	80.75
301.288	80.75
301.518	83.75
301.748	79.75
301.979	89.75
302.209	76.75
302.439	86.75
302.669	98.75
302.9	73.75
303.13	84.75
303.36	92.75
303.59	81.75
303.82	100.75
304.051	87.75
304.281	79.75
304.511	89.75
304.741	97.75
304.971	87.75
305.201	74.75
305.431	91.75
305.661	79.75
305.891	86.75
306.121	94.75
306.352	78.75
306.582	92.75
306.812	86.75
307.042	93.75
307.272	79.75
307.502	90.75
307.731	81.75
307.961	91.75
308.191	83.75
308.421	69.75
308.651	93.75
308.881	85.75
309.111	88.75
309.341	88.75
309.571	98.75
309.8	82.75
310.03	83.75
310.26	88.75
310.49	63.75
310.72	82.75
310.949	75.75
311.179	88.75
311.409	91.75
311.639	78.75
311.868	82.75
312.098	84.75
312.328	85.75
312.557	88.75
312.787	86.75
313.017	96.75
313.246	83.75
313.476	106.75
313.706	98.75
313.935	90.75
314.165	79.75
314.394	95.75
314.624	93.75
314.853	85.75
315.083	81.75
315.312	105.75
315.542	108.75
315.771	109.75
316.001	111.75
316.23	105.75
316.46	86.75
316.689	100.75
316.919	97.75
317.148	93.75
317.377	96.75
317.607	104.75
317.836	110.75
318.065	112.75
318.295	124.75
318.524	93.75
318.753	100.75
318.983	82.75
319.212	89.75
319.441	99.75
319.67	96.75
319.9	84.75
320.129	86.75
320.358	89.75
320.587	96.75
320.816	85.75
321.046	94.75
321.275	90.75
321.504	91.75
321.733	84.75
321.962	102.75
322.191	90.75
322.42	85.75
322.649	79.75
322.878	90.75
323.108	96.75
323.337	87.75
323.566	96.75
323.795	72.75
324.024	89.75
324.253	84.75
324.482	90.75
324.71	90.75
324.939	91.75
325.168	99.75
325.397	76.75
325.626	90.75
325.855	79.75
326.084	104.75
326.313	92.75
326.542	85.75
326.77	89.75
326.999	84.75
327.228	92.75
327.457	92.75
327.686	101.75
327.914	75.75
328.143	91.75
328.372	102.75
328.6	83.75
328.829	94.75
329.058	95.75
329.287	90.75
329.515	92.75
329.744	76.75
329.972	80.75
330.201	97.75
330.43	91.75
330.658	80.75
330.887	86.75
331.115	96.75
331.344	96.75
331.572	89.75
331.801	92.75
332.03	89.75
332.258	96.75
332.486	95.75
332.715	74.75
332.943	98.75
333.172	98.75
333.4	93.75
333.629	86.75
333.857	90.75
334.085	91.75
334.314	80.75
334.542	84.75
334.771	82.75
334.999	69.75
335.227	89.75
335.455	79.75
335.684	94.75
335.912	113.75
336.14	79.75
336.369	77.75
336.597	88.75
336.825	84.75
337.053	93.75
337.281	76.75
337.51	86.75
337.738	87.75
337.966	76.75
338.194	88.75
338.422	100.75
338.65	96.75
338.878	93.75
339.106	90.75
339.334	93.75
339.562	86.75
339.79	92.75
340.018	97.75
340.246	86.75
340.474	89.75
340.702	84.75
340.93	102.75
341.158	85.75
341.386	89.75
341.614	82.75
341.842	96.75
342.07	94.75
342.298	80.75
342.526	86.75
342.754	83.75
342.981	79.75
343.209	80.75
343.437	107.75
343.665	85.75
343.893	77.75
344.12	97.75
344.348	81.75
344.576	75.75
344.804	84.75
345.031	69.75
345.259	82.75
345.487	86.75
345.714	91.75
345.942	95.75
346.17	92.75
346.397	87.75
346.625	91.75
346.853	98.75
347.08	92.75
347.308	94.75
347.535	91.75
347.763	80.75
347.99	92.75
348.218	94.75
348.445	87.75
348.673	80.75
348.9	79.75
349.128	86.75
349.355	82.75
349.583	105.75
349.81	96.75
350.037	90.75
350.265	82.75
350.492	89.75
350.72	89.75
350.947	90.75
351.174	89.75
351.402	89.75
351.629	93.75
351.856	94.75
352.083	92.75
352.311	98.75
352.538	85.75
352.765	86.75
352.992	85.75
353.22	87.75
353.447	76.75
353.674	74.75
353.901	79.75
354.128	74.75
354.355	91.75
354.583	96.75
354.81	82.75
355.037	83.75
355.264	76.75
355.491	96.75
355.718	81.75
355.945	91.75
356.172	86.75
356.399	84.75
356.626	99.75
356.853	82.75
357.08	84.75
357.307	96.75
357.534	76.75
357.761	87.75
357.988	98.75
358.215	88.75
358.441	85.75
358.668	104.75
358.895	81.75
359.122	92.75
359.349	85.75
359.576	81.75
359.802	87.75
360.029	86.75
360.256	88.75
360.483	74.75
360.709	94.75
360.936	94.75
361.163	86.75
361.39	91.75
361.616	88.75
361.843	77.75
362.07	87.75
362.296	80.75
362.523	85.75
362.749	91.75
362.976	92.75
363.203	92.75
363.429	83.75
363.656	86.75
363.882	92.75
364.109	87.75
364.335	84.75
364.562	84.75
364.788	79.75
365.015	93.75
365.241	94.75
365.468	88.75
365.694	90.75
365.92	97.75
366.147	86.75
366.373	97.75
366.599	76.75
366.826	96.75
367.052	91.75
367.278	87.75
367.505	82.75
367.731	99.75
367.957	84.75
368.184	82.75
368.41	93.75
368.636	90.75
368.862	81.75
369.089	85.75
369.315	86.75
369.541	85.75
369.767	89.75
369.993	74.75
370.219	80.75
370.445	83.75
370.672	97.75
370.898	106.75
371.124	82.75
371.35	80.75
371.576	98.75
371.802	84.75
372.028	96.75
372.254	90.75
372.48	87.75
372.706	94.75
372.932	89.75
373.158	108.75
373.384	105.75
373.61	108.75
373.835	87.75
374.061	100.75
374.287	94.75
374.513	86.75
374.739	97.75
374.965	97.75
375.191	86.75
375.416	84.75
375.642	106.75
375.868	93.75
376.094	89.75
376.319	91.75
376.545	100.75
376.771	84.75
376.997	90.75
377.222	93.75
377.448	81.75
377.674	88.75
377.899	78.75
378.125	84.75
378.35	92.75
378.576	90.75
378.802	86.75
379.027	90.75
379.253	82.75
379.478	92.75
379.704	98.75
379.929	93.75
380.155	98.75
380.38	87.75
380.606	97.75
380.831	75.75
381.057	96.75
381.282	100.75
381.507	92.75
381.733	95.75
381.958	96.75
382.184	96.75
382.409	98.75
382.634	106.75
382.86	106.75
383.085	105.75
383.31	104.75
383.535	116.75
383.761	116.75
383.986	118.75
384.211	103.75
384.436	94.75
384.662	86.75
384.887	98.75
385.112	96.75
385.337	98.75
385.562	96.75
385.787	92.75
386.013	87.75
386.238	111.75
386.463	96.75
386.688	106.75
386.913	101.75
387.138	104.75
387.363	94.75
387.588	112.75
387.813	93.75
388.038	106.75
388.263	96.75
388.488	95.75
388.713	99.75
388.938	89.75
389.163	92.75
389.387	107.75
389.612	90.75
389.837	88.75
390.062	102.75
390.287	99.75
390.512	98.75
390.736	92.75
390.961	86.75
391.186	92.75
391.411	88.75
391.636	90.75
391.86	102.75
392.085	99.75
392.31	109.75
392.534	123.75
392.759	121.75
392.984	173.75
393.208	256.75
393.433	323.75
393.658	243.75
393.882	134.75
394.107	115.75
394.331	107.75
394.556	101.75
394.78	96.75
395.005	92.75
395.229	91.75
395.454	90.75
395.678	96.75
395.903	117.75
396.127	122.75
396.352	122.75
396.576	170.75
396.801	227.75
397.025	226.75
397.249	138.75
397.474	102.75
397.698	112.75
397.922	108.75
398.147	91.75
398.371	105.75
398.595	107.75
398.82	88.75
399.044	78.75
399.268	105.75
399.492	101.75
399.717	96.75
399.941	91.75
400.165	106.75
400.389	89.75
400.613	97.75
400.837	106.75
401.062	75.75
401.286	98.75
401.51	87.75
401.734	102.75
401.958	93.75
402.182	87.75
402.406	92.75
402.63	97.75
402.854	96.75
403.078	84.75
403.302	97.75
403.526	104.75
403.75	112.75
403.974	101.75
404.198	111.75
404.422	99.75
404.645	77.75
404.869	106.75
405.093	98.75
405.317	90.75
405.541	100.75
405.765	104.75
405.988	94.75
406.212	100.75
406.436	104.75
406.66	91.75
406.883	88.75
407.107	95.75
407.331	104.75
407.555	98.75
407.778	92.75
408.002	100.75
408.226	84.75
408.449	102.75
408.673	99.75
408.896	84.75
409.12	102.75
409.344	78.75
409.567	94.75
409.791	91.75
410.014	98.75
410.238	100.75
410.461	93.75
410.685	86.75
410.908	92.75
411.132	88.75
411.355	95.75
411.578	100.75
411.802	101.75
412.025	97.75
412.249	107.75
412.472	94.75
412.695	96.75
412.919	96.75
413.142	95.75
413.365	91.75
413.589	94.75
413.812	88.75
414.035	92.75
414.258	85.75
414.482	92.75
414.705	87.75
414.928	103.75
415.151	91.75
415.374	93.75
415.597	96.75
415.821	87.75
416.044	86.75
416.267	88.75
416.49	88.75
416.713	90.75
416.936	92.75
417.159	110.75
417.382	85.75
417.605	90.75
417.828	102.75
418.051	90.75
418.274	94.75
418.497	86.75
418.72	108.75
418.943	80.75
419.166	100.75
419.389	99.75
419.611	94.75
419.834	92.75
420.057	84.75
420.28	93.75
420.503	86.75
420.726	87.75
420.948	79.75
421.171	102.75
421.394	92.75
421.617	101.75
421.839	88.75
422.062	96.75
422.285	108.75
422.507	142.75
422.73	159.75
422.953	148.75
423.175	102.75
423.398	99.75
423.621	101.75
423.843	92.75
424.066	91.75
424.288	92.75
424.511	99.75
424.733	108.75
424.956	110.75
425.178	85.75
425.401	92.75
425.623	96.75
425.846	86.75
426.068	83.75
426.291	86.75
426.513	98.75
426.735	94.75
426.958	87.75
427.18	90.75
427.402	88.75
427.625	77.75
427.847	99.75
428.069	90.75
428.292	84.75
428.514	90.75
428.736	105.75
428.958	100.75
429.181	82.75
429.403	92.75
429.625	92.75
429.847	99.75
430.069	120.75
430.292	117.75
430.514	87.75
430.736	99.75
430.958	105.75
431.18	87.75
431.402	73.75
431.624	89.75
431.846	103.75
432.068	105.75
432.29	89.75
432.512	101.75
432.734	96.75
432.956	98.75
433.178	93.75
433.4	100.75
433.622	107.75
433.844	86.75
434.066	103.75
434.287	90.75
434.509	86.75
434.731	107.75
434.953	97.75
435.175	90.75
435.397	91.75
435.618	94.75
435.84	75.75
436.062	88.75
436.284	99.75
436.505	95.75
436.727	90.75
436.949	87.75
437.17	100.75
437.392	96.75
437.614	86.75
437.835	97.75
438.057	100.75
438.278	93.75
438.5	80.75
438.721	92.75
438.943	94.75
439.165	76.75
439.386	98.75
439.608	92.75
439.829	93.75
440.05	87.75
440.272	83.75
440.493	85.75
440.715	90.75
440.936	84.75
441.158	96.75
441.379	84.75
441.6	95.75
441.822	105.75
442.043	94.75
442.264	83.75
442.486	112.75
442.707	113.75
442.928	114.75
443.149	107.75
443.371	107.75
443.592	117.75
443.813	107.75
444.034	99.75
444.255	112.75
444.476	85.75
444.698	104.75
444.919	96.75
445.14	164.75
445.361	157.75
445.582	132.75
445.803	100.75
446.024	105.75
446.245	86.75
446.466	90.75
446.687	86.75
446.908	100.75
447.129	84.75
447.35	98.75
447.571	86.75
447.792	104.75
448.013	97.75
448.234	96.75
448.455	89.75
448.675	68.75
448.896	82.75
449.117	86.75
449.338	84.75
449.559	86.75
449.779	105.75
450	85.75
450.221	95.75
450.442	76.75
450.662	85.75
450.883	94.75
451.104	92.75
451.324	90.75
451.545	86.75
451.766	98.75
451.986	78.75
452.207	98.75
452.428	78.75
452.648	100.75
452.869	80.75
453.089	82.75
453.31	82.75
453.53	85.75
453.751	79.75
453.971	70.75
454.192	89.75
454.412	80.75
454.633	86.75
454.853	90.75
455.073	80.75
455.294	76.75
455.514	93.75
455.734	98.75
455.955	85.75
456.175	89.75
456.395	82.75
456.616	86.75
456.836	90.75
457.056	92.75
457.276	81.75
457.497	91.75
457.717	91.75
457.937	105.75
458.157	97.75
458.377	89.75
458.598	108.75
458.818	85.75
459.038	90.75
459.258	91.75
459.478	93.75
459.698	84.75
459.918	86.75
460.138	94.75
460.358	100.75
460.578	94.75
460.798	101.75
461.018	96.75
461.238	102.75
461.458	98.75
461.678	106.75
461.898	96.75
462.118	92.75
462.338	94.75
462.558	97.75
462.777	97.75
462.997	94.75
463.217	100.75
463.437	93.75
463.657	100.75
463.876	106.75
464.096	104.75
464.316	106.75
464.536	97.75
464.755	102.75
464.975	97.75
465.195	101.75
465.414	96.75
465.634	88.75
465.854	86.75
466.073	80.75
466.293	85.75
466.512	87.75
466.732	78.75
466.951	79.75
467.171	81.75
467.391	90.75
467.61	92.75
467.829	96.75
468.049	82.75
468.268	89.75
468.488	103.75
468.707	98.75
468.927	78.75
469.146	94.75
469.365	105.75
469.585	96.75
469.804	95.75
470.023	99.75
470.243	97.75
470.462	105.75
470.681	110.75
470.901	77.75
471.12	84.75
471.339	103.75
471.558	88.75
471.777	88.75
471.997	89.75
472.216	95.75
472.435	92.75
472.654	84.75
472.873	83.75
473.092	85.75
473.311	100.75
473.53	99.75
473.749	99.75
473.968	85.75
474.187	92.75
474.406	99.75
474.625	92.75
474.844	92.75
475.063	82.75
475.282	101.75
475.501	82.75
475.72	86.75
475.939	98.75
476.158	80.75
476.377	93.75
476.596	107.75
476.814	85.75
477.033	88.75
477.252	94.75
477.471	96.75
477.69	101.75
477.908	94.75
478.127	89.75
478.346	96.75
478.564	94.75
478.783	95.75
479.002	87.75
479.22	76.75
479.439	73.75
479.658	95.75
479.876	104.75
480.095	98.75
480.313	93.75
480.532	94.75
480.751	112.75
480.969	93.75
481.188	86.75
481.406	85.75
481.624	92.75
481.843	91.75
482.061	90.75
482.28	74.75
482.498	97.75
482.717	97.75
482.935	90.75
483.153	102.75
483.372	92.75
483.59	99.75
483.808	97.75
484.027	73.75
484.245	94.75
484.463	102.75
484.681	112.75
484.9	93.75
485.118	91.75
485.336	108.75
485.554	93.75
485.772	115.75
485.99	92.75
486.209	105.75
486.427	105.75
486.645	112.75
486.863	91.75
487.081	112.75
487.299	75.75
487.517	94.75
487.735	92.75
487.953	99.75
488.171	105.75
488.389	94.75
488.607	90.75
488.825	102.75
489.043	89.75
489.261	97.75
489.479	102.75
489.696	102.75
489.914	101.75
490.132	107.75
490.35	93.75
490.568	89.75
490.786	92.75
491.003	84.75
491.221	93.75
491.439	105.75
491.657	97.75
491.874	98.75
492.092	104.75
492.31	100.75
492.527	102.75
492.745	98.75
492.963	107.75
493.18	94.75
493.398	90.75
493.615	103.75
493.833	92.75
494.05	92.75
494.268	77.75
494.485	95.75
494.703	101.75
494.92	99.75
495.138	95.75
495.355	95.75
495.573	95.75
495.79	98.75
496.008	102.75
496.225	100.75
496.442	113.75
496.66	92.75
496.877	86.75
497.094	86.75
497.312	96.75
497.529	100.75
497.746	93.75
497.963	97.75
498.181	105.75
498.398	117.75
498.615	95.75
498.832	109.75
499.049	106.75
499.267	105.75
499.484	108.75
499.701	108.75
499.918	108.75
500.135	114.75
500.352	124.75
500.569	125.75
500.786	118.75
501.003	122.75
501.22	126.75
501.437	117.75
501.654	100.75
501.871	97.75
502.088	110.75
502.305	115.75
502.522	103.75
502.739	101.75
502.956	104.75
503.172	112.75
503.389	106.75
503.606	96.75
503.823	92.75
504.04	87.75
504.256	106.75
504.473	100.75
504.69	110.75
504.907	96.75
505.123	90.75
505.34	98.75
505.557	95.75
505.773	96.75
505.99	100.75
506.207	101.75
506.423	92.75
506.64	88.75
506.856	92.75
507.073	92.75
507.289	95.75
507.506	98.75
507.722	75.75
507.939	85.75
508.155	98.75
508.372	89.75
508.588	85.75
508.805	102.75
509.021	101.75
509.238	91.75
509.454	101.75
509.67	86.75
509.887	96.75
510.103	98.75
510.319	114.75
510.536	93.75
510.752	88.75
510.968	84.75
511.184	84.75
511.401	101.75
511.617	107.75
511.833	101.75
512.049	89.75
512.265	88.75
512.481	104.75
512.698	99.75
512.914	102.75
513.13	101.75
513.346	89.75
513.562	89.75
513.778	83.75
513.994	80.75
514.21	108.75
514.426	100.75
514.642	104.75
514.858	95.75
515.074	94.75
515.29	95.75
515.506	92.75
515.721	91.75
515.937	105.75
516.153	98.75
516.369	96.75
516.585	103.75
516.801	106.75
517.016	114.75
517.232	118.75
517.448	129.75
517.664	103.75
517.879	94.75
518.095	88.75
518.311	116.75
518.527	142.75
518.742	117.75
518.958	100.75
519.173	106.75
519.389	104.75
519.605	100.75
519.82	80.75
520.036	112.75
520.251	112.75
520.467	89.75
520.682	87.75
520.898	102.75
521.113	82.75
521.329	100.75
521.544	96.75
521.76	88.75
521.975	107.75
522.19	92.75
522.406	85.75
522.621	91.75
522.836	86.75
523.052	98.75
523.267	86.75
523.482	96.75
523.698	93.75
523.913	98.75
524.128	101.75
524.343	110.75
524.559	114.75
524.774	102.75
524.989	94.75
525.204	108.75
525.419	90.75
525.634	101.75
525.849	84.75
526.064	109.75
526.28	96.75
526.495	135.75
526.71	133.75
526.925	122.75
527.14	138.75
527.355	115.75
527.57	99.75
527.785	104.75
527.999	91.75
528.214	96.75
528.429	98.75
528.644	95.75
528.859	91.75
529.074	113.75
529.289	84.75
529.503	76.75
529.718	80.75
529.933	86.75
530.148	94.75
530.363	90.75
530.577	92.75
530.792	94.75
531.007	82.75
531.221	86.75
531.436	89.75
531.651	76.75
531.865	107.75
532.08	108.75
532.295	104.75
532.509	106.75
532.724	93.75
532.938	100.75
533.153	101.75
533.367	92.75
533.582	97.75
533.796	110.75
534.011	102.75
534.225	93.75
534.44	91.75
534.654	90.75
534.868	97.75
535.083	109.75
535.297	81.75
535.511	83.75
535.726	86.75
535.94	85.75
536.154	90.75
536.369	83.75
536.583	101.75
536.797	97.75
537.011	90.75
537.225	94.75
537.44	91.75
537.654	84.75
537.868	86.75
538.082	80.75
538.296	86.75
538.51	108.75
538.724	92.75
538.938	85.75
539.153	104.75
539.367	84.75
539.581	92.75
539.795	82.75
540.009	98.75
540.222	93.75
540.436	100.75
540.65	98.75
540.864	97.75
541.078	96.75
541.292	94.75
541.506	85.75
541.72	94.75
541.934	99.75
542.147	86.75
542.361	93.75
542.575	98.75
542.789	97.75
543.002	110.75
543.216	98.75
543.43	79.75
543.644	84.75
543.857	88.75
544.071	88.75
544.285	99.75
544.498	101.75
544.712	92.75
544.925	100.75
545.139	84.75
545.352	86.75
545.566	99.75
545.779	76.75
545.993	98.75
546.206	100.75
546.42	97.75
546.633	98.75
546.847	109.75
547.06	89.75
547.274	85.75
547.487	100.75
547.7	108.75
547.914	79.75
548.127	99.75
548.34	94.75
548.554	106.75
548.767	104.75
548.98	102.75
549.193	106.75
549.407	96.75
549.62	100.75
549.833	90.75
550.046	97.75
550.259	101.75
550.473	99.75
550.686	102.75
550.899	106.75
551.112	103.75
551.325	113.75
551.538	109.75
551.751	97.75
551.964	90.75
552.177	100.75
552.39	97.75
552.603	97.75
552.816	97.75
553.029	101.75
553.242	116.75
553.455	108.75
553.667	117.75
553.88	107.75
554.093	116.75
554.306	112.75
554.519	115.75
554.732	116.75
554.944	109.75
555.157	104.75
555.37	82.75
555.583	98.75
555.795	100.75
556.008	108.75
556.221	102.75
556.433	96.75
556.646	102.75
556.859	95.75
557.071	95.75
557.284	109.75
557.496	72.75
557.709	86.75
557.921	85.75
558.134	91.75
558.346	103.75
558.559	110.75
558.771	99.75
558.984	136.75
559.196	141.75
559.409	116.75
559.621	122.75
559.833	112.75
560.046	117.75
560.258	120.75
560.47	112.75
560.683	98.75
560.895	113.75
561.107	93.75
561.32	87.75
561.532	108.75
561.744	100.75
561.956	96.75
562.168	94.75
562.381	103.75
562.593	85.75
562.805	87.75
563.017	90.75
563.229	87.75
563.441	85.75
563.653	91.75
563.865	90.75
564.077	94.75
564.289	106.75
564.501	93.75
564.713	85.75
564.925	92.75
565.137	90.75
565.349	78.75
565.561	99.75
565.773	84.75
565.985	79.75
566.197	108.75
566.408	98.75
566.62	93.75
566.832	90.75
567.044	111.75
567.255	100.75
567.467	98.75
567.679	95.75
567.891	114.75
568.102	100.75
568.314	103.75
568.526	109.75
568.737	117.75
568.949	101.75
569.161	115.75
569.372	105.75
569.584	107.75
569.795	96.75
570.007	115.75
570.218	90.75
570.43	99.75
570.641	90.75
570.853	90.75
571.064	86.75
571.276	105.75
571.487	88.75
571.698	100.75
571.91	101.75
572.121	88.75
572.333	84.75
572.544	85.75
572.755	88.75
572.966	89.75
573.178	88.75
573.389	99.75
573.6	92.75
573.811	94.75
574.023	96.75
574.234	99.75
574.445	97.75
574.656	81.75
574.867	101.75
575.078	91.75
575.289	91.75
575.501	90.75
575.712	84.75
575.923	86.75
576.134	89.75
576.345	96.75
576.556	79.75
576.767	114.75
576.978	88.75
577.188	98.75
577.399	84.75
577.61	92.75
577.821	93.75
578.032	84.75
578.243	85.75
578.454	81.75
578.665	96.75
578.875	82.75
579.086	77.75
579.297	74.75
579.508	102.75
579.718	101.75
579.929	94.75
580.14	99.75
580.35	84.75
580.561	86.75
580.772	80.75
580.982	94.75
581.193	98.75
581.403	90.75
581.614	82.75
581.825	99.75
582.035	85.75
582.246	85.75
582.456	85.75
582.667	94.75
582.877	97.75
583.087	94.75
583.298	90.75
583.508	72.75
583.719	90.75
583.929	83.75
584.139	64.75
584.35	82.75
584.56	85.75
584.77	94.75
584.981	80.75
585.191	81.75
585.401	96.75
585.611	90.75
585.821	106.75
586.032	127.75
586.242	99.75
586.452	91.75
586.662	77.75
586.872	84.75
587.082	87.75
587.292	91.75
587.502	95.75
587.713	100.75
587.923	96.75
588.133	110.75
588.343	113.75
588.553	100.75
588.762	144.75
588.972	217.75
589.182	298.75
589.392	248.75
589.602	212.75
589.812	265.75
590.022	198.75
590.232	158.75
590.441	110.75
590.651	102.75
590.861	88.75
591.071	104.75
591.281	105.75
591.49	95.75
591.7	84.75
591.91	111.75
592.119	102.75
592.329	124.75
592.539	90.75
592.748	104.75
592.958	83.75
593.167	94.75
593.377	104.75
593.587	107.75
593.796	93.75
594.006	102.75
594.215	104.75
594.424	104.75
594.634	93.75
594.843	108.75
595.053	87.75
595.262	98.75
595.472	94.75
595.681	87.75
595.89	99.75
596.1	90.75
596.309	78.75
596.518	88.75
596.727	115.75
596.937	96.75
597.146	78.75
597.355	98.75
597.564	92.75
597.774	94.75
597.983	84.75
598.192	93.75
598.401	96.75
598.61	98.75
598.819	97.75
599.028	101.75
599.237	107.75
599.446	89.75
599.655	109.75
599.864	99.75
600.073	96.75
600.282	96.75
600.491	101.75
600.7	93.75
600.909	81.75
601.118	73.75
601.327	88.75
601.536	95.75
601.745	100.75
601.953	91.75
602.162	100.75
602.371	89.75
602.58	77.75
602.789	89.75
602.997	104.75
603.206	103.75
603.415	94.75
603.623	96.75
603.832	100.75
604.041	97.75
604.249	97.75
604.458	106.75
604.666	76.75
604.875	86.75
605.084	94.75
605.292	90.75
605.501	84.75
605.709	85.75
605.918	94.75
606.126	96.75
606.334	91.75
606.543	98.75
606.751	93.75
606.96	102.75
607.168	93.75
607.376	78.75
607.585	94.75
607.793	84.75
608.001	82.75
608.21	110.75
608.418	83.75
608.626	94.75
608.834	88.75
609.043	101.75
609.251	98.75
609.459	87.75
609.667	104.75
609.875	87.75
610.083	89.75
610.291	105.75
610.499	98.75
610.707	76.75
610.916	101.75
611.124	100.75
611.332	96.75
611.54	82.75
611.748	85.75
611.955	87.75
612.163	100.75
612.371	111.75
612.579	104.75
612.787	84.75
612.995	102.75
613.203	104.75
613.411	94.75
613.618	87.75
613.826	104.75
614.034	97.75
614.242	104.75
614.449	92.75
614.657	97.75
614.865	104.75
615.072	93.75
615.28	96.75
615.488	109.75
615.695	104.75
615.903	109.75
616.111	107.75
616.318	128.75
616.526	151.75
616.733	96.75
616.941	119.75
617.148	120.75
617.356	112.75
617.563	101.75
617.771	117.75
617.978	112.75
618.185	113.75
618.393	98.75
618.6	107.75
618.807	126.75
619.015	96.75
619.222	108.75
619.429	106.75
619.637	112.75
619.844	92.75
620.051	107.75
620.258	89.75
620.466	108.75
620.673	96.75
620.88	102.75
621.087	107.75
621.294	108.75
621.501	93.75
621.708	95.75
621.915	101.75
622.122	84.75
622.329	91.75
622.536	103.75
622.743	90.75
622.95	101.75
623.157	107.75
623.364	109.75
623.571	96.75
623.778	86.75
623.985	95.75
624.192	102.75
624.399	101.75
624.606	111.75
624.812	96.75
625.019	97.75
625.226	100.75
625.433	101.75
625.639	102.75
625.846	94.75
626.053	69.75
626.259	91.75
626.466	89.75
626.673	96.75
626.879	94.75
627.086	92.75
627.293	78.75
627.499	81.75
627.706	95.75
627.912	92.75
628.119	94.75
628.325	87.75
628.532	90.75
628.738	98.75
628.945	107.75
629.151	84.75
629.357	90.75
629.564	87.75
629.77	84.75
629.976	77.75
630.183	81.75
630.389	83.75
630.595	81.75
630.802	79.75
631.008	79.75
631.214	96.75
631.42	84.75
631.627	84.75
631.833	101.75
632.039	77.75
632.245	84.75
632.451	90.75
632.657	105.75
632.863	84.75
633.069	87.75
633.275	76.75
633.481	92.75
633.688	94.75
633.893	101.75
634.099	81.75
634.305	80.75
634.511	65.75
634.717	85.75
634.923	71.75
635.129	80.75
635.335	82.75
635.541	84.75
635.747	84.75
635.952	90.75
636.158	84.75
636.364	74.75
636.57	83.75
636.775	96.75
636.981	97.75
637.187	74.75
637.392	88.75
637.598	85.75
637.804	76.75
638.009	90.75
638.215	91.75
638.421	82.75
638.626	81.75
638.832	85.75
639.037	92.75
639.243	94.75
639.448	75.75
639.654	78.75
639.859	77.75
640.065	80.75
640.27	84.75
640.475	85.75
640.681	85.75
640.886	78.75
641.091	74.75
641.297	76.75
641.502	76.75
641.707	81.75
641.913	76.75
642.118	91.75
642.323	80.75
642.528	84.75
642.733	89.75
642.939	73.75
643.144	82.75
643.349	76.75
643.554	88.75
643.759	84.75
643.964	88.75
644.169	100.75
644.374	84.75
644.579	80.75
644.784	74.75
644.989	74.75
645.194	90.75
645.399	83.75
645.604	76.75
645.809	82.75
646.014	85.75
646.219	98.75
646.423	92.75
646.628	91.75
646.833	90.75
647.038	92.75
647.243	99.75
647.447	76.75
647.652	97.75
647.857	80.75
648.062	92.75
648.266	78.75
648.471	76.75
648.676	98.75
648.88	86.75
649.085	92.75
649.289	86.75
649.494	84.75
649.698	89.75
649.903	75.75
650.107	73.75
650.312	97.75
650.516	77.75
650.721	85.75
650.925	73.75
651.13	82.75
651.334	77.75
651.539	84.75
651.743	76.75
651.947	74.75
652.152	73.75
652.356	74.75
652.56	93.75
652.764	65.75
652.969	84.75
653.173	84.75
653.377	87.75
653.581	82.75
653.785	76.75
653.99	82.75
654.194	75.75
654.398	96.75
654.602	89.75
654.806	90.75
655.01	80.75
655.214	69.75
655.418	73.75
655.622	83.75
655.826	89.75
656.03	74.75
656.234	86.75
656.438	84.75
656.642	78.75
656.846	81.75
657.049	84.75
657.253	74.75
657.457	68.75
657.661	86.75
657.865	84.75
658.068	78.75
658.272	74.75
658.476	82.75
658.68	85.75
658.883	77.75
659.087	94.75
659.291	69.75
659.494	76.75
659.698	68.75
659.901	80.75
660.105	76.75
660.309	80.75
660.512	76.75
660.716	66.75
660.919	82.75
661.123	82.75
661.326	83.75
661.53	80.75
661.733	84.75
661.936	77.75
662.14	73.75
662.343	72.75
662.546	80.75
662.75	70.75
662.953	76.75
663.156	96.75
663.36	77.75
663.563	85.75
663.766	77.75
663.969	67.75
664.173	80.75
664.376	79.75
664.579	78.75
664.782	86.75
664.985	76.75
665.188	81.75
665.391	81.75
665.594	76.75
665.797	86.75
666	64.75
666.203	76.75
666.406	76.75
666.609	74.75
666.812	86.75
667.015	60.75
667.218	78.75
667.421	78.75
667.624	68.75
667.827	80.75
668.03	67.75
668.232	81.75
668.435	84.75
668.638	75.75
668.841	71.75
669.043	91.75
669.246	82.75
669.449	64.75
669.651	68.75
669.854	81.75
670.057	84.75
670.259	75.75
670.462	84.75
670.665	60.75
670.867	75.75
671.07	74.75
671.272	72.75
671.475	85.75
671.677	77.75
671.88	68.75
672.082	85.75
672.284	68.75
672.487	69.75
672.689	74.75
672.892	76.75
