Data from Soil_50_3_HRD10591_00013.txt Node
Date: Thu Feb 19 11:32:25 EST 2026
User: Yrep
Spectrometer: HR+D1059
Trigger mode: 1
Integration Time (sec): 1.000000E-1
Scans to average: 1
Electric dark correction enabled: true
Nonlinearity correction enabled: false
Boxcar width: 0
XAxis mode: Wavelengths
Number of Pixels in Spectrum: 2048
>>>>>Begin Spectral Data<<<<<
223.165	-13.56
223.4	-13.56
223.635	-13.56
223.869	-14.56
224.104	-11.56
224.338	-9.56
224.573	-15.56
224.808	1.44
225.042	-13.56
225.277	-18.56
225.511	-5.56
225.746	2.44
225.98	3.44
226.215	22.44
226.449	14.44
226.683	11.44
226.918	28.44
227.152	18.44
227.387	38.44
227.621	42.44
227.856	41.44
228.09	45.44
228.324	64.44
228.559	68.44
228.793	68.44
229.027	78.44
229.262	67.44
229.496	75.44
229.73	70.44
229.964	77.44
230.199	78.44
230.433	81.44
230.667	83.44
230.901	85.44
231.136	103.44
231.37	66.44
231.604	82.44
231.838	81.44
232.072	79.44
232.306	80.44
232.541	80.44
232.775	87.44
233.009	81.44
233.243	74.44
233.477	87.44
233.711	82.44
233.945	93.44
234.179	68.44
234.413	74.44
234.647	91.44
234.881	76.44
235.115	73.44
235.349	86.44
235.583	83.44
235.817	59.44
236.051	82.44
236.285	80.44
236.519	61.44
236.753	82.44
236.987	72.44
237.221	81.44
237.455	66.44
237.689	77.44
237.922	74.44
238.156	78.44
238.39	78.44
238.624	76.44
238.858	86.44
239.091	75.44
239.325	74.44
239.559	80.44
239.793	69.44
240.027	77.44
240.26	69.44
240.494	89.44
240.728	72.44
240.961	84.44
241.195	85.44
241.429	75.44
241.662	82.44
241.896	83.44
242.13	68.44
242.363	85.44
242.597	75.44
242.83	67.44
243.064	77.44
243.298	86.44
243.531	86.44
243.765	78.44
243.998	75.44
244.232	73.44
244.465	80.44
244.699	75.44
244.932	80.44
245.166	80.44
245.399	82.44
245.633	80.44
245.866	73.44
246.099	74.44
246.333	81.44
246.566	85.44
246.8	82.44
247.033	77.44
247.266	81.44
247.5	74.44
247.733	77.44
247.966	86.44
248.2	78.44
248.433	92.44
248.666	76.44
248.899	74.44
249.133	80.44
249.366	93.44
249.599	80.44
249.832	75.44
250.066	78.44
250.299	64.44
250.532	74.44
250.765	74.44
250.998	86.44
251.231	94.44
251.465	85.44
251.698	74.44
251.931	77.44
252.164	71.44
252.397	81.44
252.63	74.44
252.863	71.44
253.096	72.44
253.329	80.44
253.562	80.44
253.795	74.44
254.028	80.44
254.261	96.44
254.494	83.44
254.727	100.44
254.96	77.44
255.193	82.44
255.426	82.44
255.659	82.44
255.892	74.44
256.124	82.44
256.357	65.44
256.59	79.44
256.823	81.44
257.056	51.44
257.289	88.44
257.521	83.44
257.754	86.44
257.987	82.44
258.22	94.44
258.452	72.44
258.685	98.44
258.918	76.44
259.151	92.44
259.383	88.44
259.616	89.44
259.849	76.44
260.081	95.44
260.314	82.44
260.547	76.44
260.779	82.44
261.012	77.44
261.244	81.44
261.477	99.44
261.71	80.44
261.942	75.44
262.175	84.44
262.407	84.44
262.64	71.44
262.872	90.44
263.105	81.44
263.337	82.44
263.57	86.44
263.802	75.44
264.035	72.44
264.267	73.44
264.499	69.44
264.732	86.44
264.964	81.44
265.197	78.44
265.429	77.44
265.661	89.44
265.894	87.44
266.126	90.44
266.358	93.44
266.591	74.44
266.823	89.44
267.055	94.44
267.287	84.44
267.52	79.44
267.752	100.44
267.984	83.44
268.216	83.44
268.448	92.44
268.681	88.44
268.913	84.44
269.145	83.44
269.377	79.44
269.609	79.44
269.841	73.44
270.073	84.44
270.306	80.44
270.538	85.44
270.77	84.44
271.002	94.44
271.234	79.44
271.466	88.44
271.698	81.44
271.93	87.44
272.162	69.44
272.394	71.44
272.626	84.44
272.858	96.44
273.09	90.44
273.322	90.44
273.553	82.44
273.785	85.44
274.017	90.44
274.249	77.44
274.481	82.44
274.713	92.44
274.945	91.44
275.176	83.44
275.408	88.44
275.64	77.44
275.872	86.44
276.104	86.44
276.335	82.44
276.567	81.44
276.799	82.44
277.031	85.44
277.262	90.44
277.494	96.44
277.726	80.44
277.957	85.44
278.189	69.44
278.421	75.44
278.652	76.44
278.884	73.44
279.115	91.44
279.347	80.44
279.579	68.44
279.81	86.44
280.042	89.44
280.273	89.44
280.505	80.44
280.736	90.44
280.968	92.44
281.199	86.44
281.431	88.44
281.662	88.44
281.894	89.44
282.125	94.44
282.356	77.44
282.588	86.44
282.819	80.44
283.051	90.44
283.282	88.44
283.513	80.44
283.745	81.44
283.976	81.44
284.207	103.44
284.439	89.44
284.67	87.44
284.901	82.44
285.132	93.44
285.364	84.44
285.595	96.44
285.826	91.44
286.057	79.44
286.288	75.44
286.52	88.44
286.751	82.44
286.982	89.44
287.213	100.44
287.444	78.44
287.675	81.44
287.906	87.44
288.138	91.44
288.369	80.44
288.6	89.44
288.831	84.44
289.062	96.44
289.293	83.44
289.524	82.44
289.755	82.44
289.986	98.44
290.217	77.44
290.448	93.44
290.679	97.44
290.91	83.44
291.141	87.44
291.371	81.44
291.602	89.44
291.833	88.44
292.064	84.44
292.295	87.44
292.526	77.44
292.757	94.44
292.987	110.44
293.218	79.44
293.449	79.44
293.68	77.44
293.91	84.44
294.141	95.44
294.372	88.44
294.603	78.44
294.833	87.44
295.064	85.44
295.295	82.44
295.525	97.44
295.756	100.44
295.987	80.44
296.217	77.44
296.448	94.44
296.679	85.44
296.909	90.44
297.14	85.44
297.37	88.44
297.601	93.44
297.831	76.44
298.062	84.44
298.292	88.44
298.523	85.44
298.753	82.44
298.984	94.44
299.214	81.44
299.445	72.44
299.675	82.44
299.905	89.44
300.136	95.44
300.366	81.44
300.597	98.44
300.827	107.44
301.057	87.44
301.288	89.44
301.518	90.44
301.748	83.44
301.979	96.44
302.209	71.44
302.439	81.44
302.669	80.44
302.9	101.44
303.13	91.44
303.36	79.44
303.59	87.44
303.82	92.44
304.051	86.44
304.281	93.44
304.511	102.44
304.741	92.44
304.971	77.44
305.201	75.44
305.431	86.44
305.661	93.44
305.891	90.44
306.121	73.44
306.352	96.44
306.582	92.44
306.812	92.44
307.042	83.44
307.272	104.44
307.502	77.44
307.731	87.44
307.961	81.44
308.191	86.44
308.421	77.44
308.651	74.44
308.881	80.44
309.111	80.44
309.341	72.44
309.571	80.44
309.8	78.44
310.03	71.44
310.26	82.44
310.49	86.44
310.72	80.44
310.949	93.44
311.179	83.44
311.409	80.44
311.639	106.44
311.868	88.44
312.098	86.44
312.328	86.44
312.557	84.44
312.787	95.44
313.017	80.44
313.246	91.44
313.476	87.44
313.706	84.44
313.935	84.44
314.165	82.44
314.394	78.44
314.624	93.44
314.853	97.44
315.083	90.44
315.312	106.44
315.542	86.44
315.771	92.44
316.001	105.44
316.23	88.44
316.46	71.44
316.689	88.44
316.919	80.44
317.148	77.44
317.377	84.44
317.607	86.44
317.836	91.44
318.065	90.44
318.295	98.44
318.524	80.44
318.753	90.44
318.983	88.44
319.212	95.44
319.441	94.44
319.67	82.44
319.9	103.44
320.129	96.44
320.358	76.44
320.587	93.44
320.816	102.44
321.046	84.44
321.275	76.44
321.504	82.44
321.733	84.44
321.962	83.44
322.191	96.44
322.42	71.44
322.649	86.44
322.878	90.44
323.108	83.44
323.337	96.44
323.566	86.44
323.795	82.44
324.024	89.44
324.253	89.44
324.482	95.44
324.71	100.44
324.939	89.44
325.168	95.44
325.397	89.44
325.626	96.44
325.855	84.44
326.084	84.44
326.313	89.44
326.542	96.44
326.77	77.44
326.999	92.44
327.228	91.44
327.457	82.44
327.686	76.44
327.914	70.44
328.143	95.44
328.372	82.44
328.6	89.44
328.829	95.44
329.058	87.44
329.287	80.44
329.515	86.44
329.744	80.44
329.972	78.44
330.201	80.44
330.43	84.44
330.658	98.44
330.887	91.44
331.115	87.44
331.344	84.44
331.572	94.44
331.801	96.44
332.03	92.44
332.258	86.44
332.486	64.44
332.715	79.44
332.943	87.44
333.172	99.44
333.4	82.44
333.629	84.44
333.857	77.44
334.085	80.44
334.314	99.44
334.542	78.44
334.771	82.44
334.999	83.44
335.227	88.44
335.455	88.44
335.684	87.44
335.912	84.44
336.14	80.44
336.369	87.44
336.597	94.44
336.825	104.44
337.053	97.44
337.281	72.44
337.51	83.44
337.738	87.44
337.966	81.44
338.194	90.44
338.422	89.44
338.65	84.44
338.878	84.44
339.106	91.44
339.334	97.44
339.562	76.44
339.79	96.44
340.018	83.44
340.246	93.44
340.474	86.44
340.702	91.44
340.93	80.44
341.158	89.44
341.386	78.44
341.614	86.44
341.842	78.44
342.07	88.44
342.298	88.44
342.526	95.44
342.754	88.44
342.981	85.44
343.209	81.44
343.437	81.44
343.665	88.44
343.893	88.44
344.12	88.44
344.348	80.44
344.576	92.44
344.804	97.44
345.031	70.44
345.259	76.44
345.487	82.44
345.714	108.44
345.942	91.44
346.17	96.44
346.397	90.44
346.625	84.44
346.853	76.44
347.08	84.44
347.308	76.44
347.535	72.44
347.763	78.44
347.99	92.44
348.218	86.44
348.445	95.44
348.673	86.44
348.9	88.44
349.128	83.44
349.355	86.44
349.583	82.44
349.81	82.44
350.037	87.44
350.265	85.44
350.492	84.44
350.72	83.44
350.947	80.44
351.174	87.44
351.402	80.44
351.629	88.44
351.856	77.44
352.083	76.44
352.311	85.44
352.538	88.44
352.765	73.44
352.992	72.44
353.22	88.44
353.447	72.44
353.674	92.44
353.901	93.44
354.128	85.44
354.355	75.44
354.583	71.44
354.81	80.44
355.037	84.44
355.264	96.44
355.491	76.44
355.718	84.44
355.945	96.44
356.172	81.44
356.399	94.44
356.626	82.44
356.853	90.44
357.08	81.44
357.307	87.44
357.534	82.44
357.761	97.44
357.988	88.44
358.215	93.44
358.441	91.44
358.668	78.44
358.895	80.44
359.122	80.44
359.349	86.44
359.576	80.44
359.802	76.44
360.029	80.44
360.256	90.44
360.483	103.44
360.709	80.44
360.936	100.44
361.163	85.44
361.39	86.44
361.616	80.44
361.843	80.44
362.07	84.44
362.296	86.44
362.523	78.44
362.749	80.44
362.976	74.44
363.203	100.44
363.429	96.44
363.656	88.44
363.882	99.44
364.109	82.44
364.335	92.44
364.562	86.44
364.788	90.44
365.015	96.44
365.241	66.44
365.468	83.44
365.694	78.44
365.92	84.44
366.147	89.44
366.373	87.44
366.599	92.44
366.826	85.44
367.052	94.44
367.278	95.44
367.505	101.44
367.731	109.44
367.957	92.44
368.184	77.44
368.41	85.44
368.636	76.44
368.862	101.44
369.089	89.44
369.315	82.44
369.541	85.44
369.767	91.44
369.993	99.44
370.219	85.44
370.445	83.44
370.672	83.44
370.898	77.44
371.124	74.44
371.35	79.44
371.576	81.44
371.802	92.44
372.028	87.44
372.254	68.44
372.48	96.44
372.706	92.44
372.932	86.44
373.158	88.44
373.384	80.44
373.61	97.44
373.835	76.44
374.061	100.44
374.287	96.44
374.513	87.44
374.739	84.44
374.965	82.44
375.191	90.44
375.416	86.44
375.642	89.44
375.868	100.44
376.094	88.44
376.319	74.44
376.545	75.44
376.771	76.44
376.997	89.44
377.222	83.44
377.448	90.44
377.674	72.44
377.899	89.44
378.125	94.44
378.35	78.44
378.576	94.44
378.802	89.44
379.027	85.44
379.253	94.44
379.478	94.44
379.704	92.44
379.929	91.44
380.155	83.44
380.38	88.44
380.606	84.44
380.831	88.44
381.057	90.44
381.282	88.44
381.507	93.44
381.733	93.44
381.958	94.44
382.184	81.44
382.409	83.44
382.634	93.44
382.86	82.44
383.085	97.44
383.31	86.44
383.535	85.44
383.761	100.44
383.986	90.44
384.211	84.44
384.436	73.44
384.662	76.44
384.887	85.44
385.112	96.44
385.337	80.44
385.562	83.44
385.787	94.44
386.013	95.44
386.238	84.44
386.463	86.44
386.688	91.44
386.913	65.44
387.138	87.44
387.363	84.44
387.588	84.44
387.813	94.44
388.038	77.44
388.263	85.44
388.488	92.44
388.713	86.44
388.938	92.44
389.163	75.44
389.387	95.44
389.612	88.44
389.837	79.44
390.062	77.44
390.287	84.44
390.512	98.44
390.736	92.44
390.961	90.44
391.186	82.44
391.411	78.44
391.636	100.44
391.86	83.44
392.085	80.44
392.31	91.44
392.534	80.44
392.759	80.44
392.984	96.44
393.208	95.44
393.433	110.44
393.658	104.44
393.882	79.44
394.107	92.44
394.331	89.44
394.556	89.44
394.78	86.44
395.005	81.44
395.229	83.44
395.454	82.44
395.678	85.44
395.903	88.44
396.127	94.44
396.352	92.44
396.576	98.44
396.801	100.44
397.025	94.44
397.249	80.44
397.474	95.44
397.698	94.44
397.922	88.44
398.147	87.44
398.371	91.44
398.595	83.44
398.82	92.44
399.044	92.44
399.268	82.44
399.492	82.44
399.717	76.44
399.941	85.44
400.165	76.44
400.389	92.44
400.613	85.44
400.837	72.44
401.062	82.44
401.286	89.44
401.51	79.44
401.734	85.44
401.958	77.44
402.182	83.44
402.406	82.44
402.63	83.44
402.854	80.44
403.078	83.44
403.302	95.44
403.526	100.44
403.75	89.44
403.974	80.44
404.198	88.44
404.422	95.44
404.645	82.44
404.869	88.44
405.093	88.44
405.317	76.44
405.541	71.44
405.765	83.44
405.988	87.44
406.212	84.44
406.436	90.44
406.66	88.44
406.883	88.44
407.107	93.44
407.331	85.44
407.555	87.44
407.778	110.44
408.002	83.44
408.226	92.44
408.449	80.44
408.673	85.44
408.896	89.44
409.12	92.44
409.344	84.44
409.567	78.44
409.791	84.44
410.014	85.44
410.238	87.44
410.461	88.44
410.685	78.44
410.908	72.44
411.132	90.44
411.355	84.44
411.578	94.44
411.802	78.44
412.025	70.44
412.249	83.44
412.472	89.44
412.695	82.44
412.919	83.44
413.142	84.44
413.365	86.44
413.589	81.44
413.812	96.44
414.035	79.44
414.258	82.44
414.482	77.44
414.705	72.44
414.928	94.44
415.151	85.44
415.374	94.44
415.597	84.44
415.821	75.44
416.044	74.44
416.267	78.44
416.49	77.44
416.713	96.44
416.936	76.44
417.159	80.44
417.382	80.44
417.605	90.44
417.828	82.44
418.051	84.44
418.274	79.44
418.497	89.44
418.72	70.44
418.943	84.44
419.166	77.44
419.389	87.44
419.611	97.44
419.834	91.44
420.057	86.44
420.28	94.44
420.503	86.44
420.726	78.44
420.948	70.44
421.171	84.44
421.394	77.44
421.617	84.44
421.839	88.44
422.062	89.44
422.285	91.44
422.507	97.44
422.73	100.44
422.953	95.44
423.175	82.44
423.398	85.44
423.621	75.44
423.843	83.44
424.066	89.44
424.288	87.44
424.511	74.44
424.733	87.44
424.956	90.44
425.178	80.44
425.401	76.44
425.623	79.44
425.846	82.44
426.068	83.44
426.291	89.44
426.513	73.44
426.735	77.44
426.958	75.44
427.18	102.44
427.402	93.44
427.625	92.44
427.847	84.44
428.069	89.44
428.292	92.44
428.514	86.44
428.736	85.44
428.958	75.44
429.181	81.44
429.403	95.44
429.625	86.44
429.847	92.44
430.069	100.44
430.292	100.44
430.514	89.44
430.736	90.44
430.958	82.44
431.18	86.44
431.402	87.44
431.624	82.44
431.846	68.44
432.068	80.44
432.29	94.44
432.512	94.44
432.734	85.44
432.956	89.44
433.178	90.44
433.4	80.44
433.622	101.44
433.844	78.44
434.066	86.44
434.287	74.44
434.509	72.44
434.731	74.44
434.953	76.44
435.175	88.44
435.397	80.44
435.618	77.44
435.84	95.44
436.062	101.44
436.284	77.44
436.505	82.44
436.727	85.44
436.949	87.44
437.17	78.44
437.392	86.44
437.614	87.44
437.835	78.44
438.057	84.44
438.278	79.44
438.5	93.44
438.721	76.44
438.943	84.44
439.165	89.44
439.386	88.44
439.608	71.44
439.829	88.44
440.05	98.44
440.272	71.44
440.493	87.44
440.715	73.44
440.936	77.44
441.158	82.44
441.379	85.44
441.6	80.44
441.822	82.44
442.043	92.44
442.264	86.44
442.486	98.44
442.707	99.44
442.928	101.44
443.149	84.44
443.371	93.44
443.592	99.44
443.813	98.44
444.034	87.44
444.255	78.44
444.476	80.44
444.698	82.44
444.919	66.44
445.14	148.44
445.361	120.44
445.582	106.44
445.803	86.44
446.024	79.44
446.245	98.44
446.466	95.44
446.687	80.44
446.908	80.44
447.129	75.44
447.35	79.44
447.571	77.44
447.792	88.44
448.013	74.44
448.234	75.44
448.455	73.44
448.675	66.44
448.896	86.44
449.117	84.44
449.338	76.44
449.559	88.44
449.779	79.44
450	92.44
450.221	90.44
450.442	94.44
450.662	80.44
450.883	84.44
451.104	77.44
451.324	68.44
451.545	73.44
451.766	92.44
451.986	90.44
452.207	88.44
452.428	94.44
452.648	84.44
452.869	80.44
453.089	72.44
453.31	70.44
453.53	84.44
453.751	84.44
453.971	72.44
454.192	77.44
454.412	91.44
454.633	92.44
454.853	89.44
455.073	90.44
455.294	66.44
455.514	91.44
455.734	85.44
455.955	79.44
456.175	80.44
456.395	87.44
456.616	82.44
456.836	93.44
457.056	86.44
457.276	86.44
457.497	81.44
457.717	80.44
457.937	85.44
458.157	85.44
458.377	80.44
458.598	91.44
458.818	75.44
459.038	90.44
459.258	72.44
459.478	82.44
459.698	76.44
459.918	87.44
460.138	92.44
460.358	80.44
460.578	95.44
460.798	86.44
461.018	93.44
461.238	83.44
461.458	75.44
461.678	95.44
461.898	75.44
462.118	88.44
462.338	103.44
462.558	83.44
462.777	84.44
462.997	87.44
463.217	90.44
463.437	69.44
463.657	80.44
463.876	85.44
464.096	89.44
464.316	75.44
464.536	80.44
464.755	100.44
464.975	72.44
465.195	65.44
465.414	92.44
465.634	76.44
465.854	89.44
466.073	84.44
466.293	78.44
466.512	80.44
466.732	70.44
466.951	83.44
467.171	95.44
467.391	90.44
467.61	85.44
467.829	80.44
468.049	94.44
468.268	85.44
468.488	78.44
468.707	91.44
468.927	89.44
469.146	98.44
469.365	99.44
469.585	82.44
469.804	84.44
470.023	95.44
470.243	76.44
470.462	78.44
470.681	81.44
470.901	68.44
471.12	72.44
471.339	78.44
471.558	85.44
471.777	80.44
471.997	74.44
472.216	76.44
472.435	85.44
472.654	72.44
472.873	87.44
473.092	89.44
473.311	77.44
473.53	70.44
473.749	97.44
473.968	94.44
474.187	85.44
474.406	85.44
474.625	75.44
474.844	75.44
475.063	89.44
475.282	85.44
475.501	82.44
475.72	99.44
475.939	76.44
476.158	68.44
476.377	90.44
476.596	73.44
476.814	73.44
477.033	91.44
477.252	93.44
477.471	80.44
477.69	90.44
477.908	79.44
478.127	83.44
478.346	73.44
478.564	98.44
478.783	88.44
479.002	85.44
479.22	86.44
479.439	103.44
479.658	87.44
479.876	77.44
480.095	80.44
480.313	96.44
480.532	89.44
480.751	86.44
480.969	90.44
481.188	96.44
481.406	80.44
481.624	73.44
481.843	86.44
482.061	93.44
482.28	92.44
482.498	98.44
482.717	76.44
482.935	94.44
483.153	86.44
483.372	91.44
483.59	90.44
483.808	94.44
484.027	89.44
484.245	101.44
484.463	86.44
484.681	91.44
484.9	80.44
485.118	82.44
485.336	87.44
485.554	76.44
485.772	89.44
485.99	95.44
486.209	96.44
486.427	85.44
486.645	87.44
486.863	82.44
487.081	89.44
487.299	73.44
487.517	73.44
487.735	69.44
487.953	93.44
488.171	86.44
488.389	77.44
488.607	83.44
488.825	94.44
489.043	80.44
489.261	88.44
489.479	77.44
489.696	88.44
489.914	72.44
490.132	90.44
490.35	97.44
490.568	78.44
490.786	79.44
491.003	80.44
491.221	90.44
491.439	84.44
491.657	78.44
491.874	82.44
492.092	84.44
492.31	93.44
492.527	93.44
492.745	84.44
492.963	83.44
493.18	79.44
493.398	81.44
493.615	91.44
493.833	83.44
494.05	78.44
494.268	72.44
494.485	80.44
494.703	81.44
494.92	97.44
495.138	90.44
495.355	100.44
495.573	86.44
495.79	90.44
496.008	88.44
496.225	81.44
496.442	84.44
496.66	94.44
496.877	92.44
497.094	86.44
497.312	77.44
497.529	76.44
497.746	83.44
497.963	64.44
498.181	68.44
498.398	77.44
498.615	94.44
498.832	88.44
499.049	84.44
499.267	81.44
499.484	82.44
499.701	88.44
499.918	83.44
500.135	89.44
500.352	84.44
500.569	78.44
500.786	87.44
501.003	98.44
501.22	86.44
501.437	89.44
501.654	74.44
501.871	81.44
502.088	78.44
502.305	77.44
502.522	90.44
502.739	85.44
502.956	68.44
503.172	90.44
503.389	74.44
503.606	89.44
503.823	81.44
504.04	83.44
504.256	89.44
504.473	80.44
504.69	90.44
504.907	86.44
505.123	78.44
505.34	86.44
505.557	89.44
505.773	91.44
505.99	89.44
506.207	84.44
506.423	89.44
506.64	86.44
506.856	80.44
507.073	86.44
507.289	106.44
507.506	85.44
507.722	92.44
507.939	84.44
508.155	75.44
508.372	73.44
508.588	87.44
508.805	95.44
509.021	77.44
509.238	83.44
509.454	63.44
509.67	87.44
509.887	84.44
510.103	86.44
510.319	81.44
510.536	86.44
510.752	90.44
510.968	98.44
511.184	84.44
511.401	83.44
511.617	92.44
511.833	82.44
512.049	96.44
512.265	97.44
512.481	75.44
512.698	81.44
512.914	81.44
513.13	92.44
513.346	82.44
513.562	98.44
513.778	85.44
513.994	93.44
514.21	88.44
514.426	93.44
514.642	80.44
514.858	92.44
515.074	94.44
515.29	81.44
515.506	84.44
515.721	66.44
515.937	90.44
516.153	79.44
516.369	80.44
516.585	85.44
516.801	92.44
517.016	88.44
517.232	81.44
517.448	90.44
517.664	89.44
517.879	82.44
518.095	74.44
518.311	77.44
518.527	113.44
518.742	82.44
518.958	81.44
519.173	95.44
519.389	96.44
519.605	82.44
519.82	78.44
520.036	93.44
520.251	88.44
520.467	89.44
520.682	71.44
520.898	86.44
521.113	88.44
521.329	83.44
521.544	84.44
521.76	73.44
521.975	68.44
522.19	84.44
522.406	87.44
522.621	78.44
522.836	86.44
523.052	92.44
523.267	92.44
523.482	80.44
523.698	82.44
523.913	85.44
524.128	88.44
524.343	78.44
524.559	86.44
524.774	90.44
524.989	75.44
525.204	81.44
525.419	91.44
525.634	94.44
525.849	84.44
526.064	77.44
526.28	93.44
526.495	100.44
526.71	104.44
526.925	84.44
527.14	93.44
527.355	84.44
527.57	84.44
527.785	85.44
527.999	80.44
528.214	98.44
528.429	76.44
528.644	89.44
528.859	89.44
529.074	82.44
529.289	83.44
529.503	70.44
529.718	94.44
529.933	90.44
530.148	84.44
530.363	98.44
530.577	94.44
530.792	86.44
531.007	85.44
531.221	97.44
531.436	84.44
531.651	85.44
531.865	84.44
532.08	87.44
532.295	85.44
532.509	88.44
532.724	87.44
532.938	98.44
533.153	98.44
533.367	95.44
533.582	100.44
533.796	72.44
534.011	77.44
534.225	88.44
534.44	81.44
534.654	85.44
534.868	81.44
535.083	74.44
535.297	89.44
535.511	90.44
535.726	77.44
535.94	95.44
536.154	90.44
536.369	78.44
536.583	81.44
536.797	87.44
537.011	78.44
537.225	102.44
537.44	84.44
537.654	89.44
537.868	77.44
538.082	77.44
538.296	87.44
538.51	83.44
538.724	87.44
538.938	89.44
539.153	98.44
539.367	84.44
539.581	82.44
539.795	91.44
540.009	99.44
540.222	88.44
540.436	88.44
540.65	80.44
540.864	91.44
541.078	91.44
541.292	67.44
541.506	84.44
541.72	84.44
541.934	99.44
542.147	79.44
542.361	75.44
542.575	82.44
542.789	84.44
543.002	91.44
543.216	90.44
543.43	81.44
543.644	92.44
543.857	94.44
544.071	90.44
544.285	85.44
544.498	93.44
544.712	97.44
544.925	89.44
545.139	89.44
545.352	100.44
545.566	84.44
545.779	80.44
545.993	86.44
546.206	84.44
546.42	81.44
546.633	105.44
546.847	76.44
547.06	89.44
547.274	89.44
547.487	90.44
547.7	85.44
547.914	100.44
548.127	82.44
548.34	85.44
548.554	86.44
548.767	101.44
548.98	79.44
549.193	82.44
549.407	103.44
549.62	86.44
549.833	98.44
550.046	90.44
550.259	94.44
550.473	89.44
550.686	94.44
550.899	86.44
551.112	97.44
551.325	96.44
551.538	107.44
551.751	92.44
551.964	99.44
552.177	103.44
552.39	87.44
552.603	104.44
552.816	89.44
553.029	100.44
553.242	109.44
553.455	108.44
553.667	100.44
553.88	79.44
554.093	76.44
554.306	92.44
554.519	101.44
554.732	92.44
554.944	100.44
555.157	104.44
555.37	91.44
555.583	91.44
555.795	94.44
556.008	86.44
556.221	87.44
556.433	101.44
556.646	96.44
556.859	78.44
557.071	87.44
557.284	84.44
557.496	91.44
557.709	82.44
557.921	93.44
558.134	79.44
558.346	92.44
558.559	89.44
558.771	85.44
558.984	90.44
559.196	105.44
559.409	83.44
559.621	90.44
559.833	105.44
560.046	98.44
560.258	97.44
560.47	88.44
560.683	90.44
560.895	89.44
561.107	89.44
561.32	92.44
561.532	84.44
561.744	86.44
561.956	79.44
562.168	81.44
562.381	95.44
562.593	94.44
562.805	78.44
563.017	89.44
563.229	107.44
563.441	105.44
563.653	86.44
563.865	92.44
564.077	73.44
564.289	85.44
564.501	91.44
564.713	100.44
564.925	79.44
565.137	90.44
565.349	86.44
565.561	88.44
565.773	84.44
565.985	86.44
566.197	86.44
566.408	95.44
566.62	80.44
566.832	88.44
567.044	85.44
567.255	96.44
567.467	80.44
567.679	79.44
567.891	79.44
568.102	85.44
568.314	95.44
568.526	84.44
568.737	91.44
568.949	92.44
569.161	98.44
569.372	84.44
569.584	85.44
569.795	84.44
570.007	96.44
570.218	89.44
570.43	78.44
570.641	88.44
570.853	82.44
571.064	86.44
571.276	71.44
571.487	96.44
571.698	97.44
571.91	82.44
572.121	84.44
572.333	77.44
572.544	88.44
572.755	84.44
572.966	97.44
573.178	79.44
573.389	78.44
573.6	80.44
573.811	78.44
574.023	92.44
574.234	87.44
574.445	90.44
574.656	88.44
574.867	75.44
575.078	88.44
575.289	80.44
575.501	91.44
575.712	103.44
575.923	94.44
576.134	96.44
576.345	82.44
576.556	98.44
576.767	97.44
576.978	75.44
577.188	83.44
577.399	94.44
577.61	94.44
577.821	89.44
578.032	83.44
578.243	100.44
578.454	97.44
578.665	80.44
578.875	86.44
579.086	84.44
579.297	100.44
579.508	84.44
579.718	92.44
579.929	84.44
580.14	99.44
580.35	95.44
580.561	93.44
580.772	93.44
580.982	85.44
581.193	78.44
581.403	79.44
581.614	82.44
581.825	102.44
582.035	93.44
582.246	90.44
582.456	93.44
582.667	88.44
582.877	88.44
583.087	90.44
583.298	90.44
583.508	96.44
583.719	100.44
583.929	106.44
584.139	88.44
584.35	75.44
584.56	83.44
584.77	82.44
584.981	88.44
585.191	72.44
585.401	82.44
585.611	93.44
585.821	88.44
586.032	89.44
586.242	83.44
586.452	90.44
586.662	93.44
586.872	85.44
587.082	84.44
587.292	89.44
587.502	98.44
587.713	96.44
587.923	104.44
588.133	94.44
588.343	93.44
588.553	95.44
588.762	112.44
588.972	157.44
589.182	187.44
589.392	167.44
589.602	169.44
589.812	190.44
590.022	149.44
590.232	117.44
590.441	104.44
590.651	104.44
590.861	102.44
591.071	101.44
591.281	101.44
591.49	73.44
591.7	91.44
591.91	85.44
592.119	91.44
592.329	106.44
592.539	104.44
592.748	85.44
592.958	84.44
593.167	105.44
593.377	97.44
593.587	113.44
593.796	88.44
594.006	82.44
594.215	100.44
594.424	94.44
594.634	92.44
594.843	82.44
595.053	85.44
595.262	97.44
595.472	92.44
595.681	77.44
595.89	80.44
596.1	86.44
596.309	88.44
596.518	84.44
596.727	102.44
596.937	90.44
597.146	97.44
597.355	93.44
597.564	88.44
597.774	89.44
597.983	96.44
598.192	79.44
598.401	82.44
598.61	84.44
598.819	84.44
599.028	86.44
599.237	83.44
599.446	86.44
599.655	96.44
599.864	75.44
600.073	94.44
600.282	89.44
600.491	101.44
600.7	97.44
600.909	91.44
601.118	76.44
601.327	92.44
601.536	88.44
601.745	108.44
601.953	89.44
602.162	96.44
602.371	89.44
602.58	72.44
602.789	87.44
602.997	94.44
603.206	106.44
603.415	94.44
603.623	101.44
603.832	97.44
604.041	90.44
604.249	86.44
604.458	110.44
604.666	95.44
604.875	94.44
605.084	93.44
605.292	102.44
605.501	96.44
605.709	104.44
605.918	109.44
606.126	97.44
606.334	106.44
606.543	101.44
606.751	93.44
606.96	98.44
607.168	95.44
607.376	94.44
607.585	96.44
607.793	94.44
608.001	91.44
608.21	84.44
608.418	103.44
608.626	76.44
608.834	97.44
609.043	92.44
609.251	76.44
609.459	90.44
609.667	88.44
609.875	103.44
610.083	92.44
610.291	102.44
610.499	106.44
610.707	92.44
610.916	94.44
611.124	95.44
611.332	92.44
611.54	96.44
611.748	85.44
611.955	100.44
612.163	96.44
612.371	99.44
612.579	95.44
612.787	89.44
612.995	92.44
613.203	92.44
613.411	99.44
613.618	98.44
613.826	94.44
614.034	86.44
614.242	95.44
614.449	79.44
614.657	79.44
614.865	84.44
615.072	103.44
615.28	87.44
615.488	98.44
615.695	98.44
615.903	94.44
616.111	90.44
616.318	106.44
616.526	111.44
616.733	102.44
616.941	92.44
617.148	109.44
617.356	114.44
617.563	100.44
617.771	112.44
617.978	97.44
618.185	106.44
618.393	113.44
618.6	101.44
618.807	102.44
619.015	95.44
619.222	115.44
619.429	88.44
619.637	98.44
619.844	102.44
620.051	103.44
620.258	112.44
620.466	99.44
620.673	101.44
620.88	97.44
621.087	102.44
621.294	77.44
621.501	100.44
621.708	103.44
621.915	103.44
622.122	97.44
622.329	88.44
622.536	75.44
622.743	83.44
622.95	94.44
623.157	97.44
623.364	98.44
623.571	87.44
623.778	90.44
623.985	87.44
624.192	94.44
624.399	95.44
624.606	101.44
624.812	81.44
625.019	93.44
625.226	102.44
625.433	98.44
625.639	113.44
625.846	100.44
626.053	83.44
626.259	77.44
626.466	86.44
626.673	100.44
626.879	90.44
627.086	79.44
627.293	98.44
627.499	90.44
627.706	99.44
627.912	94.44
628.119	94.44
628.325	91.44
628.532	90.44
628.738	94.44
628.945	89.44
629.151	97.44
629.357	75.44
629.564	89.44
629.77	95.44
629.976	83.44
630.183	89.44
630.389	101.44
630.595	86.44
630.802	90.44
631.008	77.44
631.214	90.44
631.42	102.44
631.627	92.44
631.833	81.44
632.039	78.44
632.245	84.44
632.451	100.44
632.657	87.44
632.863	88.44
633.069	85.44
633.275	97.44
633.481	88.44
633.688	94.44
633.893	87.44
634.099	82.44
634.305	84.44
634.511	85.44
634.717	98.44
634.923	92.44
635.129	82.44
635.335	89.44
635.541	95.44
635.747	92.44
635.952	98.44
636.158	86.44
636.364	85.44
636.57	82.44
636.775	86.44
636.981	81.44
637.187	100.44
637.392	92.44
637.598	86.44
637.804	88.44
638.009	88.44
638.215	80.44
638.421	86.44
638.626	84.44
638.832	86.44
639.037	80.44
639.243	87.44
639.448	100.44
639.654	78.44
639.859	81.44
640.065	90.44
640.27	89.44
640.475	77.44
640.681	91.44
640.886	78.44
641.091	73.44
641.297	72.44
641.502	84.44
641.707	88.44
641.913	85.44
642.118	89.44
642.323	81.44
642.528	94.44
642.733	91.44
642.939	79.44
643.144	95.44
643.349	76.44
643.554	112.44
643.759	94.44
643.964	91.44
644.169	95.44
644.374	90.44
644.579	91.44
644.784	94.44
644.989	88.44
645.194	81.44
645.399	94.44
645.604	102.44
645.809	73.44
646.014	68.44
646.219	80.44
646.423	89.44
646.628	84.44
646.833	81.44
647.038	90.44
647.243	78.44
647.447	98.44
647.652	86.44
647.857	97.44
648.062	94.44
648.266	90.44
648.471	99.44
648.676	93.44
648.88	84.44
649.085	84.44
649.289	71.44
649.494	75.44
649.698	85.44
649.903	92.44
650.107	88.44
650.312	108.44
650.516	102.44
650.721	104.44
650.925	81.44
651.13	78.44
651.334	95.44
651.539	79.44
651.743	94.44
651.947	89.44
652.152	99.44
652.356	84.44
652.56	93.44
652.764	77.44
652.969	81.44
653.173	78.44
653.377	82.44
653.581	100.44
653.785	75.44
653.99	76.44
654.194	92.44
654.398	83.44
654.602	88.44
654.806	84.44
655.01	83.44
655.214	80.44
655.418	89.44
655.622	87.44
655.826	83.44
656.03	78.44
656.234	83.44
656.438	77.44
656.642	73.44
656.846	88.44
657.049	98.44
657.253	83.44
657.457	92.44
657.661	101.44
657.865	74.44
658.068	87.44
658.272	80.44
658.476	88.44
658.68	80.44
658.883	88.44
659.087	84.44
659.291	74.44
659.494	82.44
659.698	92.44
659.901	100.44
660.105	91.44
660.309	85.44
660.512	86.44
660.716	85.44
660.919	73.44
661.123	88.44
661.326	86.44
661.53	84.44
661.733	89.44
661.936	82.44
662.14	91.44
662.343	78.44
662.546	80.44
662.75	89.44
662.953	86.44
663.156	86.44
663.36	93.44
663.563	89.44
663.766	104.44
663.969	101.44
664.173	68.44
664.376	88.44
664.579	83.44
664.782	86.44
664.985	81.44
665.188	76.44
665.391	85.44
665.594	81.44
665.797	87.44
666	86.44
666.203	90.44
666.406	90.44
666.609	91.44
666.812	84.44
667.015	86.44
667.218	79.44
667.421	92.44
667.624	83.44
667.827	89.44
668.03	74.44
668.232	84.44
668.435	75.44
668.638	85.44
668.841	89.44
669.043	86.44
669.246	82.44
669.449	82.44
669.651	80.44
669.854	96.44
670.057	74.44
670.259	94.44
670.462	84.44
670.665	90.44
670.867	91.44
671.07	91.44
671.272	79.44
671.475	87.44
671.677	92.44
671.88	90.44
672.082	83.44
672.284	86.44
672.487	95.44
672.689	93.44
672.892	96.44
