Data from Sand_3_HRD10591_00047.txt Node
Date: Mon Jan 19 13:34:57 EST 2026
User: Yrep
Spectrometer: HR+D1059
Trigger mode: 1
Integration Time (sec): 1.000000E-1
Scans to average: 1
Electric dark correction enabled: true
Nonlinearity correction enabled: false
Boxcar width: 0
XAxis mode: Wavelengths
Number of Pixels in Spectrum: 2048
>>>>>Begin Spectral Data<<<<<
223.165	-22.44
223.4	-22.44
223.635	-22.44
223.869	-14.44
224.104	-29.44
224.338	3.56
224.573	-11.44
224.808	-21.44
225.042	-12.44
225.277	2.56
225.511	-1.44
225.746	10.56
225.98	11.56
226.215	10.56
226.449	7.56
226.683	17.56
226.918	19.56
227.152	29.56
227.387	48.56
227.621	33.56
227.856	44.56
228.09	48.56
228.324	49.56
228.559	52.56
228.793	72.56
229.027	67.56
229.262	72.56
229.496	76.56
229.73	60.56
229.964	69.56
230.199	84.56
230.433	82.56
230.667	79.56
230.901	78.56
231.136	87.56
231.37	85.56
231.604	91.56
231.838	81.56
232.072	64.56
232.306	78.56
232.541	77.56
232.775	78.56
233.009	84.56
233.243	96.56
233.477	73.56
233.711	76.56
233.945	69.56
234.179	74.56
234.413	80.56
234.647	81.56
234.881	76.56
235.115	79.56
235.349	71.56
235.583	82.56
235.817	89.56
236.051	88.56
236.285	67.56
236.519	88.56
236.753	74.56
236.987	72.56
237.221	83.56
237.455	84.56
237.689	78.56
237.922	77.56
238.156	80.56
238.39	86.56
238.624	89.56
238.858	73.56
239.091	74.56
239.325	75.56
239.559	76.56
239.793	60.56
240.027	74.56
240.26	84.56
240.494	71.56
240.728	80.56
240.961	76.56
241.195	82.56
241.429	85.56
241.662	70.56
241.896	74.56
242.13	76.56
242.363	83.56
242.597	84.56
242.83	75.56
243.064	76.56
243.298	79.56
243.531	70.56
243.765	88.56
243.998	75.56
244.232	81.56
244.465	92.56
244.699	70.56
244.932	83.56
245.166	83.56
245.399	87.56
245.633	85.56
245.866	68.56
246.099	66.56
246.333	73.56
246.566	79.56
246.8	81.56
247.033	60.56
247.266	80.56
247.5	70.56
247.733	76.56
247.966	75.56
248.2	73.56
248.433	81.56
248.666	72.56
248.899	83.56
249.133	85.56
249.366	72.56
249.599	85.56
249.832	70.56
250.066	76.56
250.299	74.56
250.532	80.56
250.765	69.56
250.998	86.56
251.231	79.56
251.465	88.56
251.698	80.56
251.931	75.56
252.164	83.56
252.397	85.56
252.63	78.56
252.863	70.56
253.096	79.56
253.329	78.56
253.562	76.56
253.795	84.56
254.028	84.56
254.261	83.56
254.494	80.56
254.727	84.56
254.96	69.56
255.193	78.56
255.426	70.56
255.659	71.56
255.892	84.56
256.124	89.56
256.357	82.56
256.59	68.56
256.823	77.56
257.056	72.56
257.289	86.56
257.521	67.56
257.754	79.56
257.987	77.56
258.22	78.56
258.452	77.56
258.685	85.56
258.918	83.56
259.151	86.56
259.383	74.56
259.616	76.56
259.849	92.56
260.081	81.56
260.314	80.56
260.547	73.56
260.779	89.56
261.012	76.56
261.244	71.56
261.477	94.56
261.71	77.56
261.942	89.56
262.175	80.56
262.407	93.56
262.64	89.56
262.872	78.56
263.105	78.56
263.337	91.56
263.57	88.56
263.802	78.56
264.035	84.56
264.267	84.56
264.499	90.56
264.732	91.56
264.964	93.56
265.197	81.56
265.429	67.56
265.661	85.56
265.894	88.56
266.126	85.56
266.358	84.56
266.591	76.56
266.823	76.56
267.055	79.56
267.287	73.56
267.52	81.56
267.752	85.56
267.984	90.56
268.216	84.56
268.448	92.56
268.681	80.56
268.913	84.56
269.145	77.56
269.377	86.56
269.609	74.56
269.841	86.56
270.073	81.56
270.306	81.56
270.538	70.56
270.77	82.56
271.002	88.56
271.234	78.56
271.466	98.56
271.698	83.56
271.93	76.56
272.162	86.56
272.394	93.56
272.626	85.56
272.858	85.56
273.09	90.56
273.322	68.56
273.553	90.56
273.785	83.56
274.017	62.56
274.249	89.56
274.481	69.56
274.713	77.56
274.945	89.56
275.176	84.56
275.408	80.56
275.64	92.56
275.872	80.56
276.104	86.56
276.335	77.56
276.567	80.56
276.799	86.56
277.031	78.56
277.262	92.56
277.494	93.56
277.726	76.56
277.957	86.56
278.189	81.56
278.421	74.56
278.652	76.56
278.884	86.56
279.115	76.56
279.347	84.56
279.579	80.56
279.81	92.56
280.042	76.56
280.273	78.56
280.505	68.56
280.736	88.56
280.968	86.56
281.199	88.56
281.431	84.56
281.662	82.56
281.894	84.56
282.125	68.56
282.356	89.56
282.588	80.56
282.819	80.56
283.051	98.56
283.282	73.56
283.513	92.56
283.745	84.56
283.976	84.56
284.207	79.56
284.439	90.56
284.67	80.56
284.901	80.56
285.132	87.56
285.364	93.56
285.595	92.56
285.826	77.56
286.057	91.56
286.288	92.56
286.52	103.56
286.751	95.56
286.982	96.56
287.213	95.56
287.444	75.56
287.675	94.56
287.906	81.56
288.138	77.56
288.369	84.56
288.6	87.56
288.831	84.56
289.062	83.56
289.293	78.56
289.524	82.56
289.755	100.56
289.986	86.56
290.217	86.56
290.448	82.56
290.679	83.56
290.91	89.56
291.141	82.56
291.371	75.56
291.602	74.56
291.833	83.56
292.064	70.56
292.295	86.56
292.526	78.56
292.757	89.56
292.987	83.56
293.218	95.56
293.449	95.56
293.68	90.56
293.91	85.56
294.141	84.56
294.372	70.56
294.603	88.56
294.833	95.56
295.064	83.56
295.295	77.56
295.525	75.56
295.756	76.56
295.987	80.56
296.217	76.56
296.448	85.56
296.679	82.56
296.909	98.56
297.14	95.56
297.37	76.56
297.601	83.56
297.831	91.56
298.062	77.56
298.292	86.56
298.523	79.56
298.753	78.56
298.984	83.56
299.214	82.56
299.445	78.56
299.675	85.56
299.905	77.56
300.136	84.56
300.366	84.56
300.597	89.56
300.827	97.56
301.057	90.56
301.288	82.56
301.518	83.56
301.748	93.56
301.979	112.56
302.209	78.56
302.439	86.56
302.669	93.56
302.9	88.56
303.13	91.56
303.36	78.56
303.59	72.56
303.82	90.56
304.051	88.56
304.281	81.56
304.511	90.56
304.741	77.56
304.971	93.56
305.201	93.56
305.431	90.56
305.661	87.56
305.891	91.56
306.121	96.56
306.352	97.56
306.582	86.56
306.812	84.56
307.042	96.56
307.272	80.56
307.502	74.56
307.731	79.56
307.961	90.56
308.191	86.56
308.421	96.56
308.651	84.56
308.881	86.56
309.111	96.56
309.341	80.56
309.571	77.56
309.8	80.56
310.03	79.56
310.26	65.56
310.49	90.56
310.72	84.56
310.949	90.56
311.179	70.56
311.409	84.56
311.639	76.56
311.868	76.56
312.098	97.56
312.328	93.56
312.557	92.56
312.787	92.56
313.017	94.56
313.246	73.56
313.476	86.56
313.706	74.56
313.935	65.56
314.165	94.56
314.394	112.56
314.624	84.56
314.853	84.56
315.083	80.56
315.312	89.56
315.542	80.56
315.771	78.56
316.001	85.56
316.23	70.56
316.46	81.56
316.689	84.56
316.919	70.56
317.148	87.56
317.377	86.56
317.607	84.56
317.836	80.56
318.065	63.56
318.295	96.56
318.524	89.56
318.753	76.56
318.983	85.56
319.212	87.56
319.441	86.56
319.67	76.56
319.9	83.56
320.129	93.56
320.358	81.56
320.587	85.56
320.816	81.56
321.046	87.56
321.275	81.56
321.504	87.56
321.733	89.56
321.962	79.56
322.191	95.56
322.42	94.56
322.649	82.56
322.878	89.56
323.108	72.56
323.337	90.56
323.566	84.56
323.795	82.56
324.024	94.56
324.253	96.56
324.482	74.56
324.71	78.56
324.939	89.56
325.168	88.56
325.397	88.56
325.626	77.56
325.855	67.56
326.084	72.56
326.313	77.56
326.542	90.56
326.77	96.56
326.999	89.56
327.228	92.56
327.457	78.56
327.686	77.56
327.914	69.56
328.143	84.56
328.372	96.56
328.6	72.56
328.829	95.56
329.058	73.56
329.287	75.56
329.515	75.56
329.744	84.56
329.972	78.56
330.201	86.56
330.43	94.56
330.658	79.56
330.887	74.56
331.115	96.56
331.344	85.56
331.572	87.56
331.801	86.56
332.03	88.56
332.258	88.56
332.486	90.56
332.715	93.56
332.943	80.56
333.172	89.56
333.4	83.56
333.629	81.56
333.857	88.56
334.085	82.56
334.314	72.56
334.542	80.56
334.771	97.56
334.999	86.56
335.227	94.56
335.455	89.56
335.684	84.56
335.912	94.56
336.14	98.56
336.369	66.56
336.597	85.56
336.825	84.56
337.053	70.56
337.281	76.56
337.51	83.56
337.738	90.56
337.966	84.56
338.194	80.56
338.422	87.56
338.65	75.56
338.878	92.56
339.106	89.56
339.334	92.56
339.562	85.56
339.79	75.56
340.018	91.56
340.246	94.56
340.474	84.56
340.702	93.56
340.93	80.56
341.158	76.56
341.386	85.56
341.614	90.56
341.842	88.56
342.07	78.56
342.298	88.56
342.526	85.56
342.754	84.56
342.981	90.56
343.209	84.56
343.437	98.56
343.665	72.56
343.893	81.56
344.12	96.56
344.348	90.56
344.576	105.56
344.804	78.56
345.031	88.56
345.259	84.56
345.487	92.56
345.714	86.56
345.942	94.56
346.17	90.56
346.397	89.56
346.625	91.56
346.853	89.56
347.08	83.56
347.308	79.56
347.535	81.56
347.763	76.56
347.99	81.56
348.218	78.56
348.445	93.56
348.673	83.56
348.9	88.56
349.128	78.56
349.355	83.56
349.583	85.56
349.81	87.56
350.037	93.56
350.265	76.56
350.492	86.56
350.72	87.56
350.947	82.56
351.174	81.56
351.402	70.56
351.629	76.56
351.856	84.56
352.083	88.56
352.311	82.56
352.538	91.56
352.765	60.56
352.992	96.56
353.22	98.56
353.447	73.56
353.674	89.56
353.901	85.56
354.128	89.56
354.355	80.56
354.583	80.56
354.81	81.56
355.037	80.56
355.264	99.56
355.491	94.56
355.718	92.56
355.945	68.56
356.172	83.56
356.399	75.56
356.626	90.56
356.853	90.56
357.08	71.56
357.307	86.56
357.534	93.56
357.761	91.56
357.988	95.56
358.215	121.56
358.441	107.56
358.668	92.56
358.895	86.56
359.122	91.56
359.349	109.56
359.576	77.56
359.802	78.56
360.029	77.56
360.256	93.56
360.483	99.56
360.709	92.56
360.936	91.56
361.163	82.56
361.39	86.56
361.616	86.56
361.843	88.56
362.07	104.56
362.296	96.56
362.523	93.56
362.749	88.56
362.976	72.56
363.203	102.56
363.429	92.56
363.656	88.56
363.882	74.56
364.109	93.56
364.335	92.56
364.562	87.56
364.788	83.56
365.015	78.56
365.241	77.56
365.468	87.56
365.694	69.56
365.92	101.56
366.147	86.56
366.373	82.56
366.599	85.56
366.826	85.56
367.052	86.56
367.278	77.56
367.505	77.56
367.731	85.56
367.957	89.56
368.184	88.56
368.41	81.56
368.636	86.56
368.862	81.56
369.089	78.56
369.315	74.56
369.541	77.56
369.767	87.56
369.993	68.56
370.219	78.56
370.445	94.56
370.672	80.56
370.898	99.56
371.124	78.56
371.35	83.56
371.576	89.56
371.802	84.56
372.028	92.56
372.254	100.56
372.48	91.56
372.706	90.56
372.932	92.56
373.158	91.56
373.384	100.56
373.61	110.56
373.835	82.56
374.061	100.56
374.287	85.56
374.513	94.56
374.739	91.56
374.965	92.56
375.191	93.56
375.416	81.56
375.642	82.56
375.868	88.56
376.094	94.56
376.319	88.56
376.545	83.56
376.771	101.56
376.997	84.56
377.222	74.56
377.448	92.56
377.674	76.56
377.899	89.56
378.125	92.56
378.35	85.56
378.576	82.56
378.802	95.56
379.027	88.56
379.253	86.56
379.478	88.56
379.704	89.56
379.929	97.56
380.155	87.56
380.38	72.56
380.606	78.56
380.831	91.56
381.057	96.56
381.282	82.56
381.507	86.56
381.733	102.56
381.958	105.56
382.184	88.56
382.409	105.56
382.634	88.56
382.86	113.56
383.085	82.56
383.31	92.56
383.535	70.56
383.761	97.56
383.986	89.56
384.211	89.56
384.436	79.56
384.662	71.56
384.887	94.56
385.112	84.56
385.337	86.56
385.562	98.56
385.787	88.56
386.013	76.56
386.238	94.56
386.463	95.56
386.688	98.56
386.913	78.56
387.138	79.56
387.363	86.56
387.588	85.56
387.813	77.56
388.038	89.56
388.263	92.56
388.488	65.56
388.713	100.56
388.938	91.56
389.163	85.56
389.387	74.56
389.612	78.56
389.837	76.56
390.062	86.56
390.287	92.56
390.512	82.56
390.736	90.56
390.961	89.56
391.186	80.56
391.411	74.56
391.636	93.56
391.86	82.56
392.085	97.56
392.31	81.56
392.534	93.56
392.759	90.56
392.984	85.56
393.208	75.56
393.433	88.56
393.658	100.56
393.882	87.56
394.107	87.56
394.331	89.56
394.556	96.56
394.78	82.56
395.005	82.56
395.229	75.56
395.454	84.56
395.678	80.56
395.903	76.56
396.127	86.56
396.352	89.56
396.576	85.56
396.801	91.56
397.025	74.56
397.249	80.56
397.474	74.56
397.698	88.56
397.922	77.56
398.147	92.56
398.371	81.56
398.595	80.56
398.82	66.56
399.044	81.56
399.268	78.56
399.492	72.56
399.717	96.56
399.941	96.56
400.165	88.56
400.389	82.56
400.613	89.56
400.837	76.56
401.062	83.56
401.286	84.56
401.51	82.56
401.734	89.56
401.958	63.56
402.182	78.56
402.406	71.56
402.63	89.56
402.854	86.56
403.078	92.56
403.302	84.56
403.526	89.56
403.75	92.56
403.974	77.56
404.198	87.56
404.422	91.56
404.645	109.56
404.869	96.56
405.093	98.56
405.317	82.56
405.541	78.56
405.765	98.56
405.988	78.56
406.212	104.56
406.436	87.56
406.66	105.56
406.883	89.56
407.107	86.56
407.331	88.56
407.555	77.56
407.778	71.56
408.002	87.56
408.226	76.56
408.449	76.56
408.673	75.56
408.896	95.56
409.12	88.56
409.344	101.56
409.567	68.56
409.791	81.56
410.014	82.56
410.238	71.56
410.461	86.56
410.685	81.56
410.908	93.56
411.132	98.56
411.355	97.56
411.578	81.56
411.802	96.56
412.025	72.56
412.249	80.56
412.472	73.56
412.695	78.56
412.919	81.56
413.142	86.56
413.365	75.56
413.589	99.56
413.812	76.56
414.035	74.56
414.258	76.56
414.482	82.56
414.705	83.56
414.928	83.56
415.151	77.56
415.374	75.56
415.597	85.56
415.821	90.56
416.044	92.56
416.267	77.56
416.49	76.56
416.713	85.56
416.936	101.56
417.159	76.56
417.382	93.56
417.605	84.56
417.828	83.56
418.051	91.56
418.274	94.56
418.497	84.56
418.72	79.56
418.943	80.56
419.166	81.56
419.389	87.56
419.611	81.56
419.834	89.56
420.057	80.56
420.28	83.56
420.503	84.56
420.726	79.56
420.948	100.56
421.171	96.56
421.394	91.56
421.617	78.56
421.839	90.56
422.062	82.56
422.285	76.56
422.507	78.56
422.73	98.56
422.953	97.56
423.175	84.56
423.398	81.56
423.621	98.56
423.843	76.56
424.066	84.56
424.288	82.56
424.511	83.56
424.733	93.56
424.956	79.56
425.178	86.56
425.401	95.56
425.623	113.56
425.846	105.56
426.068	89.56
426.291	77.56
426.513	84.56
426.735	82.56
426.958	80.56
427.18	94.56
427.402	90.56
427.625	116.56
427.847	106.56
428.069	87.56
428.292	84.56
428.514	80.56
428.736	107.56
428.958	96.56
429.181	86.56
429.403	92.56
429.625	88.56
429.847	76.56
430.069	69.56
430.292	96.56
430.514	97.56
430.736	84.56
430.958	101.56
431.18	84.56
431.402	74.56
431.624	81.56
431.846	84.56
432.068	80.56
432.29	63.56
432.512	86.56
432.734	70.56
432.956	90.56
433.178	94.56
433.4	83.56
433.622	86.56
433.844	84.56
434.066	90.56
434.287	87.56
434.509	61.56
434.731	90.56
434.953	85.56
435.175	88.56
435.397	86.56
435.618	88.56
435.84	93.56
436.062	82.56
436.284	83.56
436.505	84.56
436.727	83.56
436.949	92.56
437.17	81.56
437.392	79.56
437.614	89.56
437.835	87.56
438.057	80.56
438.278	88.56
438.5	83.56
438.721	93.56
438.943	86.56
439.165	75.56
439.386	80.56
439.608	80.56
439.829	86.56
440.05	74.56
440.272	89.56
440.493	77.56
440.715	96.56
440.936	89.56
441.158	85.56
441.379	89.56
441.6	86.56
441.822	94.56
442.043	78.56
442.264	92.56
442.486	79.56
442.707	76.56
442.928	79.56
443.149	86.56
443.371	78.56
443.592	91.56
443.813	92.56
444.034	87.56
444.255	87.56
444.476	78.56
444.698	101.56
444.919	85.56
445.14	146.56
445.361	118.56
445.582	99.56
445.803	76.56
446.024	89.56
446.245	99.56
446.466	83.56
446.687	79.56
446.908	98.56
447.129	84.56
447.35	85.56
447.571	91.56
447.792	87.56
448.013	92.56
448.234	76.56
448.455	90.56
448.675	84.56
448.896	88.56
449.117	85.56
449.338	89.56
449.559	85.56
449.779	88.56
450	83.56
450.221	85.56
450.442	85.56
450.662	69.56
450.883	84.56
451.104	86.56
451.324	92.56
451.545	79.56
451.766	91.56
451.986	69.56
452.207	78.56
452.428	81.56
452.648	97.56
452.869	77.56
453.089	71.56
453.31	82.56
453.53	69.56
453.751	89.56
453.971	85.56
454.192	81.56
454.412	91.56
454.633	78.56
454.853	73.56
455.073	82.56
455.294	71.56
455.514	80.56
455.734	86.56
455.955	81.56
456.175	94.56
456.395	85.56
456.616	84.56
456.836	80.56
457.056	89.56
457.276	84.56
457.497	80.56
457.717	102.56
457.937	89.56
458.157	91.56
458.377	75.56
458.598	92.56
458.818	74.56
459.038	82.56
459.258	77.56
459.478	83.56
459.698	83.56
459.918	85.56
460.138	75.56
460.358	84.56
460.578	93.56
460.798	90.56
461.018	94.56
461.238	92.56
461.458	85.56
461.678	72.56
461.898	84.56
462.118	70.56
462.338	86.56
462.558	88.56
462.777	86.56
462.997	86.56
463.217	82.56
463.437	96.56
463.657	95.56
463.876	87.56
464.096	86.56
464.316	72.56
464.536	88.56
464.755	93.56
464.975	88.56
465.195	85.56
465.414	91.56
465.634	75.56
465.854	88.56
466.073	83.56
466.293	81.56
466.512	91.56
466.732	95.56
466.951	86.56
467.171	83.56
467.391	83.56
467.61	106.56
467.829	84.56
468.049	96.56
468.268	86.56
468.488	92.56
468.707	77.56
468.927	65.56
469.146	98.56
469.365	79.56
469.585	74.56
469.804	92.56
470.023	81.56
470.243	86.56
470.462	94.56
470.681	90.56
470.901	92.56
471.12	86.56
471.339	110.56
471.558	81.56
471.777	83.56
471.997	95.56
472.216	85.56
472.435	81.56
472.654	76.56
472.873	75.56
473.092	80.56
473.311	79.56
473.53	81.56
473.749	88.56
473.968	105.56
474.187	92.56
474.406	79.56
474.625	86.56
474.844	92.56
475.063	94.56
475.282	85.56
475.501	81.56
475.72	101.56
475.939	86.56
476.158	75.56
476.377	80.56
476.596	93.56
476.814	80.56
477.033	84.56
477.252	73.56
477.471	82.56
477.69	81.56
477.908	92.56
478.127	89.56
478.346	80.56
478.564	95.56
478.783	84.56
479.002	92.56
479.22	89.56
479.439	79.56
479.658	91.56
479.876	75.56
480.095	74.56
480.313	79.56
480.532	93.56
480.751	86.56
480.969	82.56
481.188	78.56
481.406	88.56
481.624	80.56
481.843	85.56
482.061	76.56
482.28	81.56
482.498	79.56
482.717	95.56
482.935	90.56
483.153	94.56
483.372	79.56
483.59	71.56
483.808	79.56
484.027	83.56
484.245	81.56
484.463	85.56
484.681	105.56
484.9	80.56
485.118	76.56
485.336	90.56
485.554	67.56
485.772	94.56
485.99	85.56
486.209	84.56
486.427	100.56
486.645	85.56
486.863	100.56
487.081	79.56
487.299	88.56
487.517	88.56
487.735	65.56
487.953	79.56
488.171	97.56
488.389	78.56
488.607	84.56
488.825	91.56
489.043	84.56
489.261	84.56
489.479	78.56
489.696	90.56
489.914	86.56
490.132	86.56
490.35	95.56
490.568	81.56
490.786	85.56
491.003	88.56
491.221	78.56
491.439	90.56
491.657	86.56
491.874	81.56
492.092	92.56
492.31	86.56
492.527	83.56
492.745	84.56
492.963	80.56
493.18	87.56
493.398	82.56
493.615	85.56
493.833	63.56
494.05	90.56
494.268	91.56
494.485	80.56
494.703	81.56
494.92	77.56
495.138	89.56
495.355	90.56
495.573	100.56
495.79	88.56
496.008	93.56
496.225	77.56
496.442	70.56
496.66	86.56
496.877	67.56
497.094	96.56
497.312	85.56
497.529	97.56
497.746	98.56
497.963	94.56
498.181	84.56
498.398	102.56
498.615	88.56
498.832	74.56
499.049	89.56
499.267	82.56
499.484	86.56
499.701	85.56
499.918	89.56
500.135	84.56
500.352	81.56
500.569	84.56
500.786	81.56
501.003	83.56
501.22	78.56
501.437	87.56
501.654	78.56
501.871	97.56
502.088	87.56
502.305	85.56
502.522	79.56
502.739	80.56
502.956	78.56
503.172	81.56
503.389	92.56
503.606	74.56
503.823	88.56
504.04	74.56
504.256	76.56
504.473	104.56
504.69	85.56
504.907	91.56
505.123	80.56
505.34	85.56
505.557	92.56
505.773	97.56
505.99	72.56
506.207	90.56
506.423	93.56
506.64	90.56
506.856	93.56
507.073	87.56
507.289	82.56
507.506	88.56
507.722	74.56
507.939	76.56
508.155	87.56
508.372	77.56
508.588	69.56
508.805	88.56
509.021	77.56
509.238	84.56
509.454	79.56
509.67	83.56
509.887	72.56
510.103	83.56
510.319	90.56
510.536	93.56
510.752	81.56
510.968	77.56
511.184	71.56
511.401	70.56
511.617	82.56
511.833	69.56
512.049	80.56
512.265	90.56
512.481	83.56
512.698	101.56
512.914	70.56
513.13	77.56
513.346	80.56
513.562	88.56
513.778	78.56
513.994	101.56
514.21	75.56
514.426	82.56
514.642	83.56
514.858	85.56
515.074	65.56
515.29	84.56
515.506	98.56
515.721	80.56
515.937	89.56
516.153	92.56
516.369	85.56
516.585	74.56
516.801	92.56
517.016	88.56
517.232	77.56
517.448	81.56
517.664	80.56
517.879	88.56
518.095	70.56
518.311	92.56
518.527	63.56
518.742	80.56
518.958	84.56
519.173	76.56
519.389	89.56
519.605	74.56
519.82	88.56
520.036	96.56
520.251	80.56
520.467	83.56
520.682	114.56
520.898	141.56
521.113	125.56
521.329	77.56
521.544	91.56
521.76	85.56
521.975	77.56
522.19	88.56
522.406	98.56
522.621	86.56
522.836	84.56
523.052	100.56
523.267	85.56
523.482	77.56
523.698	76.56
523.913	89.56
524.128	92.56
524.343	92.56
524.559	89.56
524.774	94.56
524.989	100.56
525.204	88.56
525.419	80.56
525.634	88.56
525.849	81.56
526.064	82.56
526.28	94.56
526.495	92.56
526.71	85.56
526.925	70.56
527.14	80.56
527.355	86.56
527.57	89.56
527.785	86.56
527.999	74.56
528.214	84.56
528.429	99.56
528.644	93.56
528.859	86.56
529.074	84.56
529.289	64.56
529.503	88.56
529.718	66.56
529.933	95.56
530.148	72.56
530.363	70.56
530.577	72.56
530.792	86.56
531.007	88.56
531.221	79.56
531.436	79.56
531.651	94.56
531.865	84.56
532.08	79.56
532.295	88.56
532.509	76.56
532.724	87.56
532.938	92.56
533.153	88.56
533.367	88.56
533.582	79.56
533.796	96.56
534.011	92.56
534.225	82.56
534.44	78.56
534.654	90.56
534.868	82.56
535.083	96.56
535.297	88.56
535.511	94.56
535.726	79.56
535.94	84.56
536.154	83.56
536.369	92.56
536.583	81.56
536.797	76.56
537.011	78.56
537.225	76.56
537.44	85.56
537.654	87.56
537.868	97.56
538.082	98.56
538.296	80.56
538.51	85.56
538.724	81.56
538.938	85.56
539.153	86.56
539.367	93.56
539.581	92.56
539.795	95.56
540.009	93.56
540.222	84.56
540.436	94.56
540.65	84.56
540.864	93.56
541.078	89.56
541.292	84.56
541.506	88.56
541.72	89.56
541.934	108.56
542.147	80.56
542.361	78.56
542.575	82.56
542.789	78.56
543.002	91.56
543.216	90.56
543.43	88.56
543.644	81.56
543.857	84.56
544.071	75.56
544.285	92.56
544.498	88.56
544.712	90.56
544.925	78.56
545.139	80.56
545.352	88.56
545.566	97.56
545.779	98.56
545.993	77.56
546.206	90.56
546.42	78.56
546.633	83.56
546.847	88.56
547.06	73.56
547.274	66.56
547.487	84.56
547.7	82.56
547.914	95.56
548.127	94.56
548.34	88.56
548.554	76.56
548.767	88.56
548.98	96.56
549.193	77.56
549.407	90.56
549.62	90.56
549.833	92.56
550.046	84.56
550.259	67.56
550.473	86.56
550.686	87.56
550.899	83.56
551.112	86.56
551.325	82.56
551.538	85.56
551.751	71.56
551.964	82.56
552.177	91.56
552.39	72.56
552.603	67.56
552.816	88.56
553.029	74.56
553.242	81.56
553.455	90.56
553.667	83.56
553.88	98.56
554.093	82.56
554.306	91.56
554.519	77.56
554.732	89.56
554.944	85.56
555.157	83.56
555.37	90.56
555.583	77.56
555.795	86.56
556.008	84.56
556.221	74.56
556.433	89.56
556.646	82.56
556.859	88.56
557.071	92.56
557.284	83.56
557.496	83.56
557.709	81.56
557.921	89.56
558.134	66.56
558.346	101.56
558.559	78.56
558.771	82.56
558.984	82.56
559.196	83.56
559.409	84.56
559.621	86.56
559.833	84.56
560.046	81.56
560.258	94.56
560.47	76.56
560.683	78.56
560.895	89.56
561.107	80.56
561.32	74.56
561.532	72.56
561.744	105.56
561.956	94.56
562.168	85.56
562.381	83.56
562.593	104.56
562.805	80.56
563.017	98.56
563.229	88.56
563.441	76.56
563.653	82.56
563.865	91.56
564.077	74.56
564.289	79.56
564.501	76.56
564.713	95.56
564.925	84.56
565.137	77.56
565.349	76.56
565.561	82.56
565.773	83.56
565.985	96.56
566.197	71.56
566.408	90.56
566.62	98.56
566.832	82.56
567.044	81.56
567.255	84.56
567.467	77.56
567.679	84.56
567.891	72.56
568.102	85.56
568.314	85.56
568.526	109.56
568.737	94.56
568.949	77.56
569.161	107.56
569.372	97.56
569.584	96.56
569.795	98.56
570.007	83.56
570.218	83.56
570.43	89.56
570.641	79.56
570.853	92.56
571.064	90.56
571.276	91.56
571.487	81.56
571.698	82.56
571.91	79.56
572.121	88.56
572.333	94.56
572.544	96.56
572.755	92.56
572.966	77.56
573.178	93.56
573.389	87.56
573.6	73.56
573.811	86.56
574.023	82.56
574.234	70.56
574.445	86.56
574.656	82.56
574.867	100.56
575.078	83.56
575.289	83.56
575.501	89.56
575.712	76.56
575.923	85.56
576.134	84.56
576.345	75.56
576.556	73.56
576.767	83.56
576.978	87.56
577.188	88.56
577.399	82.56
577.61	91.56
577.821	112.56
578.032	82.56
578.243	87.56
578.454	94.56
578.665	82.56
578.875	94.56
579.086	79.56
579.297	76.56
579.508	100.56
579.718	78.56
579.929	86.56
580.14	87.56
580.35	73.56
580.561	104.56
580.772	90.56
580.982	74.56
581.193	83.56
581.403	85.56
581.614	83.56
581.825	82.56
582.035	85.56
582.246	84.56
582.456	76.56
582.667	88.56
582.877	90.56
583.087	92.56
583.298	89.56
583.508	93.56
583.719	97.56
583.929	101.56
584.139	109.56
584.35	98.56
584.56	94.56
584.77	96.56
584.981	69.56
585.191	76.56
585.401	85.56
585.611	86.56
585.821	71.56
586.032	91.56
586.242	101.56
586.452	73.56
586.662	74.56
586.872	98.56
587.082	97.56
587.292	77.56
587.502	91.56
587.713	90.56
587.923	78.56
588.133	99.56
588.343	94.56
588.553	111.56
588.762	129.56
588.972	255.56
589.182	668.56
589.392	438.56
589.602	318.56
589.812	563.56
590.022	297.56
590.232	131.56
590.441	105.56
590.651	88.56
590.861	91.56
591.071	85.56
591.281	87.56
591.49	77.56
591.7	75.56
591.91	92.56
592.119	99.56
592.329	79.56
592.539	86.56
592.748	81.56
592.958	85.56
593.167	66.56
593.377	83.56
593.587	86.56
593.796	83.56
594.006	76.56
594.215	83.56
594.424	83.56
594.634	70.56
594.843	86.56
595.053	92.56
595.262	82.56
595.472	82.56
595.681	79.56
595.89	87.56
596.1	76.56
596.309	77.56
596.518	73.56
596.727	82.56
596.937	80.56
597.146	85.56
597.355	90.56
597.564	95.56
597.774	85.56
597.983	86.56
598.192	97.56
598.401	94.56
598.61	106.56
598.819	77.56
599.028	89.56
599.237	91.56
599.446	86.56
599.655	93.56
599.864	80.56
600.073	79.56
600.282	100.56
600.491	103.56
600.7	85.56
600.909	83.56
601.118	79.56
601.327	97.56
601.536	89.56
601.745	83.56
601.953	86.56
602.162	80.56
602.371	93.56
602.58	92.56
602.789	92.56
602.997	99.56
603.206	97.56
603.415	95.56
603.623	84.56
603.832	78.56
604.041	74.56
604.249	93.56
604.458	91.56
604.666	82.56
604.875	79.56
605.084	99.56
605.292	79.56
605.501	78.56
605.709	85.56
605.918	85.56
606.126	79.56
606.334	81.56
606.543	84.56
606.751	92.56
606.96	93.56
607.168	97.56
607.376	103.56
607.585	92.56
607.793	86.56
608.001	73.56
608.21	86.56
608.418	97.56
608.626	94.56
608.834	99.56
609.043	80.56
609.251	91.56
609.459	95.56
609.667	106.56
609.875	87.56
610.083	92.56
610.291	78.56
610.499	81.56
610.707	95.56
610.916	90.56
611.124	87.56
611.332	86.56
611.54	76.56
611.748	72.56
611.955	93.56
612.163	87.56
612.371	91.56
612.579	84.56
612.787	87.56
612.995	92.56
613.203	109.56
613.411	89.56
613.618	89.56
613.826	75.56
614.034	87.56
614.242	83.56
614.449	78.56
614.657	82.56
614.865	81.56
615.072	96.56
615.28	80.56
615.488	86.56
615.695	88.56
615.903	76.56
616.111	88.56
616.318	76.56
616.526	77.56
616.733	92.56
616.941	96.56
617.148	90.56
617.356	89.56
617.563	72.56
617.771	69.56
617.978	88.56
618.185	84.56
618.393	109.56
618.6	80.56
618.807	91.56
619.015	101.56
619.222	94.56
619.429	89.56
619.637	86.56
619.844	74.56
620.051	91.56
620.258	85.56
620.466	76.56
620.673	96.56
620.88	91.56
621.087	83.56
621.294	79.56
621.501	74.56
621.708	78.56
621.915	84.56
622.122	83.56
622.329	99.56
622.536	79.56
622.743	67.56
622.95	88.56
623.157	94.56
623.364	97.56
623.571	84.56
623.778	86.56
623.985	93.56
624.192	82.56
624.399	76.56
624.606	85.56
624.812	87.56
625.019	89.56
625.226	74.56
625.433	77.56
625.639	82.56
625.846	76.56
626.053	82.56
626.259	74.56
626.466	78.56
626.673	92.56
626.879	77.56
627.086	84.56
627.293	93.56
627.499	80.56
627.706	91.56
627.912	80.56
628.119	78.56
628.325	90.56
628.532	99.56
628.738	82.56
628.945	90.56
629.151	74.56
629.357	89.56
629.564	94.56
629.77	76.56
629.976	80.56
630.183	68.56
630.389	84.56
630.595	78.56
630.802	88.56
631.008	90.56
631.214	77.56
631.42	82.56
631.627	85.56
631.833	83.56
632.039	87.56
632.245	88.56
632.451	89.56
632.657	88.56
632.863	79.56
633.069	89.56
633.275	94.56
633.481	78.56
633.688	74.56
633.893	82.56
634.099	87.56
634.305	76.56
634.511	86.56
634.717	89.56
634.923	80.56
635.129	85.56
635.335	74.56
635.541	83.56
635.747	76.56
635.952	76.56
636.158	81.56
636.364	81.56
636.57	82.56
636.775	83.56
636.981	68.56
637.187	84.56
637.392	70.56
637.598	68.56
637.804	79.56
638.009	72.56
638.215	77.56
638.421	77.56
638.626	74.56
638.832	92.56
639.037	100.56
639.243	84.56
639.448	98.56
639.654	85.56
639.859	74.56
640.065	85.56
640.27	87.56
640.475	75.56
640.681	93.56
640.886	76.56
641.091	78.56
641.297	89.56
641.502	78.56
641.707	79.56
641.913	86.56
642.118	80.56
642.323	96.56
642.528	92.56
642.733	88.56
642.939	89.56
643.144	80.56
643.349	92.56
643.554	76.56
643.759	101.56
643.964	80.56
644.169	97.56
644.374	82.56
644.579	97.56
644.784	83.56
644.989	83.56
645.194	85.56
645.399	81.56
645.604	68.56
645.809	93.56
646.014	87.56
646.219	76.56
646.423	84.56
646.628	90.56
646.833	84.56
647.038	94.56
647.243	84.56
647.447	90.56
647.652	69.56
647.857	70.56
648.062	91.56
648.266	82.56
648.471	92.56
648.676	81.56
648.88	101.56
649.085	88.56
649.289	86.56
649.494	78.56
649.698	88.56
649.903	71.56
650.107	89.56
650.312	88.56
650.516	98.56
650.721	87.56
650.925	77.56
651.13	81.56
651.334	68.56
651.539	82.56
651.743	89.56
651.947	88.56
652.152	88.56
652.356	70.56
652.56	85.56
652.764	76.56
652.969	81.56
653.173	81.56
653.377	87.56
653.581	80.56
653.785	90.56
653.99	72.56
654.194	78.56
654.398	84.56
654.602	68.56
654.806	69.56
655.01	74.56
655.214	99.56
655.418	78.56
655.622	82.56
655.826	76.56
656.03	87.56
656.234	73.56
656.438	85.56
656.642	80.56
656.846	89.56
657.049	78.56
657.253	92.56
657.457	82.56
657.661	82.56
657.865	77.56
658.068	88.56
658.272	75.56
658.476	80.56
658.68	81.56
658.883	70.56
659.087	89.56
659.291	80.56
659.494	84.56
659.698	75.56
659.901	92.56
660.105	76.56
660.309	87.56
660.512	83.56
660.716	83.56
660.919	71.56
661.123	83.56
661.326	80.56
661.53	90.56
661.733	73.56
661.936	69.56
662.14	83.56
662.343	81.56
662.546	78.56
662.75	84.56
662.953	88.56
663.156	89.56
663.36	77.56
663.563	77.56
663.766	76.56
663.969	90.56
664.173	89.56
664.376	78.56
664.579	88.56
664.782	76.56
664.985	71.56
665.188	74.56
665.391	86.56
665.594	81.56
665.797	90.56
666	80.56
666.203	73.56
666.406	88.56
666.609	76.56
666.812	85.56
667.015	77.56
667.218	86.56
667.421	78.56
667.624	75.56
667.827	86.56
668.03	71.56
668.232	94.56
668.435	82.56
668.638	75.56
668.841	74.56
669.043	89.56
669.246	86.56
669.449	83.56
669.651	92.56
669.854	80.56
670.057	96.56
670.259	80.56
670.462	71.56
670.665	78.56
670.867	79.56
671.07	77.56
671.272	81.56
671.475	89.56
671.677	71.56
671.88	101.56
672.082	85.56
672.284	99.56
672.487	83.56
672.689	83.56
672.892	84.56
