Data from Sand_3_HRD10591_00028.txt Node
Date: Mon Jan 19 13:34:47 EST 2026
User: Yrep
Spectrometer: HR+D1059
Trigger mode: 1
Integration Time (sec): 1.000000E-1
Scans to average: 1
Electric dark correction enabled: true
Nonlinearity correction enabled: false
Boxcar width: 0
XAxis mode: Wavelengths
Number of Pixels in Spectrum: 2048
>>>>>Begin Spectral Data<<<<<
223.165	-23.81
223.4	-23.81
223.635	-23.81
223.869	-18.81
224.104	-21.81
224.338	-7.81
224.573	-11.81
224.808	-7.81
225.042	-14.81
225.277	-6.81
225.511	-2.81
225.746	13.19
225.98	10.19
226.215	24.19
226.449	8.19
226.683	13.19
226.918	30.19
227.152	17.19
227.387	23.19
227.621	41.19
227.856	41.19
228.09	49.19
228.324	46.19
228.559	65.19
228.793	57.19
229.027	74.19
229.262	65.19
229.496	69.19
229.73	67.19
229.964	72.19
230.199	84.19
230.433	65.19
230.667	68.19
230.901	74.19
231.136	81.19
231.37	68.19
231.604	81.19
231.838	63.19
232.072	77.19
232.306	88.19
232.541	95.19
232.775	82.19
233.009	82.19
233.243	76.19
233.477	83.19
233.711	85.19
233.945	74.19
234.179	86.19
234.413	86.19
234.647	77.19
234.881	86.19
235.115	89.19
235.349	76.19
235.583	91.19
235.817	71.19
236.051	76.19
236.285	67.19
236.519	72.19
236.753	79.19
236.987	75.19
237.221	76.19
237.455	89.19
237.689	75.19
237.922	84.19
238.156	78.19
238.39	79.19
238.624	87.19
238.858	82.19
239.091	63.19
239.325	81.19
239.559	82.19
239.793	82.19
240.027	78.19
240.26	87.19
240.494	75.19
240.728	65.19
240.961	98.19
241.195	84.19
241.429	80.19
241.662	97.19
241.896	70.19
242.13	84.19
242.363	87.19
242.597	69.19
242.83	82.19
243.064	85.19
243.298	68.19
243.531	74.19
243.765	79.19
243.998	75.19
244.232	82.19
244.465	82.19
244.699	73.19
244.932	79.19
245.166	88.19
245.399	80.19
245.633	62.19
245.866	87.19
246.099	88.19
246.333	75.19
246.566	92.19
246.8	75.19
247.033	85.19
247.266	71.19
247.5	79.19
247.733	73.19
247.966	91.19
248.2	82.19
248.433	86.19
248.666	94.19
248.899	80.19
249.133	85.19
249.366	83.19
249.599	82.19
249.832	85.19
250.066	78.19
250.299	85.19
250.532	79.19
250.765	95.19
250.998	84.19
251.231	87.19
251.465	90.19
251.698	79.19
251.931	79.19
252.164	84.19
252.397	79.19
252.63	84.19
252.863	76.19
253.096	69.19
253.329	95.19
253.562	82.19
253.795	82.19
254.028	82.19
254.261	87.19
254.494	94.19
254.727	88.19
254.96	78.19
255.193	69.19
255.426	89.19
255.659	76.19
255.892	85.19
256.124	95.19
256.357	69.19
256.59	97.19
256.823	85.19
257.056	92.19
257.289	82.19
257.521	79.19
257.754	70.19
257.987	73.19
258.22	75.19
258.452	73.19
258.685	87.19
258.918	74.19
259.151	83.19
259.383	69.19
259.616	75.19
259.849	87.19
260.081	81.19
260.314	74.19
260.547	76.19
260.779	66.19
261.012	71.19
261.244	75.19
261.477	93.19
261.71	89.19
261.942	86.19
262.175	77.19
262.407	83.19
262.64	79.19
262.872	85.19
263.105	90.19
263.337	73.19
263.57	79.19
263.802	84.19
264.035	81.19
264.267	86.19
264.499	85.19
264.732	77.19
264.964	78.19
265.197	79.19
265.429	85.19
265.661	96.19
265.894	83.19
266.126	96.19
266.358	92.19
266.591	89.19
266.823	87.19
267.055	80.19
267.287	86.19
267.52	70.19
267.752	72.19
267.984	84.19
268.216	81.19
268.448	72.19
268.681	69.19
268.913	73.19
269.145	93.19
269.377	91.19
269.609	74.19
269.841	77.19
270.073	74.19
270.306	70.19
270.538	81.19
270.77	85.19
271.002	87.19
271.234	85.19
271.466	89.19
271.698	93.19
271.93	77.19
272.162	84.19
272.394	81.19
272.626	75.19
272.858	81.19
273.09	87.19
273.322	98.19
273.553	84.19
273.785	80.19
274.017	83.19
274.249	79.19
274.481	77.19
274.713	86.19
274.945	86.19
275.176	77.19
275.408	87.19
275.64	89.19
275.872	73.19
276.104	86.19
276.335	97.19
276.567	89.19
276.799	81.19
277.031	73.19
277.262	91.19
277.494	87.19
277.726	84.19
277.957	83.19
278.189	87.19
278.421	80.19
278.652	85.19
278.884	74.19
279.115	90.19
279.347	85.19
279.579	94.19
279.81	89.19
280.042	86.19
280.273	88.19
280.505	82.19
280.736	72.19
280.968	85.19
281.199	84.19
281.431	88.19
281.662	80.19
281.894	82.19
282.125	82.19
282.356	91.19
282.588	86.19
282.819	83.19
283.051	84.19
283.282	84.19
283.513	82.19
283.745	93.19
283.976	90.19
284.207	80.19
284.439	84.19
284.67	86.19
284.901	93.19
285.132	96.19
285.364	88.19
285.595	90.19
285.826	93.19
286.057	95.19
286.288	81.19
286.52	91.19
286.751	78.19
286.982	83.19
287.213	78.19
287.444	85.19
287.675	87.19
287.906	85.19
288.138	85.19
288.369	97.19
288.6	84.19
288.831	83.19
289.062	79.19
289.293	74.19
289.524	70.19
289.755	94.19
289.986	77.19
290.217	91.19
290.448	97.19
290.679	98.19
290.91	74.19
291.141	91.19
291.371	83.19
291.602	81.19
291.833	92.19
292.064	91.19
292.295	85.19
292.526	91.19
292.757	84.19
292.987	86.19
293.218	91.19
293.449	91.19
293.68	89.19
293.91	95.19
294.141	86.19
294.372	92.19
294.603	85.19
294.833	92.19
295.064	74.19
295.295	73.19
295.525	75.19
295.756	70.19
295.987	79.19
296.217	79.19
296.448	84.19
296.679	91.19
296.909	101.19
297.14	100.19
297.37	98.19
297.601	101.19
297.831	81.19
298.062	84.19
298.292	90.19
298.523	96.19
298.753	95.19
298.984	81.19
299.214	88.19
299.445	87.19
299.675	103.19
299.905	96.19
300.136	109.19
300.366	93.19
300.597	101.19
300.827	69.19
301.057	83.19
301.288	96.19
301.518	84.19
301.748	81.19
301.979	104.19
302.209	98.19
302.439	93.19
302.669	69.19
302.9	86.19
303.13	92.19
303.36	102.19
303.59	90.19
303.82	78.19
304.051	90.19
304.281	83.19
304.511	93.19
304.741	81.19
304.971	93.19
305.201	90.19
305.431	89.19
305.661	88.19
305.891	78.19
306.121	86.19
306.352	97.19
306.582	94.19
306.812	81.19
307.042	84.19
307.272	94.19
307.502	95.19
307.731	95.19
307.961	97.19
308.191	105.19
308.421	82.19
308.651	86.19
308.881	97.19
309.111	87.19
309.341	101.19
309.571	102.19
309.8	86.19
310.03	90.19
310.26	97.19
310.49	79.19
310.72	90.19
310.949	102.19
311.179	88.19
311.409	89.19
311.639	101.19
311.868	98.19
312.098	101.19
312.328	95.19
312.557	77.19
312.787	89.19
313.017	90.19
313.246	84.19
313.476	84.19
313.706	79.19
313.935	109.19
314.165	91.19
314.394	93.19
314.624	88.19
314.853	94.19
315.083	97.19
315.312	94.19
315.542	94.19
315.771	83.19
316.001	85.19
316.23	95.19
316.46	98.19
316.689	83.19
316.919	95.19
317.148	87.19
317.377	92.19
317.607	97.19
317.836	92.19
318.065	101.19
318.295	109.19
318.524	75.19
318.753	91.19
318.983	93.19
319.212	94.19
319.441	86.19
319.67	78.19
319.9	83.19
320.129	96.19
320.358	88.19
320.587	86.19
320.816	85.19
321.046	92.19
321.275	88.19
321.504	92.19
321.733	100.19
321.962	92.19
322.191	88.19
322.42	87.19
322.649	92.19
322.878	80.19
323.108	88.19
323.337	73.19
323.566	81.19
323.795	90.19
324.024	92.19
324.253	95.19
324.482	86.19
324.71	88.19
324.939	93.19
325.168	89.19
325.397	77.19
325.626	111.19
325.855	86.19
326.084	90.19
326.313	95.19
326.542	79.19
326.77	81.19
326.999	90.19
327.228	90.19
327.457	78.19
327.686	85.19
327.914	91.19
328.143	98.19
328.372	106.19
328.6	77.19
328.829	86.19
329.058	79.19
329.287	93.19
329.515	94.19
329.744	93.19
329.972	95.19
330.201	108.19
330.43	99.19
330.658	94.19
330.887	89.19
331.115	76.19
331.344	91.19
331.572	102.19
331.801	93.19
332.03	88.19
332.258	83.19
332.486	103.19
332.715	86.19
332.943	106.19
333.172	89.19
333.4	83.19
333.629	88.19
333.857	97.19
334.085	76.19
334.314	87.19
334.542	89.19
334.771	88.19
334.999	83.19
335.227	89.19
335.455	109.19
335.684	77.19
335.912	94.19
336.14	93.19
336.369	92.19
336.597	92.19
336.825	98.19
337.053	102.19
337.281	91.19
337.51	97.19
337.738	95.19
337.966	82.19
338.194	95.19
338.422	77.19
338.65	87.19
338.878	83.19
339.106	81.19
339.334	85.19
339.562	95.19
339.79	89.19
340.018	87.19
340.246	95.19
340.474	84.19
340.702	88.19
340.93	93.19
341.158	91.19
341.386	96.19
341.614	87.19
341.842	91.19
342.07	87.19
342.298	110.19
342.526	91.19
342.754	92.19
342.981	89.19
343.209	79.19
343.437	114.19
343.665	73.19
343.893	88.19
344.12	81.19
344.348	103.19
344.576	113.19
344.804	142.19
345.031	121.19
345.259	115.19
345.487	97.19
345.714	95.19
345.942	91.19
346.17	91.19
346.397	92.19
346.625	91.19
346.853	88.19
347.08	80.19
347.308	97.19
347.535	83.19
347.763	93.19
347.99	84.19
348.218	89.19
348.445	85.19
348.673	79.19
348.9	93.19
349.128	89.19
349.355	98.19
349.583	100.19
349.81	74.19
350.037	93.19
350.265	94.19
350.492	97.19
350.72	80.19
350.947	92.19
351.174	85.19
351.402	98.19
351.629	87.19
351.856	83.19
352.083	96.19
352.311	91.19
352.538	90.19
352.765	99.19
352.992	101.19
353.22	82.19
353.447	83.19
353.674	91.19
353.901	86.19
354.128	95.19
354.355	81.19
354.583	91.19
354.81	88.19
355.037	93.19
355.264	92.19
355.491	84.19
355.718	93.19
355.945	89.19
356.172	91.19
356.399	105.19
356.626	94.19
356.853	101.19
357.08	84.19
357.307	90.19
357.534	91.19
357.761	96.19
357.988	101.19
358.215	99.19
358.441	97.19
358.668	86.19
358.895	96.19
359.122	77.19
359.349	90.19
359.576	90.19
359.802	94.19
360.029	92.19
360.256	79.19
360.483	85.19
360.709	96.19
360.936	99.19
361.163	88.19
361.39	100.19
361.616	92.19
361.843	96.19
362.07	84.19
362.296	87.19
362.523	92.19
362.749	93.19
362.976	86.19
363.203	90.19
363.429	83.19
363.656	87.19
363.882	80.19
364.109	110.19
364.335	97.19
364.562	91.19
364.788	97.19
365.015	86.19
365.241	75.19
365.468	93.19
365.694	97.19
365.92	86.19
366.147	89.19
366.373	86.19
366.599	90.19
366.826	97.19
367.052	101.19
367.278	90.19
367.505	103.19
367.731	79.19
367.957	94.19
368.184	95.19
368.41	95.19
368.636	97.19
368.862	88.19
369.089	87.19
369.315	79.19
369.541	97.19
369.767	101.19
369.993	110.19
370.219	79.19
370.445	92.19
370.672	85.19
370.898	81.19
371.124	89.19
371.35	90.19
371.576	97.19
371.802	89.19
372.028	89.19
372.254	93.19
372.48	92.19
372.706	82.19
372.932	85.19
373.158	93.19
373.384	94.19
373.61	91.19
373.835	103.19
374.061	85.19
374.287	90.19
374.513	74.19
374.739	84.19
374.965	91.19
375.191	96.19
375.416	79.19
375.642	89.19
375.868	88.19
376.094	89.19
376.319	86.19
376.545	79.19
376.771	91.19
376.997	81.19
377.222	79.19
377.448	92.19
377.674	89.19
377.899	106.19
378.125	81.19
378.35	85.19
378.576	83.19
378.802	91.19
379.027	92.19
379.253	94.19
379.478	92.19
379.704	86.19
379.929	89.19
380.155	94.19
380.38	95.19
380.606	96.19
380.831	89.19
381.057	90.19
381.282	96.19
381.507	90.19
381.733	93.19
381.958	68.19
382.184	87.19
382.409	95.19
382.634	81.19
382.86	94.19
383.085	87.19
383.31	86.19
383.535	105.19
383.761	95.19
383.986	92.19
384.211	93.19
384.436	92.19
384.662	86.19
384.887	86.19
385.112	86.19
385.337	75.19
385.562	88.19
385.787	88.19
386.013	91.19
386.238	96.19
386.463	101.19
386.688	87.19
386.913	97.19
387.138	92.19
387.363	105.19
387.588	97.19
387.813	85.19
388.038	86.19
388.263	91.19
388.488	93.19
388.713	81.19
388.938	85.19
389.163	101.19
389.387	90.19
389.612	97.19
389.837	108.19
390.062	95.19
390.287	87.19
390.512	89.19
390.736	77.19
390.961	82.19
391.186	79.19
391.411	92.19
391.636	91.19
391.86	102.19
392.085	88.19
392.31	101.19
392.534	102.19
392.759	99.19
392.984	95.19
393.208	97.19
393.433	147.19
393.658	123.19
393.882	97.19
394.107	102.19
394.331	111.19
394.556	147.19
394.78	109.19
395.005	100.19
395.229	93.19
395.454	91.19
395.678	103.19
395.903	127.19
396.127	157.19
396.352	188.19
396.576	138.19
396.801	117.19
397.025	115.19
397.249	99.19
397.474	87.19
397.698	93.19
397.922	97.19
398.147	95.19
398.371	85.19
398.595	95.19
398.82	111.19
399.044	99.19
399.268	86.19
399.492	96.19
399.717	93.19
399.941	95.19
400.165	106.19
400.389	89.19
400.613	88.19
400.837	93.19
401.062	85.19
401.286	92.19
401.51	100.19
401.734	96.19
401.958	89.19
402.182	93.19
402.406	101.19
402.63	96.19
402.854	85.19
403.078	103.19
403.302	106.19
403.526	109.19
403.75	116.19
403.974	150.19
404.198	264.19
404.422	473.19
404.645	597.19
404.869	463.19
405.093	287.19
405.317	145.19
405.541	119.19
405.765	99.19
405.988	103.19
406.212	98.19
406.436	96.19
406.66	99.19
406.883	85.19
407.107	100.19
407.331	90.19
407.555	91.19
407.778	82.19
408.002	95.19
408.226	92.19
408.449	88.19
408.673	99.19
408.896	98.19
409.12	84.19
409.344	91.19
409.567	97.19
409.791	98.19
410.014	81.19
410.238	81.19
410.461	97.19
410.685	90.19
410.908	79.19
411.132	89.19
411.355	87.19
411.578	91.19
411.802	99.19
412.025	92.19
412.249	97.19
412.472	78.19
412.695	87.19
412.919	87.19
413.142	102.19
413.365	86.19
413.589	79.19
413.812	96.19
414.035	87.19
414.258	99.19
414.482	93.19
414.705	101.19
414.928	82.19
415.151	94.19
415.374	97.19
415.597	98.19
415.821	106.19
416.044	85.19
416.267	98.19
416.49	103.19
416.713	98.19
416.936	87.19
417.159	95.19
417.382	97.19
417.605	92.19
417.828	93.19
418.051	95.19
418.274	103.19
418.497	89.19
418.72	91.19
418.943	86.19
419.166	94.19
419.389	89.19
419.611	90.19
419.834	79.19
420.057	81.19
420.28	79.19
420.503	110.19
420.726	92.19
420.948	87.19
421.171	89.19
421.394	106.19
421.617	99.19
421.839	89.19
422.062	81.19
422.285	99.19
422.507	123.19
422.73	177.19
422.953	179.19
423.175	113.19
423.398	97.19
423.621	86.19
423.843	90.19
424.066	102.19
424.288	105.19
424.511	96.19
424.733	90.19
424.956	92.19
425.178	107.19
425.401	85.19
425.623	91.19
425.846	83.19
426.068	95.19
426.291	109.19
426.513	84.19
426.735	99.19
426.958	103.19
427.18	81.19
427.402	93.19
427.625	99.19
427.847	81.19
428.069	91.19
428.292	89.19
428.514	85.19
428.736	92.19
428.958	84.19
429.181	98.19
429.403	89.19
429.625	88.19
429.847	90.19
430.069	92.19
430.292	103.19
430.514	102.19
430.736	106.19
430.958	87.19
431.18	79.19
431.402	90.19
431.624	103.19
431.846	89.19
432.068	93.19
432.29	81.19
432.512	97.19
432.734	94.19
432.956	93.19
433.178	91.19
433.4	93.19
433.622	93.19
433.844	99.19
434.066	78.19
434.287	91.19
434.509	97.19
434.731	77.19
434.953	89.19
435.175	77.19
435.397	91.19
435.618	81.19
435.84	87.19
436.062	91.19
436.284	77.19
436.505	98.19
436.727	79.19
436.949	97.19
437.17	87.19
437.392	82.19
437.614	94.19
437.835	90.19
438.057	78.19
438.278	89.19
438.5	91.19
438.721	93.19
438.943	84.19
439.165	90.19
439.386	78.19
439.608	101.19
439.829	87.19
440.05	108.19
440.272	89.19
440.493	108.19
440.715	78.19
440.936	83.19
441.158	87.19
441.379	97.19
441.6	100.19
441.822	87.19
442.043	116.19
442.264	98.19
442.486	96.19
442.707	101.19
442.928	103.19
443.149	80.19
443.371	101.19
443.592	114.19
443.813	98.19
444.034	89.19
444.255	89.19
444.476	80.19
444.698	95.19
444.919	83.19
445.14	157.19
445.361	118.19
445.582	102.19
445.803	106.19
446.024	97.19
446.245	97.19
446.466	94.19
446.687	95.19
446.908	93.19
447.129	90.19
447.35	80.19
447.571	100.19
447.792	99.19
448.013	92.19
448.234	95.19
448.455	86.19
448.675	84.19
448.896	86.19
449.117	93.19
449.338	83.19
449.559	89.19
449.779	91.19
450	91.19
450.221	111.19
450.442	98.19
450.662	97.19
450.883	102.19
451.104	97.19
451.324	82.19
451.545	106.19
451.766	103.19
451.986	78.19
452.207	88.19
452.428	93.19
452.648	98.19
452.869	86.19
453.089	89.19
453.31	73.19
453.53	78.19
453.751	88.19
453.971	86.19
454.192	100.19
454.412	88.19
454.633	99.19
454.853	109.19
455.073	95.19
455.294	88.19
455.514	95.19
455.734	95.19
455.955	101.19
456.175	93.19
456.395	86.19
456.616	94.19
456.836	85.19
457.056	95.19
457.276	81.19
457.497	102.19
457.717	80.19
457.937	95.19
458.157	101.19
458.377	87.19
458.598	82.19
458.818	83.19
459.038	103.19
459.258	98.19
459.478	89.19
459.698	102.19
459.918	91.19
460.138	95.19
460.358	82.19
460.578	96.19
460.798	91.19
461.018	94.19
461.238	90.19
461.458	101.19
461.678	96.19
461.898	90.19
462.118	93.19
462.338	87.19
462.558	92.19
462.777	83.19
462.997	94.19
463.217	87.19
463.437	91.19
463.657	97.19
463.876	101.19
464.096	101.19
464.316	97.19
464.536	102.19
464.755	100.19
464.975	85.19
465.195	72.19
465.414	74.19
465.634	102.19
465.854	83.19
466.073	95.19
466.293	86.19
466.512	85.19
466.732	89.19
466.951	100.19
467.171	79.19
467.391	93.19
467.61	106.19
467.829	96.19
468.049	95.19
468.268	95.19
468.488	87.19
468.707	109.19
468.927	98.19
469.146	95.19
469.365	89.19
469.585	100.19
469.804	98.19
470.023	94.19
470.243	87.19
470.462	94.19
470.681	91.19
470.901	93.19
471.12	105.19
471.339	84.19
471.558	89.19
471.777	91.19
471.997	93.19
472.216	97.19
472.435	88.19
472.654	100.19
472.873	88.19
473.092	94.19
473.311	96.19
473.53	99.19
473.749	91.19
473.968	103.19
474.187	89.19
474.406	85.19
474.625	110.19
474.844	107.19
475.063	98.19
475.282	86.19
475.501	107.19
475.72	92.19
475.939	114.19
476.158	93.19
476.377	83.19
476.596	83.19
476.814	103.19
477.033	99.19
477.252	100.19
477.471	95.19
477.69	107.19
477.908	86.19
478.127	98.19
478.346	102.19
478.564	97.19
478.783	97.19
479.002	111.19
479.22	115.19
479.439	106.19
479.658	102.19
479.876	100.19
480.095	100.19
480.313	95.19
480.532	89.19
480.751	117.19
480.969	91.19
481.188	91.19
481.406	84.19
481.624	95.19
481.843	101.19
482.061	101.19
482.28	96.19
482.498	107.19
482.717	90.19
482.935	105.19
483.153	105.19
483.372	109.19
483.59	91.19
483.808	93.19
484.027	102.19
484.245	99.19
484.463	104.19
484.681	95.19
484.9	91.19
485.118	90.19
485.336	93.19
485.554	93.19
485.772	81.19
485.99	84.19
486.209	85.19
486.427	100.19
486.645	77.19
486.863	93.19
487.081	103.19
487.299	105.19
487.517	102.19
487.735	102.19
487.953	96.19
488.171	93.19
488.389	89.19
488.607	98.19
488.825	81.19
489.043	99.19
489.261	85.19
489.479	101.19
489.696	99.19
489.914	101.19
490.132	95.19
490.35	105.19
490.568	97.19
490.786	93.19
491.003	98.19
491.221	96.19
491.439	94.19
491.657	99.19
491.874	102.19
492.092	122.19
492.31	115.19
492.527	98.19
492.745	118.19
492.963	99.19
493.18	103.19
493.398	84.19
493.615	101.19
493.833	102.19
494.05	114.19
494.268	95.19
494.485	88.19
494.703	89.19
494.92	98.19
495.138	93.19
495.355	118.19
495.573	103.19
495.79	111.19
496.008	102.19
496.225	93.19
496.442	89.19
496.66	102.19
496.877	103.19
497.094	113.19
497.312	98.19
497.529	105.19
497.746	101.19
497.963	98.19
498.181	109.19
498.398	93.19
498.615	97.19
498.832	109.19
499.049	110.19
499.267	106.19
499.484	103.19
499.701	113.19
499.918	97.19
500.135	92.19
500.352	118.19
500.569	95.19
500.786	106.19
501.003	113.19
501.22	102.19
501.437	102.19
501.654	102.19
501.871	83.19
502.088	111.19
502.305	105.19
502.522	105.19
502.739	100.19
502.956	97.19
503.172	81.19
503.389	95.19
503.606	91.19
503.823	113.19
504.04	114.19
504.256	99.19
504.473	99.19
504.69	85.19
504.907	95.19
505.123	100.19
505.34	113.19
505.557	104.19
505.773	94.19
505.99	113.19
506.207	100.19
506.423	99.19
506.64	112.19
506.856	97.19
507.073	108.19
507.289	95.19
507.506	101.19
507.722	99.19
507.939	111.19
508.155	105.19
508.372	97.19
508.588	106.19
508.805	101.19
509.021	102.19
509.238	106.19
509.454	93.19
509.67	113.19
509.887	102.19
510.103	122.19
510.319	113.19
510.536	102.19
510.752	102.19
510.968	91.19
511.184	101.19
511.401	83.19
511.617	122.19
511.833	122.19
512.049	109.19
512.265	110.19
512.481	102.19
512.698	103.19
512.914	96.19
513.13	100.19
513.346	100.19
513.562	106.19
513.778	109.19
513.994	94.19
514.21	95.19
514.426	95.19
514.642	95.19
514.858	102.19
515.074	93.19
515.29	114.19
515.506	88.19
515.721	87.19
515.937	107.19
516.153	111.19
516.369	102.19
516.585	84.19
516.801	93.19
517.016	99.19
517.232	91.19
517.448	93.19
517.664	102.19
517.879	71.19
518.095	97.19
518.311	88.19
518.527	85.19
518.742	95.19
518.958	101.19
519.173	82.19
519.389	89.19
519.605	92.19
519.82	99.19
520.036	85.19
520.251	86.19
520.467	93.19
520.682	97.19
520.898	88.19
521.113	90.19
521.329	99.19
521.544	106.19
521.76	107.19
521.975	99.19
522.19	103.19
522.406	80.19
522.621	89.19
522.836	93.19
523.052	107.19
523.267	102.19
523.482	92.19
523.698	101.19
523.913	110.19
524.128	97.19
524.343	100.19
524.559	100.19
524.774	92.19
524.989	102.19
525.204	105.19
525.419	105.19
525.634	87.19
525.849	103.19
526.064	110.19
526.28	85.19
526.495	94.19
526.71	95.19
526.925	100.19
527.14	88.19
527.355	107.19
527.57	99.19
527.785	98.19
527.999	104.19
528.214	113.19
528.429	97.19
528.644	90.19
528.859	93.19
529.074	114.19
529.289	110.19
529.503	93.19
529.718	100.19
529.933	103.19
530.148	97.19
530.363	107.19
530.577	91.19
530.792	94.19
531.007	85.19
531.221	113.19
531.436	93.19
531.651	112.19
531.865	93.19
532.08	93.19
532.295	111.19
532.509	125.19
532.724	113.19
532.938	140.19
533.153	121.19
533.367	105.19
533.582	116.19
533.796	99.19
534.011	117.19
534.225	132.19
534.44	146.19
534.654	132.19
534.868	141.19
535.083	130.19
535.297	121.19
535.511	123.19
535.726	114.19
535.94	109.19
536.154	119.19
536.369	124.19
536.583	123.19
536.797	119.19
537.011	107.19
537.225	126.19
537.44	109.19
537.654	101.19
537.868	103.19
538.082	99.19
538.296	98.19
538.51	100.19
538.724	102.19
538.938	106.19
539.153	101.19
539.367	99.19
539.581	85.19
539.795	92.19
540.009	99.19
540.222	94.19
540.436	97.19
540.65	91.19
540.864	87.19
541.078	94.19
541.292	103.19
541.506	102.19
541.72	102.19
541.934	94.19
542.147	101.19
542.361	106.19
542.575	89.19
542.789	95.19
543.002	83.19
543.216	95.19
543.43	89.19
543.644	95.19
543.857	88.19
544.071	82.19
544.285	101.19
544.498	80.19
544.712	85.19
544.925	91.19
545.139	88.19
545.352	95.19
545.566	95.19
545.779	80.19
545.993	101.19
546.206	89.19
546.42	92.19
546.633	107.19
546.847	97.19
547.06	84.19
547.274	86.19
547.487	103.19
547.7	83.19
547.914	90.19
548.127	89.19
548.34	95.19
548.554	96.19
548.767	91.19
548.98	97.19
549.193	86.19
549.407	81.19
549.62	93.19
549.833	95.19
550.046	94.19
550.259	90.19
550.473	105.19
550.686	91.19
550.899	100.19
551.112	95.19
551.325	81.19
551.538	105.19
551.751	101.19
551.964	86.19
552.177	101.19
552.39	89.19
552.603	81.19
552.816	102.19
553.029	93.19
553.242	86.19
553.455	86.19
553.667	102.19
553.88	97.19
554.093	91.19
554.306	96.19
554.519	91.19
554.732	94.19
554.944	103.19
555.157	97.19
555.37	97.19
555.583	97.19
555.795	98.19
556.008	84.19
556.221	105.19
556.433	84.19
556.646	101.19
556.859	96.19
557.071	96.19
557.284	91.19
557.496	95.19
557.709	83.19
557.921	98.19
558.134	92.19
558.346	96.19
558.559	99.19
558.771	92.19
558.984	87.19
559.196	92.19
559.409	93.19
559.621	111.19
559.833	102.19
560.046	100.19
560.258	95.19
560.47	89.19
560.683	111.19
560.895	87.19
561.107	91.19
561.32	79.19
561.532	94.19
561.744	95.19
561.956	90.19
562.168	110.19
562.381	90.19
562.593	113.19
562.805	109.19
563.017	98.19
563.229	98.19
563.441	82.19
563.653	79.19
563.865	91.19
564.077	90.19
564.289	93.19
564.501	87.19
564.713	71.19
564.925	94.19
565.137	90.19
565.349	102.19
565.561	100.19
565.773	102.19
565.985	110.19
566.197	90.19
566.408	93.19
566.62	99.19
566.832	100.19
567.044	85.19
567.255	87.19
567.467	107.19
567.679	90.19
567.891	100.19
568.102	109.19
568.314	93.19
568.526	92.19
568.737	123.19
568.949	121.19
569.161	141.19
569.372	123.19
569.584	100.19
569.795	102.19
570.007	112.19
570.218	92.19
570.43	114.19
570.641	105.19
570.853	107.19
571.064	93.19
571.276	89.19
571.487	79.19
571.698	98.19
571.91	86.19
572.121	95.19
572.333	97.19
572.544	95.19
572.755	101.19
572.966	91.19
573.178	95.19
573.389	82.19
573.6	85.19
573.811	112.19
574.023	90.19
574.234	95.19
574.445	95.19
574.656	84.19
574.867	84.19
575.078	88.19
575.289	86.19
575.501	100.19
575.712	100.19
575.923	78.19
576.134	100.19
576.345	95.19
576.556	105.19
576.767	108.19
576.978	96.19
577.188	92.19
577.399	96.19
577.61	104.19
577.821	103.19
578.032	102.19
578.243	112.19
578.454	122.19
578.665	145.19
578.875	129.19
579.086	113.19
579.297	117.19
579.508	100.19
579.718	106.19
579.929	123.19
580.14	137.19
580.35	163.19
580.561	209.19
580.772	188.19
580.982	171.19
581.193	140.19
581.403	140.19
581.614	133.19
581.825	122.19
582.035	109.19
582.246	102.19
582.456	98.19
582.667	103.19
582.877	110.19
583.087	108.19
583.298	112.19
583.508	125.19
583.719	156.19
583.929	133.19
584.139	113.19
584.35	114.19
584.56	109.19
584.77	117.19
584.981	106.19
585.191	105.19
585.401	105.19
585.611	117.19
585.821	112.19
586.032	112.19
586.242	105.19
586.452	108.19
586.662	99.19
586.872	105.19
587.082	102.19
587.292	115.19
587.502	107.19
587.713	130.19
587.923	146.19
588.133	135.19
588.343	167.19
588.553	219.19
588.762	343.19
588.972	802.19
589.182	1805.19
589.392	1345.19
589.602	886.19
589.812	1533.19
590.022	850.19
590.232	342.19
590.441	194.19
590.651	151.19
590.861	152.19
591.071	126.19
591.281	112.19
591.49	110.19
591.7	104.19
591.91	102.19
592.119	93.19
592.329	100.19
592.539	99.19
592.748	94.19
592.958	98.19
593.167	101.19
593.377	99.19
593.587	89.19
593.796	97.19
594.006	100.19
594.215	94.19
594.424	107.19
594.634	97.19
594.843	96.19
595.053	100.19
595.262	100.19
595.472	92.19
595.681	99.19
595.89	86.19
596.1	95.19
596.309	98.19
596.518	93.19
596.727	99.19
596.937	93.19
597.146	92.19
597.355	90.19
597.564	98.19
597.774	86.19
597.983	97.19
598.192	87.19
598.401	86.19
598.61	94.19
598.819	97.19
599.028	80.19
599.237	82.19
599.446	96.19
599.655	94.19
599.864	92.19
600.073	82.19
600.282	91.19
600.491	99.19
600.7	83.19
600.909	96.19
601.118	91.19
601.327	99.19
601.536	89.19
601.745	101.19
601.953	101.19
602.162	91.19
602.371	92.19
602.58	95.19
602.789	86.19
602.997	101.19
603.206	102.19
603.415	107.19
603.623	81.19
603.832	95.19
604.041	113.19
604.249	84.19
604.458	87.19
604.666	84.19
604.875	86.19
605.084	95.19
605.292	84.19
605.501	105.19
605.709	99.19
605.918	93.19
606.126	81.19
606.334	86.19
606.543	99.19
606.751	103.19
606.96	88.19
607.168	89.19
607.376	78.19
607.585	77.19
607.793	101.19
608.001	95.19
608.21	87.19
608.418	94.19
608.626	91.19
608.834	92.19
609.043	81.19
609.251	93.19
609.459	89.19
609.667	98.19
609.875	96.19
610.083	93.19
610.291	100.19
610.499	90.19
610.707	94.19
610.916	83.19
611.124	87.19
611.332	98.19
611.54	96.19
611.748	93.19
611.955	98.19
612.163	84.19
612.371	98.19
612.579	100.19
612.787	81.19
612.995	87.19
613.203	100.19
613.411	85.19
613.618	93.19
613.826	93.19
614.034	74.19
614.242	94.19
614.449	112.19
614.657	87.19
614.865	90.19
615.072	98.19
615.28	92.19
615.488	115.19
615.695	91.19
615.903	108.19
616.111	97.19
616.318	114.19
616.526	110.19
616.733	98.19
616.941	79.19
617.148	88.19
617.356	78.19
617.563	84.19
617.771	102.19
617.978	99.19
618.185	85.19
618.393	93.19
618.6	105.19
618.807	89.19
619.015	97.19
619.222	94.19
619.429	99.19
619.637	99.19
619.844	83.19
620.051	89.19
620.258	85.19
620.466	99.19
620.673	109.19
620.88	97.19
621.087	93.19
621.294	87.19
621.501	95.19
621.708	93.19
621.915	97.19
622.122	82.19
622.329	92.19
622.536	73.19
622.743	96.19
622.95	96.19
623.157	91.19
623.364	80.19
623.571	86.19
623.778	93.19
623.985	90.19
624.192	91.19
624.399	102.19
624.606	98.19
624.812	84.19
625.019	77.19
625.226	102.19
625.433	90.19
625.639	98.19
625.846	93.19
626.053	92.19
626.259	103.19
626.466	88.19
626.673	96.19
626.879	90.19
627.086	84.19
627.293	100.19
627.499	83.19
627.706	98.19
627.912	102.19
628.119	102.19
628.325	82.19
628.532	101.19
628.738	100.19
628.945	91.19
629.151	91.19
629.357	82.19
629.564	94.19
629.77	94.19
629.976	92.19
630.183	76.19
630.389	87.19
630.595	95.19
630.802	71.19
631.008	82.19
631.214	102.19
631.42	96.19
631.627	98.19
631.833	92.19
632.039	96.19
632.245	84.19
632.451	86.19
632.657	92.19
632.863	83.19
633.069	96.19
633.275	79.19
633.481	86.19
633.688	86.19
633.893	71.19
634.099	86.19
634.305	86.19
634.511	99.19
634.717	95.19
634.923	81.19
635.129	90.19
635.335	80.19
635.541	102.19
635.747	89.19
635.952	90.19
636.158	91.19
636.364	107.19
636.57	107.19
636.775	90.19
636.981	75.19
637.187	94.19
637.392	83.19
637.598	85.19
637.804	100.19
638.009	96.19
638.215	83.19
638.421	89.19
638.626	89.19
638.832	92.19
639.037	86.19
639.243	85.19
639.448	93.19
639.654	106.19
639.859	93.19
640.065	97.19
640.27	95.19
640.475	93.19
640.681	81.19
640.886	83.19
641.091	95.19
641.297	94.19
641.502	100.19
641.707	94.19
641.913	85.19
642.118	107.19
642.323	97.19
642.528	91.19
642.733	79.19
642.939	91.19
643.144	77.19
643.349	78.19
643.554	94.19
643.759	91.19
643.964	84.19
644.169	101.19
644.374	91.19
644.579	89.19
644.784	97.19
644.989	93.19
645.194	91.19
645.399	97.19
645.604	90.19
645.809	77.19
646.014	92.19
646.219	88.19
646.423	83.19
646.628	106.19
646.833	93.19
647.038	107.19
647.243	97.19
647.447	96.19
647.652	89.19
647.857	72.19
648.062	85.19
648.266	85.19
648.471	90.19
648.676	78.19
648.88	95.19
649.085	86.19
649.289	88.19
649.494	102.19
649.698	102.19
649.903	98.19
650.107	71.19
650.312	87.19
650.516	80.19
650.721	88.19
650.925	93.19
651.13	99.19
651.334	93.19
651.539	92.19
651.743	81.19
651.947	83.19
652.152	93.19
652.356	100.19
652.56	90.19
652.764	88.19
652.969	81.19
653.173	92.19
653.377	80.19
653.581	85.19
653.785	90.19
653.99	84.19
654.194	86.19
654.398	95.19
654.602	91.19
654.806	93.19
655.01	85.19
655.214	89.19
655.418	82.19
655.622	74.19
655.826	74.19
656.03	86.19
656.234	73.19
656.438	82.19
656.642	87.19
656.846	96.19
657.049	81.19
657.253	80.19
657.457	87.19
657.661	91.19
657.865	85.19
658.068	92.19
658.272	97.19
658.476	91.19
658.68	79.19
658.883	77.19
659.087	70.19
659.291	90.19
659.494	91.19
659.698	78.19
659.901	84.19
660.105	76.19
660.309	75.19
660.512	88.19
660.716	85.19
660.919	81.19
661.123	81.19
661.326	91.19
661.53	81.19
661.733	77.19
661.936	98.19
662.14	82.19
662.343	90.19
662.546	102.19
662.75	99.19
662.953	83.19
663.156	94.19
663.36	95.19
663.563	78.19
663.766	79.19
663.969	97.19
664.173	81.19
664.376	87.19
664.579	78.19
664.782	85.19
664.985	85.19
665.188	83.19
665.391	86.19
665.594	88.19
665.797	84.19
666	93.19
666.203	94.19
666.406	79.19
666.609	84.19
666.812	82.19
667.015	87.19
667.218	100.19
667.421	77.19
667.624	82.19
667.827	97.19
668.03	80.19
668.232	67.19
668.435	79.19
668.638	85.19
668.841	96.19
669.043	87.19
669.246	81.19
669.449	75.19
669.651	96.19
669.854	92.19
670.057	77.19
670.259	75.19
670.462	83.19
670.665	89.19
670.867	79.19
671.07	85.19
671.272	78.19
671.475	90.19
671.677	80.19
671.88	82.19
672.082	86.19
672.284	85.19
672.487	83.19
672.689	76.19
672.892	70.19
