Data from Sand_3_HRD10591_00022.txt Node
Date: Mon Jan 19 13:34:44 EST 2026
User: Yrep
Spectrometer: HR+D1059
Trigger mode: 1
Integration Time (sec): 1.000000E-1
Scans to average: 1
Electric dark correction enabled: true
Nonlinearity correction enabled: false
Boxcar width: 0
XAxis mode: Wavelengths
Number of Pixels in Spectrum: 2048
>>>>>Begin Spectral Data<<<<<
223.165	-13.19
223.4	-13.19
223.635	-13.19
223.869	-16.19
224.104	-5.19
224.338	-12.19
224.573	-9.19
224.808	-10.19
225.042	-15.19
225.277	-10.19
225.511	8.81
225.746	-2.19
225.98	14.81
226.215	11.81
226.449	7.81
226.683	5.81
226.918	23.81
227.152	20.81
227.387	39.81
227.621	37.81
227.856	58.81
228.09	46.81
228.324	45.81
228.559	74.81
228.793	78.81
229.027	66.81
229.262	55.81
229.496	65.81
229.73	65.81
229.964	71.81
230.199	86.81
230.433	79.81
230.667	83.81
230.901	72.81
231.136	86.81
231.37	72.81
231.604	84.81
231.838	77.81
232.072	74.81
232.306	77.81
232.541	85.81
232.775	78.81
233.009	83.81
233.243	81.81
233.477	85.81
233.711	76.81
233.945	76.81
234.179	77.81
234.413	81.81
234.647	75.81
234.881	89.81
235.115	79.81
235.349	68.81
235.583	76.81
235.817	67.81
236.051	59.81
236.285	65.81
236.519	77.81
236.753	85.81
236.987	85.81
237.221	80.81
237.455	93.81
237.689	89.81
237.922	72.81
238.156	79.81
238.39	85.81
238.624	91.81
238.858	77.81
239.091	74.81
239.325	71.81
239.559	64.81
239.793	65.81
240.027	86.81
240.26	77.81
240.494	81.81
240.728	93.81
240.961	80.81
241.195	80.81
241.429	74.81
241.662	74.81
241.896	78.81
242.13	77.81
242.363	64.81
242.597	73.81
242.83	68.81
243.064	74.81
243.298	81.81
243.531	90.81
243.765	78.81
243.998	66.81
244.232	72.81
244.465	75.81
244.699	96.81
244.932	93.81
245.166	89.81
245.399	91.81
245.633	76.81
245.866	89.81
246.099	83.81
246.333	87.81
246.566	89.81
246.8	95.81
247.033	86.81
247.266	100.81
247.5	71.81
247.733	68.81
247.966	83.81
248.2	90.81
248.433	79.81
248.666	79.81
248.899	93.81
249.133	84.81
249.366	82.81
249.599	89.81
249.832	94.81
250.066	89.81
250.299	83.81
250.532	81.81
250.765	78.81
250.998	77.81
251.231	68.81
251.465	73.81
251.698	89.81
251.931	100.81
252.164	89.81
252.397	81.81
252.63	67.81
252.863	87.81
253.096	79.81
253.329	86.81
253.562	82.81
253.795	89.81
254.028	93.81
254.261	77.81
254.494	75.81
254.727	65.81
254.96	69.81
255.193	78.81
255.426	89.81
255.659	75.81
255.892	74.81
256.124	70.81
256.357	86.81
256.59	70.81
256.823	81.81
257.056	73.81
257.289	78.81
257.521	86.81
257.754	74.81
257.987	83.81
258.22	97.81
258.452	87.81
258.685	69.81
258.918	90.81
259.151	93.81
259.383	90.81
259.616	74.81
259.849	85.81
260.081	83.81
260.314	82.81
260.547	78.81
260.779	86.81
261.012	89.81
261.244	83.81
261.477	80.81
261.71	85.81
261.942	85.81
262.175	91.81
262.407	81.81
262.64	78.81
262.872	81.81
263.105	87.81
263.337	82.81
263.57	77.81
263.802	77.81
264.035	77.81
264.267	89.81
264.499	85.81
264.732	85.81
264.964	82.81
265.197	80.81
265.429	75.81
265.661	83.81
265.894	90.81
266.126	81.81
266.358	85.81
266.591	76.81
266.823	85.81
267.055	85.81
267.287	69.81
267.52	88.81
267.752	100.81
267.984	81.81
268.216	84.81
268.448	83.81
268.681	85.81
268.913	89.81
269.145	91.81
269.377	83.81
269.609	77.81
269.841	81.81
270.073	95.81
270.306	86.81
270.538	87.81
270.77	79.81
271.002	80.81
271.234	86.81
271.466	79.81
271.698	93.81
271.93	79.81
272.162	105.81
272.394	80.81
272.626	90.81
272.858	96.81
273.09	85.81
273.322	87.81
273.553	74.81
273.785	81.81
274.017	100.81
274.249	85.81
274.481	86.81
274.713	74.81
274.945	82.81
275.176	88.81
275.408	72.81
275.64	88.81
275.872	91.81
276.104	83.81
276.335	78.81
276.567	80.81
276.799	78.81
277.031	79.81
277.262	74.81
277.494	86.81
277.726	82.81
277.957	79.81
278.189	85.81
278.421	82.81
278.652	95.81
278.884	94.81
279.115	78.81
279.347	92.81
279.579	89.81
279.81	81.81
280.042	79.81
280.273	78.81
280.505	98.81
280.736	76.81
280.968	91.81
281.199	71.81
281.431	99.81
281.662	85.81
281.894	93.81
282.125	92.81
282.356	84.81
282.588	81.81
282.819	87.81
283.051	81.81
283.282	86.81
283.513	88.81
283.745	79.81
283.976	97.81
284.207	91.81
284.439	83.81
284.67	100.81
284.901	85.81
285.132	76.81
285.364	84.81
285.595	86.81
285.826	87.81
286.057	89.81
286.288	79.81
286.52	83.81
286.751	83.81
286.982	87.81
287.213	79.81
287.444	95.81
287.675	90.81
287.906	92.81
288.138	89.81
288.369	89.81
288.6	92.81
288.831	79.81
289.062	86.81
289.293	90.81
289.524	85.81
289.755	91.81
289.986	77.81
290.217	96.81
290.448	91.81
290.679	71.81
290.91	79.81
291.141	78.81
291.371	95.81
291.602	80.81
291.833	79.81
292.064	78.81
292.295	89.81
292.526	86.81
292.757	99.81
292.987	75.81
293.218	94.81
293.449	100.81
293.68	84.81
293.91	76.81
294.141	77.81
294.372	89.81
294.603	90.81
294.833	80.81
295.064	72.81
295.295	81.81
295.525	82.81
295.756	77.81
295.987	78.81
296.217	89.81
296.448	88.81
296.679	82.81
296.909	87.81
297.14	79.81
297.37	84.81
297.601	94.81
297.831	90.81
298.062	83.81
298.292	89.81
298.523	89.81
298.753	92.81
298.984	85.81
299.214	96.81
299.445	81.81
299.675	95.81
299.905	83.81
300.136	84.81
300.366	79.81
300.597	89.81
300.827	93.81
301.057	91.81
301.288	98.81
301.518	84.81
301.748	88.81
301.979	113.81
302.209	64.81
302.439	73.81
302.669	91.81
302.9	80.81
303.13	84.81
303.36	90.81
303.59	90.81
303.82	89.81
304.051	98.81
304.281	82.81
304.511	93.81
304.741	91.81
304.971	101.81
305.201	88.81
305.431	80.81
305.661	97.81
305.891	84.81
306.121	95.81
306.352	99.81
306.582	87.81
306.812	78.81
307.042	89.81
307.272	81.81
307.502	85.81
307.731	90.81
307.961	97.81
308.191	90.81
308.421	95.81
308.651	80.81
308.881	84.81
309.111	94.81
309.341	83.81
309.571	102.81
309.8	95.81
310.03	86.81
310.26	95.81
310.49	87.81
310.72	90.81
310.949	90.81
311.179	96.81
311.409	91.81
311.639	100.81
311.868	94.81
312.098	86.81
312.328	93.81
312.557	96.81
312.787	73.81
313.017	81.81
313.246	79.81
313.476	82.81
313.706	77.81
313.935	91.81
314.165	90.81
314.394	93.81
314.624	93.81
314.853	99.81
315.083	84.81
315.312	90.81
315.542	85.81
315.771	84.81
316.001	82.81
316.23	94.81
316.46	82.81
316.689	85.81
316.919	71.81
317.148	89.81
317.377	74.81
317.607	77.81
317.836	101.81
318.065	88.81
318.295	79.81
318.524	92.81
318.753	97.81
318.983	93.81
319.212	93.81
319.441	76.81
319.67	103.81
319.9	76.81
320.129	70.81
320.358	85.81
320.587	85.81
320.816	98.81
321.046	97.81
321.275	87.81
321.504	89.81
321.733	81.81
321.962	93.81
322.191	81.81
322.42	95.81
322.649	90.81
322.878	81.81
323.108	96.81
323.337	79.81
323.566	79.81
323.795	85.81
324.024	91.81
324.253	95.81
324.482	86.81
324.71	97.81
324.939	83.81
325.168	95.81
325.397	100.81
325.626	100.81
325.855	92.81
326.084	84.81
326.313	86.81
326.542	74.81
326.77	96.81
326.999	87.81
327.228	80.81
327.457	81.81
327.686	90.81
327.914	93.81
328.143	93.81
328.372	82.81
328.6	84.81
328.829	82.81
329.058	95.81
329.287	81.81
329.515	87.81
329.744	82.81
329.972	85.81
330.201	95.81
330.43	92.81
330.658	79.81
330.887	79.81
331.115	91.81
331.344	87.81
331.572	84.81
331.801	86.81
332.03	85.81
332.258	92.81
332.486	87.81
332.715	86.81
332.943	82.81
333.172	78.81
333.4	78.81
333.629	69.81
333.857	100.81
334.085	68.81
334.314	97.81
334.542	89.81
334.771	89.81
334.999	88.81
335.227	90.81
335.455	89.81
335.684	94.81
335.912	81.81
336.14	78.81
336.369	92.81
336.597	99.81
336.825	83.81
337.053	70.81
337.281	102.81
337.51	87.81
337.738	91.81
337.966	89.81
338.194	80.81
338.422	89.81
338.65	78.81
338.878	74.81
339.106	86.81
339.334	91.81
339.562	89.81
339.79	77.81
340.018	93.81
340.246	81.81
340.474	90.81
340.702	86.81
340.93	81.81
341.158	87.81
341.386	90.81
341.614	95.81
341.842	81.81
342.07	83.81
342.298	78.81
342.526	86.81
342.754	65.81
342.981	83.81
343.209	92.81
343.437	107.81
343.665	81.81
343.893	81.81
344.12	78.81
344.348	87.81
344.576	104.81
344.804	105.81
345.031	109.81
345.259	96.81
345.487	95.81
345.714	88.81
345.942	86.81
346.17	101.81
346.397	85.81
346.625	88.81
346.853	86.81
347.08	96.81
347.308	102.81
347.535	89.81
347.763	85.81
347.99	100.81
348.218	87.81
348.445	81.81
348.673	77.81
348.9	68.81
349.128	96.81
349.355	87.81
349.583	82.81
349.81	89.81
350.037	93.81
350.265	86.81
350.492	94.81
350.72	91.81
350.947	79.81
351.174	88.81
351.402	89.81
351.629	78.81
351.856	95.81
352.083	95.81
352.311	86.81
352.538	95.81
352.765	83.81
352.992	99.81
353.22	87.81
353.447	91.81
353.674	81.81
353.901	77.81
354.128	101.81
354.355	76.81
354.583	105.81
354.81	91.81
355.037	84.81
355.264	92.81
355.491	87.81
355.718	75.81
355.945	91.81
356.172	91.81
356.399	78.81
356.626	78.81
356.853	70.81
357.08	90.81
357.307	86.81
357.534	91.81
357.761	80.81
357.988	83.81
358.215	87.81
358.441	100.81
358.668	79.81
358.895	97.81
359.122	66.81
359.349	75.81
359.576	85.81
359.802	87.81
360.029	95.81
360.256	87.81
360.483	80.81
360.709	82.81
360.936	97.81
361.163	86.81
361.39	78.81
361.616	89.81
361.843	94.81
362.07	75.81
362.296	86.81
362.523	75.81
362.749	82.81
362.976	78.81
363.203	72.81
363.429	71.81
363.656	91.81
363.882	83.81
364.109	102.81
364.335	94.81
364.562	85.81
364.788	83.81
365.015	101.81
365.241	89.81
365.468	75.81
365.694	80.81
365.92	92.81
366.147	85.81
366.373	100.81
366.599	94.81
366.826	91.81
367.052	77.81
367.278	78.81
367.505	90.81
367.731	87.81
367.957	77.81
368.184	67.81
368.41	87.81
368.636	91.81
368.862	105.81
369.089	75.81
369.315	83.81
369.541	81.81
369.767	85.81
369.993	72.81
370.219	98.81
370.445	87.81
370.672	80.81
370.898	88.81
371.124	83.81
371.35	86.81
371.576	89.81
371.802	75.81
372.028	84.81
372.254	82.81
372.48	87.81
372.706	83.81
372.932	91.81
373.158	84.81
373.384	70.81
373.61	79.81
373.835	81.81
374.061	81.81
374.287	85.81
374.513	94.81
374.739	83.81
374.965	94.81
375.191	74.81
375.416	85.81
375.642	90.81
375.868	89.81
376.094	89.81
376.319	78.81
376.545	89.81
376.771	73.81
376.997	88.81
377.222	87.81
377.448	87.81
377.674	85.81
377.899	90.81
378.125	79.81
378.35	100.81
378.576	81.81
378.802	81.81
379.027	85.81
379.253	84.81
379.478	78.81
379.704	88.81
379.929	94.81
380.155	91.81
380.38	78.81
380.606	85.81
380.831	90.81
381.057	84.81
381.282	79.81
381.507	88.81
381.733	85.81
381.958	77.81
382.184	89.81
382.409	92.81
382.634	86.81
382.86	85.81
383.085	91.81
383.31	94.81
383.535	89.81
383.761	78.81
383.986	95.81
384.211	72.81
384.436	78.81
384.662	80.81
384.887	78.81
385.112	72.81
385.337	79.81
385.562	78.81
385.787	94.81
386.013	94.81
386.238	84.81
386.463	86.81
386.688	84.81
386.913	84.81
387.138	92.81
387.363	74.81
387.588	91.81
387.813	93.81
388.038	92.81
388.263	86.81
388.488	81.81
388.713	67.81
388.938	100.81
389.163	89.81
389.387	89.81
389.612	89.81
389.837	84.81
390.062	78.81
390.287	73.81
390.512	81.81
390.736	89.81
390.961	85.81
391.186	87.81
391.411	82.81
391.636	100.81
391.86	91.81
392.085	91.81
392.31	90.81
392.534	88.81
392.759	90.81
392.984	93.81
393.208	109.81
393.433	145.81
393.658	126.81
393.882	103.81
394.107	97.81
394.331	96.81
394.556	102.81
394.78	91.81
395.005	92.81
395.229	72.81
395.454	75.81
395.678	87.81
395.903	111.81
396.127	102.81
396.352	111.81
396.576	113.81
396.801	122.81
397.025	121.81
397.249	105.81
397.474	90.81
397.698	83.81
397.922	78.81
398.147	79.81
398.371	96.81
398.595	85.81
398.82	68.81
399.044	82.81
399.268	91.81
399.492	82.81
399.717	75.81
399.941	89.81
400.165	87.81
400.389	83.81
400.613	91.81
400.837	88.81
401.062	83.81
401.286	88.81
401.51	86.81
401.734	90.81
401.958	94.81
402.182	77.81
402.406	64.81
402.63	87.81
402.854	83.81
403.078	94.81
403.302	89.81
403.526	95.81
403.75	105.81
403.974	109.81
404.198	159.81
404.422	224.81
404.645	267.81
404.869	227.81
405.093	134.81
405.317	111.81
405.541	110.81
405.765	93.81
405.988	76.81
406.212	90.81
406.436	81.81
406.66	85.81
406.883	74.81
407.107	84.81
407.331	80.81
407.555	77.81
407.778	57.81
408.002	89.81
408.226	71.81
408.449	83.81
408.673	77.81
408.896	86.81
409.12	87.81
409.344	79.81
409.567	79.81
409.791	83.81
410.014	90.81
410.238	91.81
410.461	88.81
410.685	81.81
410.908	89.81
411.132	93.81
411.355	76.81
411.578	80.81
411.802	80.81
412.025	80.81
412.249	84.81
412.472	91.81
412.695	86.81
412.919	95.81
413.142	86.81
413.365	102.81
413.589	86.81
413.812	77.81
414.035	91.81
414.258	90.81
414.482	92.81
414.705	95.81
414.928	80.81
415.151	90.81
415.374	88.81
415.597	71.81
415.821	81.81
416.044	90.81
416.267	94.81
416.49	84.81
416.713	86.81
416.936	81.81
417.159	101.81
417.382	99.81
417.605	81.81
417.828	76.81
418.051	79.81
418.274	79.81
418.497	79.81
418.72	74.81
418.943	83.81
419.166	75.81
419.389	80.81
419.611	69.81
419.834	77.81
420.057	81.81
420.28	80.81
420.503	103.81
420.726	87.81
420.948	102.81
421.171	73.81
421.394	81.81
421.617	93.81
421.839	81.81
422.062	96.81
422.285	92.81
422.507	155.81
422.73	223.81
422.953	195.81
423.175	124.81
423.398	98.81
423.621	107.81
423.843	80.81
424.066	69.81
424.288	84.81
424.511	80.81
424.733	82.81
424.956	91.81
425.178	71.81
425.401	93.81
425.623	89.81
425.846	94.81
426.068	90.81
426.291	79.81
426.513	91.81
426.735	89.81
426.958	74.81
427.18	87.81
427.402	92.81
427.625	85.81
427.847	99.81
428.069	90.81
428.292	94.81
428.514	100.81
428.736	92.81
428.958	84.81
429.181	90.81
429.403	98.81
429.625	85.81
429.847	92.81
430.069	94.81
430.292	91.81
430.514	108.81
430.736	79.81
430.958	89.81
431.18	80.81
431.402	93.81
431.624	79.81
431.846	105.81
432.068	85.81
432.29	99.81
432.512	91.81
432.734	93.81
432.956	79.81
433.178	90.81
433.4	88.81
433.622	87.81
433.844	90.81
434.066	73.81
434.287	85.81
434.509	76.81
434.731	83.81
434.953	80.81
435.175	79.81
435.397	90.81
435.618	74.81
435.84	87.81
436.062	101.81
436.284	65.81
436.505	84.81
436.727	80.81
436.949	74.81
437.17	88.81
437.392	84.81
437.614	73.81
437.835	78.81
438.057	78.81
438.278	89.81
438.5	82.81
438.721	87.81
438.943	97.81
439.165	93.81
439.386	79.81
439.608	82.81
439.829	85.81
440.05	86.81
440.272	73.81
440.493	89.81
440.715	97.81
440.936	85.81
441.158	99.81
441.379	94.81
441.6	77.81
441.822	75.81
442.043	88.81
442.264	83.81
442.486	83.81
442.707	81.81
442.928	81.81
443.149	86.81
443.371	97.81
443.592	107.81
443.813	100.81
444.034	95.81
444.255	86.81
444.476	79.81
444.698	71.81
444.919	93.81
445.14	169.81
445.361	120.81
445.582	102.81
445.803	111.81
446.024	89.81
446.245	83.81
446.466	82.81
446.687	81.81
446.908	85.81
447.129	75.81
447.35	79.81
447.571	88.81
447.792	89.81
448.013	100.81
448.234	79.81
448.455	91.81
448.675	84.81
448.896	83.81
449.117	93.81
449.338	83.81
449.559	76.81
449.779	81.81
450	79.81
450.221	86.81
450.442	82.81
450.662	69.81
450.883	79.81
451.104	85.81
451.324	92.81
451.545	90.81
451.766	83.81
451.986	87.81
452.207	82.81
452.428	78.81
452.648	77.81
452.869	89.81
453.089	90.81
453.31	86.81
453.53	106.81
453.751	93.81
453.971	77.81
454.192	72.81
454.412	91.81
454.633	87.81
454.853	94.81
455.073	90.81
455.294	76.81
455.514	102.81
455.734	75.81
455.955	76.81
456.175	79.81
456.395	78.81
456.616	90.81
456.836	90.81
457.056	87.81
457.276	89.81
457.497	89.81
457.717	90.81
457.937	93.81
458.157	102.81
458.377	104.81
458.598	70.81
458.818	93.81
459.038	78.81
459.258	85.81
459.478	69.81
459.698	80.81
459.918	88.81
460.138	90.81
460.358	87.81
460.578	76.81
460.798	89.81
461.018	81.81
461.238	83.81
461.458	92.81
461.678	109.81
461.898	91.81
462.118	95.81
462.338	83.81
462.558	87.81
462.777	94.81
462.997	87.81
463.217	90.81
463.437	83.81
463.657	95.81
463.876	94.81
464.096	93.81
464.316	94.81
464.536	71.81
464.755	85.81
464.975	89.81
465.195	82.81
465.414	89.81
465.634	95.81
465.854	77.81
466.073	98.81
466.293	93.81
466.512	77.81
466.732	88.81
466.951	84.81
467.171	94.81
467.391	90.81
467.61	90.81
467.829	93.81
468.049	98.81
468.268	96.81
468.488	82.81
468.707	96.81
468.927	89.81
469.146	88.81
469.365	101.81
469.585	84.81
469.804	87.81
470.023	111.81
470.243	103.81
470.462	109.81
470.681	87.81
470.901	85.81
471.12	83.81
471.339	85.81
471.558	83.81
471.777	82.81
471.997	83.81
472.216	93.81
472.435	83.81
472.654	81.81
472.873	92.81
473.092	102.81
473.311	87.81
473.53	82.81
473.749	82.81
473.968	102.81
474.187	102.81
474.406	88.81
474.625	87.81
474.844	92.81
475.063	84.81
475.282	91.81
475.501	89.81
475.72	81.81
475.939	69.81
476.158	84.81
476.377	81.81
476.596	81.81
476.814	90.81
477.033	102.81
477.252	92.81
477.471	90.81
477.69	92.81
477.908	87.81
478.127	93.81
478.346	80.81
478.564	93.81
478.783	81.81
479.002	84.81
479.22	96.81
479.439	77.81
479.658	81.81
479.876	77.81
480.095	84.81
480.313	94.81
480.532	90.81
480.751	97.81
480.969	75.81
481.188	107.81
481.406	87.81
481.624	83.81
481.843	90.81
482.061	81.81
482.28	98.81
482.498	81.81
482.717	74.81
482.935	92.81
483.153	84.81
483.372	81.81
483.59	85.81
483.808	74.81
484.027	95.81
484.245	94.81
484.463	84.81
484.681	101.81
484.9	82.81
485.118	79.81
485.336	86.81
485.554	87.81
485.772	94.81
485.99	95.81
486.209	94.81
486.427	85.81
486.645	79.81
486.863	91.81
487.081	77.81
487.299	85.81
487.517	89.81
487.735	96.81
487.953	92.81
488.171	91.81
488.389	93.81
488.607	102.81
488.825	93.81
489.043	91.81
489.261	81.81
489.479	74.81
489.696	98.81
489.914	83.81
490.132	92.81
490.35	85.81
490.568	91.81
490.786	80.81
491.003	76.81
491.221	102.81
491.439	113.81
491.657	97.81
491.874	97.81
492.092	79.81
492.31	82.81
492.527	91.81
492.745	78.81
492.963	93.81
493.18	96.81
493.398	95.81
493.615	97.81
493.833	87.81
494.05	81.81
494.268	86.81
494.485	99.81
494.703	90.81
494.92	99.81
495.138	87.81
495.355	95.81
495.573	89.81
495.79	98.81
496.008	86.81
496.225	89.81
496.442	93.81
496.66	86.81
496.877	81.81
497.094	86.81
497.312	80.81
497.529	86.81
497.746	94.81
497.963	95.81
498.181	92.81
498.398	106.81
498.615	93.81
498.832	79.81
499.049	83.81
499.267	105.81
499.484	91.81
499.701	85.81
499.918	85.81
500.135	74.81
500.352	89.81
500.569	88.81
500.786	97.81
501.003	82.81
501.22	88.81
501.437	94.81
501.654	85.81
501.871	89.81
502.088	95.81
502.305	97.81
502.522	90.81
502.739	99.81
502.956	90.81
503.172	99.81
503.389	95.81
503.606	101.81
503.823	78.81
504.04	88.81
504.256	102.81
504.473	85.81
504.69	96.81
504.907	102.81
505.123	93.81
505.34	94.81
505.557	104.81
505.773	85.81
505.99	81.81
506.207	90.81
506.423	77.81
506.64	86.81
506.856	94.81
507.073	107.81
507.289	75.81
507.506	92.81
507.722	90.81
507.939	86.81
508.155	100.81
508.372	107.81
508.588	86.81
508.805	91.81
509.021	95.81
509.238	94.81
509.454	82.81
509.67	99.81
509.887	110.81
510.103	90.81
510.319	105.81
510.536	101.81
510.752	99.81
510.968	105.81
511.184	83.81
511.401	83.81
511.617	76.81
511.833	99.81
512.049	81.81
512.265	102.81
512.481	88.81
512.698	92.81
512.914	104.81
513.13	96.81
513.346	86.81
513.562	88.81
513.778	65.81
513.994	92.81
514.21	91.81
514.426	95.81
514.642	83.81
514.858	78.81
515.074	89.81
515.29	77.81
515.506	85.81
515.721	89.81
515.937	92.81
516.153	77.81
516.369	88.81
516.585	92.81
516.801	82.81
517.016	75.81
517.232	96.81
517.448	102.81
517.664	85.81
517.879	91.81
518.095	85.81
518.311	97.81
518.527	87.81
518.742	96.81
518.958	89.81
519.173	95.81
519.389	93.81
519.605	93.81
519.82	96.81
520.036	92.81
520.251	83.81
520.467	91.81
520.682	91.81
520.898	80.81
521.113	86.81
521.329	93.81
521.544	91.81
521.76	87.81
521.975	90.81
522.19	107.81
522.406	86.81
522.621	80.81
522.836	84.81
523.052	85.81
523.267	86.81
523.482	89.81
523.698	83.81
523.913	95.81
524.128	92.81
524.343	93.81
524.559	98.81
524.774	96.81
524.989	95.81
525.204	81.81
525.419	80.81
525.634	95.81
525.849	88.81
526.064	95.81
526.28	90.81
526.495	89.81
526.71	103.81
526.925	92.81
527.14	90.81
527.355	104.81
527.57	87.81
527.785	85.81
527.999	89.81
528.214	84.81
528.429	77.81
528.644	85.81
528.859	93.81
529.074	82.81
529.289	93.81
529.503	108.81
529.718	89.81
529.933	93.81
530.148	97.81
530.363	90.81
530.577	85.81
530.792	96.81
531.007	84.81
531.221	81.81
531.436	78.81
531.651	87.81
531.865	99.81
532.08	100.81
532.295	93.81
532.509	99.81
532.724	83.81
532.938	94.81
533.153	96.81
533.367	101.81
533.582	99.81
533.796	97.81
534.011	102.81
534.225	109.81
534.44	101.81
534.654	101.81
534.868	97.81
535.083	95.81
535.297	101.81
535.511	102.81
535.726	99.81
535.94	89.81
536.154	110.81
536.369	107.81
536.583	97.81
536.797	92.81
537.011	92.81
537.225	98.81
537.44	91.81
537.654	78.81
537.868	95.81
538.082	93.81
538.296	84.81
538.51	72.81
538.724	90.81
538.938	91.81
539.153	99.81
539.367	93.81
539.581	92.81
539.795	94.81
540.009	94.81
540.222	82.81
540.436	75.81
540.65	82.81
540.864	87.81
541.078	84.81
541.292	87.81
541.506	84.81
541.72	91.81
541.934	82.81
542.147	70.81
542.361	88.81
542.575	79.81
542.789	85.81
543.002	84.81
543.216	69.81
543.43	87.81
543.644	86.81
543.857	95.81
544.071	95.81
544.285	94.81
544.498	92.81
544.712	95.81
544.925	80.81
545.139	93.81
545.352	103.81
545.566	98.81
545.779	89.81
545.993	94.81
546.206	82.81
546.42	96.81
546.633	91.81
546.847	87.81
547.06	98.81
547.274	103.81
547.487	86.81
547.7	86.81
547.914	94.81
548.127	87.81
548.34	83.81
548.554	94.81
548.767	85.81
548.98	85.81
549.193	91.81
549.407	100.81
549.62	100.81
549.833	97.81
550.046	77.81
550.259	83.81
550.473	99.81
550.686	89.81
550.899	96.81
551.112	92.81
551.325	82.81
551.538	95.81
551.751	81.81
551.964	86.81
552.177	94.81
552.39	87.81
552.603	91.81
552.816	85.81
553.029	89.81
553.242	82.81
553.455	93.81
553.667	95.81
553.88	90.81
554.093	82.81
554.306	96.81
554.519	85.81
554.732	96.81
554.944	100.81
555.157	96.81
555.37	83.81
555.583	83.81
555.795	94.81
556.008	94.81
556.221	89.81
556.433	102.81
556.646	93.81
556.859	88.81
557.071	97.81
557.284	86.81
557.496	100.81
557.709	100.81
557.921	88.81
558.134	92.81
558.346	90.81
558.559	93.81
558.771	76.81
558.984	101.81
559.196	121.81
559.409	100.81
559.621	93.81
559.833	90.81
560.046	99.81
560.258	85.81
560.47	89.81
560.683	97.81
560.895	88.81
561.107	96.81
561.32	106.81
561.532	88.81
561.744	85.81
561.956	90.81
562.168	86.81
562.381	83.81
562.593	84.81
562.805	86.81
563.017	92.81
563.229	91.81
563.441	93.81
563.653	78.81
563.865	107.81
564.077	79.81
564.289	94.81
564.501	82.81
564.713	96.81
564.925	89.81
565.137	90.81
565.349	98.81
565.561	95.81
565.773	84.81
565.985	89.81
566.197	89.81
566.408	85.81
566.62	82.81
566.832	97.81
567.044	84.81
567.255	81.81
567.467	93.81
567.679	85.81
567.891	68.81
568.102	87.81
568.314	94.81
568.526	107.81
568.737	96.81
568.949	100.81
569.161	112.81
569.372	91.81
569.584	109.81
569.795	95.81
570.007	105.81
570.218	89.81
570.43	89.81
570.641	90.81
570.853	91.81
571.064	81.81
571.276	89.81
571.487	88.81
571.698	85.81
571.91	85.81
572.121	88.81
572.333	89.81
572.544	86.81
572.755	96.81
572.966	91.81
573.178	67.81
573.389	93.81
573.6	74.81
573.811	89.81
574.023	99.81
574.234	84.81
574.445	82.81
574.656	89.81
574.867	89.81
575.078	95.81
575.289	95.81
575.501	92.81
575.712	85.81
575.923	93.81
576.134	91.81
576.345	101.81
576.556	90.81
576.767	80.81
576.978	99.81
577.188	92.81
577.399	81.81
577.61	94.81
577.821	95.81
578.032	75.81
578.243	102.81
578.454	108.81
578.665	104.81
578.875	95.81
579.086	102.81
579.297	84.81
579.508	93.81
579.718	107.81
579.929	99.81
580.14	90.81
580.35	109.81
580.561	131.81
580.772	117.81
580.982	100.81
581.193	94.81
581.403	107.81
581.614	106.81
581.825	108.81
582.035	100.81
582.246	97.81
582.456	105.81
582.667	91.81
582.877	94.81
583.087	97.81
583.298	85.81
583.508	98.81
583.719	110.81
583.929	114.81
584.139	95.81
584.35	91.81
584.56	90.81
584.77	100.81
584.981	86.81
585.191	91.81
585.401	99.81
585.611	84.81
585.821	99.81
586.032	87.81
586.242	100.81
586.452	94.81
586.662	97.81
586.872	95.81
587.082	102.81
587.292	93.81
587.502	100.81
587.713	104.81
587.923	108.81
588.133	101.81
588.343	124.81
588.553	135.81
588.762	177.81
588.972	367.81
589.182	738.81
589.392	559.81
589.602	410.81
589.812	679.81
590.022	425.81
590.232	195.81
590.441	120.81
590.651	109.81
590.861	110.81
591.071	98.81
591.281	94.81
591.49	83.81
591.7	78.81
591.91	97.81
592.119	93.81
592.329	86.81
592.539	77.81
592.748	91.81
592.958	80.81
593.167	82.81
593.377	94.81
593.587	87.81
593.796	86.81
594.006	86.81
594.215	92.81
594.424	89.81
594.634	86.81
594.843	101.81
595.053	90.81
595.262	93.81
595.472	96.81
595.681	94.81
595.89	97.81
596.1	89.81
596.309	92.81
596.518	87.81
596.727	86.81
596.937	99.81
597.146	99.81
597.355	90.81
597.564	87.81
597.774	105.81
597.983	97.81
598.192	75.81
598.401	96.81
598.61	98.81
598.819	101.81
599.028	96.81
599.237	87.81
599.446	98.81
599.655	91.81
599.864	78.81
600.073	91.81
600.282	105.81
600.491	92.81
600.7	92.81
600.909	91.81
601.118	100.81
601.327	81.81
601.536	106.81
601.745	98.81
601.953	89.81
602.162	89.81
602.371	84.81
602.58	90.81
602.789	97.81
602.997	93.81
603.206	86.81
603.415	86.81
603.623	79.81
603.832	96.81
604.041	89.81
604.249	71.81
604.458	86.81
604.666	86.81
604.875	92.81
605.084	100.81
605.292	85.81
605.501	91.81
605.709	95.81
605.918	98.81
606.126	90.81
606.334	98.81
606.543	93.81
606.751	97.81
606.96	91.81
607.168	94.81
607.376	92.81
607.585	86.81
607.793	77.81
608.001	91.81
608.21	92.81
608.418	86.81
608.626	95.81
608.834	101.81
609.043	86.81
609.251	94.81
609.459	81.81
609.667	80.81
609.875	82.81
610.083	90.81
610.291	84.81
610.499	85.81
610.707	73.81
610.916	88.81
611.124	103.81
611.332	87.81
611.54	91.81
611.748	85.81
611.955	82.81
612.163	91.81
612.371	97.81
612.579	95.81
612.787	93.81
612.995	75.81
613.203	115.81
613.411	90.81
613.618	97.81
613.826	99.81
614.034	105.81
614.242	89.81
614.449	80.81
614.657	95.81
614.865	90.81
615.072	89.81
615.28	83.81
615.488	97.81
615.695	93.81
615.903	93.81
616.111	91.81
616.318	107.81
616.526	121.81
616.733	95.81
616.941	87.81
617.148	85.81
617.356	94.81
617.563	80.81
617.771	87.81
617.978	79.81
618.185	88.81
618.393	98.81
618.6	97.81
618.807	90.81
619.015	107.81
619.222	97.81
619.429	98.81
619.637	75.81
619.844	87.81
620.051	77.81
620.258	81.81
620.466	91.81
620.673	91.81
620.88	108.81
621.087	85.81
621.294	94.81
621.501	89.81
621.708	85.81
621.915	86.81
622.122	88.81
622.329	87.81
622.536	104.81
622.743	81.81
622.95	81.81
623.157	90.81
623.364	100.81
623.571	98.81
623.778	95.81
623.985	92.81
624.192	83.81
624.399	101.81
624.606	86.81
624.812	89.81
625.019	88.81
625.226	98.81
625.433	100.81
625.639	88.81
625.846	78.81
626.053	92.81
626.259	89.81
626.466	106.81
626.673	75.81
626.879	101.81
627.086	103.81
627.293	93.81
627.499	85.81
627.706	95.81
627.912	93.81
628.119	79.81
628.325	106.81
628.532	95.81
628.738	99.81
628.945	87.81
629.151	86.81
629.357	96.81
629.564	77.81
629.77	88.81
629.976	83.81
630.183	79.81
630.389	84.81
630.595	87.81
630.802	84.81
631.008	79.81
631.214	84.81
631.42	83.81
631.627	76.81
631.833	90.81
632.039	79.81
632.245	87.81
632.451	85.81
632.657	96.81
632.863	83.81
633.069	93.81
633.275	93.81
633.481	92.81
633.688	89.81
633.893	83.81
634.099	82.81
634.305	77.81
634.511	91.81
634.717	107.81
634.923	86.81
635.129	103.81
635.335	75.81
635.541	92.81
635.747	90.81
635.952	86.81
636.158	99.81
636.364	93.81
636.57	89.81
636.775	90.81
636.981	83.81
637.187	90.81
637.392	77.81
637.598	93.81
637.804	81.81
638.009	90.81
638.215	85.81
638.421	70.81
638.626	96.81
638.832	85.81
639.037	100.81
639.243	81.81
639.448	97.81
639.654	86.81
639.859	87.81
640.065	98.81
640.27	81.81
640.475	87.81
640.681	80.81
640.886	95.81
641.091	86.81
641.297	83.81
641.502	78.81
641.707	94.81
641.913	83.81
642.118	84.81
642.323	84.81
642.528	89.81
642.733	86.81
642.939	109.81
643.144	97.81
643.349	96.81
643.554	84.81
643.759	85.81
643.964	94.81
644.169	109.81
644.374	94.81
644.579	99.81
644.784	86.81
644.989	84.81
645.194	88.81
645.399	94.81
645.604	88.81
645.809	99.81
646.014	96.81
646.219	87.81
646.423	97.81
646.628	97.81
646.833	90.81
647.038	77.81
647.243	87.81
647.447	93.81
647.652	94.81
647.857	78.81
648.062	76.81
648.266	88.81
648.471	88.81
648.676	72.81
648.88	73.81
649.085	86.81
649.289	85.81
649.494	83.81
649.698	82.81
649.903	87.81
650.107	71.81
650.312	85.81
650.516	86.81
650.721	80.81
650.925	81.81
651.13	82.81
651.334	82.81
651.539	96.81
651.743	77.81
651.947	74.81
652.152	89.81
652.356	82.81
652.56	91.81
652.764	90.81
652.969	95.81
653.173	94.81
653.377	93.81
653.581	85.81
653.785	86.81
653.99	93.81
654.194	93.81
654.398	67.81
654.602	95.81
654.806	75.81
655.01	80.81
655.214	92.81
655.418	87.81
655.622	75.81
655.826	76.81
656.03	85.81
656.234	65.81
656.438	87.81
656.642	85.81
656.846	93.81
657.049	77.81
657.253	87.81
657.457	99.81
657.661	90.81
657.865	99.81
658.068	96.81
658.272	72.81
658.476	89.81
658.68	99.81
658.883	85.81
659.087	83.81
659.291	82.81
659.494	87.81
659.698	82.81
659.901	84.81
660.105	91.81
660.309	73.81
660.512	93.81
660.716	87.81
660.919	83.81
661.123	74.81
661.326	96.81
661.53	89.81
661.733	61.81
661.936	72.81
662.14	85.81
662.343	81.81
662.546	75.81
662.75	72.81
662.953	83.81
663.156	88.81
663.36	109.81
663.563	73.81
663.766	98.81
663.969	76.81
664.173	85.81
664.376	79.81
664.579	81.81
664.782	75.81
664.985	80.81
665.188	93.81
665.391	76.81
665.594	92.81
665.797	89.81
666	85.81
666.203	85.81
666.406	86.81
666.609	77.81
666.812	75.81
667.015	83.81
667.218	62.81
667.421	76.81
667.624	85.81
667.827	64.81
668.03	63.81
668.232	77.81
668.435	66.81
668.638	95.81
668.841	97.81
669.043	81.81
669.246	86.81
669.449	83.81
669.651	77.81
669.854	83.81
670.057	82.81
670.259	82.81
670.462	87.81
670.665	87.81
670.867	85.81
671.07	79.81
671.272	84.81
671.475	85.81
671.677	80.81
671.88	87.81
672.082	79.81
672.284	92.81
672.487	81.81
672.689	77.81
672.892	83.81
