Data from Circ_2001_H10_HRD10591_00068.txt Node
Date: Wed Jan 03 10:45:52 EST 2024
User: Yrep
Spectrometer: HR+D1059
Trigger mode: 1
Integration Time (sec): 1.000000E-1
Scans to average: 1
Electric dark correction enabled: true
Nonlinearity correction enabled: false
Boxcar width: 0
XAxis mode: Wavelengths
Number of Pixels in Spectrum: 2048
>>>>>Begin Spectral Data<<<<<
223.165	-24.5
223.4	-24.5
223.635	-24.5
223.869	-13.5
224.104	-29.5
224.338	-14.5
224.573	-7.5
224.808	-10.5
225.042	0.5
225.277	-2.5
225.511	-9.5
225.746	1.5
225.98	7.5
226.215	12.5
226.449	13.5
226.683	30.5
226.918	5.5
227.152	40.5
227.387	34.5
227.621	36.5
227.856	39.5
228.09	49.5
228.324	51.5
228.559	57.5
228.793	55.5
229.027	73.5
229.262	75.5
229.496	68.5
229.73	82.5
229.964	98.5
230.199	57.5
230.433	65.5
230.667	87.5
230.901	78.5
231.136	71.5
231.37	73.5
231.604	77.5
231.838	82.5
232.072	86.5
232.306	79.5
232.541	87.5
232.775	75.5
233.009	71.5
233.243	82.5
233.477	71.5
233.711	94.5
233.945	77.5
234.179	87.5
234.413	80.5
234.647	81.5
234.881	84.5
235.115	78.5
235.349	89.5
235.583	85.5
235.817	68.5
236.051	83.5
236.285	69.5
236.519	74.5
236.753	79.5
236.987	77.5
237.221	88.5
237.455	98.5
237.689	69.5
237.922	80.5
238.156	80.5
238.39	78.5
238.624	77.5
238.858	65.5
239.091	77.5
239.325	78.5
239.559	81.5
239.793	54.5
240.027	69.5
240.26	61.5
240.494	83.5
240.728	74.5
240.961	89.5
241.195	66.5
241.429	68.5
241.662	77.5
241.896	81.5
242.13	87.5
242.363	86.5
242.597	78.5
242.83	83.5
243.064	83.5
243.298	84.5
243.531	80.5
243.765	87.5
243.998	70.5
244.232	86.5
244.465	81.5
244.699	69.5
244.932	64.5
245.166	79.5
245.399	81.5
245.633	74.5
245.866	84.5
246.099	57.5
246.333	68.5
246.566	81.5
246.8	81.5
247.033	76.5
247.266	75.5
247.5	85.5
247.733	79.5
247.966	65.5
248.2	77.5
248.433	72.5
248.666	84.5
248.899	97.5
249.133	81.5
249.366	100.5
249.599	83.5
249.832	77.5
250.066	81.5
250.299	88.5
250.532	82.5
250.765	89.5
250.998	70.5
251.231	88.5
251.465	78.5
251.698	83.5
251.931	89.5
252.164	91.5
252.397	80.5
252.63	87.5
252.863	76.5
253.096	81.5
253.329	75.5
253.562	67.5
253.795	80.5
254.028	69.5
254.261	80.5
254.494	81.5
254.727	95.5
254.96	80.5
255.193	75.5
255.426	80.5
255.659	80.5
255.892	91.5
256.124	74.5
256.357	81.5
256.59	83.5
256.823	84.5
257.056	77.5
257.289	96.5
257.521	94.5
257.754	76.5
257.987	86.5
258.22	91.5
258.452	83.5
258.685	89.5
258.918	82.5
259.151	87.5
259.383	87.5
259.616	81.5
259.849	71.5
260.081	75.5
260.314	83.5
260.547	83.5
260.779	64.5
261.012	85.5
261.244	83.5
261.477	96.5
261.71	89.5
261.942	121.5
262.175	118.5
262.407	81.5
262.64	86.5
262.872	86.5
263.105	90.5
263.337	78.5
263.57	81.5
263.802	96.5
264.035	79.5
264.267	79.5
264.499	68.5
264.732	80.5
264.964	81.5
265.197	83.5
265.429	86.5
265.661	71.5
265.894	73.5
266.126	87.5
266.358	100.5
266.591	73.5
266.823	92.5
267.055	84.5
267.287	95.5
267.52	81.5
267.752	85.5
267.984	79.5
268.216	71.5
268.448	82.5
268.681	71.5
268.913	73.5
269.145	85.5
269.377	77.5
269.609	68.5
269.841	85.5
270.073	86.5
270.306	79.5
270.538	89.5
270.77	85.5
271.002	89.5
271.234	81.5
271.466	73.5
271.698	83.5
271.93	66.5
272.162	92.5
272.394	86.5
272.626	74.5
272.858	86.5
273.09	75.5
273.322	88.5
273.553	75.5
273.785	78.5
274.017	73.5
274.249	86.5
274.481	90.5
274.713	96.5
274.945	87.5
275.176	92.5
275.408	79.5
275.64	105.5
275.872	101.5
276.104	96.5
276.335	91.5
276.567	99.5
276.799	105.5
277.031	126.5
277.262	127.5
277.494	99.5
277.726	79.5
277.957	79.5
278.189	89.5
278.421	81.5
278.652	80.5
278.884	79.5
279.115	93.5
279.347	86.5
279.579	99.5
279.81	111.5
280.042	133.5
280.273	158.5
280.505	112.5
280.736	93.5
280.968	94.5
281.199	91.5
281.431	80.5
281.662	77.5
281.894	102.5
282.125	98.5
282.356	117.5
282.588	143.5
282.819	97.5
283.051	99.5
283.282	87.5
283.513	85.5
283.745	81.5
283.976	88.5
284.207	102.5
284.439	88.5
284.67	91.5
284.901	91.5
285.132	80.5
285.364	79.5
285.595	81.5
285.826	86.5
286.057	88.5
286.288	103.5
286.52	90.5
286.751	89.5
286.982	86.5
287.213	77.5
287.444	94.5
287.675	86.5
287.906	85.5
288.138	99.5
288.369	96.5
288.6	83.5
288.831	67.5
289.062	85.5
289.293	81.5
289.524	78.5
289.755	94.5
289.986	98.5
290.217	93.5
290.448	103.5
290.679	84.5
290.91	90.5
291.141	82.5
291.371	100.5
291.602	74.5
291.833	78.5
292.064	70.5
292.295	79.5
292.526	94.5
292.757	93.5
292.987	91.5
293.218	91.5
293.449	74.5
293.68	77.5
293.91	98.5
294.141	75.5
294.372	80.5
294.603	95.5
294.833	88.5
295.064	82.5
295.295	94.5
295.525	95.5
295.756	104.5
295.987	112.5
296.217	129.5
296.448	122.5
296.679	97.5
296.909	95.5
297.14	95.5
297.37	86.5
297.601	90.5
297.831	94.5
298.062	93.5
298.292	80.5
298.523	81.5
298.753	88.5
298.984	85.5
299.214	81.5
299.445	95.5
299.675	95.5
299.905	102.5
300.136	93.5
300.366	81.5
300.597	91.5
300.827	85.5
301.057	100.5
301.288	91.5
301.518	85.5
301.748	93.5
301.979	107.5
302.209	96.5
302.439	98.5
302.669	87.5
302.9	97.5
303.13	94.5
303.36	92.5
303.59	96.5
303.82	117.5
304.051	75.5
304.281	81.5
304.511	91.5
304.741	96.5
304.971	92.5
305.201	87.5
305.431	84.5
305.661	99.5
305.891	100.5
306.121	112.5
306.352	86.5
306.582	110.5
306.812	106.5
307.042	120.5
307.272	124.5
307.502	140.5
307.731	125.5
307.961	110.5
308.191	104.5
308.421	90.5
308.651	89.5
308.881	87.5
309.111	91.5
309.341	96.5
309.571	95.5
309.8	85.5
310.03	107.5
310.26	102.5
310.49	86.5
310.72	90.5
310.949	102.5
311.179	95.5
311.409	95.5
311.639	109.5
311.868	93.5
312.098	89.5
312.328	104.5
312.557	96.5
312.787	101.5
313.017	101.5
313.246	99.5
313.476	97.5
313.706	94.5
313.935	93.5
314.165	103.5
314.394	111.5
314.624	95.5
314.853	91.5
315.083	98.5
315.312	97.5
315.542	87.5
315.771	97.5
316.001	90.5
316.23	91.5
316.46	82.5
316.689	86.5
316.919	88.5
317.148	96.5
317.377	81.5
317.607	81.5
317.836	89.5
318.065	90.5
318.295	80.5
318.524	72.5
318.753	94.5
318.983	73.5
319.212	100.5
319.441	97.5
319.67	111.5
319.9	94.5
320.129	95.5
320.358	104.5
320.587	110.5
320.816	104.5
321.046	99.5
321.275	84.5
321.504	100.5
321.733	89.5
321.962	92.5
322.191	103.5
322.42	99.5
322.649	111.5
322.878	106.5
323.108	114.5
323.337	136.5
323.566	140.5
323.795	156.5
324.024	198.5
324.253	421.5
324.482	875.5
324.71	1790.5
324.939	2361.5
325.168	829.5
325.397	263.5
325.626	161.5
325.855	119.5
326.084	116.5
326.313	129.5
326.542	169.5
326.77	245.5
326.999	489.5
327.228	1021.5
327.457	1793.5
327.686	1416.5
327.914	436.5
328.143	336.5
328.372	371.5
328.6	227.5
328.829	144.5
329.058	146.5
329.287	162.5
329.515	138.5
329.744	185.5
329.972	283.5
330.201	548.5
330.43	763.5
330.658	345.5
330.887	184.5
331.115	146.5
331.344	118.5
331.572	116.5
331.801	107.5
332.03	114.5
332.258	106.5
332.486	91.5
332.715	101.5
332.943	103.5
333.172	110.5
333.4	98.5
333.629	130.5
333.857	170.5
334.085	266.5
334.314	505.5
334.542	919.5
334.771	864.5
334.999	256.5
335.227	141.5
335.455	91.5
335.684	95.5
335.912	105.5
336.14	94.5
336.369	98.5
336.597	105.5
336.825	102.5
337.053	95.5
337.281	74.5
337.51	90.5
337.738	89.5
337.966	97.5
338.194	101.5
338.422	97.5
338.65	101.5
338.878	85.5
339.106	83.5
339.334	92.5
339.562	97.5
339.79	87.5
340.018	91.5
340.246	83.5
340.474	95.5
340.702	96.5
340.93	97.5
341.158	84.5
341.386	92.5
341.614	100.5
341.842	83.5
342.07	98.5
342.298	104.5
342.526	83.5
342.754	86.5
342.981	96.5
343.209	106.5
343.437	98.5
343.665	96.5
343.893	86.5
344.12	91.5
344.348	93.5
344.576	97.5
344.804	97.5
345.031	95.5
345.259	95.5
345.487	87.5
345.714	89.5
345.942	87.5
346.17	85.5
346.397	99.5
346.625	94.5
346.853	81.5
347.08	80.5
347.308	89.5
347.535	102.5
347.763	91.5
347.99	87.5
348.218	96.5
348.445	100.5
348.673	98.5
348.9	95.5
349.128	96.5
349.355	102.5
349.583	90.5
349.81	94.5
350.037	84.5
350.265	104.5
350.492	98.5
350.72	90.5
350.947	96.5
351.174	88.5
351.402	99.5
351.629	103.5
351.856	94.5
352.083	104.5
352.311	95.5
352.538	96.5
352.765	107.5
352.992	110.5
353.22	120.5
353.447	112.5
353.674	95.5
353.901	89.5
354.128	86.5
354.355	89.5
354.583	91.5
354.81	81.5
355.037	88.5
355.264	94.5
355.491	98.5
355.718	82.5
355.945	86.5
356.172	105.5
356.399	112.5
356.626	90.5
356.853	86.5
357.08	94.5
357.307	94.5
357.534	87.5
357.761	91.5
357.988	83.5
358.215	95.5
358.441	85.5
358.668	92.5
358.895	95.5
359.122	74.5
359.349	85.5
359.576	93.5
359.802	90.5
360.029	112.5
360.256	115.5
360.483	95.5
360.709	94.5
360.936	104.5
361.163	81.5
361.39	106.5
361.616	85.5
361.843	92.5
362.07	83.5
362.296	73.5
362.523	80.5
362.749	89.5
362.976	94.5
363.203	105.5
363.429	79.5
363.656	94.5
363.882	79.5
364.109	84.5
364.335	87.5
364.562	77.5
364.788	96.5
365.015	94.5
365.241	84.5
365.468	120.5
365.694	108.5
365.92	87.5
366.147	91.5
366.373	91.5
366.599	89.5
366.826	89.5
367.052	96.5
367.278	94.5
367.505	88.5
367.731	81.5
367.957	105.5
368.184	89.5
368.41	88.5
368.636	113.5
368.862	110.5
369.089	104.5
369.315	91.5
369.541	91.5
369.767	74.5
369.993	91.5
370.219	94.5
370.445	89.5
370.672	77.5
370.898	81.5
371.124	96.5
371.35	81.5
371.576	83.5
371.802	86.5
372.028	89.5
372.254	88.5
372.48	74.5
372.706	89.5
372.932	86.5
373.158	67.5
373.384	82.5
373.61	89.5
373.835	91.5
374.061	80.5
374.287	104.5
374.513	59.5
374.739	71.5
374.965	72.5
375.191	86.5
375.416	95.5
375.642	97.5
375.868	93.5
376.094	77.5
376.319	86.5
376.545	82.5
376.771	90.5
376.997	86.5
377.222	76.5
377.448	82.5
377.674	102.5
377.899	82.5
378.125	87.5
378.35	88.5
378.576	95.5
378.802	80.5
379.027	101.5
379.253	94.5
379.478	89.5
379.704	102.5
379.929	99.5
380.155	91.5
380.38	97.5
380.606	98.5
380.831	85.5
381.057	90.5
381.282	108.5
381.507	86.5
381.733	89.5
381.958	99.5
382.184	101.5
382.409	98.5
382.634	88.5
382.86	77.5
383.085	84.5
383.31	90.5
383.535	106.5
383.761	90.5
383.986	89.5
384.211	93.5
384.436	114.5
384.662	97.5
384.887	98.5
385.112	87.5
385.337	88.5
385.562	84.5
385.787	91.5
386.013	105.5
386.238	115.5
386.463	106.5
386.688	106.5
386.913	98.5
387.138	89.5
387.363	87.5
387.588	84.5
387.813	102.5
388.038	104.5
388.263	109.5
388.488	105.5
388.713	95.5
388.938	79.5
389.163	85.5
389.387	91.5
389.612	87.5
389.837	91.5
390.062	88.5
390.287	88.5
390.512	83.5
390.736	82.5
390.961	85.5
391.186	94.5
391.411	63.5
391.636	82.5
391.86	86.5
392.085	81.5
392.31	64.5
392.534	75.5
392.759	84.5
392.984	90.5
393.208	76.5
393.433	93.5
393.658	80.5
393.882	87.5
394.107	85.5
394.331	77.5
394.556	85.5
394.78	82.5
395.005	73.5
395.229	73.5
395.454	86.5
395.678	78.5
395.903	81.5
396.127	95.5
396.352	84.5
396.576	77.5
396.801	85.5
397.025	79.5
397.249	82.5
397.474	74.5
397.698	86.5
397.922	101.5
398.147	90.5
398.371	85.5
398.595	78.5
398.82	90.5
399.044	79.5
399.268	82.5
399.492	91.5
399.717	85.5
399.941	86.5
400.165	85.5
400.389	91.5
400.613	79.5
400.837	84.5
401.062	83.5
401.286	82.5
401.51	94.5
401.734	95.5
401.958	107.5
402.182	128.5
402.406	155.5
402.63	121.5
402.854	97.5
403.078	85.5
403.302	86.5
403.526	86.5
403.75	78.5
403.974	71.5
404.198	90.5
404.422	87.5
404.645	86.5
404.869	87.5
405.093	100.5
405.317	119.5
405.541	97.5
405.765	102.5
405.988	113.5
406.212	169.5
406.436	225.5
406.66	160.5
406.883	101.5
407.107	82.5
407.331	96.5
407.555	97.5
407.778	99.5
408.002	73.5
408.226	87.5
408.449	84.5
408.673	84.5
408.896	91.5
409.12	94.5
409.344	110.5
409.567	87.5
409.791	95.5
410.014	103.5
410.238	96.5
410.461	98.5
410.685	86.5
410.908	91.5
411.132	100.5
411.355	81.5
411.578	85.5
411.802	75.5
412.025	69.5
412.249	91.5
412.472	106.5
412.695	99.5
412.919	99.5
413.142	96.5
413.365	89.5
413.589	85.5
413.812	63.5
414.035	98.5
414.258	78.5
414.482	99.5
414.705	81.5
414.928	79.5
415.151	84.5
415.374	88.5
415.597	101.5
415.821	89.5
416.044	97.5
416.267	72.5
416.49	85.5
416.713	88.5
416.936	80.5
417.159	91.5
417.382	83.5
417.605	101.5
417.828	93.5
418.051	94.5
418.274	94.5
418.497	70.5
418.72	80.5
418.943	59.5
419.166	91.5
419.389	69.5
419.611	98.5
419.834	81.5
420.057	86.5
420.28	90.5
420.503	88.5
420.726	81.5
420.948	84.5
421.171	95.5
421.394	95.5
421.617	77.5
421.839	79.5
422.062	93.5
422.285	92.5
422.507	94.5
422.73	103.5
422.953	95.5
423.175	88.5
423.398	89.5
423.621	90.5
423.843	97.5
424.066	88.5
424.288	101.5
424.511	78.5
424.733	83.5
424.956	99.5
425.178	99.5
425.401	95.5
425.623	101.5
425.846	88.5
426.068	91.5
426.291	103.5
426.513	81.5
426.735	102.5
426.958	83.5
427.18	98.5
427.402	140.5
427.625	179.5
427.847	178.5
428.069	173.5
428.292	97.5
428.514	90.5
428.736	97.5
428.958	92.5
429.181	81.5
429.403	80.5
429.625	85.5
429.847	85.5
430.069	87.5
430.292	91.5
430.514	79.5
430.736	73.5
430.958	78.5
431.18	86.5
431.402	80.5
431.624	81.5
431.846	82.5
432.068	93.5
432.29	79.5
432.512	79.5
432.734	92.5
432.956	81.5
433.178	93.5
433.4	91.5
433.622	106.5
433.844	86.5
434.066	83.5
434.287	77.5
434.509	78.5
434.731	82.5
434.953	80.5
435.175	89.5
435.397	74.5
435.618	80.5
435.84	102.5
436.062	128.5
436.284	96.5
436.505	101.5
436.727	105.5
436.949	83.5
437.17	73.5
437.392	98.5
437.614	89.5
437.835	84.5
438.057	112.5
438.278	102.5
438.5	87.5
438.721	114.5
438.943	97.5
439.165	90.5
439.386	80.5
439.608	90.5
439.829	95.5
440.05	117.5
440.272	136.5
440.493	93.5
440.715	79.5
440.936	86.5
441.158	93.5
441.379	86.5
441.6	86.5
441.822	80.5
442.043	72.5
442.264	92.5
442.486	104.5
442.707	80.5
442.928	90.5
443.149	136.5
443.371	154.5
443.592	113.5
443.813	106.5
444.034	111.5
444.255	88.5
444.476	95.5
444.698	79.5
444.919	85.5
445.14	143.5
445.361	119.5
445.582	106.5
445.803	155.5
446.024	133.5
446.245	120.5
446.466	115.5
446.687	92.5
446.908	101.5
447.129	90.5
447.35	83.5
447.571	84.5
447.792	90.5
448.013	101.5
448.234	103.5
448.455	91.5
448.675	98.5
448.896	103.5
449.117	98.5
449.338	90.5
449.559	118.5
449.779	125.5
450	90.5
450.221	86.5
450.442	67.5
450.662	89.5
450.883	103.5
451.104	98.5
451.324	86.5
451.545	84.5
451.766	85.5
451.986	82.5
452.207	75.5
452.428	90.5
452.648	106.5
452.869	112.5
453.089	109.5
453.31	115.5
453.53	97.5
453.751	86.5
453.971	107.5
454.192	115.5
454.412	79.5
454.633	98.5
454.853	73.5
455.073	80.5
455.294	86.5
455.514	80.5
455.734	94.5
455.955	87.5
456.175	83.5
456.395	87.5
456.616	92.5
456.836	78.5
457.056	83.5
457.276	81.5
457.497	87.5
457.717	89.5
457.937	90.5
458.157	90.5
458.377	91.5
458.598	95.5
458.818	161.5
459.038	169.5
459.258	114.5
459.478	89.5
459.698	89.5
459.918	92.5
460.138	78.5
460.358	74.5
460.578	91.5
460.798	106.5
461.018	89.5
461.238	81.5
461.458	82.5
461.678	90.5
461.898	90.5
462.118	93.5
462.338	83.5
462.558	81.5
462.777	90.5
462.997	87.5
463.217	84.5
463.437	82.5
463.657	93.5
463.876	85.5
464.096	95.5
464.316	100.5
464.536	91.5
464.755	105.5
464.975	109.5
465.195	171.5
465.414	159.5
465.634	103.5
465.854	93.5
466.073	90.5
466.293	81.5
466.512	80.5
466.732	80.5
466.951	97.5
467.171	89.5
467.391	99.5
467.61	138.5
467.829	155.5
468.049	355.5
468.268	475.5
468.488	135.5
468.707	101.5
468.927	84.5
469.146	82.5
469.365	68.5
469.585	94.5
469.804	103.5
470.023	107.5
470.243	106.5
470.462	96.5
470.681	105.5
470.901	99.5
471.12	85.5
471.339	107.5
471.558	96.5
471.777	119.5
471.997	207.5
472.216	671.5
472.435	1351.5
472.654	350.5
472.873	122.5
473.092	97.5
473.311	88.5
473.53	87.5
473.749	94.5
473.968	87.5
474.187	105.5
474.406	92.5
474.625	96.5
474.844	91.5
475.063	90.5
475.282	79.5
475.501	87.5
475.72	96.5
475.939	87.5
476.158	83.5
476.377	85.5
476.596	90.5
476.814	90.5
477.033	95.5
477.252	81.5
477.471	85.5
477.69	95.5
477.908	90.5
478.127	83.5
478.346	83.5
478.564	88.5
478.783	89.5
479.002	81.5
479.22	99.5
479.439	108.5
479.658	113.5
479.876	99.5
480.095	102.5
480.313	134.5
480.532	120.5
480.751	185.5
480.969	620.5
481.188	2365.5
481.406	1357.5
481.624	233.5
481.843	115.5
482.061	111.5
482.28	91.5
482.498	83.5
482.717	87.5
482.935	91.5
483.153	81.5
483.372	79.5
483.59	90.5
483.808	94.5
484.027	83.5
484.245	83.5
484.463	88.5
484.681	99.5
484.9	81.5
485.118	96.5
485.336	102.5
485.554	90.5
485.772	82.5
485.99	106.5
486.209	100.5
486.427	114.5
486.645	97.5
486.863	96.5
487.081	104.5
487.299	87.5
487.517	98.5
487.735	98.5
487.953	96.5
488.171	89.5
488.389	88.5
488.607	93.5
488.825	99.5
489.043	95.5
489.261	88.5
489.479	90.5
489.696	86.5
489.914	83.5
490.132	82.5
490.35	80.5
490.568	85.5
490.786	97.5
491.003	77.5
491.221	72.5
491.439	86.5
491.657	81.5
491.874	88.5
492.092	74.5
492.31	95.5
492.527	91.5
492.745	106.5
492.963	97.5
493.18	87.5
493.398	89.5
493.615	99.5
493.833	84.5
494.05	101.5
494.268	86.5
494.485	87.5
494.703	89.5
494.92	90.5
495.138	92.5
495.355	94.5
495.573	88.5
495.79	102.5
496.008	88.5
496.225	86.5
496.442	78.5
496.66	102.5
496.877	99.5
497.094	111.5
497.312	94.5
497.529	93.5
497.746	78.5
497.963	69.5
498.181	87.5
498.398	94.5
498.615	98.5
498.832	94.5
499.049	82.5
499.267	99.5
499.484	85.5
499.701	86.5
499.918	78.5
500.135	84.5
500.352	82.5
500.569	89.5
500.786	96.5
501.003	87.5
501.22	96.5
501.437	86.5
501.654	87.5
501.871	99.5
502.088	86.5
502.305	79.5
502.522	98.5
502.739	83.5
502.956	98.5
503.172	98.5
503.389	95.5
503.606	114.5
503.823	92.5
504.04	98.5
504.256	73.5
504.473	75.5
504.69	76.5
504.907	88.5
505.123	88.5
505.34	85.5
505.557	105.5
505.773	87.5
505.99	87.5
506.207	90.5
506.423	82.5
506.64	93.5
506.856	78.5
507.073	82.5
507.289	87.5
507.506	100.5
507.722	115.5
507.939	109.5
508.155	91.5
508.372	77.5
508.588	89.5
508.805	84.5
509.021	88.5
509.238	98.5
509.454	102.5
509.67	95.5
509.887	90.5
510.103	125.5
510.319	204.5
510.536	701.5
510.752	2196.5
510.968	618.5
511.184	151.5
511.401	105.5
511.617	106.5
511.833	96.5
512.049	84.5
512.265	82.5
512.481	91.5
512.698	87.5
512.914	87.5
513.13	97.5
513.346	96.5
513.562	96.5
513.778	86.5
513.994	89.5
514.21	99.5
514.426	115.5
514.642	141.5
514.858	137.5
515.074	149.5
515.29	468.5
515.506	1509.5
515.721	564.5
515.937	150.5
516.153	105.5
516.369	107.5
516.585	98.5
516.801	98.5
517.016	106.5
517.232	94.5
517.448	93.5
517.664	91.5
517.879	101.5
518.095	91.5
518.311	107.5
518.527	91.5
518.742	94.5
518.958	94.5
519.173	93.5
519.389	99.5
519.605	87.5
519.82	86.5
520.036	103.5
520.251	119.5
520.467	110.5
520.682	109.5
520.898	106.5
521.113	113.5
521.329	141.5
521.544	224.5
521.76	561.5
521.975	2517.5
522.19	1524.5
522.406	318.5
522.621	123.5
522.836	114.5
523.052	100.5
523.267	91.5
523.482	94.5
523.698	94.5
523.913	114.5
524.128	106.5
524.343	93.5
524.559	94.5
524.774	97.5
524.989	97.5
525.204	97.5
525.419	97.5
525.634	87.5
525.849	77.5
526.064	96.5
526.28	103.5
526.495	87.5
526.71	92.5
526.925	90.5
527.14	95.5
527.355	91.5
527.57	85.5
527.785	81.5
527.999	103.5
528.214	91.5
528.429	83.5
528.644	77.5
528.859	76.5
529.074	98.5
529.289	125.5
529.503	181.5
529.718	107.5
529.933	83.5
530.148	86.5
530.363	99.5
530.577	82.5
530.792	69.5
531.007	81.5
531.221	91.5
531.436	94.5
531.651	93.5
531.865	92.5
532.08	81.5
532.295	95.5
532.509	88.5
532.724	85.5
532.938	103.5
533.153	86.5
533.367	96.5
533.582	82.5
533.796	79.5
534.011	89.5
534.225	94.5
534.44	76.5
534.654	87.5
534.868	84.5
535.083	87.5
535.297	100.5
535.511	110.5
535.726	100.5
535.94	104.5
536.154	97.5
536.369	102.5
536.583	82.5
536.797	95.5
537.011	85.5
537.225	72.5
537.44	82.5
537.654	95.5
537.868	88.5
538.082	78.5
538.296	93.5
538.51	81.5
538.724	81.5
538.938	99.5
539.153	102.5
539.367	106.5
539.581	92.5
539.795	87.5
540.009	95.5
540.222	86.5
540.436	82.5
540.65	90.5
540.864	96.5
541.078	87.5
541.292	81.5
541.506	81.5
541.72	82.5
541.934	90.5
542.147	113.5
542.361	85.5
542.575	91.5
542.789	87.5
543.002	79.5
543.216	86.5
543.43	105.5
543.644	94.5
543.857	93.5
544.071	97.5
544.285	92.5
544.498	92.5
544.712	99.5
544.925	95.5
545.139	78.5
545.352	94.5
545.566	87.5
545.779	93.5
545.993	80.5
546.206	90.5
546.42	91.5
546.633	90.5
546.847	105.5
547.06	99.5
547.274	84.5
547.487	93.5
547.7	95.5
547.914	83.5
548.127	87.5
548.34	79.5
548.554	95.5
548.767	78.5
548.98	84.5
549.193	87.5
549.407	87.5
549.62	79.5
549.833	92.5
550.046	95.5
550.259	77.5
550.473	90.5
550.686	91.5
550.899	75.5
551.112	68.5
551.325	90.5
551.538	93.5
551.751	88.5
551.964	97.5
552.177	93.5
552.39	89.5
552.603	82.5
552.816	88.5
553.029	94.5
553.242	88.5
553.455	102.5
553.667	88.5
553.88	99.5
554.093	100.5
554.306	89.5
554.519	116.5
554.732	102.5
554.944	95.5
555.157	107.5
555.37	98.5
555.583	88.5
555.795	101.5
556.008	87.5
556.221	104.5
556.433	90.5
556.646	93.5
556.859	88.5
557.071	93.5
557.284	79.5
557.496	87.5
557.709	80.5
557.921	97.5
558.134	83.5
558.346	91.5
558.559	90.5
558.771	94.5
558.984	85.5
559.196	98.5
559.409	96.5
559.621	92.5
559.833	100.5
560.046	87.5
560.258	91.5
560.47	98.5
560.683	98.5
560.895	89.5
561.107	93.5
561.32	91.5
561.532	88.5
561.744	102.5
561.956	88.5
562.168	77.5
562.381	90.5
562.593	72.5
562.805	85.5
563.017	87.5
563.229	106.5
563.441	88.5
563.653	80.5
563.865	97.5
564.077	95.5
564.289	97.5
564.501	90.5
564.713	106.5
564.925	96.5
565.137	103.5
565.349	94.5
565.561	90.5
565.773	90.5
565.985	90.5
566.197	89.5
566.408	92.5
566.62	87.5
566.832	88.5
567.044	90.5
567.255	78.5
567.467	83.5
567.679	86.5
567.891	95.5
568.102	79.5
568.314	87.5
568.526	98.5
568.737	87.5
568.949	90.5
569.161	90.5
569.372	86.5
569.584	93.5
569.795	88.5
570.007	109.5
570.218	219.5
570.43	125.5
570.641	74.5
570.853	91.5
571.064	79.5
571.276	95.5
571.487	92.5
571.698	94.5
571.91	94.5
572.121	103.5
572.333	97.5
572.544	78.5
572.755	102.5
572.966	92.5
573.178	75.5
573.389	89.5
573.6	78.5
573.811	84.5
574.023	89.5
574.234	83.5
574.445	87.5
574.656	92.5
574.867	85.5
575.078	94.5
575.289	83.5
575.501	87.5
575.712	95.5
575.923	86.5
576.134	88.5
576.345	77.5
576.556	91.5
576.767	87.5
576.978	84.5
577.188	85.5
577.399	81.5
577.61	96.5
577.821	94.5
578.032	105.5
578.243	235.5
578.454	674.5
578.665	184.5
578.875	97.5
579.086	81.5
579.297	82.5
579.508	76.5
579.718	82.5
579.929	79.5
580.14	91.5
580.35	90.5
580.561	89.5
580.772	93.5
580.982	73.5
581.193	93.5
581.403	82.5
581.614	86.5
581.825	88.5
582.035	83.5
582.246	87.5
582.456	79.5
582.667	74.5
582.877	90.5
583.087	101.5
583.298	93.5
583.508	100.5
583.719	86.5
583.929	91.5
584.139	95.5
584.35	80.5
584.56	90.5
584.77	74.5
584.981	77.5
585.191	81.5
585.401	86.5
585.611	79.5
585.821	83.5
586.032	97.5
586.242	85.5
586.452	73.5
586.662	82.5
586.872	98.5
587.082	87.5
587.292	85.5
587.502	101.5
587.713	78.5
587.923	89.5
588.133	89.5
588.343	71.5
588.553	82.5
588.762	86.5
588.972	97.5
589.182	107.5
589.392	107.5
589.602	85.5
589.812	96.5
590.022	100.5
590.232	72.5
590.441	88.5
590.651	89.5
590.861	91.5
591.071	84.5
591.281	93.5
591.49	88.5
591.7	75.5
591.91	88.5
592.119	79.5
592.329	92.5
592.539	84.5
592.748	94.5
592.958	78.5
593.167	97.5
593.377	95.5
593.587	89.5
593.796	75.5
594.006	91.5
594.215	74.5
594.424	100.5
594.634	84.5
594.843	97.5
595.053	82.5
595.262	89.5
595.472	78.5
595.681	86.5
595.89	76.5
596.1	87.5
596.309	85.5
596.518	84.5
596.727	88.5
596.937	73.5
597.146	81.5
597.355	88.5
597.564	99.5
597.774	81.5
597.983	90.5
598.192	69.5
598.401	74.5
598.61	87.5
598.819	85.5
599.028	90.5
599.237	81.5
599.446	84.5
599.655	69.5
599.864	82.5
600.073	74.5
600.282	84.5
600.491	78.5
600.7	67.5
600.909	83.5
601.118	90.5
601.327	96.5
601.536	90.5
601.745	82.5
601.953	83.5
602.162	83.5
602.371	81.5
602.58	75.5
602.789	103.5
602.997	89.5
603.206	78.5
603.415	85.5
603.623	78.5
603.832	79.5
604.041	85.5
604.249	77.5
604.458	81.5
604.666	82.5
604.875	82.5
605.084	81.5
605.292	93.5
605.501	78.5
605.709	79.5
605.918	91.5
606.126	93.5
606.334	88.5
606.543	93.5
606.751	78.5
606.96	77.5
607.168	86.5
607.376	90.5
607.585	95.5
607.793	72.5
608.001	81.5
608.21	78.5
608.418	82.5
608.626	88.5
608.834	83.5
609.043	81.5
609.251	74.5
609.459	88.5
609.667	73.5
609.875	74.5
610.083	83.5
610.291	88.5
610.499	94.5
610.707	88.5
610.916	77.5
611.124	73.5
611.332	81.5
611.54	81.5
611.748	82.5
611.955	88.5
612.163	81.5
612.371	96.5
612.579	91.5
612.787	85.5
612.995	95.5
613.203	89.5
613.411	87.5
613.618	91.5
613.826	89.5
614.034	91.5
614.242	86.5
614.449	89.5
614.657	93.5
614.865	85.5
615.072	95.5
615.28	86.5
615.488	86.5
615.695	86.5
615.903	94.5
616.111	92.5
616.318	96.5
616.526	93.5
616.733	89.5
616.941	73.5
617.148	91.5
617.356	102.5
617.563	91.5
617.771	82.5
617.978	94.5
618.185	88.5
618.393	91.5
618.6	87.5
618.807	82.5
619.015	83.5
619.222	82.5
619.429	91.5
619.637	90.5
619.844	82.5
620.051	90.5
620.258	89.5
620.466	94.5
620.673	91.5
620.88	75.5
621.087	91.5
621.294	65.5
621.501	74.5
621.708	94.5
621.915	90.5
622.122	83.5
622.329	90.5
622.536	87.5
622.743	75.5
622.95	91.5
623.157	72.5
623.364	95.5
623.571	84.5
623.778	77.5
623.985	79.5
624.192	85.5
624.399	67.5
624.606	80.5
624.812	88.5
625.019	84.5
625.226	79.5
625.433	81.5
625.639	85.5
625.846	94.5
626.053	110.5
626.259	79.5
626.466	93.5
626.673	85.5
626.879	75.5
627.086	94.5
627.293	92.5
627.499	81.5
627.706	92.5
627.912	84.5
628.119	86.5
628.325	89.5
628.532	86.5
628.738	80.5
628.945	85.5
629.151	79.5
629.357	73.5
629.564	80.5
629.77	79.5
629.976	78.5
630.183	87.5
630.389	84.5
630.595	82.5
630.802	90.5
631.008	88.5
631.214	79.5
631.42	67.5
631.627	86.5
631.833	83.5
632.039	91.5
632.245	76.5
632.451	79.5
632.657	83.5
632.863	78.5
633.069	83.5
633.275	78.5
633.481	65.5
633.688	85.5
633.893	70.5
634.099	84.5
634.305	85.5
634.511	77.5
634.717	93.5
634.923	79.5
635.129	87.5
635.335	77.5
635.541	78.5
635.747	85.5
635.952	83.5
636.158	101.5
636.364	244.5
636.57	191.5
636.775	106.5
636.981	88.5
637.187	76.5
637.392	97.5
637.598	84.5
637.804	85.5
638.009	85.5
638.215	91.5
638.421	78.5
638.626	83.5
638.832	80.5
639.037	82.5
639.243	87.5
639.448	83.5
639.654	86.5
639.859	86.5
640.065	72.5
640.27	83.5
640.475	75.5
640.681	80.5
640.886	80.5
641.091	88.5
641.297	105.5
641.502	79.5
641.707	81.5
641.913	85.5
642.118	82.5
642.323	74.5
642.528	79.5
642.733	80.5
642.939	78.5
643.144	94.5
643.349	87.5
643.554	72.5
643.759	75.5
643.964	87.5
644.169	73.5
644.374	77.5
644.579	90.5
644.784	66.5
644.989	81.5
645.194	94.5
645.399	85.5
645.604	97.5
645.809	88.5
646.014	87.5
646.219	75.5
646.423	95.5
646.628	85.5
646.833	72.5
647.038	82.5
647.243	84.5
647.447	76.5
647.652	81.5
647.857	71.5
648.062	75.5
648.266	80.5
648.471	79.5
648.676	72.5
648.88	82.5
649.085	84.5
649.289	93.5
649.494	102.5
649.698	123.5
649.903	92.5
650.107	86.5
650.312	71.5
650.516	81.5
650.721	91.5
650.925	90.5
651.13	74.5
651.334	69.5
651.539	73.5
651.743	94.5
651.947	89.5
652.152	93.5
652.356	106.5
652.56	72.5
652.764	77.5
652.969	73.5
653.173	88.5
653.377	71.5
653.581	85.5
653.785	73.5
653.99	82.5
654.194	86.5
654.398	81.5
654.602	84.5
654.806	77.5
655.01	94.5
655.214	84.5
655.418	68.5
655.622	69.5
655.826	89.5
656.03	74.5
656.234	93.5
656.438	94.5
656.642	87.5
656.846	88.5
657.049	88.5
657.253	76.5
657.457	77.5
657.661	77.5
657.865	85.5
658.068	84.5
658.272	84.5
658.476	82.5
658.68	79.5
658.883	67.5
659.087	81.5
659.291	82.5
659.494	96.5
659.698	73.5
659.901	56.5
660.105	67.5
660.309	76.5
660.512	79.5
660.716	90.5
660.919	89.5
661.123	85.5
661.326	73.5
661.53	82.5
661.733	71.5
661.936	75.5
662.14	90.5
662.343	77.5
662.546	84.5
662.75	81.5
662.953	81.5
663.156	83.5
663.36	91.5
663.563	85.5
663.766	75.5
663.969	81.5
664.173	82.5
664.376	74.5
664.579	91.5
664.782	77.5
664.985	86.5
665.188	77.5
665.391	82.5
665.594	75.5
665.797	74.5
666	78.5
666.203	85.5
666.406	67.5
666.609	90.5
666.812	88.5
667.015	90.5
667.218	73.5
667.421	74.5
667.624	78.5
667.827	99.5
668.03	87.5
668.232	84.5
668.435	77.5
668.638	74.5
668.841	73.5
669.043	91.5
669.246	75.5
669.449	73.5
669.651	86.5
669.854	93.5
670.057	58.5
670.259	78.5
670.462	77.5
670.665	86.5
670.867	87.5
671.07	96.5
671.272	73.5
671.475	81.5
671.677	73.5
671.88	74.5
672.082	79.5
672.284	97.5
672.487	78.5
672.689	83.5
672.892	85.5
