Data from Circ_2001_H10_HRD10591_00043.txt Node
Date: Wed Jan 03 10:45:47 EST 2024
User: Yrep
Spectrometer: HR+D1059
Trigger mode: 1
Integration Time (sec): 1.000000E-1
Scans to average: 1
Electric dark correction enabled: true
Nonlinearity correction enabled: false
Boxcar width: 0
XAxis mode: Wavelengths
Number of Pixels in Spectrum: 2048
>>>>>Begin Spectral Data<<<<<
223.165	-10.12
223.4	-10.12
223.635	-10.12
223.869	-21.12
224.104	-18.12
224.338	-22.12
224.573	-13.12
224.808	-24.12
225.042	-11.12
225.277	-4.12
225.511	-1.12
225.746	13.88
225.98	18.88
226.215	17.88
226.449	11.88
226.683	8.88
226.918	17.88
227.152	35.88
227.387	27.88
227.621	37.88
227.856	50.88
228.09	38.88
228.324	28.88
228.559	57.88
228.793	68.88
229.027	70.88
229.262	67.88
229.496	80.88
229.73	66.88
229.964	83.88
230.199	79.88
230.433	73.88
230.667	85.88
230.901	72.88
231.136	78.88
231.37	81.88
231.604	75.88
231.838	83.88
232.072	85.88
232.306	92.88
232.541	81.88
232.775	59.88
233.009	68.88
233.243	73.88
233.477	86.88
233.711	86.88
233.945	87.88
234.179	77.88
234.413	74.88
234.647	79.88
234.881	76.88
235.115	82.88
235.349	87.88
235.583	75.88
235.817	82.88
236.051	79.88
236.285	77.88
236.519	78.88
236.753	86.88
236.987	70.88
237.221	86.88
237.455	85.88
237.689	74.88
237.922	73.88
238.156	91.88
238.39	54.88
238.624	81.88
238.858	67.88
239.091	84.88
239.325	73.88
239.559	81.88
239.793	74.88
240.027	90.88
240.26	73.88
240.494	71.88
240.728	70.88
240.961	82.88
241.195	70.88
241.429	77.88
241.662	79.88
241.896	61.88
242.13	69.88
242.363	73.88
242.597	65.88
242.83	80.88
243.064	63.88
243.298	78.88
243.531	75.88
243.765	80.88
243.998	81.88
244.232	71.88
244.465	78.88
244.699	67.88
244.932	70.88
245.166	75.88
245.399	66.88
245.633	79.88
245.866	83.88
246.099	65.88
246.333	74.88
246.566	66.88
246.8	86.88
247.033	80.88
247.266	80.88
247.5	90.88
247.733	87.88
247.966	79.88
248.2	73.88
248.433	80.88
248.666	80.88
248.899	70.88
249.133	85.88
249.366	87.88
249.599	99.88
249.832	75.88
250.066	81.88
250.299	78.88
250.532	83.88
250.765	70.88
250.998	78.88
251.231	85.88
251.465	78.88
251.698	75.88
251.931	84.88
252.164	81.88
252.397	89.88
252.63	88.88
252.863	77.88
253.096	72.88
253.329	82.88
253.562	81.88
253.795	78.88
254.028	79.88
254.261	74.88
254.494	90.88
254.727	91.88
254.96	81.88
255.193	63.88
255.426	75.88
255.659	94.88
255.892	85.88
256.124	80.88
256.357	95.88
256.59	71.88
256.823	54.88
257.056	81.88
257.289	75.88
257.521	97.88
257.754	87.88
257.987	83.88
258.22	85.88
258.452	81.88
258.685	84.88
258.918	84.88
259.151	83.88
259.383	80.88
259.616	66.88
259.849	90.88
260.081	82.88
260.314	93.88
260.547	74.88
260.779	79.88
261.012	91.88
261.244	94.88
261.477	95.88
261.71	89.88
261.942	122.88
262.175	121.88
262.407	102.88
262.64	76.88
262.872	82.88
263.105	86.88
263.337	82.88
263.57	80.88
263.802	83.88
264.035	83.88
264.267	73.88
264.499	74.88
264.732	72.88
264.964	70.88
265.197	70.88
265.429	80.88
265.661	83.88
265.894	79.88
266.126	83.88
266.358	89.88
266.591	82.88
266.823	84.88
267.055	92.88
267.287	77.88
267.52	74.88
267.752	83.88
267.984	93.88
268.216	90.88
268.448	89.88
268.681	91.88
268.913	84.88
269.145	80.88
269.377	85.88
269.609	75.88
269.841	90.88
270.073	85.88
270.306	84.88
270.538	91.88
270.77	86.88
271.002	66.88
271.234	89.88
271.466	72.88
271.698	80.88
271.93	98.88
272.162	97.88
272.394	84.88
272.626	82.88
272.858	81.88
273.09	90.88
273.322	89.88
273.553	81.88
273.785	79.88
274.017	87.88
274.249	98.88
274.481	101.88
274.713	81.88
274.945	83.88
275.176	90.88
275.408	91.88
275.64	96.88
275.872	104.88
276.104	87.88
276.335	96.88
276.567	95.88
276.799	104.88
277.031	138.88
277.262	130.88
277.494	130.88
277.726	105.88
277.957	89.88
278.189	90.88
278.421	86.88
278.652	83.88
278.884	90.88
279.115	71.88
279.347	89.88
279.579	83.88
279.81	113.88
280.042	141.88
280.273	159.88
280.505	127.88
280.736	92.88
280.968	84.88
281.199	74.88
281.431	90.88
281.662	101.88
281.894	88.88
282.125	99.88
282.356	131.88
282.588	144.88
282.819	126.88
283.051	93.88
283.282	79.88
283.513	103.88
283.745	82.88
283.976	85.88
284.207	87.88
284.439	89.88
284.67	88.88
284.901	81.88
285.132	78.88
285.364	87.88
285.595	86.88
285.826	85.88
286.057	85.88
286.288	82.88
286.52	89.88
286.751	81.88
286.982	94.88
287.213	86.88
287.444	84.88
287.675	96.88
287.906	87.88
288.138	98.88
288.369	86.88
288.6	79.88
288.831	79.88
289.062	87.88
289.293	88.88
289.524	90.88
289.755	81.88
289.986	74.88
290.217	92.88
290.448	97.88
290.679	82.88
290.91	92.88
291.141	87.88
291.371	88.88
291.602	96.88
291.833	94.88
292.064	90.88
292.295	98.88
292.526	84.88
292.757	85.88
292.987	89.88
293.218	96.88
293.449	98.88
293.68	73.88
293.91	85.88
294.141	91.88
294.372	86.88
294.603	85.88
294.833	78.88
295.064	70.88
295.295	89.88
295.525	72.88
295.756	92.88
295.987	105.88
296.217	136.88
296.448	113.88
296.679	82.88
296.909	97.88
297.14	79.88
297.37	88.88
297.601	81.88
297.831	73.88
298.062	99.88
298.292	85.88
298.523	99.88
298.753	77.88
298.984	83.88
299.214	86.88
299.445	82.88
299.675	95.88
299.905	91.88
300.136	98.88
300.366	84.88
300.597	83.88
300.827	82.88
301.057	91.88
301.288	105.88
301.518	79.88
301.748	86.88
301.979	91.88
302.209	94.88
302.439	75.88
302.669	93.88
302.9	90.88
303.13	85.88
303.36	102.88
303.59	108.88
303.82	121.88
304.051	101.88
304.281	96.88
304.511	93.88
304.741	91.88
304.971	79.88
305.201	79.88
305.431	97.88
305.661	97.88
305.891	94.88
306.121	98.88
306.352	113.88
306.582	108.88
306.812	91.88
307.042	118.88
307.272	137.88
307.502	141.88
307.731	135.88
307.961	108.88
308.191	87.88
308.421	93.88
308.651	98.88
308.881	87.88
309.111	81.88
309.341	87.88
309.571	97.88
309.8	75.88
310.03	91.88
310.26	89.88
310.49	94.88
310.72	95.88
310.949	100.88
311.179	101.88
311.409	96.88
311.639	97.88
311.868	115.88
312.098	102.88
312.328	93.88
312.557	104.88
312.787	111.88
313.017	110.88
313.246	100.88
313.476	94.88
313.706	91.88
313.935	96.88
314.165	108.88
314.394	96.88
314.624	89.88
314.853	100.88
315.083	94.88
315.312	83.88
315.542	87.88
315.771	83.88
316.001	93.88
316.23	97.88
316.46	95.88
316.689	93.88
316.919	93.88
317.148	84.88
317.377	88.88
317.607	98.88
317.836	108.88
318.065	93.88
318.295	109.88
318.524	90.88
318.753	94.88
318.983	94.88
319.212	106.88
319.441	96.88
319.67	113.88
319.9	99.88
320.129	86.88
320.358	97.88
320.587	100.88
320.816	104.88
321.046	86.88
321.275	99.88
321.504	97.88
321.733	90.88
321.962	106.88
322.191	90.88
322.42	111.88
322.649	117.88
322.878	109.88
323.108	103.88
323.337	121.88
323.566	137.88
323.795	156.88
324.024	214.88
324.253	401.88
324.482	817.88
324.71	1708.88
324.939	2182.88
325.168	797.88
325.397	250.88
325.626	148.88
325.855	121.88
326.084	120.88
326.313	147.88
326.542	172.88
326.77	233.88
326.999	464.88
327.228	947.88
327.457	1651.88
327.686	1317.88
327.914	433.88
328.143	367.88
328.372	409.88
328.6	244.88
328.829	140.88
329.058	157.88
329.287	153.88
329.515	144.88
329.744	180.88
329.972	318.88
330.201	597.88
330.43	789.88
330.658	383.88
330.887	204.88
331.115	149.88
331.344	117.88
331.572	110.88
331.801	116.88
332.03	96.88
332.258	111.88
332.486	92.88
332.715	110.88
332.943	103.88
333.172	102.88
333.4	114.88
333.629	138.88
333.857	175.88
334.085	297.88
334.314	550.88
334.542	1000.88
334.771	903.88
334.999	254.88
335.227	137.88
335.455	105.88
335.684	94.88
335.912	98.88
336.14	102.88
336.369	100.88
336.597	103.88
336.825	102.88
337.053	94.88
337.281	91.88
337.51	107.88
337.738	102.88
337.966	93.88
338.194	112.88
338.422	85.88
338.65	100.88
338.878	90.88
339.106	91.88
339.334	83.88
339.562	82.88
339.79	95.88
340.018	95.88
340.246	92.88
340.474	90.88
340.702	89.88
340.93	98.88
341.158	103.88
341.386	97.88
341.614	99.88
341.842	103.88
342.07	93.88
342.298	82.88
342.526	83.88
342.754	81.88
342.981	99.88
343.209	94.88
343.437	95.88
343.665	100.88
343.893	83.88
344.12	97.88
344.348	89.88
344.576	86.88
344.804	94.88
345.031	102.88
345.259	100.88
345.487	101.88
345.714	81.88
345.942	87.88
346.17	87.88
346.397	85.88
346.625	87.88
346.853	81.88
347.08	87.88
347.308	87.88
347.535	102.88
347.763	93.88
347.99	96.88
348.218	107.88
348.445	121.88
348.673	94.88
348.9	99.88
349.128	103.88
349.355	79.88
349.583	94.88
349.81	98.88
350.037	98.88
350.265	96.88
350.492	99.88
350.72	86.88
350.947	88.88
351.174	106.88
351.402	90.88
351.629	101.88
351.856	111.88
352.083	104.88
352.311	99.88
352.538	107.88
352.765	100.88
352.992	111.88
353.22	105.88
353.447	109.88
353.674	94.88
353.901	94.88
354.128	107.88
354.355	98.88
354.583	106.88
354.81	84.88
355.037	102.88
355.264	104.88
355.491	104.88
355.718	92.88
355.945	98.88
356.172	89.88
356.399	77.88
356.626	87.88
356.853	103.88
357.08	99.88
357.307	93.88
357.534	109.88
357.761	86.88
357.988	102.88
358.215	94.88
358.441	96.88
358.668	93.88
358.895	85.88
359.122	81.88
359.349	88.88
359.576	82.88
359.802	117.88
360.029	115.88
360.256	119.88
360.483	124.88
360.709	84.88
360.936	98.88
361.163	95.88
361.39	98.88
361.616	101.88
361.843	86.88
362.07	90.88
362.296	94.88
362.523	94.88
362.749	84.88
362.976	96.88
363.203	96.88
363.429	99.88
363.656	87.88
363.882	79.88
364.109	99.88
364.335	90.88
364.562	87.88
364.788	97.88
365.015	108.88
365.241	105.88
365.468	113.88
365.694	111.88
365.92	110.88
366.147	85.88
366.373	76.88
366.599	100.88
366.826	84.88
367.052	96.88
367.278	102.88
367.505	84.88
367.731	89.88
367.957	96.88
368.184	107.88
368.41	107.88
368.636	119.88
368.862	110.88
369.089	104.88
369.315	82.88
369.541	91.88
369.767	87.88
369.993	89.88
370.219	76.88
370.445	86.88
370.672	88.88
370.898	82.88
371.124	80.88
371.35	89.88
371.576	96.88
371.802	90.88
372.028	94.88
372.254	83.88
372.48	90.88
372.706	86.88
372.932	86.88
373.158	76.88
373.384	101.88
373.61	83.88
373.835	92.88
374.061	98.88
374.287	87.88
374.513	88.88
374.739	86.88
374.965	71.88
375.191	91.88
375.416	96.88
375.642	91.88
375.868	88.88
376.094	94.88
376.319	99.88
376.545	89.88
376.771	98.88
376.997	91.88
377.222	95.88
377.448	90.88
377.674	95.88
377.899	80.88
378.125	80.88
378.35	105.88
378.576	88.88
378.802	87.88
379.027	99.88
379.253	90.88
379.478	90.88
379.704	88.88
379.929	95.88
380.155	85.88
380.38	95.88
380.606	103.88
380.831	74.88
381.057	100.88
381.282	88.88
381.507	88.88
381.733	91.88
381.958	98.88
382.184	92.88
382.409	110.88
382.634	104.88
382.86	89.88
383.085	95.88
383.31	90.88
383.535	96.88
383.761	93.88
383.986	95.88
384.211	83.88
384.436	88.88
384.662	95.88
384.887	112.88
385.112	101.88
385.337	97.88
385.562	94.88
385.787	101.88
386.013	120.88
386.238	106.88
386.463	106.88
386.688	102.88
386.913	98.88
387.138	99.88
387.363	121.88
387.588	103.88
387.813	96.88
388.038	109.88
388.263	113.88
388.488	105.88
388.713	102.88
388.938	87.88
389.163	77.88
389.387	94.88
389.612	83.88
389.837	94.88
390.062	97.88
390.287	95.88
390.512	86.88
390.736	73.88
390.961	78.88
391.186	83.88
391.411	95.88
391.636	90.88
391.86	73.88
392.085	82.88
392.31	81.88
392.534	89.88
392.759	94.88
392.984	81.88
393.208	84.88
393.433	94.88
393.658	91.88
393.882	60.88
394.107	88.88
394.331	85.88
394.556	78.88
394.78	90.88
395.005	91.88
395.229	96.88
395.454	71.88
395.678	74.88
395.903	93.88
396.127	87.88
396.352	85.88
396.576	80.88
396.801	94.88
397.025	102.88
397.249	97.88
397.474	94.88
397.698	95.88
397.922	81.88
398.147	74.88
398.371	65.88
398.595	83.88
398.82	79.88
399.044	96.88
399.268	89.88
399.492	82.88
399.717	95.88
399.941	97.88
400.165	101.88
400.389	90.88
400.613	98.88
400.837	93.88
401.062	86.88
401.286	99.88
401.51	81.88
401.734	91.88
401.958	111.88
402.182	143.88
402.406	162.88
402.63	135.88
402.854	90.88
403.078	101.88
403.302	65.88
403.526	93.88
403.75	98.88
403.974	80.88
404.198	72.88
404.422	99.88
404.645	86.88
404.869	105.88
405.093	105.88
405.317	128.88
405.541	114.88
405.765	115.88
405.988	123.88
406.212	178.88
406.436	271.88
406.66	156.88
406.883	114.88
407.107	94.88
407.331	93.88
407.555	89.88
407.778	110.88
408.002	91.88
408.226	109.88
408.449	99.88
408.673	97.88
408.896	107.88
409.12	95.88
409.344	90.88
409.567	83.88
409.791	101.88
410.014	93.88
410.238	93.88
410.461	87.88
410.685	93.88
410.908	102.88
411.132	111.88
411.355	94.88
411.578	82.88
411.802	100.88
412.025	86.88
412.249	92.88
412.472	98.88
412.695	119.88
412.919	90.88
413.142	83.88
413.365	86.88
413.589	79.88
413.812	90.88
414.035	78.88
414.258	87.88
414.482	91.88
414.705	90.88
414.928	89.88
415.151	78.88
415.374	90.88
415.597	97.88
415.821	98.88
416.044	74.88
416.267	94.88
416.49	81.88
416.713	88.88
416.936	92.88
417.159	70.88
417.382	86.88
417.605	90.88
417.828	90.88
418.051	99.88
418.274	95.88
418.497	73.88
418.72	85.88
418.943	90.88
419.166	82.88
419.389	86.88
419.611	92.88
419.834	83.88
420.057	93.88
420.28	89.88
420.503	77.88
420.726	96.88
420.948	96.88
421.171	95.88
421.394	95.88
421.617	76.88
421.839	87.88
422.062	72.88
422.285	96.88
422.507	101.88
422.73	112.88
422.953	96.88
423.175	81.88
423.398	80.88
423.621	94.88
423.843	89.88
424.066	77.88
424.288	82.88
424.511	93.88
424.733	87.88
424.956	94.88
425.178	102.88
425.401	95.88
425.623	100.88
425.846	102.88
426.068	91.88
426.291	98.88
426.513	74.88
426.735	86.88
426.958	100.88
427.18	95.88
427.402	141.88
427.625	180.88
427.847	180.88
428.069	153.88
428.292	95.88
428.514	72.88
428.736	88.88
428.958	73.88
429.181	96.88
429.403	89.88
429.625	96.88
429.847	88.88
430.069	93.88
430.292	86.88
430.514	95.88
430.736	80.88
430.958	74.88
431.18	73.88
431.402	93.88
431.624	72.88
431.846	85.88
432.068	80.88
432.29	95.88
432.512	90.88
432.734	85.88
432.956	94.88
433.178	99.88
433.4	105.88
433.622	94.88
433.844	79.88
434.066	94.88
434.287	93.88
434.509	96.88
434.731	70.88
434.953	95.88
435.175	84.88
435.397	88.88
435.618	96.88
435.84	91.88
436.062	122.88
436.284	117.88
436.505	101.88
436.727	99.88
436.949	86.88
437.17	96.88
437.392	85.88
437.614	100.88
437.835	106.88
438.057	112.88
438.278	119.88
438.5	110.88
438.721	104.88
438.943	103.88
439.165	84.88
439.386	95.88
439.608	88.88
439.829	99.88
440.05	133.88
440.272	151.88
440.493	91.88
440.715	86.88
440.936	88.88
441.158	93.88
441.379	90.88
441.6	103.88
441.822	95.88
442.043	99.88
442.264	95.88
442.486	86.88
442.707	105.88
442.928	94.88
443.149	146.88
443.371	149.88
443.592	106.88
443.813	113.88
444.034	118.88
444.255	86.88
444.476	71.88
444.698	67.88
444.919	87.88
445.14	129.88
445.361	123.88
445.582	104.88
445.803	140.88
446.024	143.88
446.245	145.88
446.466	107.88
446.687	94.88
446.908	86.88
447.129	101.88
447.35	87.88
447.571	96.88
447.792	84.88
448.013	101.88
448.234	91.88
448.455	105.88
448.675	118.88
448.896	118.88
449.117	102.88
449.338	103.88
449.559	126.88
449.779	127.88
450	81.88
450.221	77.88
450.442	81.88
450.662	90.88
450.883	110.88
451.104	110.88
451.324	99.88
451.545	97.88
451.766	83.88
451.986	73.88
452.207	94.88
452.428	92.88
452.648	97.88
452.869	117.88
453.089	119.88
453.31	112.88
453.53	95.88
453.751	81.88
453.971	107.88
454.192	106.88
454.412	105.88
454.633	83.88
454.853	84.88
455.073	91.88
455.294	87.88
455.514	96.88
455.734	94.88
455.955	75.88
456.175	85.88
456.395	90.88
456.616	84.88
456.836	97.88
457.056	88.88
457.276	94.88
457.497	93.88
457.717	69.88
457.937	90.88
458.157	93.88
458.377	83.88
458.598	107.88
458.818	170.88
459.038	167.88
459.258	130.88
459.478	84.88
459.698	81.88
459.918	75.88
460.138	81.88
460.358	85.88
460.578	76.88
460.798	85.88
461.018	94.88
461.238	81.88
461.458	61.88
461.678	72.88
461.898	89.88
462.118	89.88
462.338	75.88
462.558	76.88
462.777	86.88
462.997	103.88
463.217	84.88
463.437	81.88
463.657	73.88
463.876	86.88
464.096	92.88
464.316	94.88
464.536	99.88
464.755	95.88
464.975	113.88
465.195	187.88
465.414	173.88
465.634	95.88
465.854	85.88
466.073	83.88
466.293	79.88
466.512	87.88
466.732	89.88
466.951	93.88
467.171	94.88
467.391	110.88
467.61	91.88
467.829	161.88
468.049	373.88
468.268	500.88
468.488	147.88
468.707	97.88
468.927	87.88
469.146	81.88
469.365	95.88
469.585	101.88
469.804	85.88
470.023	94.88
470.243	90.88
470.462	96.88
470.681	120.88
470.901	93.88
471.12	93.88
471.339	108.88
471.558	107.88
471.777	134.88
471.997	206.88
472.216	681.88
472.435	1432.88
472.654	361.88
472.873	121.88
473.092	89.88
473.311	99.88
473.53	80.88
473.749	82.88
473.968	106.88
474.187	112.88
474.406	107.88
474.625	89.88
474.844	87.88
475.063	81.88
475.282	82.88
475.501	102.88
475.72	95.88
475.939	86.88
476.158	89.88
476.377	96.88
476.596	97.88
476.814	75.88
477.033	88.88
477.252	98.88
477.471	88.88
477.69	84.88
477.908	95.88
478.127	100.88
478.346	91.88
478.564	91.88
478.783	97.88
479.002	91.88
479.22	107.88
479.439	103.88
479.658	113.88
479.876	118.88
480.095	105.88
480.313	105.88
480.532	128.88
480.751	205.88
480.969	645.88
481.188	2515.88
481.406	1436.88
481.624	247.88
481.843	116.88
482.061	103.88
482.28	102.88
482.498	96.88
482.717	93.88
482.935	99.88
483.153	94.88
483.372	92.88
483.59	88.88
483.808	99.88
484.027	88.88
484.245	107.88
484.463	79.88
484.681	77.88
484.9	92.88
485.118	95.88
485.336	79.88
485.554	96.88
485.772	85.88
485.99	105.88
486.209	99.88
486.427	105.88
486.645	106.88
486.863	107.88
487.081	94.88
487.299	102.88
487.517	96.88
487.735	88.88
487.953	84.88
488.171	85.88
488.389	98.88
488.607	102.88
488.825	89.88
489.043	80.88
489.261	103.88
489.479	84.88
489.696	86.88
489.914	73.88
490.132	88.88
490.35	82.88
490.568	81.88
490.786	77.88
491.003	87.88
491.221	85.88
491.439	87.88
491.657	100.88
491.874	69.88
492.092	90.88
492.31	98.88
492.527	81.88
492.745	85.88
492.963	102.88
493.18	99.88
493.398	91.88
493.615	94.88
493.833	88.88
494.05	70.88
494.268	83.88
494.485	91.88
494.703	101.88
494.92	81.88
495.138	94.88
495.355	83.88
495.573	83.88
495.79	84.88
496.008	97.88
496.225	82.88
496.442	78.88
496.66	86.88
496.877	88.88
497.094	86.88
497.312	86.88
497.529	82.88
497.746	82.88
497.963	74.88
498.181	90.88
498.398	84.88
498.615	113.88
498.832	110.88
499.049	97.88
499.267	84.88
499.484	82.88
499.701	87.88
499.918	91.88
500.135	78.88
500.352	85.88
500.569	81.88
500.786	90.88
501.003	85.88
501.22	99.88
501.437	83.88
501.654	94.88
501.871	108.88
502.088	98.88
502.305	85.88
502.522	82.88
502.739	83.88
502.956	92.88
503.172	84.88
503.389	100.88
503.606	103.88
503.823	102.88
504.04	71.88
504.256	83.88
504.473	79.88
504.69	94.88
504.907	87.88
505.123	74.88
505.34	88.88
505.557	100.88
505.773	85.88
505.99	89.88
506.207	85.88
506.423	93.88
506.64	78.88
506.856	79.88
507.073	66.88
507.289	89.88
507.506	94.88
507.722	117.88
507.939	120.88
508.155	95.88
508.372	95.88
508.588	99.88
508.805	85.88
509.021	85.88
509.238	105.88
509.454	90.88
509.67	92.88
509.887	112.88
510.103	142.88
510.319	214.88
510.536	771.88
510.752	2522.88
510.968	693.88
511.184	149.88
511.401	106.88
511.617	98.88
511.833	94.88
512.049	79.88
512.265	77.88
512.481	80.88
512.698	96.88
512.914	80.88
513.13	91.88
513.346	99.88
513.562	81.88
513.778	100.88
513.994	91.88
514.21	103.88
514.426	143.88
514.642	129.88
514.858	120.88
515.074	195.88
515.29	531.88
515.506	1823.88
515.721	633.88
515.937	169.88
516.153	108.88
516.369	110.88
516.585	87.88
516.801	90.88
517.016	102.88
517.232	94.88
517.448	93.88
517.664	94.88
517.879	104.88
518.095	97.88
518.311	93.88
518.527	94.88
518.742	96.88
518.958	92.88
519.173	96.88
519.389	90.88
519.605	101.88
519.82	105.88
520.036	104.88
520.251	120.88
520.467	107.88
520.682	99.88
520.898	111.88
521.113	118.88
521.329	153.88
521.544	227.88
521.76	684.88
521.975	3002.88
522.19	1772.88
522.406	368.88
522.621	145.88
522.836	98.88
523.052	96.88
523.267	98.88
523.482	91.88
523.698	104.88
523.913	119.88
524.128	96.88
524.343	90.88
524.559	94.88
524.774	95.88
524.989	106.88
525.204	97.88
525.419	93.88
525.634	95.88
525.849	87.88
526.064	73.88
526.28	92.88
526.495	88.88
526.71	85.88
526.925	78.88
527.14	80.88
527.355	85.88
527.57	86.88
527.785	82.88
527.999	100.88
528.214	86.88
528.429	108.88
528.644	84.88
528.859	108.88
529.074	106.88
529.289	137.88
529.503	204.88
529.718	120.88
529.933	87.88
530.148	81.88
530.363	88.88
530.577	104.88
530.792	85.88
531.007	78.88
531.221	91.88
531.436	85.88
531.651	105.88
531.865	96.88
532.08	91.88
532.295	75.88
532.509	94.88
532.724	111.88
532.938	85.88
533.153	95.88
533.367	91.88
533.582	86.88
533.796	87.88
534.011	76.88
534.225	96.88
534.44	79.88
534.654	81.88
534.868	90.88
535.083	95.88
535.297	94.88
535.511	97.88
535.726	96.88
535.94	89.88
536.154	115.88
536.369	104.88
536.583	90.88
536.797	91.88
537.011	77.88
537.225	88.88
537.44	99.88
537.654	85.88
537.868	90.88
538.082	87.88
538.296	95.88
538.51	93.88
538.724	81.88
538.938	85.88
539.153	89.88
539.367	105.88
539.581	95.88
539.795	87.88
540.009	85.88
540.222	92.88
540.436	91.88
540.65	95.88
540.864	89.88
541.078	80.88
541.292	93.88
541.506	92.88
541.72	79.88
541.934	81.88
542.147	99.88
542.361	83.88
542.575	79.88
542.789	83.88
543.002	89.88
543.216	85.88
543.43	93.88
543.644	90.88
543.857	80.88
544.071	80.88
544.285	96.88
544.498	82.88
544.712	97.88
544.925	86.88
545.139	93.88
545.352	87.88
545.566	107.88
545.779	92.88
545.993	89.88
546.206	91.88
546.42	83.88
546.633	82.88
546.847	86.88
547.06	88.88
547.274	96.88
547.487	81.88
547.7	88.88
547.914	89.88
548.127	81.88
548.34	77.88
548.554	79.88
548.767	79.88
548.98	88.88
549.193	83.88
549.407	75.88
549.62	81.88
549.833	80.88
550.046	78.88
550.259	73.88
550.473	82.88
550.686	89.88
550.899	90.88
551.112	102.88
551.325	101.88
551.538	94.88
551.751	85.88
551.964	85.88
552.177	97.88
552.39	95.88
552.603	76.88
552.816	95.88
553.029	89.88
553.242	95.88
553.455	104.88
553.667	101.88
553.88	117.88
554.093	105.88
554.306	98.88
554.519	98.88
554.732	102.88
554.944	95.88
555.157	99.88
555.37	98.88
555.583	79.88
555.795	89.88
556.008	78.88
556.221	81.88
556.433	80.88
556.646	88.88
556.859	89.88
557.071	102.88
557.284	101.88
557.496	81.88
557.709	77.88
557.921	90.88
558.134	83.88
558.346	87.88
558.559	95.88
558.771	90.88
558.984	90.88
559.196	82.88
559.409	70.88
559.621	88.88
559.833	84.88
560.046	82.88
560.258	102.88
560.47	115.88
560.683	89.88
560.895	91.88
561.107	92.88
561.32	89.88
561.532	96.88
561.744	88.88
561.956	100.88
562.168	78.88
562.381	86.88
562.593	91.88
562.805	91.88
563.017	87.88
563.229	77.88
563.441	89.88
563.653	85.88
563.865	85.88
564.077	71.88
564.289	84.88
564.501	80.88
564.713	98.88
564.925	110.88
565.137	93.88
565.349	84.88
565.561	94.88
565.773	102.88
565.985	84.88
566.197	83.88
566.408	75.88
566.62	74.88
566.832	93.88
567.044	94.88
567.255	94.88
567.467	94.88
567.679	87.88
567.891	80.88
568.102	87.88
568.314	85.88
568.526	72.88
568.737	93.88
568.949	92.88
569.161	91.88
569.372	91.88
569.584	103.88
569.795	95.88
570.007	116.88
570.218	244.88
570.43	131.88
570.641	91.88
570.853	112.88
571.064	90.88
571.276	77.88
571.487	82.88
571.698	80.88
571.91	80.88
572.121	75.88
572.333	86.88
572.544	88.88
572.755	84.88
572.966	91.88
573.178	94.88
573.389	82.88
573.6	95.88
573.811	97.88
574.023	81.88
574.234	81.88
574.445	83.88
574.656	92.88
574.867	105.88
575.078	88.88
575.289	88.88
575.501	85.88
575.712	76.88
575.923	76.88
576.134	83.88
576.345	77.88
576.556	91.88
576.767	108.88
576.978	100.88
577.188	95.88
577.399	91.88
577.61	82.88
577.821	98.88
578.032	117.88
578.243	258.88
578.454	791.88
578.665	208.88
578.875	94.88
579.086	89.88
579.297	99.88
579.508	93.88
579.718	89.88
579.929	90.88
580.14	82.88
580.35	86.88
580.561	99.88
580.772	95.88
580.982	90.88
581.193	88.88
581.403	75.88
581.614	75.88
581.825	83.88
582.035	80.88
582.246	100.88
582.456	98.88
582.667	72.88
582.877	78.88
583.087	89.88
583.298	86.88
583.508	95.88
583.719	102.88
583.929	90.88
584.139	80.88
584.35	88.88
584.56	86.88
584.77	83.88
584.981	95.88
585.191	83.88
585.401	81.88
585.611	86.88
585.821	87.88
586.032	95.88
586.242	89.88
586.452	83.88
586.662	80.88
586.872	86.88
587.082	87.88
587.292	92.88
587.502	83.88
587.713	92.88
587.923	80.88
588.133	89.88
588.343	68.88
588.553	77.88
588.762	102.88
588.972	91.88
589.182	118.88
589.392	111.88
589.602	81.88
589.812	123.88
590.022	98.88
590.232	83.88
590.441	86.88
590.651	89.88
590.861	77.88
591.071	96.88
591.281	97.88
591.49	94.88
591.7	76.88
591.91	83.88
592.119	79.88
592.329	83.88
592.539	90.88
592.748	90.88
592.958	99.88
593.167	79.88
593.377	87.88
593.587	81.88
593.796	102.88
594.006	100.88
594.215	81.88
594.424	82.88
594.634	77.88
594.843	79.88
595.053	79.88
595.262	88.88
595.472	84.88
595.681	86.88
595.89	83.88
596.1	77.88
596.309	88.88
596.518	87.88
596.727	86.88
596.937	76.88
597.146	91.88
597.355	95.88
597.564	67.88
597.774	90.88
597.983	77.88
598.192	72.88
598.401	76.88
598.61	82.88
598.819	83.88
599.028	74.88
599.237	79.88
599.446	96.88
599.655	95.88
599.864	91.88
600.073	80.88
600.282	87.88
600.491	102.88
600.7	89.88
600.909	81.88
601.118	86.88
601.327	92.88
601.536	88.88
601.745	99.88
601.953	87.88
602.162	86.88
602.371	92.88
602.58	99.88
602.789	90.88
602.997	81.88
603.206	87.88
603.415	67.88
603.623	73.88
603.832	91.88
604.041	76.88
604.249	82.88
604.458	77.88
604.666	89.88
604.875	90.88
605.084	102.88
605.292	88.88
605.501	81.88
605.709	90.88
605.918	83.88
606.126	80.88
606.334	90.88
606.543	87.88
606.751	86.88
606.96	101.88
607.168	85.88
607.376	96.88
607.585	87.88
607.793	98.88
608.001	79.88
608.21	96.88
608.418	74.88
608.626	81.88
608.834	68.88
609.043	96.88
609.251	80.88
609.459	77.88
609.667	92.88
609.875	83.88
610.083	86.88
610.291	79.88
610.499	88.88
610.707	86.88
610.916	78.88
611.124	81.88
611.332	79.88
611.54	88.88
611.748	75.88
611.955	89.88
612.163	82.88
612.371	85.88
612.579	84.88
612.787	90.88
612.995	84.88
613.203	79.88
613.411	86.88
613.618	78.88
613.826	94.88
614.034	89.88
614.242	83.88
614.449	90.88
614.657	79.88
614.865	91.88
615.072	84.88
615.28	78.88
615.488	82.88
615.695	83.88
615.903	94.88
616.111	105.88
616.318	87.88
616.526	88.88
616.733	86.88
616.941	87.88
617.148	87.88
617.356	86.88
617.563	82.88
617.771	84.88
617.978	91.88
618.185	77.88
618.393	87.88
618.6	83.88
618.807	85.88
619.015	93.88
619.222	88.88
619.429	83.88
619.637	87.88
619.844	93.88
620.051	70.88
620.258	104.88
620.466	79.88
620.673	90.88
620.88	88.88
621.087	85.88
621.294	92.88
621.501	67.88
621.708	67.88
621.915	75.88
622.122	83.88
622.329	77.88
622.536	91.88
622.743	100.88
622.95	85.88
623.157	87.88
623.364	82.88
623.571	70.88
623.778	86.88
623.985	85.88
624.192	82.88
624.399	80.88
624.606	76.88
624.812	82.88
625.019	82.88
625.226	79.88
625.433	77.88
625.639	78.88
625.846	90.88
626.053	70.88
626.259	93.88
626.466	84.88
626.673	77.88
626.879	86.88
627.086	93.88
627.293	79.88
627.499	86.88
627.706	87.88
627.912	77.88
628.119	76.88
628.325	79.88
628.532	78.88
628.738	86.88
628.945	91.88
629.151	85.88
629.357	88.88
629.564	86.88
629.77	63.88
629.976	88.88
630.183	89.88
630.389	81.88
630.595	85.88
630.802	67.88
631.008	80.88
631.214	85.88
631.42	91.88
631.627	99.88
631.833	90.88
632.039	85.88
632.245	86.88
632.451	83.88
632.657	89.88
632.863	80.88
633.069	81.88
633.275	79.88
633.481	82.88
633.688	90.88
633.893	62.88
634.099	90.88
634.305	84.88
634.511	80.88
634.717	81.88
634.923	76.88
635.129	91.88
635.335	72.88
635.541	75.88
635.747	97.88
635.952	97.88
636.158	110.88
636.364	241.88
636.57	213.88
636.775	120.88
636.981	86.88
637.187	83.88
637.392	75.88
637.598	78.88
637.804	81.88
638.009	88.88
638.215	90.88
638.421	90.88
638.626	81.88
638.832	85.88
639.037	81.88
639.243	74.88
639.448	72.88
639.654	95.88
639.859	82.88
640.065	74.88
640.27	94.88
640.475	91.88
640.681	90.88
640.886	90.88
641.091	70.88
641.297	87.88
641.502	89.88
641.707	88.88
641.913	72.88
642.118	84.88
642.323	79.88
642.528	97.88
642.733	88.88
642.939	77.88
643.144	81.88
643.349	70.88
643.554	80.88
643.759	79.88
643.964	81.88
644.169	80.88
644.374	89.88
644.579	90.88
644.784	84.88
644.989	85.88
645.194	77.88
645.399	83.88
645.604	85.88
645.809	100.88
646.014	77.88
646.219	78.88
646.423	68.88
646.628	97.88
646.833	72.88
647.038	77.88
647.243	76.88
647.447	91.88
647.652	83.88
647.857	90.88
648.062	80.88
648.266	83.88
648.471	78.88
648.676	84.88
648.88	82.88
649.085	89.88
649.289	99.88
649.494	105.88
649.698	117.88
649.903	82.88
650.107	90.88
650.312	77.88
650.516	82.88
650.721	80.88
650.925	75.88
651.13	70.88
651.334	87.88
651.539	74.88
651.743	86.88
651.947	73.88
652.152	70.88
652.356	87.88
652.56	85.88
652.764	75.88
652.969	76.88
653.173	73.88
653.377	73.88
653.581	86.88
653.785	79.88
653.99	85.88
654.194	87.88
654.398	82.88
654.602	88.88
654.806	87.88
655.01	109.88
655.214	81.88
655.418	79.88
655.622	85.88
655.826	84.88
656.03	75.88
656.234	87.88
656.438	93.88
656.642	99.88
656.846	93.88
657.049	94.88
657.253	67.88
657.457	74.88
657.661	87.88
657.865	82.88
658.068	73.88
658.272	82.88
658.476	74.88
658.68	83.88
658.883	81.88
659.087	71.88
659.291	70.88
659.494	91.88
659.698	71.88
659.901	69.88
660.105	81.88
660.309	79.88
660.512	88.88
660.716	90.88
660.919	93.88
661.123	75.88
661.326	69.88
661.53	80.88
661.733	90.88
661.936	81.88
662.14	83.88
662.343	82.88
662.546	85.88
662.75	77.88
662.953	68.88
663.156	88.88
663.36	68.88
663.563	78.88
663.766	77.88
663.969	77.88
664.173	83.88
664.376	78.88
664.579	99.88
664.782	75.88
664.985	73.88
665.188	74.88
665.391	90.88
665.594	83.88
665.797	90.88
666	72.88
666.203	65.88
666.406	80.88
666.609	75.88
666.812	89.88
667.015	76.88
667.218	79.88
667.421	70.88
667.624	83.88
667.827	86.88
668.03	84.88
668.232	87.88
668.435	91.88
668.638	81.88
668.841	82.88
669.043	85.88
669.246	84.88
669.449	86.88
669.651	87.88
669.854	72.88
670.057	80.88
670.259	70.88
670.462	76.88
670.665	83.88
670.867	83.88
671.07	82.88
671.272	89.88
671.475	72.88
671.677	68.88
671.88	81.88
672.082	78.88
672.284	69.88
672.487	80.88
672.689	60.88
672.892	80.88
