Data from Circ_2001_H10_HRD10591_00047.txt Node
Date: Wed Jan 03 10:45:48 EST 2024
User: Yrep
Spectrometer: HR+D1059
Trigger mode: 1
Integration Time (sec): 1.000000E-1
Scans to average: 1
Electric dark correction enabled: true
Nonlinearity correction enabled: false
Boxcar width: 0
XAxis mode: Wavelengths
Number of Pixels in Spectrum: 2048
>>>>>Begin Spectral Data<<<<<
223.165	-16.5
223.4	-16.5
223.635	-16.5
223.869	-15.5
224.104	-18.5
224.338	-15.5
224.573	-17.5
224.808	-11.5
225.042	-18.5
225.277	-12.5
225.511	-1.5
225.746	12.5
225.98	16.5
226.215	0.5
226.449	29.5
226.683	8.5
226.918	25.5
227.152	34.5
227.387	35.5
227.621	33.5
227.856	43.5
228.09	42.5
228.324	54.5
228.559	77.5
228.793	52.5
229.027	64.5
229.262	65.5
229.496	71.5
229.73	87.5
229.964	71.5
230.199	66.5
230.433	74.5
230.667	75.5
230.901	72.5
231.136	75.5
231.37	76.5
231.604	81.5
231.838	65.5
232.072	88.5
232.306	73.5
232.541	83.5
232.775	78.5
233.009	78.5
233.243	95.5
233.477	84.5
233.711	82.5
233.945	78.5
234.179	93.5
234.413	76.5
234.647	83.5
234.881	75.5
235.115	73.5
235.349	97.5
235.583	70.5
235.817	71.5
236.051	89.5
236.285	75.5
236.519	71.5
236.753	71.5
236.987	89.5
237.221	87.5
237.455	82.5
237.689	70.5
237.922	72.5
238.156	70.5
238.39	73.5
238.624	74.5
238.858	85.5
239.091	65.5
239.325	83.5
239.559	74.5
239.793	73.5
240.027	83.5
240.26	68.5
240.494	76.5
240.728	77.5
240.961	77.5
241.195	71.5
241.429	66.5
241.662	78.5
241.896	71.5
242.13	61.5
242.363	70.5
242.597	84.5
242.83	73.5
243.064	65.5
243.298	70.5
243.531	66.5
243.765	78.5
243.998	87.5
244.232	80.5
244.465	89.5
244.699	90.5
244.932	79.5
245.166	78.5
245.399	80.5
245.633	79.5
245.866	85.5
246.099	79.5
246.333	76.5
246.566	85.5
246.8	74.5
247.033	81.5
247.266	72.5
247.5	77.5
247.733	79.5
247.966	105.5
248.2	80.5
248.433	76.5
248.666	65.5
248.899	83.5
249.133	89.5
249.366	99.5
249.599	90.5
249.832	91.5
250.066	95.5
250.299	78.5
250.532	91.5
250.765	75.5
250.998	81.5
251.231	81.5
251.465	79.5
251.698	80.5
251.931	81.5
252.164	90.5
252.397	85.5
252.63	80.5
252.863	77.5
253.096	81.5
253.329	70.5
253.562	78.5
253.795	77.5
254.028	79.5
254.261	82.5
254.494	75.5
254.727	94.5
254.96	89.5
255.193	69.5
255.426	79.5
255.659	85.5
255.892	94.5
256.124	88.5
256.357	89.5
256.59	79.5
256.823	79.5
257.056	93.5
257.289	74.5
257.521	88.5
257.754	90.5
257.987	76.5
258.22	83.5
258.452	93.5
258.685	89.5
258.918	89.5
259.151	77.5
259.383	74.5
259.616	88.5
259.849	80.5
260.081	86.5
260.314	90.5
260.547	82.5
260.779	100.5
261.012	90.5
261.244	92.5
261.477	86.5
261.71	89.5
261.942	116.5
262.175	114.5
262.407	76.5
262.64	87.5
262.872	75.5
263.105	81.5
263.337	90.5
263.57	77.5
263.802	96.5
264.035	75.5
264.267	81.5
264.499	77.5
264.732	93.5
264.964	93.5
265.197	93.5
265.429	81.5
265.661	88.5
265.894	86.5
266.126	95.5
266.358	73.5
266.591	66.5
266.823	90.5
267.055	88.5
267.287	75.5
267.52	76.5
267.752	69.5
267.984	92.5
268.216	81.5
268.448	82.5
268.681	84.5
268.913	80.5
269.145	96.5
269.377	83.5
269.609	68.5
269.841	92.5
270.073	76.5
270.306	83.5
270.538	87.5
270.77	65.5
271.002	90.5
271.234	86.5
271.466	83.5
271.698	81.5
271.93	89.5
272.162	87.5
272.394	86.5
272.626	89.5
272.858	65.5
273.09	88.5
273.322	87.5
273.553	75.5
273.785	82.5
274.017	74.5
274.249	84.5
274.481	82.5
274.713	77.5
274.945	92.5
275.176	96.5
275.408	103.5
275.64	100.5
275.872	100.5
276.104	95.5
276.335	96.5
276.567	103.5
276.799	134.5
277.031	124.5
277.262	144.5
277.494	124.5
277.726	93.5
277.957	77.5
278.189	79.5
278.421	86.5
278.652	76.5
278.884	89.5
279.115	86.5
279.347	85.5
279.579	100.5
279.81	104.5
280.042	140.5
280.273	171.5
280.505	126.5
280.736	97.5
280.968	82.5
281.199	82.5
281.431	78.5
281.662	77.5
281.894	82.5
282.125	98.5
282.356	115.5
282.588	144.5
282.819	119.5
283.051	94.5
283.282	94.5
283.513	92.5
283.745	73.5
283.976	88.5
284.207	93.5
284.439	92.5
284.67	88.5
284.901	73.5
285.132	70.5
285.364	79.5
285.595	84.5
285.826	89.5
286.057	94.5
286.288	84.5
286.52	79.5
286.751	74.5
286.982	90.5
287.213	85.5
287.444	81.5
287.675	76.5
287.906	96.5
288.138	70.5
288.369	79.5
288.6	78.5
288.831	85.5
289.062	72.5
289.293	101.5
289.524	82.5
289.755	85.5
289.986	94.5
290.217	92.5
290.448	85.5
290.679	91.5
290.91	78.5
291.141	88.5
291.371	94.5
291.602	96.5
291.833	83.5
292.064	76.5
292.295	94.5
292.526	87.5
292.757	61.5
292.987	92.5
293.218	103.5
293.449	86.5
293.68	79.5
293.91	81.5
294.141	91.5
294.372	83.5
294.603	96.5
294.833	89.5
295.064	89.5
295.295	89.5
295.525	87.5
295.756	94.5
295.987	109.5
296.217	146.5
296.448	117.5
296.679	94.5
296.909	89.5
297.14	94.5
297.37	100.5
297.601	92.5
297.831	75.5
298.062	88.5
298.292	97.5
298.523	74.5
298.753	94.5
298.984	97.5
299.214	96.5
299.445	96.5
299.675	89.5
299.905	114.5
300.136	76.5
300.366	83.5
300.597	98.5
300.827	93.5
301.057	101.5
301.288	95.5
301.518	84.5
301.748	101.5
301.979	112.5
302.209	106.5
302.439	90.5
302.669	91.5
302.9	87.5
303.13	108.5
303.36	103.5
303.59	111.5
303.82	123.5
304.051	87.5
304.281	94.5
304.511	89.5
304.741	89.5
304.971	86.5
305.201	72.5
305.431	87.5
305.661	91.5
305.891	83.5
306.121	86.5
306.352	112.5
306.582	107.5
306.812	101.5
307.042	98.5
307.272	127.5
307.502	148.5
307.731	141.5
307.961	107.5
308.191	93.5
308.421	102.5
308.651	94.5
308.881	80.5
309.111	96.5
309.341	106.5
309.571	93.5
309.8	93.5
310.03	99.5
310.26	99.5
310.49	96.5
310.72	104.5
310.949	105.5
311.179	98.5
311.409	91.5
311.639	105.5
311.868	88.5
312.098	88.5
312.328	111.5
312.557	100.5
312.787	105.5
313.017	111.5
313.246	104.5
313.476	97.5
313.706	96.5
313.935	99.5
314.165	94.5
314.394	93.5
314.624	95.5
314.853	103.5
315.083	88.5
315.312	81.5
315.542	97.5
315.771	89.5
316.001	101.5
316.23	93.5
316.46	93.5
316.689	90.5
316.919	87.5
317.148	103.5
317.377	101.5
317.607	100.5
317.836	91.5
318.065	77.5
318.295	97.5
318.524	89.5
318.753	87.5
318.983	93.5
319.212	83.5
319.441	87.5
319.67	109.5
319.9	89.5
320.129	94.5
320.358	88.5
320.587	99.5
320.816	113.5
321.046	121.5
321.275	99.5
321.504	109.5
321.733	93.5
321.962	101.5
322.191	102.5
322.42	105.5
322.649	107.5
322.878	115.5
323.108	125.5
323.337	126.5
323.566	144.5
323.795	167.5
324.024	210.5
324.253	437.5
324.482	954.5
324.71	1930.5
324.939	2484.5
325.168	895.5
325.397	264.5
325.626	157.5
325.855	144.5
326.084	120.5
326.313	151.5
326.542	163.5
326.77	244.5
326.999	510.5
327.228	1031.5
327.457	1907.5
327.686	1518.5
327.914	478.5
328.143	384.5
328.372	434.5
328.6	256.5
328.829	162.5
329.058	166.5
329.287	164.5
329.515	147.5
329.744	200.5
329.972	344.5
330.201	634.5
330.43	869.5
330.658	406.5
330.887	219.5
331.115	167.5
331.344	105.5
331.572	120.5
331.801	124.5
332.03	112.5
332.258	115.5
332.486	99.5
332.715	106.5
332.943	108.5
333.172	113.5
333.4	103.5
333.629	127.5
333.857	202.5
334.085	331.5
334.314	615.5
334.542	1136.5
334.771	1014.5
334.999	282.5
335.227	150.5
335.455	110.5
335.684	108.5
335.912	116.5
336.14	100.5
336.369	101.5
336.597	96.5
336.825	116.5
337.053	98.5
337.281	81.5
337.51	91.5
337.738	101.5
337.966	90.5
338.194	106.5
338.422	101.5
338.65	95.5
338.878	73.5
339.106	99.5
339.334	101.5
339.562	87.5
339.79	96.5
340.018	90.5
340.246	104.5
340.474	90.5
340.702	92.5
340.93	89.5
341.158	95.5
341.386	100.5
341.614	102.5
341.842	107.5
342.07	101.5
342.298	98.5
342.526	90.5
342.754	101.5
342.981	99.5
343.209	92.5
343.437	97.5
343.665	81.5
343.893	86.5
344.12	76.5
344.348	85.5
344.576	88.5
344.804	77.5
345.031	96.5
345.259	98.5
345.487	90.5
345.714	94.5
345.942	86.5
346.17	87.5
346.397	101.5
346.625	89.5
346.853	90.5
347.08	88.5
347.308	106.5
347.535	105.5
347.763	92.5
347.99	96.5
348.218	88.5
348.445	114.5
348.673	110.5
348.9	96.5
349.128	94.5
349.355	86.5
349.583	93.5
349.81	93.5
350.037	98.5
350.265	85.5
350.492	93.5
350.72	102.5
350.947	93.5
351.174	106.5
351.402	118.5
351.629	113.5
351.856	93.5
352.083	111.5
352.311	96.5
352.538	108.5
352.765	102.5
352.992	106.5
353.22	103.5
353.447	89.5
353.674	100.5
353.901	89.5
354.128	82.5
354.355	101.5
354.583	75.5
354.81	82.5
355.037	103.5
355.264	104.5
355.491	90.5
355.718	100.5
355.945	104.5
356.172	90.5
356.399	102.5
356.626	96.5
356.853	86.5
357.08	91.5
357.307	76.5
357.534	77.5
357.761	82.5
357.988	90.5
358.215	87.5
358.441	86.5
358.668	100.5
358.895	90.5
359.122	94.5
359.349	87.5
359.576	94.5
359.802	82.5
360.029	129.5
360.256	126.5
360.483	113.5
360.709	93.5
360.936	90.5
361.163	110.5
361.39	84.5
361.616	91.5
361.843	80.5
362.07	90.5
362.296	98.5
362.523	94.5
362.749	104.5
362.976	82.5
363.203	89.5
363.429	91.5
363.656	97.5
363.882	83.5
364.109	99.5
364.335	77.5
364.562	105.5
364.788	78.5
365.015	90.5
365.241	105.5
365.468	98.5
365.694	112.5
365.92	85.5
366.147	87.5
366.373	91.5
366.599	94.5
366.826	76.5
367.052	96.5
367.278	88.5
367.505	90.5
367.731	93.5
367.957	89.5
368.184	90.5
368.41	95.5
368.636	104.5
368.862	116.5
369.089	101.5
369.315	107.5
369.541	92.5
369.767	99.5
369.993	87.5
370.219	89.5
370.445	88.5
370.672	101.5
370.898	73.5
371.124	89.5
371.35	85.5
371.576	85.5
371.802	85.5
372.028	89.5
372.254	89.5
372.48	85.5
372.706	92.5
372.932	85.5
373.158	80.5
373.384	93.5
373.61	104.5
373.835	93.5
374.061	90.5
374.287	102.5
374.513	93.5
374.739	78.5
374.965	76.5
375.191	83.5
375.416	95.5
375.642	84.5
375.868	102.5
376.094	99.5
376.319	85.5
376.545	85.5
376.771	86.5
376.997	82.5
377.222	101.5
377.448	82.5
377.674	82.5
377.899	95.5
378.125	103.5
378.35	87.5
378.576	86.5
378.802	82.5
379.027	106.5
379.253	98.5
379.478	90.5
379.704	93.5
379.929	88.5
380.155	87.5
380.38	83.5
380.606	88.5
380.831	99.5
381.057	87.5
381.282	96.5
381.507	97.5
381.733	81.5
381.958	92.5
382.184	97.5
382.409	87.5
382.634	89.5
382.86	100.5
383.085	96.5
383.31	102.5
383.535	99.5
383.761	104.5
383.986	84.5
384.211	82.5
384.436	73.5
384.662	89.5
384.887	91.5
385.112	101.5
385.337	113.5
385.562	111.5
385.787	100.5
386.013	101.5
386.238	112.5
386.463	103.5
386.688	98.5
386.913	87.5
387.138	85.5
387.363	107.5
387.588	89.5
387.813	93.5
388.038	99.5
388.263	98.5
388.488	113.5
388.713	74.5
388.938	107.5
389.163	113.5
389.387	95.5
389.612	88.5
389.837	88.5
390.062	91.5
390.287	76.5
390.512	78.5
390.736	82.5
390.961	95.5
391.186	80.5
391.411	103.5
391.636	93.5
391.86	77.5
392.085	82.5
392.31	79.5
392.534	80.5
392.759	93.5
392.984	101.5
393.208	85.5
393.433	94.5
393.658	96.5
393.882	94.5
394.107	78.5
394.331	90.5
394.556	80.5
394.78	82.5
395.005	84.5
395.229	92.5
395.454	82.5
395.678	75.5
395.903	79.5
396.127	76.5
396.352	86.5
396.576	96.5
396.801	89.5
397.025	92.5
397.249	85.5
397.474	89.5
397.698	83.5
397.922	86.5
398.147	70.5
398.371	74.5
398.595	88.5
398.82	93.5
399.044	88.5
399.268	76.5
399.492	83.5
399.717	86.5
399.941	101.5
400.165	93.5
400.389	89.5
400.613	63.5
400.837	82.5
401.062	82.5
401.286	89.5
401.51	96.5
401.734	90.5
401.958	96.5
402.182	119.5
402.406	173.5
402.63	125.5
402.854	96.5
403.078	89.5
403.302	97.5
403.526	96.5
403.75	94.5
403.974	94.5
404.198	87.5
404.422	90.5
404.645	81.5
404.869	95.5
405.093	110.5
405.317	127.5
405.541	115.5
405.765	108.5
405.988	126.5
406.212	176.5
406.436	237.5
406.66	161.5
406.883	101.5
407.107	100.5
407.331	110.5
407.555	104.5
407.778	97.5
408.002	69.5
408.226	79.5
408.449	88.5
408.673	88.5
408.896	89.5
409.12	97.5
409.344	84.5
409.567	85.5
409.791	85.5
410.014	97.5
410.238	95.5
410.461	82.5
410.685	81.5
410.908	86.5
411.132	103.5
411.355	95.5
411.578	89.5
411.802	80.5
412.025	65.5
412.249	109.5
412.472	97.5
412.695	115.5
412.919	94.5
413.142	86.5
413.365	90.5
413.589	86.5
413.812	83.5
414.035	81.5
414.258	88.5
414.482	90.5
414.705	89.5
414.928	91.5
415.151	103.5
415.374	74.5
415.597	73.5
415.821	94.5
416.044	95.5
416.267	86.5
416.49	73.5
416.713	91.5
416.936	87.5
417.159	85.5
417.382	85.5
417.605	97.5
417.828	103.5
418.051	92.5
418.274	77.5
418.497	85.5
418.72	86.5
418.943	76.5
419.166	94.5
419.389	77.5
419.611	89.5
419.834	80.5
420.057	86.5
420.28	88.5
420.503	76.5
420.726	87.5
420.948	82.5
421.171	95.5
421.394	86.5
421.617	76.5
421.839	72.5
422.062	81.5
422.285	102.5
422.507	101.5
422.73	109.5
422.953	94.5
423.175	81.5
423.398	97.5
423.621	85.5
423.843	83.5
424.066	78.5
424.288	81.5
424.511	96.5
424.733	84.5
424.956	100.5
425.178	85.5
425.401	103.5
425.623	110.5
425.846	100.5
426.068	83.5
426.291	95.5
426.513	87.5
426.735	96.5
426.958	102.5
427.18	110.5
427.402	154.5
427.625	201.5
427.847	198.5
428.069	176.5
428.292	105.5
428.514	98.5
428.736	95.5
428.958	86.5
429.181	86.5
429.403	71.5
429.625	77.5
429.847	91.5
430.069	107.5
430.292	90.5
430.514	92.5
430.736	94.5
430.958	78.5
431.18	70.5
431.402	77.5
431.624	68.5
431.846	85.5
432.068	92.5
432.29	95.5
432.512	93.5
432.734	95.5
432.956	82.5
433.178	101.5
433.4	92.5
433.622	75.5
433.844	82.5
434.066	84.5
434.287	101.5
434.509	97.5
434.731	95.5
434.953	82.5
435.175	77.5
435.397	85.5
435.618	97.5
435.84	96.5
436.062	129.5
436.284	122.5
436.505	96.5
436.727	113.5
436.949	86.5
437.17	83.5
437.392	90.5
437.614	85.5
437.835	113.5
438.057	128.5
438.278	120.5
438.5	108.5
438.721	106.5
438.943	105.5
439.165	93.5
439.386	86.5
439.608	87.5
439.829	86.5
440.05	126.5
440.272	156.5
440.493	89.5
440.715	94.5
440.936	90.5
441.158	93.5
441.379	89.5
441.6	94.5
441.822	85.5
442.043	84.5
442.264	104.5
442.486	112.5
442.707	115.5
442.928	103.5
443.149	131.5
443.371	142.5
443.592	120.5
443.813	111.5
444.034	118.5
444.255	90.5
444.476	89.5
444.698	95.5
444.919	85.5
445.14	133.5
445.361	144.5
445.582	126.5
445.803	168.5
446.024	137.5
446.245	136.5
446.466	113.5
446.687	82.5
446.908	82.5
447.129	100.5
447.35	85.5
447.571	89.5
447.792	81.5
448.013	102.5
448.234	104.5
448.455	100.5
448.675	102.5
448.896	115.5
449.117	101.5
449.338	99.5
449.559	134.5
449.779	130.5
450	87.5
450.221	81.5
450.442	71.5
450.662	98.5
450.883	108.5
451.104	116.5
451.324	96.5
451.545	80.5
451.766	89.5
451.986	90.5
452.207	99.5
452.428	80.5
452.648	101.5
452.869	110.5
453.089	130.5
453.31	129.5
453.53	84.5
453.751	98.5
453.971	107.5
454.192	121.5
454.412	84.5
454.633	82.5
454.853	86.5
455.073	81.5
455.294	82.5
455.514	105.5
455.734	89.5
455.955	91.5
456.175	77.5
456.395	81.5
456.616	79.5
456.836	85.5
457.056	81.5
457.276	87.5
457.497	84.5
457.717	83.5
457.937	81.5
458.157	87.5
458.377	96.5
458.598	102.5
458.818	164.5
459.038	192.5
459.258	132.5
459.478	85.5
459.698	83.5
459.918	89.5
460.138	78.5
460.358	88.5
460.578	92.5
460.798	80.5
461.018	87.5
461.238	83.5
461.458	84.5
461.678	79.5
461.898	92.5
462.118	69.5
462.338	83.5
462.558	79.5
462.777	99.5
462.997	92.5
463.217	98.5
463.437	79.5
463.657	101.5
463.876	80.5
464.096	92.5
464.316	89.5
464.536	98.5
464.755	93.5
464.975	101.5
465.195	185.5
465.414	176.5
465.634	98.5
465.854	92.5
466.073	95.5
466.293	104.5
466.512	89.5
466.732	84.5
466.951	77.5
467.171	101.5
467.391	85.5
467.61	119.5
467.829	177.5
468.049	363.5
468.268	509.5
468.488	162.5
468.707	97.5
468.927	86.5
469.146	78.5
469.365	85.5
469.585	77.5
469.804	90.5
470.023	102.5
470.243	98.5
470.462	110.5
470.681	121.5
470.901	91.5
471.12	104.5
471.339	91.5
471.558	98.5
471.777	130.5
471.997	235.5
472.216	737.5
472.435	1525.5
472.654	388.5
472.873	123.5
473.092	98.5
473.311	95.5
473.53	86.5
473.749	81.5
473.968	102.5
474.187	128.5
474.406	104.5
474.625	82.5
474.844	87.5
475.063	72.5
475.282	90.5
475.501	80.5
475.72	76.5
475.939	75.5
476.158	85.5
476.377	82.5
476.596	89.5
476.814	83.5
477.033	90.5
477.252	85.5
477.471	76.5
477.69	101.5
477.908	93.5
478.127	92.5
478.346	92.5
478.564	85.5
478.783	93.5
479.002	101.5
479.22	89.5
479.439	105.5
479.658	116.5
479.876	103.5
480.095	90.5
480.313	110.5
480.532	141.5
480.751	212.5
480.969	689.5
481.188	2642.5
481.406	1495.5
481.624	246.5
481.843	118.5
482.061	90.5
482.28	95.5
482.498	104.5
482.717	89.5
482.935	85.5
483.153	96.5
483.372	88.5
483.59	89.5
483.808	94.5
484.027	85.5
484.245	101.5
484.463	99.5
484.681	89.5
484.9	87.5
485.118	103.5
485.336	96.5
485.554	85.5
485.772	114.5
485.99	117.5
486.209	106.5
486.427	114.5
486.645	107.5
486.863	115.5
487.081	107.5
487.299	91.5
487.517	90.5
487.735	117.5
487.953	88.5
488.171	99.5
488.389	96.5
488.607	87.5
488.825	73.5
489.043	92.5
489.261	87.5
489.479	89.5
489.696	92.5
489.914	104.5
490.132	98.5
490.35	85.5
490.568	82.5
490.786	85.5
491.003	81.5
491.221	99.5
491.439	105.5
491.657	104.5
491.874	81.5
492.092	93.5
492.31	79.5
492.527	89.5
492.745	76.5
492.963	94.5
493.18	84.5
493.398	86.5
493.615	109.5
493.833	108.5
494.05	95.5
494.268	96.5
494.485	79.5
494.703	85.5
494.92	95.5
495.138	70.5
495.355	89.5
495.573	81.5
495.79	92.5
496.008	100.5
496.225	76.5
496.442	75.5
496.66	82.5
496.877	80.5
497.094	89.5
497.312	90.5
497.529	91.5
497.746	93.5
497.963	80.5
498.181	74.5
498.398	86.5
498.615	106.5
498.832	91.5
499.049	104.5
499.267	91.5
499.484	80.5
499.701	90.5
499.918	94.5
500.135	88.5
500.352	100.5
500.569	92.5
500.786	99.5
501.003	81.5
501.22	89.5
501.437	97.5
501.654	89.5
501.871	119.5
502.088	95.5
502.305	85.5
502.522	103.5
502.739	92.5
502.956	89.5
503.172	87.5
503.389	99.5
503.606	86.5
503.823	97.5
504.04	84.5
504.256	83.5
504.473	82.5
504.69	89.5
504.907	86.5
505.123	89.5
505.34	93.5
505.557	105.5
505.773	92.5
505.99	88.5
506.207	81.5
506.423	84.5
506.64	78.5
506.856	102.5
507.073	79.5
507.289	86.5
507.506	80.5
507.722	106.5
507.939	126.5
508.155	97.5
508.372	96.5
508.588	86.5
508.805	85.5
509.021	95.5
509.238	100.5
509.454	97.5
509.67	99.5
509.887	112.5
510.103	121.5
510.319	197.5
510.536	742.5
510.752	2443.5
510.968	687.5
511.184	169.5
511.401	126.5
511.617	99.5
511.833	107.5
512.049	89.5
512.265	108.5
512.481	103.5
512.698	87.5
512.914	92.5
513.13	102.5
513.346	95.5
513.562	96.5
513.778	89.5
513.994	105.5
514.21	111.5
514.426	118.5
514.642	142.5
514.858	152.5
515.074	182.5
515.29	529.5
515.506	1834.5
515.721	637.5
515.937	172.5
516.153	115.5
516.369	99.5
516.585	95.5
516.801	87.5
517.016	87.5
517.232	94.5
517.448	84.5
517.664	103.5
517.879	85.5
518.095	97.5
518.311	110.5
518.527	104.5
518.742	91.5
518.958	96.5
519.173	115.5
519.389	84.5
519.605	88.5
519.82	103.5
520.036	110.5
520.251	121.5
520.467	128.5
520.682	104.5
520.898	123.5
521.113	127.5
521.329	157.5
521.544	220.5
521.76	698.5
521.975	3068.5
522.19	1811.5
522.406	368.5
522.621	148.5
522.836	113.5
523.052	81.5
523.267	92.5
523.482	94.5
523.698	108.5
523.913	135.5
524.128	113.5
524.343	108.5
524.559	96.5
524.774	81.5
524.989	98.5
525.204	111.5
525.419	107.5
525.634	106.5
525.849	80.5
526.064	80.5
526.28	89.5
526.495	73.5
526.71	87.5
526.925	75.5
527.14	93.5
527.355	83.5
527.57	86.5
527.785	96.5
527.999	87.5
528.214	92.5
528.429	80.5
528.644	96.5
528.859	84.5
529.074	95.5
529.289	140.5
529.503	233.5
529.718	119.5
529.933	107.5
530.148	89.5
530.363	78.5
530.577	100.5
530.792	93.5
531.007	92.5
531.221	88.5
531.436	93.5
531.651	96.5
531.865	91.5
532.08	88.5
532.295	94.5
532.509	89.5
532.724	98.5
532.938	79.5
533.153	94.5
533.367	80.5
533.582	81.5
533.796	77.5
534.011	93.5
534.225	102.5
534.44	83.5
534.654	83.5
534.868	87.5
535.083	81.5
535.297	85.5
535.511	116.5
535.726	92.5
535.94	103.5
536.154	93.5
536.369	79.5
536.583	80.5
536.797	81.5
537.011	83.5
537.225	83.5
537.44	82.5
537.654	98.5
537.868	98.5
538.082	79.5
538.296	85.5
538.51	90.5
538.724	89.5
538.938	83.5
539.153	105.5
539.367	113.5
539.581	105.5
539.795	82.5
540.009	88.5
540.222	87.5
540.436	87.5
540.65	89.5
540.864	85.5
541.078	93.5
541.292	88.5
541.506	95.5
541.72	87.5
541.934	89.5
542.147	78.5
542.361	86.5
542.575	89.5
542.789	80.5
543.002	91.5
543.216	105.5
543.43	95.5
543.644	91.5
543.857	74.5
544.071	88.5
544.285	100.5
544.498	98.5
544.712	84.5
544.925	73.5
545.139	89.5
545.352	93.5
545.566	94.5
545.779	79.5
545.993	81.5
546.206	74.5
546.42	81.5
546.633	73.5
546.847	79.5
547.06	85.5
547.274	84.5
547.487	87.5
547.7	101.5
547.914	89.5
548.127	88.5
548.34	97.5
548.554	91.5
548.767	92.5
548.98	87.5
549.193	79.5
549.407	95.5
549.62	82.5
549.833	95.5
550.046	86.5
550.259	92.5
550.473	101.5
550.686	88.5
550.899	93.5
551.112	97.5
551.325	89.5
551.538	104.5
551.751	93.5
551.964	96.5
552.177	103.5
552.39	90.5
552.603	89.5
552.816	89.5
553.029	84.5
553.242	89.5
553.455	105.5
553.667	117.5
553.88	100.5
554.093	81.5
554.306	104.5
554.519	102.5
554.732	98.5
554.944	109.5
555.157	92.5
555.37	95.5
555.583	86.5
555.795	89.5
556.008	84.5
556.221	103.5
556.433	78.5
556.646	86.5
556.859	102.5
557.071	96.5
557.284	77.5
557.496	82.5
557.709	88.5
557.921	96.5
558.134	82.5
558.346	87.5
558.559	89.5
558.771	78.5
558.984	92.5
559.196	88.5
559.409	92.5
559.621	88.5
559.833	90.5
560.046	104.5
560.258	88.5
560.47	103.5
560.683	94.5
560.895	82.5
561.107	86.5
561.32	89.5
561.532	84.5
561.744	87.5
561.956	84.5
562.168	97.5
562.381	102.5
562.593	88.5
562.805	102.5
563.017	89.5
563.229	80.5
563.441	96.5
563.653	77.5
563.865	89.5
564.077	85.5
564.289	86.5
564.501	101.5
564.713	90.5
564.925	95.5
565.137	95.5
565.349	93.5
565.561	78.5
565.773	92.5
565.985	95.5
566.197	82.5
566.408	83.5
566.62	86.5
566.832	77.5
567.044	84.5
567.255	87.5
567.467	102.5
567.679	77.5
567.891	102.5
568.102	80.5
568.314	81.5
568.526	82.5
568.737	94.5
568.949	90.5
569.161	85.5
569.372	84.5
569.584	90.5
569.795	87.5
570.007	117.5
570.218	230.5
570.43	142.5
570.641	93.5
570.853	82.5
571.064	85.5
571.276	84.5
571.487	86.5
571.698	84.5
571.91	92.5
572.121	95.5
572.333	94.5
572.544	85.5
572.755	67.5
572.966	73.5
573.178	90.5
573.389	84.5
573.6	87.5
573.811	77.5
574.023	76.5
574.234	95.5
574.445	88.5
574.656	85.5
574.867	94.5
575.078	88.5
575.289	105.5
575.501	92.5
575.712	84.5
575.923	82.5
576.134	104.5
576.345	96.5
576.556	103.5
576.767	88.5
576.978	91.5
577.188	93.5
577.399	89.5
577.61	111.5
577.821	94.5
578.032	106.5
578.243	256.5
578.454	764.5
578.665	211.5
578.875	104.5
579.086	87.5
579.297	90.5
579.508	97.5
579.718	96.5
579.929	89.5
580.14	87.5
580.35	92.5
580.561	89.5
580.772	89.5
580.982	85.5
581.193	89.5
581.403	91.5
581.614	90.5
581.825	68.5
582.035	79.5
582.246	80.5
582.456	86.5
582.667	80.5
582.877	97.5
583.087	78.5
583.298	84.5
583.508	88.5
583.719	86.5
583.929	81.5
584.139	64.5
584.35	89.5
584.56	88.5
584.77	82.5
584.981	84.5
585.191	88.5
585.401	85.5
585.611	85.5
585.821	102.5
586.032	83.5
586.242	72.5
586.452	86.5
586.662	95.5
586.872	90.5
587.082	85.5
587.292	92.5
587.502	77.5
587.713	80.5
587.923	95.5
588.133	70.5
588.343	89.5
588.553	86.5
588.762	81.5
588.972	98.5
589.182	121.5
589.392	104.5
589.602	94.5
589.812	111.5
590.022	102.5
590.232	90.5
590.441	82.5
590.651	77.5
590.861	80.5
591.071	91.5
591.281	93.5
591.49	88.5
591.7	86.5
591.91	73.5
592.119	98.5
592.329	103.5
592.539	101.5
592.748	92.5
592.958	82.5
593.167	87.5
593.377	85.5
593.587	89.5
593.796	88.5
594.006	74.5
594.215	96.5
594.424	90.5
594.634	71.5
594.843	87.5
595.053	94.5
595.262	92.5
595.472	86.5
595.681	94.5
595.89	92.5
596.1	78.5
596.309	86.5
596.518	80.5
596.727	101.5
596.937	88.5
597.146	87.5
597.355	94.5
597.564	89.5
597.774	88.5
597.983	84.5
598.192	87.5
598.401	86.5
598.61	94.5
598.819	90.5
599.028	88.5
599.237	86.5
599.446	95.5
599.655	73.5
599.864	88.5
600.073	81.5
600.282	87.5
600.491	80.5
600.7	86.5
600.909	93.5
601.118	100.5
601.327	89.5
601.536	84.5
601.745	81.5
601.953	89.5
602.162	82.5
602.371	71.5
602.58	82.5
602.789	79.5
602.997	76.5
603.206	93.5
603.415	82.5
603.623	78.5
603.832	81.5
604.041	81.5
604.249	106.5
604.458	89.5
604.666	86.5
604.875	95.5
605.084	73.5
605.292	82.5
605.501	78.5
605.709	86.5
605.918	84.5
606.126	89.5
606.334	88.5
606.543	88.5
606.751	80.5
606.96	83.5
607.168	79.5
607.376	99.5
607.585	100.5
607.793	89.5
608.001	85.5
608.21	80.5
608.418	80.5
608.626	79.5
608.834	95.5
609.043	87.5
609.251	71.5
609.459	91.5
609.667	82.5
609.875	87.5
610.083	83.5
610.291	85.5
610.499	85.5
610.707	79.5
610.916	84.5
611.124	79.5
611.332	84.5
611.54	80.5
611.748	87.5
611.955	88.5
612.163	79.5
612.371	83.5
612.579	84.5
612.787	94.5
612.995	93.5
613.203	87.5
613.411	100.5
613.618	88.5
613.826	80.5
614.034	95.5
614.242	90.5
614.449	73.5
614.657	90.5
614.865	71.5
615.072	84.5
615.28	98.5
615.488	90.5
615.695	90.5
615.903	96.5
616.111	98.5
616.318	78.5
616.526	81.5
616.733	93.5
616.941	91.5
617.148	93.5
617.356	79.5
617.563	99.5
617.771	75.5
617.978	86.5
618.185	88.5
618.393	89.5
618.6	89.5
618.807	87.5
619.015	66.5
619.222	76.5
619.429	80.5
619.637	79.5
619.844	73.5
620.051	72.5
620.258	73.5
620.466	70.5
620.673	89.5
620.88	79.5
621.087	70.5
621.294	86.5
621.501	71.5
621.708	88.5
621.915	77.5
622.122	75.5
622.329	83.5
622.536	88.5
622.743	88.5
622.95	80.5
623.157	76.5
623.364	81.5
623.571	102.5
623.778	84.5
623.985	86.5
624.192	87.5
624.399	86.5
624.606	81.5
624.812	77.5
625.019	66.5
625.226	75.5
625.433	85.5
625.639	81.5
625.846	94.5
626.053	85.5
626.259	73.5
626.466	73.5
626.673	87.5
626.879	77.5
627.086	78.5
627.293	86.5
627.499	82.5
627.706	80.5
627.912	92.5
628.119	87.5
628.325	86.5
628.532	89.5
628.738	80.5
628.945	88.5
629.151	85.5
629.357	77.5
629.564	79.5
629.77	97.5
629.976	83.5
630.183	90.5
630.389	78.5
630.595	69.5
630.802	93.5
631.008	73.5
631.214	86.5
631.42	81.5
631.627	88.5
631.833	73.5
632.039	77.5
632.245	73.5
632.451	69.5
632.657	82.5
632.863	85.5
633.069	78.5
633.275	69.5
633.481	77.5
633.688	81.5
633.893	76.5
634.099	76.5
634.305	87.5
634.511	78.5
634.717	78.5
634.923	80.5
635.129	82.5
635.335	92.5
635.541	77.5
635.747	90.5
635.952	95.5
636.158	122.5
636.364	237.5
636.57	213.5
636.775	106.5
636.981	106.5
637.187	82.5
637.392	88.5
637.598	82.5
637.804	85.5
638.009	81.5
638.215	80.5
638.421	69.5
638.626	80.5
638.832	84.5
639.037	83.5
639.243	72.5
639.448	85.5
639.654	80.5
639.859	84.5
640.065	84.5
640.27	104.5
640.475	97.5
640.681	92.5
640.886	86.5
641.091	85.5
641.297	87.5
641.502	62.5
641.707	81.5
641.913	92.5
642.118	76.5
642.323	83.5
642.528	80.5
642.733	83.5
642.939	77.5
643.144	82.5
643.349	85.5
643.554	76.5
643.759	78.5
643.964	81.5
644.169	72.5
644.374	82.5
644.579	91.5
644.784	78.5
644.989	86.5
645.194	83.5
645.399	78.5
645.604	93.5
645.809	98.5
646.014	75.5
646.219	82.5
646.423	73.5
646.628	70.5
646.833	77.5
647.038	83.5
647.243	71.5
647.447	86.5
647.652	79.5
647.857	77.5
648.062	87.5
648.266	87.5
648.471	75.5
648.676	99.5
648.88	88.5
649.085	89.5
649.289	83.5
649.494	100.5
649.698	132.5
649.903	95.5
650.107	79.5
650.312	76.5
650.516	86.5
650.721	85.5
650.925	90.5
651.13	80.5
651.334	79.5
651.539	77.5
651.743	68.5
651.947	86.5
652.152	77.5
652.356	87.5
652.56	83.5
652.764	87.5
652.969	74.5
653.173	88.5
653.377	84.5
653.581	67.5
653.785	85.5
653.99	80.5
654.194	80.5
654.398	77.5
654.602	92.5
654.806	92.5
655.01	105.5
655.214	83.5
655.418	81.5
655.622	80.5
655.826	77.5
656.03	80.5
656.234	86.5
656.438	90.5
656.642	97.5
656.846	80.5
657.049	83.5
657.253	99.5
657.457	81.5
657.661	82.5
657.865	92.5
658.068	82.5
658.272	101.5
658.476	76.5
658.68	73.5
658.883	82.5
659.087	86.5
659.291	76.5
659.494	74.5
659.698	76.5
659.901	80.5
660.105	64.5
660.309	79.5
660.512	74.5
660.716	88.5
660.919	79.5
661.123	74.5
661.326	86.5
661.53	81.5
661.733	71.5
661.936	76.5
662.14	81.5
662.343	78.5
662.546	92.5
662.75	68.5
662.953	63.5
663.156	76.5
663.36	73.5
663.563	84.5
663.766	73.5
663.969	84.5
664.173	70.5
664.376	66.5
664.579	67.5
664.782	85.5
664.985	65.5
665.188	84.5
665.391	81.5
665.594	74.5
665.797	80.5
666	82.5
666.203	85.5
666.406	74.5
666.609	73.5
666.812	82.5
667.015	71.5
667.218	79.5
667.421	81.5
667.624	71.5
667.827	81.5
668.03	93.5
668.232	83.5
668.435	99.5
668.638	86.5
668.841	91.5
669.043	79.5
669.246	77.5
669.449	86.5
669.651	76.5
669.854	76.5
670.057	74.5
670.259	71.5
670.462	76.5
670.665	82.5
670.867	84.5
671.07	79.5
671.272	82.5
671.475	77.5
671.677	65.5
671.88	77.5
672.082	69.5
672.284	81.5
672.487	85.5
672.689	79.5
672.892	91.5
