Data from Circ_2001_H10_HRD10591_00050.txt Node
Date: Wed Jan 03 10:45:48 EST 2024
User: Yrep
Spectrometer: HR+D1059
Trigger mode: 1
Integration Time (sec): 1.000000E-1
Scans to average: 1
Electric dark correction enabled: true
Nonlinearity correction enabled: false
Boxcar width: 0
XAxis mode: Wavelengths
Number of Pixels in Spectrum: 2048
>>>>>Begin Spectral Data<<<<<
223.165	-27.81
223.4	-27.81
223.635	-27.81
223.869	-28.81
224.104	-12.81
224.338	-14.81
224.573	-7.81
224.808	2.19
225.042	-6.81
225.277	-5.81
225.511	0.19
225.746	-5.81
225.98	1.19
226.215	16.19
226.449	23.19
226.683	22.19
226.918	41.19
227.152	4.19
227.387	28.19
227.621	38.19
227.856	33.19
228.09	37.19
228.324	49.19
228.559	51.19
228.793	55.19
229.027	55.19
229.262	69.19
229.496	80.19
229.73	84.19
229.964	82.19
230.199	77.19
230.433	71.19
230.667	73.19
230.901	71.19
231.136	89.19
231.37	83.19
231.604	68.19
231.838	78.19
232.072	77.19
232.306	77.19
232.541	88.19
232.775	78.19
233.009	79.19
233.243	76.19
233.477	90.19
233.711	75.19
233.945	75.19
234.179	78.19
234.413	77.19
234.647	73.19
234.881	68.19
235.115	84.19
235.349	88.19
235.583	70.19
235.817	74.19
236.051	72.19
236.285	71.19
236.519	83.19
236.753	94.19
236.987	86.19
237.221	87.19
237.455	80.19
237.689	82.19
237.922	70.19
238.156	73.19
238.39	59.19
238.624	92.19
238.858	81.19
239.091	70.19
239.325	72.19
239.559	85.19
239.793	86.19
240.027	70.19
240.26	89.19
240.494	74.19
240.728	80.19
240.961	72.19
241.195	80.19
241.429	76.19
241.662	78.19
241.896	77.19
242.13	67.19
242.363	72.19
242.597	74.19
242.83	88.19
243.064	82.19
243.298	84.19
243.531	78.19
243.765	82.19
243.998	84.19
244.232	84.19
244.465	94.19
244.699	65.19
244.932	64.19
245.166	96.19
245.399	83.19
245.633	82.19
245.866	67.19
246.099	79.19
246.333	74.19
246.566	79.19
246.8	70.19
247.033	76.19
247.266	73.19
247.5	84.19
247.733	85.19
247.966	92.19
248.2	81.19
248.433	73.19
248.666	97.19
248.899	83.19
249.133	99.19
249.366	108.19
249.599	108.19
249.832	76.19
250.066	76.19
250.299	90.19
250.532	86.19
250.765	70.19
250.998	71.19
251.231	85.19
251.465	81.19
251.698	86.19
251.931	93.19
252.164	85.19
252.397	59.19
252.63	79.19
252.863	73.19
253.096	71.19
253.329	83.19
253.562	89.19
253.795	91.19
254.028	88.19
254.261	87.19
254.494	75.19
254.727	93.19
254.96	81.19
255.193	78.19
255.426	92.19
255.659	97.19
255.892	80.19
256.124	95.19
256.357	65.19
256.59	68.19
256.823	72.19
257.056	81.19
257.289	90.19
257.521	82.19
257.754	77.19
257.987	87.19
258.22	98.19
258.452	81.19
258.685	82.19
258.918	87.19
259.151	91.19
259.383	79.19
259.616	84.19
259.849	79.19
260.081	88.19
260.314	83.19
260.547	74.19
260.779	87.19
261.012	94.19
261.244	86.19
261.477	102.19
261.71	103.19
261.942	134.19
262.175	136.19
262.407	91.19
262.64	71.19
262.872	77.19
263.105	96.19
263.337	86.19
263.57	83.19
263.802	78.19
264.035	84.19
264.267	85.19
264.499	96.19
264.732	100.19
264.964	80.19
265.197	91.19
265.429	95.19
265.661	80.19
265.894	79.19
266.126	97.19
266.358	81.19
266.591	80.19
266.823	82.19
267.055	96.19
267.287	84.19
267.52	72.19
267.752	71.19
267.984	85.19
268.216	89.19
268.448	78.19
268.681	91.19
268.913	79.19
269.145	69.19
269.377	80.19
269.609	76.19
269.841	89.19
270.073	97.19
270.306	78.19
270.538	77.19
270.77	75.19
271.002	81.19
271.234	93.19
271.466	94.19
271.698	82.19
271.93	87.19
272.162	94.19
272.394	84.19
272.626	75.19
272.858	90.19
273.09	92.19
273.322	77.19
273.553	70.19
273.785	101.19
274.017	83.19
274.249	80.19
274.481	93.19
274.713	101.19
274.945	83.19
275.176	92.19
275.408	96.19
275.64	103.19
275.872	110.19
276.104	91.19
276.335	88.19
276.567	102.19
276.799	129.19
277.031	142.19
277.262	149.19
277.494	142.19
277.726	83.19
277.957	107.19
278.189	101.19
278.421	77.19
278.652	92.19
278.884	97.19
279.115	88.19
279.347	95.19
279.579	88.19
279.81	110.19
280.042	160.19
280.273	204.19
280.505	134.19
280.736	98.19
280.968	85.19
281.199	92.19
281.431	90.19
281.662	94.19
281.894	110.19
282.125	99.19
282.356	133.19
282.588	156.19
282.819	135.19
283.051	92.19
283.282	88.19
283.513	88.19
283.745	98.19
283.976	93.19
284.207	73.19
284.439	74.19
284.67	85.19
284.901	94.19
285.132	102.19
285.364	92.19
285.595	94.19
285.826	78.19
286.057	87.19
286.288	83.19
286.52	90.19
286.751	82.19
286.982	80.19
287.213	91.19
287.444	100.19
287.675	98.19
287.906	98.19
288.138	95.19
288.369	105.19
288.6	99.19
288.831	98.19
289.062	100.19
289.293	104.19
289.524	79.19
289.755	89.19
289.986	91.19
290.217	91.19
290.448	97.19
290.679	108.19
290.91	98.19
291.141	93.19
291.371	90.19
291.602	102.19
291.833	98.19
292.064	90.19
292.295	89.19
292.526	83.19
292.757	86.19
292.987	96.19
293.218	84.19
293.449	92.19
293.68	89.19
293.91	79.19
294.141	106.19
294.372	92.19
294.603	81.19
294.833	80.19
295.064	81.19
295.295	92.19
295.525	102.19
295.756	106.19
295.987	109.19
296.217	155.19
296.448	116.19
296.679	87.19
296.909	103.19
297.14	75.19
297.37	92.19
297.601	86.19
297.831	92.19
298.062	94.19
298.292	101.19
298.523	89.19
298.753	100.19
298.984	83.19
299.214	91.19
299.445	93.19
299.675	92.19
299.905	100.19
300.136	103.19
300.366	84.19
300.597	79.19
300.827	106.19
301.057	110.19
301.288	117.19
301.518	119.19
301.748	99.19
301.979	120.19
302.209	105.19
302.439	111.19
302.669	99.19
302.9	92.19
303.13	93.19
303.36	111.19
303.59	114.19
303.82	122.19
304.051	97.19
304.281	104.19
304.511	82.19
304.741	100.19
304.971	91.19
305.201	90.19
305.431	94.19
305.661	92.19
305.891	98.19
306.121	107.19
306.352	120.19
306.582	90.19
306.812	124.19
307.042	124.19
307.272	157.19
307.502	160.19
307.731	152.19
307.961	134.19
308.191	92.19
308.421	84.19
308.651	82.19
308.881	85.19
309.111	93.19
309.341	103.19
309.571	109.19
309.8	104.19
310.03	107.19
310.26	111.19
310.49	105.19
310.72	111.19
310.949	112.19
311.179	110.19
311.409	108.19
311.639	99.19
311.868	104.19
312.098	98.19
312.328	105.19
312.557	100.19
312.787	110.19
313.017	109.19
313.246	104.19
313.476	93.19
313.706	93.19
313.935	95.19
314.165	114.19
314.394	121.19
314.624	105.19
314.853	113.19
315.083	84.19
315.312	80.19
315.542	104.19
315.771	100.19
316.001	87.19
316.23	92.19
316.46	87.19
316.689	102.19
316.919	103.19
317.148	101.19
317.377	118.19
317.607	94.19
317.836	95.19
318.065	104.19
318.295	89.19
318.524	92.19
318.753	102.19
318.983	98.19
319.212	109.19
319.441	99.19
319.67	115.19
319.9	85.19
320.129	111.19
320.358	88.19
320.587	108.19
320.816	109.19
321.046	105.19
321.275	100.19
321.504	100.19
321.733	97.19
321.962	98.19
322.191	96.19
322.42	106.19
322.649	123.19
322.878	102.19
323.108	105.19
323.337	123.19
323.566	164.19
323.795	159.19
324.024	247.19
324.253	468.19
324.482	998.19
324.71	2037.19
324.939	2762.19
325.168	971.19
325.397	287.19
325.626	174.19
325.855	135.19
326.084	145.19
326.313	148.19
326.542	170.19
326.77	262.19
326.999	515.19
327.228	1086.19
327.457	2038.19
327.686	1626.19
327.914	511.19
328.143	413.19
328.372	464.19
328.6	281.19
328.829	157.19
329.058	181.19
329.287	180.19
329.515	153.19
329.744	206.19
329.972	363.19
330.201	692.19
330.43	963.19
330.658	464.19
330.887	245.19
331.115	167.19
331.344	130.19
331.572	115.19
331.801	114.19
332.03	116.19
332.258	112.19
332.486	87.19
332.715	102.19
332.943	114.19
333.172	110.19
333.4	110.19
333.629	147.19
333.857	186.19
334.085	340.19
334.314	664.19
334.542	1228.19
334.771	1150.19
334.999	332.19
335.227	141.19
335.455	118.19
335.684	120.19
335.912	101.19
336.14	110.19
336.369	114.19
336.597	105.19
336.825	93.19
337.053	92.19
337.281	92.19
337.51	105.19
337.738	112.19
337.966	105.19
338.194	105.19
338.422	104.19
338.65	94.19
338.878	97.19
339.106	78.19
339.334	86.19
339.562	88.19
339.79	95.19
340.018	88.19
340.246	100.19
340.474	76.19
340.702	91.19
340.93	83.19
341.158	105.19
341.386	104.19
341.614	101.19
341.842	97.19
342.07	101.19
342.298	93.19
342.526	97.19
342.754	91.19
342.981	106.19
343.209	88.19
343.437	102.19
343.665	99.19
343.893	96.19
344.12	108.19
344.348	80.19
344.576	79.19
344.804	97.19
345.031	115.19
345.259	100.19
345.487	90.19
345.714	100.19
345.942	92.19
346.17	85.19
346.397	84.19
346.625	98.19
346.853	108.19
347.08	93.19
347.308	96.19
347.535	92.19
347.763	109.19
347.99	102.19
348.218	105.19
348.445	109.19
348.673	85.19
348.9	94.19
349.128	91.19
349.355	97.19
349.583	111.19
349.81	102.19
350.037	96.19
350.265	99.19
350.492	78.19
350.72	90.19
350.947	101.19
351.174	109.19
351.402	118.19
351.629	102.19
351.856	102.19
352.083	108.19
352.311	107.19
352.538	112.19
352.765	125.19
352.992	128.19
353.22	103.19
353.447	122.19
353.674	103.19
353.901	97.19
354.128	94.19
354.355	92.19
354.583	96.19
354.81	89.19
355.037	98.19
355.264	93.19
355.491	105.19
355.718	81.19
355.945	89.19
356.172	90.19
356.399	105.19
356.626	100.19
356.853	85.19
357.08	88.19
357.307	93.19
357.534	102.19
357.761	100.19
357.988	101.19
358.215	105.19
358.441	103.19
358.668	100.19
358.895	98.19
359.122	87.19
359.349	93.19
359.576	92.19
359.802	105.19
360.029	126.19
360.256	129.19
360.483	106.19
360.709	98.19
360.936	95.19
361.163	95.19
361.39	115.19
361.616	102.19
361.843	108.19
362.07	94.19
362.296	94.19
362.523	92.19
362.749	91.19
362.976	87.19
363.203	102.19
363.429	83.19
363.656	88.19
363.882	85.19
364.109	99.19
364.335	84.19
364.562	94.19
364.788	106.19
365.015	98.19
365.241	101.19
365.468	117.19
365.694	105.19
365.92	101.19
366.147	109.19
366.373	97.19
366.599	98.19
366.826	79.19
367.052	89.19
367.278	76.19
367.505	89.19
367.731	100.19
367.957	102.19
368.184	99.19
368.41	106.19
368.636	110.19
368.862	120.19
369.089	101.19
369.315	110.19
369.541	81.19
369.767	93.19
369.993	92.19
370.219	99.19
370.445	94.19
370.672	105.19
370.898	86.19
371.124	76.19
371.35	100.19
371.576	90.19
371.802	92.19
372.028	82.19
372.254	84.19
372.48	84.19
372.706	81.19
372.932	96.19
373.158	86.19
373.384	89.19
373.61	87.19
373.835	92.19
374.061	96.19
374.287	98.19
374.513	92.19
374.739	95.19
374.965	94.19
375.191	112.19
375.416	102.19
375.642	92.19
375.868	107.19
376.094	91.19
376.319	77.19
376.545	95.19
376.771	88.19
376.997	99.19
377.222	102.19
377.448	101.19
377.674	93.19
377.899	94.19
378.125	93.19
378.35	101.19
378.576	93.19
378.802	98.19
379.027	90.19
379.253	103.19
379.478	84.19
379.704	96.19
379.929	86.19
380.155	94.19
380.38	97.19
380.606	92.19
380.831	80.19
381.057	105.19
381.282	88.19
381.507	109.19
381.733	94.19
381.958	99.19
382.184	104.19
382.409	98.19
382.634	110.19
382.86	105.19
383.085	109.19
383.31	100.19
383.535	114.19
383.761	109.19
383.986	94.19
384.211	98.19
384.436	101.19
384.662	91.19
384.887	98.19
385.112	104.19
385.337	128.19
385.562	91.19
385.787	105.19
386.013	126.19
386.238	134.19
386.463	116.19
386.688	118.19
386.913	101.19
387.138	113.19
387.363	97.19
387.588	102.19
387.813	91.19
388.038	99.19
388.263	123.19
388.488	111.19
388.713	99.19
388.938	95.19
389.163	98.19
389.387	92.19
389.612	91.19
389.837	93.19
390.062	90.19
390.287	92.19
390.512	97.19
390.736	99.19
390.961	90.19
391.186	110.19
391.411	92.19
391.636	99.19
391.86	93.19
392.085	83.19
392.31	85.19
392.534	79.19
392.759	91.19
392.984	104.19
393.208	92.19
393.433	102.19
393.658	93.19
393.882	89.19
394.107	83.19
394.331	102.19
394.556	86.19
394.78	104.19
395.005	85.19
395.229	99.19
395.454	93.19
395.678	93.19
395.903	87.19
396.127	92.19
396.352	85.19
396.576	105.19
396.801	92.19
397.025	92.19
397.249	86.19
397.474	101.19
397.698	98.19
397.922	106.19
398.147	69.19
398.371	87.19
398.595	90.19
398.82	91.19
399.044	91.19
399.268	86.19
399.492	93.19
399.717	95.19
399.941	93.19
400.165	103.19
400.389	94.19
400.613	90.19
400.837	90.19
401.062	90.19
401.286	84.19
401.51	97.19
401.734	103.19
401.958	111.19
402.182	139.19
402.406	180.19
402.63	148.19
402.854	93.19
403.078	102.19
403.302	75.19
403.526	100.19
403.75	95.19
403.974	89.19
404.198	86.19
404.422	96.19
404.645	99.19
404.869	105.19
405.093	111.19
405.317	131.19
405.541	127.19
405.765	93.19
405.988	140.19
406.212	228.19
406.436	260.19
406.66	189.19
406.883	112.19
407.107	103.19
407.331	101.19
407.555	98.19
407.778	94.19
408.002	104.19
408.226	92.19
408.449	95.19
408.673	102.19
408.896	102.19
409.12	94.19
409.344	101.19
409.567	79.19
409.791	86.19
410.014	87.19
410.238	110.19
410.461	99.19
410.685	100.19
410.908	94.19
411.132	94.19
411.355	97.19
411.578	93.19
411.802	99.19
412.025	102.19
412.249	113.19
412.472	115.19
412.695	119.19
412.919	104.19
413.142	104.19
413.365	94.19
413.589	91.19
413.812	94.19
414.035	111.19
414.258	102.19
414.482	99.19
414.705	101.19
414.928	107.19
415.151	99.19
415.374	92.19
415.597	86.19
415.821	74.19
416.044	96.19
416.267	99.19
416.49	95.19
416.713	92.19
416.936	89.19
417.159	102.19
417.382	99.19
417.605	89.19
417.828	112.19
418.051	86.19
418.274	96.19
418.497	94.19
418.72	84.19
418.943	84.19
419.166	91.19
419.389	84.19
419.611	94.19
419.834	83.19
420.057	97.19
420.28	99.19
420.503	86.19
420.726	83.19
420.948	92.19
421.171	94.19
421.394	98.19
421.617	89.19
421.839	90.19
422.062	87.19
422.285	97.19
422.507	100.19
422.73	99.19
422.953	101.19
423.175	88.19
423.398	97.19
423.621	93.19
423.843	88.19
424.066	84.19
424.288	83.19
424.511	92.19
424.733	95.19
424.956	119.19
425.178	110.19
425.401	107.19
425.623	112.19
425.846	101.19
426.068	115.19
426.291	90.19
426.513	96.19
426.735	87.19
426.958	90.19
427.18	103.19
427.402	165.19
427.625	236.19
427.847	218.19
428.069	188.19
428.292	130.19
428.514	109.19
428.736	92.19
428.958	92.19
429.181	93.19
429.403	104.19
429.625	96.19
429.847	102.19
430.069	102.19
430.292	86.19
430.514	74.19
430.736	79.19
430.958	104.19
431.18	94.19
431.402	98.19
431.624	90.19
431.846	86.19
432.068	83.19
432.29	98.19
432.512	94.19
432.734	97.19
432.956	94.19
433.178	107.19
433.4	99.19
433.622	100.19
433.844	106.19
434.066	87.19
434.287	87.19
434.509	102.19
434.731	96.19
434.953	90.19
435.175	92.19
435.397	100.19
435.618	90.19
435.84	112.19
436.062	146.19
436.284	115.19
436.505	112.19
436.727	117.19
436.949	82.19
437.17	88.19
437.392	82.19
437.614	97.19
437.835	113.19
438.057	137.19
438.278	118.19
438.5	115.19
438.721	149.19
438.943	96.19
439.165	100.19
439.386	101.19
439.608	87.19
439.829	129.19
440.05	141.19
440.272	164.19
440.493	102.19
440.715	92.19
440.936	93.19
441.158	91.19
441.379	81.19
441.6	94.19
441.822	96.19
442.043	107.19
442.264	114.19
442.486	117.19
442.707	109.19
442.928	130.19
443.149	148.19
443.371	135.19
443.592	119.19
443.813	118.19
444.034	104.19
444.255	94.19
444.476	96.19
444.698	82.19
444.919	99.19
445.14	114.19
445.361	139.19
445.582	131.19
445.803	147.19
446.024	153.19
446.245	159.19
446.466	118.19
446.687	92.19
446.908	93.19
447.129	88.19
447.35	85.19
447.571	97.19
447.792	90.19
448.013	104.19
448.234	117.19
448.455	109.19
448.675	128.19
448.896	125.19
449.117	99.19
449.338	91.19
449.559	130.19
449.779	144.19
450	99.19
450.221	88.19
450.442	96.19
450.662	95.19
450.883	130.19
451.104	130.19
451.324	105.19
451.545	84.19
451.766	101.19
451.986	84.19
452.207	96.19
452.428	103.19
452.648	108.19
452.869	117.19
453.089	127.19
453.31	123.19
453.53	104.19
453.751	101.19
453.971	100.19
454.192	122.19
454.412	98.19
454.633	95.19
454.853	99.19
455.073	83.19
455.294	91.19
455.514	97.19
455.734	71.19
455.955	88.19
456.175	87.19
456.395	80.19
456.616	90.19
456.836	90.19
457.056	103.19
457.276	86.19
457.497	91.19
457.717	85.19
457.937	92.19
458.157	84.19
458.377	90.19
458.598	122.19
458.818	180.19
459.038	186.19
459.258	124.19
459.478	98.19
459.698	90.19
459.918	94.19
460.138	90.19
460.358	81.19
460.578	98.19
460.798	99.19
461.018	93.19
461.238	94.19
461.458	92.19
461.678	90.19
461.898	88.19
462.118	88.19
462.338	86.19
462.558	70.19
462.777	88.19
462.997	107.19
463.217	107.19
463.437	94.19
463.657	91.19
463.876	93.19
464.096	78.19
464.316	104.19
464.536	96.19
464.755	97.19
464.975	122.19
465.195	226.19
465.414	202.19
465.634	105.19
465.854	90.19
466.073	92.19
466.293	90.19
466.512	88.19
466.732	91.19
466.951	89.19
467.171	96.19
467.391	100.19
467.61	137.19
467.829	192.19
468.049	416.19
468.268	600.19
468.488	180.19
468.707	100.19
468.927	104.19
469.146	100.19
469.365	97.19
469.585	105.19
469.804	109.19
470.023	112.19
470.243	97.19
470.462	115.19
470.681	128.19
470.901	100.19
471.12	108.19
471.339	95.19
471.558	117.19
471.777	146.19
471.997	210.19
472.216	759.19
472.435	1749.19
472.654	441.19
472.873	140.19
473.092	83.19
473.311	104.19
473.53	87.19
473.749	96.19
473.968	104.19
474.187	117.19
474.406	104.19
474.625	90.19
474.844	101.19
475.063	88.19
475.282	93.19
475.501	104.19
475.72	95.19
475.939	101.19
476.158	89.19
476.377	90.19
476.596	94.19
476.814	102.19
477.033	100.19
477.252	93.19
477.471	86.19
477.69	92.19
477.908	96.19
478.127	97.19
478.346	77.19
478.564	90.19
478.783	96.19
479.002	104.19
479.22	107.19
479.439	116.19
479.658	105.19
479.876	113.19
480.095	107.19
480.313	125.19
480.532	138.19
480.751	237.19
480.969	746.19
481.188	3008.19
481.406	1738.19
481.624	271.19
481.843	113.19
482.061	100.19
482.28	97.19
482.498	93.19
482.717	92.19
482.935	112.19
483.153	90.19
483.372	97.19
483.59	81.19
483.808	83.19
484.027	76.19
484.245	104.19
484.463	90.19
484.681	89.19
484.9	100.19
485.118	94.19
485.336	100.19
485.554	94.19
485.772	115.19
485.99	115.19
486.209	113.19
486.427	118.19
486.645	96.19
486.863	110.19
487.081	104.19
487.299	89.19
487.517	94.19
487.735	102.19
487.953	98.19
488.171	98.19
488.389	106.19
488.607	94.19
488.825	93.19
489.043	80.19
489.261	88.19
489.479	96.19
489.696	88.19
489.914	91.19
490.132	82.19
490.35	88.19
490.568	84.19
490.786	90.19
491.003	88.19
491.221	100.19
491.439	80.19
491.657	85.19
491.874	106.19
492.092	96.19
492.31	100.19
492.527	83.19
492.745	110.19
492.963	97.19
493.18	86.19
493.398	91.19
493.615	81.19
493.833	85.19
494.05	85.19
494.268	91.19
494.485	81.19
494.703	80.19
494.92	91.19
495.138	94.19
495.355	85.19
495.573	94.19
495.79	99.19
496.008	88.19
496.225	86.19
496.442	102.19
496.66	86.19
496.877	74.19
497.094	83.19
497.312	80.19
497.529	88.19
497.746	86.19
497.963	92.19
498.181	90.19
498.398	115.19
498.615	121.19
498.832	106.19
499.049	89.19
499.267	96.19
499.484	87.19
499.701	89.19
499.918	93.19
500.135	88.19
500.352	77.19
500.569	90.19
500.786	88.19
501.003	90.19
501.22	97.19
501.437	85.19
501.654	114.19
501.871	120.19
502.088	107.19
502.305	104.19
502.522	87.19
502.739	82.19
502.956	93.19
503.172	81.19
503.389	113.19
503.606	122.19
503.823	101.19
504.04	80.19
504.256	92.19
504.473	100.19
504.69	89.19
504.907	98.19
505.123	86.19
505.34	79.19
505.557	89.19
505.773	98.19
505.99	93.19
506.207	98.19
506.423	92.19
506.64	88.19
506.856	88.19
507.073	92.19
507.289	88.19
507.506	102.19
507.722	132.19
507.939	117.19
508.155	105.19
508.372	78.19
508.588	95.19
508.805	92.19
509.021	106.19
509.238	98.19
509.454	97.19
509.67	102.19
509.887	112.19
510.103	149.19
510.319	204.19
510.536	779.19
510.752	2568.19
510.968	727.19
511.184	183.19
511.401	117.19
511.617	101.19
511.833	104.19
512.049	108.19
512.265	98.19
512.481	96.19
512.698	105.19
512.914	85.19
513.13	100.19
513.346	95.19
513.562	87.19
513.778	104.19
513.994	90.19
514.21	112.19
514.426	112.19
514.642	158.19
514.858	156.19
515.074	186.19
515.29	569.19
515.506	2037.19
515.721	709.19
515.937	184.19
516.153	122.19
516.369	105.19
516.585	103.19
516.801	102.19
517.016	113.19
517.232	85.19
517.448	104.19
517.664	91.19
517.879	112.19
518.095	98.19
518.311	102.19
518.527	112.19
518.742	97.19
518.958	109.19
519.173	105.19
519.389	104.19
519.605	89.19
519.82	98.19
520.036	108.19
520.251	126.19
520.467	133.19
520.682	116.19
520.898	119.19
521.113	109.19
521.329	166.19
521.544	255.19
521.76	763.19
521.975	3383.19
522.19	2040.19
522.406	416.19
522.621	139.19
522.836	113.19
523.052	103.19
523.267	105.19
523.482	96.19
523.698	98.19
523.913	135.19
524.128	101.19
524.343	102.19
524.559	105.19
524.774	96.19
524.989	107.19
525.204	117.19
525.419	105.19
525.634	86.19
525.849	106.19
526.064	85.19
526.28	104.19
526.495	91.19
526.71	92.19
526.925	90.19
527.14	94.19
527.355	87.19
527.57	92.19
527.785	97.19
527.999	91.19
528.214	96.19
528.429	93.19
528.644	101.19
528.859	92.19
529.074	107.19
529.289	133.19
529.503	242.19
529.718	126.19
529.933	107.19
530.148	100.19
530.363	99.19
530.577	94.19
530.792	100.19
531.007	89.19
531.221	95.19
531.436	86.19
531.651	108.19
531.865	100.19
532.08	87.19
532.295	96.19
532.509	96.19
532.724	89.19
532.938	92.19
533.153	103.19
533.367	100.19
533.582	94.19
533.796	101.19
534.011	93.19
534.225	89.19
534.44	98.19
534.654	98.19
534.868	86.19
535.083	89.19
535.297	101.19
535.511	101.19
535.726	113.19
535.94	107.19
536.154	103.19
536.369	81.19
536.583	88.19
536.797	83.19
537.011	99.19
537.225	90.19
537.44	91.19
537.654	93.19
537.868	78.19
538.082	88.19
538.296	84.19
538.51	90.19
538.724	85.19
538.938	103.19
539.153	85.19
539.367	121.19
539.581	93.19
539.795	86.19
540.009	85.19
540.222	85.19
540.436	80.19
540.65	88.19
540.864	89.19
541.078	100.19
541.292	89.19
541.506	85.19
541.72	91.19
541.934	104.19
542.147	87.19
542.361	92.19
542.575	100.19
542.789	100.19
543.002	86.19
543.216	104.19
543.43	107.19
543.644	98.19
543.857	94.19
544.071	92.19
544.285	84.19
544.498	80.19
544.712	90.19
544.925	116.19
545.139	88.19
545.352	92.19
545.566	105.19
545.779	89.19
545.993	71.19
546.206	80.19
546.42	82.19
546.633	87.19
546.847	88.19
547.06	88.19
547.274	100.19
547.487	94.19
547.7	85.19
547.914	78.19
548.127	90.19
548.34	98.19
548.554	76.19
548.767	90.19
548.98	93.19
549.193	86.19
549.407	91.19
549.62	100.19
549.833	87.19
550.046	95.19
550.259	83.19
550.473	89.19
550.686	92.19
550.899	83.19
551.112	98.19
551.325	90.19
551.538	103.19
551.751	100.19
551.964	91.19
552.177	88.19
552.39	77.19
552.603	99.19
552.816	85.19
553.029	98.19
553.242	86.19
553.455	108.19
553.667	133.19
553.88	112.19
554.093	104.19
554.306	104.19
554.519	109.19
554.732	90.19
554.944	88.19
555.157	88.19
555.37	108.19
555.583	88.19
555.795	97.19
556.008	105.19
556.221	93.19
556.433	89.19
556.646	92.19
556.859	96.19
557.071	92.19
557.284	99.19
557.496	89.19
557.709	89.19
557.921	89.19
558.134	83.19
558.346	100.19
558.559	74.19
558.771	101.19
558.984	89.19
559.196	87.19
559.409	81.19
559.621	96.19
559.833	102.19
560.046	83.19
560.258	101.19
560.47	114.19
560.683	113.19
560.895	97.19
561.107	88.19
561.32	99.19
561.532	85.19
561.744	94.19
561.956	90.19
562.168	106.19
562.381	85.19
562.593	82.19
562.805	92.19
563.017	90.19
563.229	100.19
563.441	97.19
563.653	92.19
563.865	95.19
564.077	90.19
564.289	87.19
564.501	99.19
564.713	72.19
564.925	84.19
565.137	105.19
565.349	96.19
565.561	85.19
565.773	91.19
565.985	78.19
566.197	89.19
566.408	87.19
566.62	68.19
566.832	77.19
567.044	85.19
567.255	93.19
567.467	89.19
567.679	82.19
567.891	84.19
568.102	79.19
568.314	87.19
568.526	87.19
568.737	89.19
568.949	101.19
569.161	90.19
569.372	76.19
569.584	105.19
569.795	97.19
570.007	131.19
570.218	248.19
570.43	153.19
570.641	89.19
570.853	92.19
571.064	78.19
571.276	96.19
571.487	97.19
571.698	78.19
571.91	80.19
572.121	89.19
572.333	89.19
572.544	80.19
572.755	98.19
572.966	99.19
573.178	86.19
573.389	91.19
573.6	83.19
573.811	80.19
574.023	88.19
574.234	90.19
574.445	99.19
574.656	76.19
574.867	91.19
575.078	92.19
575.289	81.19
575.501	101.19
575.712	94.19
575.923	85.19
576.134	87.19
576.345	94.19
576.556	93.19
576.767	99.19
576.978	93.19
577.188	90.19
577.399	104.19
577.61	85.19
577.821	99.19
578.032	114.19
578.243	258.19
578.454	789.19
578.665	225.19
578.875	104.19
579.086	77.19
579.297	89.19
579.508	89.19
579.718	109.19
579.929	94.19
580.14	89.19
580.35	93.19
580.561	94.19
580.772	86.19
580.982	96.19
581.193	92.19
581.403	82.19
581.614	88.19
581.825	99.19
582.035	85.19
582.246	92.19
582.456	102.19
582.667	91.19
582.877	97.19
583.087	85.19
583.298	98.19
583.508	89.19
583.719	87.19
583.929	82.19
584.139	93.19
584.35	100.19
584.56	94.19
584.77	83.19
584.981	87.19
585.191	94.19
585.401	109.19
585.611	100.19
585.821	92.19
586.032	82.19
586.242	85.19
586.452	85.19
586.662	85.19
586.872	98.19
587.082	88.19
587.292	89.19
587.502	75.19
587.713	96.19
587.923	89.19
588.133	73.19
588.343	78.19
588.553	85.19
588.762	90.19
588.972	97.19
589.182	115.19
589.392	97.19
589.602	101.19
589.812	107.19
590.022	99.19
590.232	92.19
590.441	93.19
590.651	89.19
590.861	93.19
591.071	100.19
591.281	96.19
591.49	96.19
591.7	81.19
591.91	82.19
592.119	74.19
592.329	87.19
592.539	90.19
592.748	104.19
592.958	81.19
593.167	101.19
593.377	95.19
593.587	99.19
593.796	77.19
594.006	96.19
594.215	90.19
594.424	88.19
594.634	92.19
594.843	88.19
595.053	88.19
595.262	88.19
595.472	83.19
595.681	91.19
595.89	88.19
596.1	74.19
596.309	102.19
596.518	101.19
596.727	98.19
596.937	87.19
597.146	91.19
597.355	92.19
597.564	88.19
597.774	90.19
597.983	85.19
598.192	84.19
598.401	90.19
598.61	92.19
598.819	84.19
599.028	88.19
599.237	82.19
599.446	81.19
599.655	82.19
599.864	73.19
600.073	76.19
600.282	86.19
600.491	97.19
600.7	91.19
600.909	76.19
601.118	89.19
601.327	76.19
601.536	83.19
601.745	82.19
601.953	82.19
602.162	81.19
602.371	86.19
602.58	90.19
602.789	90.19
602.997	97.19
603.206	78.19
603.415	94.19
603.623	82.19
603.832	79.19
604.041	98.19
604.249	90.19
604.458	82.19
604.666	91.19
604.875	96.19
605.084	75.19
605.292	92.19
605.501	92.19
605.709	103.19
605.918	98.19
606.126	85.19
606.334	80.19
606.543	84.19
606.751	80.19
606.96	79.19
607.168	77.19
607.376	105.19
607.585	90.19
607.793	78.19
608.001	93.19
608.21	83.19
608.418	85.19
608.626	94.19
608.834	82.19
609.043	79.19
609.251	98.19
609.459	76.19
609.667	94.19
609.875	95.19
610.083	84.19
610.291	93.19
610.499	91.19
610.707	84.19
610.916	85.19
611.124	90.19
611.332	77.19
611.54	93.19
611.748	92.19
611.955	79.19
612.163	76.19
612.371	93.19
612.579	80.19
612.787	104.19
612.995	84.19
613.203	89.19
613.411	92.19
613.618	94.19
613.826	91.19
614.034	91.19
614.242	82.19
614.449	82.19
614.657	90.19
614.865	101.19
615.072	103.19
615.28	93.19
615.488	79.19
615.695	96.19
615.903	98.19
616.111	86.19
616.318	94.19
616.526	98.19
616.733	102.19
616.941	93.19
617.148	88.19
617.356	89.19
617.563	85.19
617.771	93.19
617.978	88.19
618.185	93.19
618.393	92.19
618.6	89.19
618.807	85.19
619.015	91.19
619.222	66.19
619.429	88.19
619.637	88.19
619.844	86.19
620.051	91.19
620.258	96.19
620.466	75.19
620.673	85.19
620.88	104.19
621.087	86.19
621.294	93.19
621.501	93.19
621.708	81.19
621.915	79.19
622.122	98.19
622.329	84.19
622.536	89.19
622.743	73.19
622.95	86.19
623.157	82.19
623.364	87.19
623.571	88.19
623.778	87.19
623.985	84.19
624.192	89.19
624.399	81.19
624.606	99.19
624.812	84.19
625.019	82.19
625.226	94.19
625.433	92.19
625.639	81.19
625.846	79.19
626.053	81.19
626.259	99.19
626.466	95.19
626.673	87.19
626.879	85.19
627.086	88.19
627.293	80.19
627.499	85.19
627.706	96.19
627.912	92.19
628.119	76.19
628.325	87.19
628.532	81.19
628.738	82.19
628.945	78.19
629.151	94.19
629.357	76.19
629.564	72.19
629.77	92.19
629.976	75.19
630.183	87.19
630.389	78.19
630.595	75.19
630.802	74.19
631.008	84.19
631.214	93.19
631.42	94.19
631.627	90.19
631.833	76.19
632.039	89.19
632.245	84.19
632.451	91.19
632.657	84.19
632.863	91.19
633.069	80.19
633.275	80.19
633.481	90.19
633.688	79.19
633.893	93.19
634.099	91.19
634.305	84.19
634.511	84.19
634.717	81.19
634.923	97.19
635.129	86.19
635.335	86.19
635.541	74.19
635.747	88.19
635.952	85.19
636.158	123.19
636.364	284.19
636.57	252.19
636.775	106.19
636.981	83.19
637.187	97.19
637.392	88.19
637.598	87.19
637.804	69.19
638.009	88.19
638.215	80.19
638.421	78.19
638.626	84.19
638.832	80.19
639.037	90.19
639.243	83.19
639.448	86.19
639.654	107.19
639.859	88.19
640.065	90.19
640.27	80.19
640.475	88.19
640.681	92.19
640.886	87.19
641.091	85.19
641.297	86.19
641.502	90.19
641.707	88.19
641.913	80.19
642.118	65.19
642.323	92.19
642.528	85.19
642.733	83.19
642.939	96.19
643.144	81.19
643.349	84.19
643.554	90.19
643.759	92.19
643.964	77.19
644.169	87.19
644.374	71.19
644.579	92.19
644.784	93.19
644.989	87.19
645.194	82.19
645.399	94.19
645.604	71.19
645.809	86.19
646.014	96.19
646.219	81.19
646.423	83.19
646.628	84.19
646.833	99.19
647.038	78.19
647.243	86.19
647.447	87.19
647.652	84.19
647.857	92.19
648.062	82.19
648.266	82.19
648.471	72.19
648.676	104.19
648.88	91.19
649.085	96.19
649.289	91.19
649.494	106.19
649.698	135.19
649.903	104.19
650.107	93.19
650.312	92.19
650.516	77.19
650.721	85.19
650.925	66.19
651.13	83.19
651.334	81.19
651.539	95.19
651.743	84.19
651.947	79.19
652.152	94.19
652.356	96.19
652.56	82.19
652.764	83.19
652.969	74.19
653.173	76.19
653.377	70.19
653.581	88.19
653.785	83.19
653.99	71.19
654.194	82.19
654.398	78.19
654.602	83.19
654.806	104.19
655.01	112.19
655.214	97.19
655.418	93.19
655.622	83.19
655.826	83.19
656.03	100.19
656.234	96.19
656.438	92.19
656.642	101.19
656.846	87.19
657.049	90.19
657.253	88.19
657.457	94.19
657.661	88.19
657.865	92.19
658.068	78.19
658.272	75.19
658.476	77.19
658.68	79.19
658.883	78.19
659.087	88.19
659.291	71.19
659.494	91.19
659.698	89.19
659.901	75.19
660.105	82.19
660.309	90.19
660.512	65.19
660.716	84.19
660.919	95.19
661.123	94.19
661.326	79.19
661.53	94.19
661.733	100.19
661.936	85.19
662.14	76.19
662.343	82.19
662.546	78.19
662.75	88.19
662.953	91.19
663.156	92.19
663.36	74.19
663.563	90.19
663.766	74.19
663.969	78.19
664.173	82.19
664.376	81.19
664.579	100.19
664.782	95.19
664.985	77.19
665.188	84.19
665.391	62.19
665.594	70.19
665.797	94.19
666	77.19
666.203	84.19
666.406	68.19
666.609	97.19
666.812	86.19
667.015	83.19
667.218	77.19
667.421	90.19
667.624	62.19
667.827	88.19
668.03	87.19
668.232	68.19
668.435	85.19
668.638	96.19
668.841	80.19
669.043	83.19
669.246	75.19
669.449	77.19
669.651	82.19
669.854	88.19
670.057	91.19
670.259	95.19
670.462	83.19
670.665	74.19
670.867	92.19
671.07	74.19
671.272	77.19
671.475	86.19
671.677	81.19
671.88	73.19
672.082	73.19
672.284	75.19
672.487	93.19
672.689	71.19
672.892	78.19
