Data from Circ_2001_H10_HRD10591_00032.txt Node
Date: Wed Jan 03 10:45:45 EST 2024
User: Yrep
Spectrometer: HR+D1059
Trigger mode: 1
Integration Time (sec): 1.000000E-1
Scans to average: 1
Electric dark correction enabled: true
Nonlinearity correction enabled: false
Boxcar width: 0
XAxis mode: Wavelengths
Number of Pixels in Spectrum: 2048
>>>>>Begin Spectral Data<<<<<
223.165	-20.5
223.4	-20.5
223.635	-20.5
223.869	-33.5
224.104	-21.5
224.338	-12.5
224.573	-20.5
224.808	-4.5
225.042	-17.5
225.277	-13.5
225.511	1.5
225.746	-5.5
225.98	16.5
226.215	17.5
226.449	11.5
226.683	27.5
226.918	40.5
227.152	34.5
227.387	25.5
227.621	35.5
227.856	34.5
228.09	38.5
228.324	49.5
228.559	58.5
228.793	71.5
229.027	54.5
229.262	52.5
229.496	76.5
229.73	84.5
229.964	86.5
230.199	78.5
230.433	86.5
230.667	74.5
230.901	74.5
231.136	88.5
231.37	70.5
231.604	79.5
231.838	78.5
232.072	76.5
232.306	76.5
232.541	81.5
232.775	80.5
233.009	87.5
233.243	87.5
233.477	82.5
233.711	71.5
233.945	80.5
234.179	86.5
234.413	74.5
234.647	81.5
234.881	78.5
235.115	81.5
235.349	72.5
235.583	74.5
235.817	74.5
236.051	97.5
236.285	64.5
236.519	80.5
236.753	87.5
236.987	75.5
237.221	97.5
237.455	78.5
237.689	87.5
237.922	86.5
238.156	80.5
238.39	73.5
238.624	83.5
238.858	87.5
239.091	78.5
239.325	70.5
239.559	84.5
239.793	74.5
240.027	68.5
240.26	73.5
240.494	79.5
240.728	70.5
240.961	87.5
241.195	92.5
241.429	72.5
241.662	78.5
241.896	74.5
242.13	72.5
242.363	88.5
242.597	68.5
242.83	82.5
243.064	66.5
243.298	81.5
243.531	72.5
243.765	74.5
243.998	71.5
244.232	86.5
244.465	77.5
244.699	74.5
244.932	75.5
245.166	92.5
245.399	91.5
245.633	73.5
245.866	74.5
246.099	75.5
246.333	71.5
246.566	73.5
246.8	72.5
247.033	86.5
247.266	83.5
247.5	73.5
247.733	78.5
247.966	70.5
248.2	76.5
248.433	74.5
248.666	78.5
248.899	82.5
249.133	81.5
249.366	102.5
249.599	111.5
249.832	67.5
250.066	79.5
250.299	71.5
250.532	86.5
250.765	80.5
250.998	66.5
251.231	76.5
251.465	80.5
251.698	82.5
251.931	82.5
252.164	80.5
252.397	87.5
252.63	87.5
252.863	86.5
253.096	95.5
253.329	80.5
253.562	80.5
253.795	78.5
254.028	81.5
254.261	79.5
254.494	85.5
254.727	83.5
254.96	90.5
255.193	78.5
255.426	83.5
255.659	88.5
255.892	98.5
256.124	84.5
256.357	85.5
256.59	86.5
256.823	87.5
257.056	76.5
257.289	77.5
257.521	75.5
257.754	84.5
257.987	73.5
258.22	90.5
258.452	111.5
258.685	77.5
258.918	91.5
259.151	101.5
259.383	83.5
259.616	84.5
259.849	83.5
260.081	75.5
260.314	89.5
260.547	71.5
260.779	81.5
261.012	88.5
261.244	101.5
261.477	90.5
261.71	102.5
261.942	109.5
262.175	109.5
262.407	92.5
262.64	73.5
262.872	76.5
263.105	84.5
263.337	88.5
263.57	65.5
263.802	70.5
264.035	92.5
264.267	96.5
264.499	78.5
264.732	76.5
264.964	76.5
265.197	69.5
265.429	90.5
265.661	84.5
265.894	87.5
266.126	88.5
266.358	80.5
266.591	98.5
266.823	81.5
267.055	84.5
267.287	91.5
267.52	93.5
267.752	76.5
267.984	56.5
268.216	91.5
268.448	80.5
268.681	76.5
268.913	76.5
269.145	95.5
269.377	79.5
269.609	76.5
269.841	89.5
270.073	88.5
270.306	88.5
270.538	73.5
270.77	75.5
271.002	88.5
271.234	83.5
271.466	97.5
271.698	92.5
271.93	89.5
272.162	59.5
272.394	80.5
272.626	100.5
272.858	73.5
273.09	84.5
273.322	87.5
273.553	79.5
273.785	87.5
274.017	79.5
274.249	79.5
274.481	92.5
274.713	94.5
274.945	96.5
275.176	79.5
275.408	92.5
275.64	79.5
275.872	81.5
276.104	99.5
276.335	91.5
276.567	113.5
276.799	111.5
277.031	131.5
277.262	120.5
277.494	107.5
277.726	102.5
277.957	96.5
278.189	97.5
278.421	84.5
278.652	85.5
278.884	81.5
279.115	95.5
279.347	94.5
279.579	105.5
279.81	106.5
280.042	128.5
280.273	169.5
280.505	123.5
280.736	110.5
280.968	81.5
281.199	88.5
281.431	89.5
281.662	95.5
281.894	94.5
282.125	97.5
282.356	117.5
282.588	156.5
282.819	120.5
283.051	84.5
283.282	81.5
283.513	91.5
283.745	101.5
283.976	94.5
284.207	88.5
284.439	82.5
284.67	78.5
284.901	77.5
285.132	78.5
285.364	80.5
285.595	81.5
285.826	86.5
286.057	82.5
286.288	63.5
286.52	92.5
286.751	74.5
286.982	91.5
287.213	91.5
287.444	102.5
287.675	87.5
287.906	94.5
288.138	95.5
288.369	89.5
288.6	103.5
288.831	84.5
289.062	75.5
289.293	74.5
289.524	87.5
289.755	82.5
289.986	88.5
290.217	93.5
290.448	84.5
290.679	72.5
290.91	89.5
291.141	77.5
291.371	84.5
291.602	82.5
291.833	89.5
292.064	95.5
292.295	82.5
292.526	89.5
292.757	79.5
292.987	88.5
293.218	83.5
293.449	89.5
293.68	83.5
293.91	87.5
294.141	105.5
294.372	83.5
294.603	86.5
294.833	90.5
295.064	92.5
295.295	83.5
295.525	100.5
295.756	98.5
295.987	106.5
296.217	121.5
296.448	121.5
296.679	99.5
296.909	91.5
297.14	90.5
297.37	80.5
297.601	93.5
297.831	85.5
298.062	106.5
298.292	90.5
298.523	98.5
298.753	84.5
298.984	88.5
299.214	88.5
299.445	90.5
299.675	103.5
299.905	92.5
300.136	89.5
300.366	80.5
300.597	101.5
300.827	88.5
301.057	94.5
301.288	108.5
301.518	107.5
301.748	83.5
301.979	96.5
302.209	95.5
302.439	96.5
302.669	106.5
302.9	91.5
303.13	103.5
303.36	107.5
303.59	127.5
303.82	113.5
304.051	93.5
304.281	103.5
304.511	98.5
304.741	87.5
304.971	89.5
305.201	90.5
305.431	87.5
305.661	92.5
305.891	87.5
306.121	80.5
306.352	113.5
306.582	115.5
306.812	99.5
307.042	105.5
307.272	138.5
307.502	126.5
307.731	132.5
307.961	114.5
308.191	99.5
308.421	97.5
308.651	94.5
308.881	100.5
309.111	98.5
309.341	78.5
309.571	95.5
309.8	92.5
310.03	97.5
310.26	94.5
310.49	90.5
310.72	107.5
310.949	112.5
311.179	102.5
311.409	91.5
311.639	89.5
311.868	99.5
312.098	106.5
312.328	83.5
312.557	110.5
312.787	98.5
313.017	114.5
313.246	95.5
313.476	90.5
313.706	90.5
313.935	94.5
314.165	113.5
314.394	117.5
314.624	106.5
314.853	104.5
315.083	92.5
315.312	92.5
315.542	91.5
315.771	84.5
316.001	84.5
316.23	90.5
316.46	84.5
316.689	84.5
316.919	111.5
317.148	90.5
317.377	89.5
317.607	105.5
317.836	86.5
318.065	82.5
318.295	86.5
318.524	81.5
318.753	80.5
318.983	80.5
319.212	102.5
319.441	124.5
319.67	112.5
319.9	92.5
320.129	91.5
320.358	93.5
320.587	97.5
320.816	79.5
321.046	97.5
321.275	94.5
321.504	88.5
321.733	93.5
321.962	100.5
322.191	89.5
322.42	97.5
322.649	123.5
322.878	123.5
323.108	121.5
323.337	131.5
323.566	133.5
323.795	167.5
324.024	230.5
324.253	413.5
324.482	908.5
324.71	1919.5
324.939	2489.5
325.168	916.5
325.397	276.5
325.626	157.5
325.855	129.5
326.084	135.5
326.313	133.5
326.542	147.5
326.77	236.5
326.999	514.5
327.228	1042.5
327.457	1918.5
327.686	1497.5
327.914	439.5
328.143	342.5
328.372	386.5
328.6	231.5
328.829	159.5
329.058	143.5
329.287	147.5
329.515	142.5
329.744	169.5
329.972	304.5
330.201	554.5
330.43	776.5
330.658	386.5
330.887	190.5
331.115	145.5
331.344	95.5
331.572	118.5
331.801	117.5
332.03	103.5
332.258	91.5
332.486	101.5
332.715	111.5
332.943	98.5
333.172	107.5
333.4	122.5
333.629	117.5
333.857	168.5
334.085	272.5
334.314	505.5
334.542	944.5
334.771	888.5
334.999	273.5
335.227	140.5
335.455	98.5
335.684	111.5
335.912	94.5
336.14	100.5
336.369	99.5
336.597	111.5
336.825	101.5
337.053	85.5
337.281	104.5
337.51	94.5
337.738	98.5
337.966	90.5
338.194	94.5
338.422	102.5
338.65	87.5
338.878	99.5
339.106	96.5
339.334	89.5
339.562	96.5
339.79	88.5
340.018	97.5
340.246	89.5
340.474	84.5
340.702	95.5
340.93	84.5
341.158	89.5
341.386	89.5
341.614	107.5
341.842	89.5
342.07	92.5
342.298	90.5
342.526	103.5
342.754	83.5
342.981	98.5
343.209	90.5
343.437	94.5
343.665	78.5
343.893	81.5
344.12	95.5
344.348	75.5
344.576	97.5
344.804	100.5
345.031	95.5
345.259	91.5
345.487	98.5
345.714	91.5
345.942	96.5
346.17	79.5
346.397	105.5
346.625	87.5
346.853	98.5
347.08	86.5
347.308	69.5
347.535	96.5
347.763	86.5
347.99	91.5
348.218	91.5
348.445	107.5
348.673	96.5
348.9	115.5
349.128	112.5
349.355	95.5
349.583	91.5
349.81	104.5
350.037	85.5
350.265	101.5
350.492	84.5
350.72	90.5
350.947	105.5
351.174	117.5
351.402	119.5
351.629	92.5
351.856	110.5
352.083	102.5
352.311	109.5
352.538	105.5
352.765	105.5
352.992	108.5
353.22	115.5
353.447	112.5
353.674	98.5
353.901	98.5
354.128	109.5
354.355	85.5
354.583	91.5
354.81	95.5
355.037	90.5
355.264	84.5
355.491	87.5
355.718	88.5
355.945	96.5
356.172	89.5
356.399	85.5
356.626	93.5
356.853	90.5
357.08	83.5
357.307	102.5
357.534	76.5
357.761	88.5
357.988	87.5
358.215	96.5
358.441	87.5
358.668	83.5
358.895	81.5
359.122	95.5
359.349	78.5
359.576	88.5
359.802	98.5
360.029	128.5
360.256	114.5
360.483	99.5
360.709	102.5
360.936	110.5
361.163	93.5
361.39	86.5
361.616	100.5
361.843	83.5
362.07	86.5
362.296	104.5
362.523	97.5
362.749	103.5
362.976	90.5
363.203	85.5
363.429	88.5
363.656	91.5
363.882	78.5
364.109	79.5
364.335	78.5
364.562	87.5
364.788	83.5
365.015	100.5
365.241	107.5
365.468	112.5
365.694	91.5
365.92	98.5
366.147	84.5
366.373	97.5
366.599	76.5
366.826	90.5
367.052	82.5
367.278	92.5
367.505	88.5
367.731	91.5
367.957	74.5
368.184	85.5
368.41	80.5
368.636	107.5
368.862	110.5
369.089	110.5
369.315	95.5
369.541	101.5
369.767	101.5
369.993	92.5
370.219	96.5
370.445	78.5
370.672	94.5
370.898	90.5
371.124	101.5
371.35	84.5
371.576	70.5
371.802	75.5
372.028	81.5
372.254	88.5
372.48	85.5
372.706	77.5
372.932	86.5
373.158	85.5
373.384	96.5
373.61	89.5
373.835	76.5
374.061	72.5
374.287	100.5
374.513	97.5
374.739	102.5
374.965	86.5
375.191	82.5
375.416	87.5
375.642	85.5
375.868	81.5
376.094	90.5
376.319	93.5
376.545	78.5
376.771	90.5
376.997	94.5
377.222	99.5
377.448	84.5
377.674	96.5
377.899	80.5
378.125	74.5
378.35	94.5
378.576	86.5
378.802	86.5
379.027	96.5
379.253	99.5
379.478	88.5
379.704	82.5
379.929	90.5
380.155	110.5
380.38	84.5
380.606	86.5
380.831	99.5
381.057	99.5
381.282	86.5
381.507	86.5
381.733	79.5
381.958	97.5
382.184	86.5
382.409	101.5
382.634	98.5
382.86	96.5
383.085	99.5
383.31	89.5
383.535	94.5
383.761	101.5
383.986	85.5
384.211	95.5
384.436	98.5
384.662	109.5
384.887	114.5
385.112	116.5
385.337	84.5
385.562	87.5
385.787	96.5
386.013	112.5
386.238	110.5
386.463	101.5
386.688	128.5
386.913	112.5
387.138	120.5
387.363	100.5
387.588	99.5
387.813	99.5
388.038	108.5
388.263	102.5
388.488	116.5
388.713	65.5
388.938	86.5
389.163	104.5
389.387	87.5
389.612	99.5
389.837	77.5
390.062	96.5
390.287	85.5
390.512	92.5
390.736	88.5
390.961	83.5
391.186	96.5
391.411	87.5
391.636	84.5
391.86	88.5
392.085	84.5
392.31	82.5
392.534	95.5
392.759	81.5
392.984	89.5
393.208	83.5
393.433	92.5
393.658	100.5
393.882	95.5
394.107	98.5
394.331	100.5
394.556	86.5
394.78	83.5
395.005	78.5
395.229	92.5
395.454	82.5
395.678	71.5
395.903	92.5
396.127	97.5
396.352	90.5
396.576	94.5
396.801	85.5
397.025	97.5
397.249	91.5
397.474	90.5
397.698	95.5
397.922	92.5
398.147	95.5
398.371	94.5
398.595	63.5
398.82	88.5
399.044	71.5
399.268	76.5
399.492	103.5
399.717	85.5
399.941	92.5
400.165	99.5
400.389	89.5
400.613	92.5
400.837	77.5
401.062	85.5
401.286	95.5
401.51	94.5
401.734	95.5
401.958	93.5
402.182	131.5
402.406	180.5
402.63	132.5
402.854	91.5
403.078	86.5
403.302	74.5
403.526	79.5
403.75	89.5
403.974	81.5
404.198	103.5
404.422	67.5
404.645	102.5
404.869	89.5
405.093	107.5
405.317	125.5
405.541	113.5
405.765	104.5
405.988	135.5
406.212	184.5
406.436	228.5
406.66	166.5
406.883	117.5
407.107	105.5
407.331	95.5
407.555	97.5
407.778	104.5
408.002	77.5
408.226	90.5
408.449	95.5
408.673	93.5
408.896	88.5
409.12	100.5
409.344	85.5
409.567	88.5
409.791	103.5
410.014	105.5
410.238	90.5
410.461	88.5
410.685	88.5
410.908	91.5
411.132	91.5
411.355	88.5
411.578	89.5
411.802	98.5
412.025	69.5
412.249	99.5
412.472	107.5
412.695	108.5
412.919	99.5
413.142	92.5
413.365	90.5
413.589	75.5
413.812	78.5
414.035	89.5
414.258	95.5
414.482	72.5
414.705	83.5
414.928	86.5
415.151	81.5
415.374	95.5
415.597	86.5
415.821	86.5
416.044	92.5
416.267	85.5
416.49	88.5
416.713	87.5
416.936	88.5
417.159	82.5
417.382	102.5
417.605	100.5
417.828	106.5
418.051	84.5
418.274	80.5
418.497	72.5
418.72	78.5
418.943	83.5
419.166	81.5
419.389	88.5
419.611	89.5
419.834	100.5
420.057	90.5
420.28	89.5
420.503	77.5
420.726	80.5
420.948	92.5
421.171	100.5
421.394	87.5
421.617	98.5
421.839	97.5
422.062	88.5
422.285	87.5
422.507	103.5
422.73	119.5
422.953	92.5
423.175	90.5
423.398	100.5
423.621	88.5
423.843	85.5
424.066	87.5
424.288	76.5
424.511	86.5
424.733	85.5
424.956	101.5
425.178	92.5
425.401	106.5
425.623	100.5
425.846	85.5
426.068	80.5
426.291	95.5
426.513	79.5
426.735	95.5
426.958	86.5
427.18	92.5
427.402	154.5
427.625	199.5
427.847	200.5
428.069	182.5
428.292	107.5
428.514	98.5
428.736	77.5
428.958	70.5
429.181	92.5
429.403	85.5
429.625	87.5
429.847	92.5
430.069	100.5
430.292	93.5
430.514	88.5
430.736	95.5
430.958	85.5
431.18	90.5
431.402	95.5
431.624	78.5
431.846	71.5
432.068	72.5
432.29	71.5
432.512	99.5
432.734	83.5
432.956	85.5
433.178	89.5
433.4	95.5
433.622	91.5
433.844	82.5
434.066	86.5
434.287	82.5
434.509	80.5
434.731	99.5
434.953	86.5
435.175	83.5
435.397	82.5
435.618	95.5
435.84	72.5
436.062	130.5
436.284	107.5
436.505	86.5
436.727	102.5
436.949	97.5
437.17	87.5
437.392	91.5
437.614	96.5
437.835	108.5
438.057	128.5
438.278	108.5
438.5	104.5
438.721	131.5
438.943	108.5
439.165	84.5
439.386	87.5
439.608	96.5
439.829	93.5
440.05	130.5
440.272	146.5
440.493	128.5
440.715	91.5
440.936	68.5
441.158	79.5
441.379	76.5
441.6	87.5
441.822	95.5
442.043	80.5
442.264	113.5
442.486	106.5
442.707	99.5
442.928	115.5
443.149	139.5
443.371	134.5
443.592	109.5
443.813	117.5
444.034	109.5
444.255	108.5
444.476	93.5
444.698	100.5
444.919	94.5
445.14	144.5
445.361	110.5
445.582	119.5
445.803	150.5
446.024	153.5
446.245	158.5
446.466	120.5
446.687	83.5
446.908	98.5
447.129	102.5
447.35	92.5
447.571	92.5
447.792	83.5
448.013	101.5
448.234	107.5
448.455	122.5
448.675	116.5
448.896	122.5
449.117	101.5
449.338	84.5
449.559	134.5
449.779	151.5
450	109.5
450.221	95.5
450.442	97.5
450.662	103.5
450.883	110.5
451.104	123.5
451.324	90.5
451.545	86.5
451.766	81.5
451.986	85.5
452.207	91.5
452.428	85.5
452.648	91.5
452.869	111.5
453.089	118.5
453.31	129.5
453.53	89.5
453.751	79.5
453.971	107.5
454.192	111.5
454.412	96.5
454.633	95.5
454.853	90.5
455.073	74.5
455.294	72.5
455.514	102.5
455.734	79.5
455.955	94.5
456.175	82.5
456.395	92.5
456.616	85.5
456.836	94.5
457.056	94.5
457.276	89.5
457.497	71.5
457.717	83.5
457.937	98.5
458.157	92.5
458.377	115.5
458.598	105.5
458.818	164.5
459.038	177.5
459.258	119.5
459.478	92.5
459.698	88.5
459.918	77.5
460.138	89.5
460.358	86.5
460.578	82.5
460.798	86.5
461.018	95.5
461.238	78.5
461.458	79.5
461.678	90.5
461.898	92.5
462.118	95.5
462.338	88.5
462.558	94.5
462.777	102.5
462.997	100.5
463.217	126.5
463.437	89.5
463.657	88.5
463.876	82.5
464.096	95.5
464.316	99.5
464.536	105.5
464.755	113.5
464.975	110.5
465.195	198.5
465.414	184.5
465.634	106.5
465.854	90.5
466.073	86.5
466.293	97.5
466.512	89.5
466.732	89.5
466.951	87.5
467.171	90.5
467.391	80.5
467.61	118.5
467.829	167.5
468.049	328.5
468.268	485.5
468.488	156.5
468.707	83.5
468.927	108.5
469.146	81.5
469.365	91.5
469.585	91.5
469.804	112.5
470.023	98.5
470.243	104.5
470.462	102.5
470.681	127.5
470.901	95.5
471.12	88.5
471.339	90.5
471.558	95.5
471.777	104.5
471.997	200.5
472.216	616.5
472.435	1311.5
472.654	357.5
472.873	136.5
473.092	101.5
473.311	102.5
473.53	82.5
473.749	88.5
473.968	102.5
474.187	96.5
474.406	95.5
474.625	101.5
474.844	84.5
475.063	89.5
475.282	78.5
475.501	90.5
475.72	87.5
475.939	77.5
476.158	94.5
476.377	97.5
476.596	83.5
476.814	94.5
477.033	89.5
477.252	103.5
477.471	84.5
477.69	79.5
477.908	88.5
478.127	82.5
478.346	94.5
478.564	97.5
478.783	98.5
479.002	105.5
479.22	94.5
479.439	111.5
479.658	104.5
479.876	106.5
480.095	106.5
480.313	115.5
480.532	142.5
480.751	216.5
480.969	591.5
481.188	2327.5
481.406	1323.5
481.624	219.5
481.843	115.5
482.061	91.5
482.28	95.5
482.498	88.5
482.717	87.5
482.935	95.5
483.153	91.5
483.372	90.5
483.59	94.5
483.808	100.5
484.027	103.5
484.245	92.5
484.463	96.5
484.681	88.5
484.9	94.5
485.118	84.5
485.336	88.5
485.554	99.5
485.772	94.5
485.99	107.5
486.209	103.5
486.427	108.5
486.645	118.5
486.863	116.5
487.081	103.5
487.299	102.5
487.517	84.5
487.735	86.5
487.953	95.5
488.171	95.5
488.389	100.5
488.607	92.5
488.825	103.5
489.043	95.5
489.261	97.5
489.479	87.5
489.696	97.5
489.914	78.5
490.132	91.5
490.35	85.5
490.568	99.5
490.786	94.5
491.003	95.5
491.221	93.5
491.439	90.5
491.657	96.5
491.874	83.5
492.092	98.5
492.31	96.5
492.527	92.5
492.745	95.5
492.963	89.5
493.18	92.5
493.398	99.5
493.615	107.5
493.833	104.5
494.05	95.5
494.268	92.5
494.485	85.5
494.703	86.5
494.92	78.5
495.138	81.5
495.355	92.5
495.573	87.5
495.79	97.5
496.008	98.5
496.225	97.5
496.442	92.5
496.66	95.5
496.877	100.5
497.094	92.5
497.312	83.5
497.529	75.5
497.746	88.5
497.963	90.5
498.181	89.5
498.398	93.5
498.615	116.5
498.832	97.5
499.049	97.5
499.267	86.5
499.484	82.5
499.701	89.5
499.918	94.5
500.135	89.5
500.352	99.5
500.569	99.5
500.786	84.5
501.003	91.5
501.22	83.5
501.437	92.5
501.654	85.5
501.871	119.5
502.088	95.5
502.305	90.5
502.522	73.5
502.739	80.5
502.956	82.5
503.172	104.5
503.389	97.5
503.606	94.5
503.823	99.5
504.04	98.5
504.256	95.5
504.473	89.5
504.69	87.5
504.907	95.5
505.123	95.5
505.34	81.5
505.557	89.5
505.773	87.5
505.99	87.5
506.207	91.5
506.423	94.5
506.64	110.5
506.856	90.5
507.073	86.5
507.289	83.5
507.506	105.5
507.722	119.5
507.939	117.5
508.155	87.5
508.372	86.5
508.588	88.5
508.805	97.5
509.021	102.5
509.238	103.5
509.454	92.5
509.67	99.5
509.887	106.5
510.103	126.5
510.319	202.5
510.536	762.5
510.752	2396.5
510.968	651.5
511.184	162.5
511.401	100.5
511.617	104.5
511.833	102.5
512.049	100.5
512.265	100.5
512.481	85.5
512.698	87.5
512.914	99.5
513.13	102.5
513.346	112.5
513.562	102.5
513.778	119.5
513.994	92.5
514.21	100.5
514.426	122.5
514.642	152.5
514.858	135.5
515.074	185.5
515.29	549.5
515.506	1747.5
515.721	672.5
515.937	186.5
516.153	116.5
516.369	91.5
516.585	95.5
516.801	89.5
517.016	96.5
517.232	91.5
517.448	96.5
517.664	102.5
517.879	110.5
518.095	102.5
518.311	87.5
518.527	104.5
518.742	87.5
518.958	100.5
519.173	89.5
519.389	99.5
519.605	93.5
519.82	111.5
520.036	107.5
520.251	136.5
520.467	114.5
520.682	115.5
520.898	115.5
521.113	130.5
521.329	140.5
521.544	228.5
521.76	690.5
521.975	3028.5
522.19	1750.5
522.406	370.5
522.621	130.5
522.836	101.5
523.052	101.5
523.267	85.5
523.482	90.5
523.698	111.5
523.913	129.5
524.128	110.5
524.343	96.5
524.559	88.5
524.774	89.5
524.989	92.5
525.204	97.5
525.419	97.5
525.634	88.5
525.849	99.5
526.064	99.5
526.28	87.5
526.495	80.5
526.71	90.5
526.925	83.5
527.14	90.5
527.355	80.5
527.57	104.5
527.785	90.5
527.999	87.5
528.214	99.5
528.429	86.5
528.644	105.5
528.859	90.5
529.074	99.5
529.289	136.5
529.503	226.5
529.718	117.5
529.933	96.5
530.148	86.5
530.363	82.5
530.577	69.5
530.792	91.5
531.007	82.5
531.221	90.5
531.436	88.5
531.651	88.5
531.865	80.5
532.08	94.5
532.295	80.5
532.509	71.5
532.724	98.5
532.938	88.5
533.153	87.5
533.367	85.5
533.582	102.5
533.796	78.5
534.011	82.5
534.225	79.5
534.44	70.5
534.654	81.5
534.868	97.5
535.083	103.5
535.297	91.5
535.511	111.5
535.726	102.5
535.94	83.5
536.154	88.5
536.369	93.5
536.583	93.5
536.797	96.5
537.011	97.5
537.225	88.5
537.44	78.5
537.654	96.5
537.868	97.5
538.082	102.5
538.296	88.5
538.51	75.5
538.724	84.5
538.938	96.5
539.153	94.5
539.367	109.5
539.581	102.5
539.795	90.5
540.009	85.5
540.222	91.5
540.436	102.5
540.65	95.5
540.864	96.5
541.078	83.5
541.292	98.5
541.506	90.5
541.72	93.5
541.934	91.5
542.147	85.5
542.361	78.5
542.575	89.5
542.789	87.5
543.002	85.5
543.216	87.5
543.43	95.5
543.644	84.5
543.857	98.5
544.071	92.5
544.285	93.5
544.498	82.5
544.712	98.5
544.925	86.5
545.139	89.5
545.352	88.5
545.566	82.5
545.779	88.5
545.993	98.5
546.206	84.5
546.42	99.5
546.633	90.5
546.847	89.5
547.06	86.5
547.274	78.5
547.487	96.5
547.7	90.5
547.914	95.5
548.127	87.5
548.34	99.5
548.554	86.5
548.767	94.5
548.98	96.5
549.193	89.5
549.407	79.5
549.62	93.5
549.833	86.5
550.046	91.5
550.259	73.5
550.473	82.5
550.686	93.5
550.899	87.5
551.112	85.5
551.325	67.5
551.538	96.5
551.751	88.5
551.964	85.5
552.177	93.5
552.39	83.5
552.603	82.5
552.816	77.5
553.029	94.5
553.242	87.5
553.455	99.5
553.667	114.5
553.88	97.5
554.093	87.5
554.306	88.5
554.519	104.5
554.732	94.5
554.944	99.5
555.157	92.5
555.37	74.5
555.583	96.5
555.795	91.5
556.008	107.5
556.221	91.5
556.433	82.5
556.646	81.5
556.859	101.5
557.071	87.5
557.284	98.5
557.496	79.5
557.709	94.5
557.921	86.5
558.134	96.5
558.346	74.5
558.559	82.5
558.771	86.5
558.984	99.5
559.196	84.5
559.409	78.5
559.621	81.5
559.833	88.5
560.046	78.5
560.258	98.5
560.47	100.5
560.683	101.5
560.895	97.5
561.107	86.5
561.32	87.5
561.532	92.5
561.744	95.5
561.956	88.5
562.168	88.5
562.381	89.5
562.593	98.5
562.805	88.5
563.017	94.5
563.229	90.5
563.441	75.5
563.653	96.5
563.865	93.5
564.077	86.5
564.289	97.5
564.501	78.5
564.713	88.5
564.925	86.5
565.137	109.5
565.349	102.5
565.561	83.5
565.773	85.5
565.985	89.5
566.197	86.5
566.408	73.5
566.62	72.5
566.832	72.5
567.044	90.5
567.255	85.5
567.467	86.5
567.679	91.5
567.891	88.5
568.102	89.5
568.314	81.5
568.526	83.5
568.737	81.5
568.949	79.5
569.161	75.5
569.372	85.5
569.584	77.5
569.795	98.5
570.007	107.5
570.218	236.5
570.43	151.5
570.641	98.5
570.853	82.5
571.064	91.5
571.276	87.5
571.487	78.5
571.698	88.5
571.91	81.5
572.121	76.5
572.333	86.5
572.544	83.5
572.755	76.5
572.966	98.5
573.178	86.5
573.389	85.5
573.6	91.5
573.811	88.5
574.023	95.5
574.234	90.5
574.445	93.5
574.656	82.5
574.867	95.5
575.078	89.5
575.289	88.5
575.501	73.5
575.712	89.5
575.923	92.5
576.134	80.5
576.345	76.5
576.556	89.5
576.767	108.5
576.978	110.5
577.188	89.5
577.399	91.5
577.61	97.5
577.821	96.5
578.032	113.5
578.243	268.5
578.454	747.5
578.665	220.5
578.875	92.5
579.086	83.5
579.297	84.5
579.508	88.5
579.718	86.5
579.929	89.5
580.14	87.5
580.35	82.5
580.561	92.5
580.772	94.5
580.982	92.5
581.193	74.5
581.403	89.5
581.614	78.5
581.825	76.5
582.035	90.5
582.246	89.5
582.456	86.5
582.667	89.5
582.877	82.5
583.087	76.5
583.298	100.5
583.508	81.5
583.719	84.5
583.929	78.5
584.139	95.5
584.35	81.5
584.56	102.5
584.77	101.5
584.981	79.5
585.191	84.5
585.401	81.5
585.611	93.5
585.821	86.5
586.032	93.5
586.242	76.5
586.452	87.5
586.662	87.5
586.872	86.5
587.082	95.5
587.292	87.5
587.502	93.5
587.713	80.5
587.923	80.5
588.133	93.5
588.343	79.5
588.553	72.5
588.762	98.5
588.972	83.5
589.182	147.5
589.392	114.5
589.602	88.5
589.812	118.5
590.022	97.5
590.232	76.5
590.441	106.5
590.651	85.5
590.861	88.5
591.071	90.5
591.281	86.5
591.49	87.5
591.7	95.5
591.91	86.5
592.119	74.5
592.329	82.5
592.539	87.5
592.748	91.5
592.958	83.5
593.167	80.5
593.377	86.5
593.587	99.5
593.796	100.5
594.006	80.5
594.215	62.5
594.424	83.5
594.634	87.5
594.843	91.5
595.053	97.5
595.262	80.5
595.472	81.5
595.681	79.5
595.89	84.5
596.1	86.5
596.309	73.5
596.518	88.5
596.727	82.5
596.937	92.5
597.146	92.5
597.355	72.5
597.564	90.5
597.774	99.5
597.983	70.5
598.192	89.5
598.401	93.5
598.61	81.5
598.819	91.5
599.028	81.5
599.237	98.5
599.446	82.5
599.655	72.5
599.864	84.5
600.073	90.5
600.282	84.5
600.491	81.5
600.7	87.5
600.909	84.5
601.118	78.5
601.327	90.5
601.536	86.5
601.745	90.5
601.953	99.5
602.162	82.5
602.371	85.5
602.58	90.5
602.789	94.5
602.997	81.5
603.206	89.5
603.415	101.5
603.623	88.5
603.832	105.5
604.041	88.5
604.249	77.5
604.458	73.5
604.666	74.5
604.875	90.5
605.084	82.5
605.292	94.5
605.501	74.5
605.709	90.5
605.918	79.5
606.126	87.5
606.334	79.5
606.543	88.5
606.751	84.5
606.96	81.5
607.168	86.5
607.376	86.5
607.585	96.5
607.793	97.5
608.001	77.5
608.21	85.5
608.418	87.5
608.626	77.5
608.834	91.5
609.043	85.5
609.251	76.5
609.459	74.5
609.667	87.5
609.875	68.5
610.083	82.5
610.291	83.5
610.499	76.5
610.707	82.5
610.916	92.5
611.124	96.5
611.332	81.5
611.54	88.5
611.748	86.5
611.955	85.5
612.163	80.5
612.371	70.5
612.579	74.5
612.787	87.5
612.995	87.5
613.203	71.5
613.411	106.5
613.618	88.5
613.826	87.5
614.034	88.5
614.242	83.5
614.449	74.5
614.657	93.5
614.865	91.5
615.072	89.5
615.28	88.5
615.488	85.5
615.695	94.5
615.903	84.5
616.111	99.5
616.318	94.5
616.526	98.5
616.733	92.5
616.941	80.5
617.148	94.5
617.356	81.5
617.563	87.5
617.771	97.5
617.978	73.5
618.185	70.5
618.393	92.5
618.6	92.5
618.807	76.5
619.015	90.5
619.222	83.5
619.429	78.5
619.637	83.5
619.844	86.5
620.051	91.5
620.258	84.5
620.466	90.5
620.673	80.5
620.88	85.5
621.087	87.5
621.294	90.5
621.501	70.5
621.708	83.5
621.915	92.5
622.122	82.5
622.329	85.5
622.536	86.5
622.743	73.5
622.95	85.5
623.157	96.5
623.364	79.5
623.571	78.5
623.778	86.5
623.985	87.5
624.192	79.5
624.399	91.5
624.606	94.5
624.812	94.5
625.019	72.5
625.226	97.5
625.433	92.5
625.639	86.5
625.846	81.5
626.053	81.5
626.259	84.5
626.466	82.5
626.673	81.5
626.879	95.5
627.086	77.5
627.293	83.5
627.499	83.5
627.706	79.5
627.912	90.5
628.119	73.5
628.325	90.5
628.532	74.5
628.738	89.5
628.945	85.5
629.151	74.5
629.357	84.5
629.564	79.5
629.77	86.5
629.976	86.5
630.183	83.5
630.389	84.5
630.595	98.5
630.802	90.5
631.008	74.5
631.214	84.5
631.42	82.5
631.627	104.5
631.833	88.5
632.039	101.5
632.245	87.5
632.451	83.5
632.657	78.5
632.863	81.5
633.069	82.5
633.275	73.5
633.481	82.5
633.688	83.5
633.893	91.5
634.099	74.5
634.305	84.5
634.511	69.5
634.717	90.5
634.923	90.5
635.129	85.5
635.335	84.5
635.541	91.5
635.747	92.5
635.952	95.5
636.158	98.5
636.364	232.5
636.57	199.5
636.775	113.5
636.981	85.5
637.187	66.5
637.392	79.5
637.598	81.5
637.804	86.5
638.009	87.5
638.215	91.5
638.421	80.5
638.626	73.5
638.832	76.5
639.037	78.5
639.243	79.5
639.448	93.5
639.654	83.5
639.859	71.5
640.065	86.5
640.27	76.5
640.475	85.5
640.681	86.5
640.886	91.5
641.091	76.5
641.297	87.5
641.502	76.5
641.707	82.5
641.913	104.5
642.118	78.5
642.323	76.5
642.528	78.5
642.733	99.5
642.939	90.5
643.144	87.5
643.349	75.5
643.554	81.5
643.759	75.5
643.964	74.5
644.169	104.5
644.374	79.5
644.579	91.5
644.784	95.5
644.989	84.5
645.194	80.5
645.399	97.5
645.604	92.5
645.809	90.5
646.014	73.5
646.219	86.5
646.423	90.5
646.628	71.5
646.833	77.5
647.038	87.5
647.243	90.5
647.447	94.5
647.652	81.5
647.857	83.5
648.062	87.5
648.266	81.5
648.471	80.5
648.676	83.5
648.88	91.5
649.085	89.5
649.289	84.5
649.494	105.5
649.698	136.5
649.903	96.5
650.107	104.5
650.312	76.5
650.516	86.5
650.721	79.5
650.925	75.5
651.13	78.5
651.334	94.5
651.539	83.5
651.743	67.5
651.947	81.5
652.152	78.5
652.356	87.5
652.56	87.5
652.764	81.5
652.969	96.5
653.173	87.5
653.377	81.5
653.581	86.5
653.785	87.5
653.99	84.5
654.194	85.5
654.398	78.5
654.602	85.5
654.806	79.5
655.01	111.5
655.214	75.5
655.418	103.5
655.622	66.5
655.826	84.5
656.03	81.5
656.234	99.5
656.438	87.5
656.642	87.5
656.846	78.5
657.049	88.5
657.253	75.5
657.457	82.5
657.661	87.5
657.865	71.5
658.068	80.5
658.272	74.5
658.476	73.5
658.68	67.5
658.883	75.5
659.087	84.5
659.291	78.5
659.494	92.5
659.698	84.5
659.901	81.5
660.105	75.5
660.309	86.5
660.512	75.5
660.716	84.5
660.919	87.5
661.123	76.5
661.326	87.5
661.53	88.5
661.733	86.5
661.936	88.5
662.14	84.5
662.343	90.5
662.546	75.5
662.75	88.5
662.953	81.5
663.156	90.5
663.36	78.5
663.563	78.5
663.766	77.5
663.969	81.5
664.173	81.5
664.376	78.5
664.579	75.5
664.782	87.5
664.985	78.5
665.188	79.5
665.391	68.5
665.594	83.5
665.797	87.5
666	79.5
666.203	90.5
666.406	76.5
666.609	79.5
666.812	72.5
667.015	76.5
667.218	82.5
667.421	69.5
667.624	82.5
667.827	85.5
668.03	81.5
668.232	91.5
668.435	78.5
668.638	78.5
668.841	75.5
669.043	78.5
669.246	79.5
669.449	75.5
669.651	84.5
669.854	89.5
670.057	84.5
670.259	82.5
670.462	82.5
670.665	83.5
670.867	74.5
671.07	78.5
671.272	86.5
671.475	79.5
671.677	89.5
671.88	82.5
672.082	62.5
672.284	76.5
672.487	68.5
672.689	74.5
672.892	82.5
