Data from Circ_2001_H10_HRD10591_00094.txt Node
Date: Wed Jan 03 10:45:57 EST 2024
User: Yrep
Spectrometer: HR+D1059
Trigger mode: 1
Integration Time (sec): 1.000000E-1
Scans to average: 1
Electric dark correction enabled: true
Nonlinearity correction enabled: false
Boxcar width: 0
XAxis mode: Wavelengths
Number of Pixels in Spectrum: 2048
>>>>>Begin Spectral Data<<<<<
223.165	-29.69
223.4	-29.69
223.635	-29.69
223.869	-22.69
224.104	-12.69
224.338	-22.69
224.573	-14.69
224.808	-5.69
225.042	-8.69
225.277	-1.69
225.511	7.31
225.746	5.31
225.98	10.31
226.215	9.31
226.449	4.31
226.683	35.31
226.918	24.31
227.152	22.31
227.387	38.31
227.621	46.31
227.856	43.31
228.09	48.31
228.324	43.31
228.559	61.31
228.793	73.31
229.027	56.31
229.262	54.31
229.496	82.31
229.73	96.31
229.964	86.31
230.199	87.31
230.433	64.31
230.667	90.31
230.901	84.31
231.136	81.31
231.37	66.31
231.604	77.31
231.838	81.31
232.072	72.31
232.306	81.31
232.541	96.31
232.775	104.31
233.009	84.31
233.243	84.31
233.477	64.31
233.711	75.31
233.945	81.31
234.179	77.31
234.413	85.31
234.647	72.31
234.881	79.31
235.115	71.31
235.349	69.31
235.583	85.31
235.817	82.31
236.051	73.31
236.285	69.31
236.519	71.31
236.753	86.31
236.987	89.31
237.221	85.31
237.455	87.31
237.689	67.31
237.922	73.31
238.156	71.31
238.39	80.31
238.624	77.31
238.858	80.31
239.091	70.31
239.325	76.31
239.559	81.31
239.793	73.31
240.027	84.31
240.26	90.31
240.494	93.31
240.728	61.31
240.961	74.31
241.195	74.31
241.429	75.31
241.662	81.31
241.896	79.31
242.13	65.31
242.363	65.31
242.597	81.31
242.83	71.31
243.064	77.31
243.298	76.31
243.531	83.31
243.765	78.31
243.998	71.31
244.232	75.31
244.465	88.31
244.699	83.31
244.932	68.31
245.166	78.31
245.399	91.31
245.633	69.31
245.866	80.31
246.099	70.31
246.333	78.31
246.566	71.31
246.8	86.31
247.033	71.31
247.266	75.31
247.5	80.31
247.733	83.31
247.966	68.31
248.2	62.31
248.433	73.31
248.666	79.31
248.899	89.31
249.133	89.31
249.366	85.31
249.599	89.31
249.832	71.31
250.066	84.31
250.299	80.31
250.532	87.31
250.765	82.31
250.998	83.31
251.231	79.31
251.465	78.31
251.698	79.31
251.931	94.31
252.164	65.31
252.397	76.31
252.63	80.31
252.863	71.31
253.096	73.31
253.329	86.31
253.562	82.31
253.795	76.31
254.028	81.31
254.261	63.31
254.494	90.31
254.727	71.31
254.96	86.31
255.193	75.31
255.426	94.31
255.659	70.31
255.892	83.31
256.124	86.31
256.357	75.31
256.59	63.31
256.823	85.31
257.056	91.31
257.289	96.31
257.521	85.31
257.754	77.31
257.987	74.31
258.22	81.31
258.452	85.31
258.685	93.31
258.918	95.31
259.151	73.31
259.383	81.31
259.616	75.31
259.849	82.31
260.081	69.31
260.314	84.31
260.547	73.31
260.779	89.31
261.012	105.31
261.244	97.31
261.477	73.31
261.71	100.31
261.942	117.31
262.175	139.31
262.407	90.31
262.64	78.31
262.872	93.31
263.105	88.31
263.337	84.31
263.57	56.31
263.802	71.31
264.035	86.31
264.267	81.31
264.499	78.31
264.732	82.31
264.964	76.31
265.197	76.31
265.429	89.31
265.661	85.31
265.894	82.31
266.126	80.31
266.358	70.31
266.591	88.31
266.823	81.31
267.055	70.31
267.287	85.31
267.52	73.31
267.752	76.31
267.984	77.31
268.216	73.31
268.448	64.31
268.681	89.31
268.913	92.31
269.145	86.31
269.377	94.31
269.609	96.31
269.841	78.31
270.073	82.31
270.306	89.31
270.538	79.31
270.77	91.31
271.002	97.31
271.234	90.31
271.466	90.31
271.698	83.31
271.93	87.31
272.162	85.31
272.394	85.31
272.626	88.31
272.858	84.31
273.09	99.31
273.322	82.31
273.553	73.31
273.785	90.31
274.017	87.31
274.249	88.31
274.481	102.31
274.713	82.31
274.945	89.31
275.176	67.31
275.408	95.31
275.64	110.31
275.872	105.31
276.104	85.31
276.335	78.31
276.567	107.31
276.799	116.31
277.031	156.31
277.262	161.31
277.494	99.31
277.726	100.31
277.957	101.31
278.189	85.31
278.421	99.31
278.652	100.31
278.884	87.31
279.115	91.31
279.347	78.31
279.579	103.31
279.81	101.31
280.042	164.31
280.273	194.31
280.505	155.31
280.736	97.31
280.968	86.31
281.199	93.31
281.431	92.31
281.662	73.31
281.894	84.31
282.125	99.31
282.356	121.31
282.588	143.31
282.819	105.31
283.051	89.31
283.282	75.31
283.513	93.31
283.745	79.31
283.976	82.31
284.207	80.31
284.439	93.31
284.67	85.31
284.901	85.31
285.132	83.31
285.364	80.31
285.595	82.31
285.826	74.31
286.057	94.31
286.288	81.31
286.52	83.31
286.751	72.31
286.982	85.31
287.213	77.31
287.444	87.31
287.675	90.31
287.906	91.31
288.138	86.31
288.369	81.31
288.6	81.31
288.831	81.31
289.062	87.31
289.293	96.31
289.524	88.31
289.755	92.31
289.986	91.31
290.217	97.31
290.448	92.31
290.679	93.31
290.91	86.31
291.141	89.31
291.371	101.31
291.602	102.31
291.833	82.31
292.064	91.31
292.295	86.31
292.526	82.31
292.757	89.31
292.987	90.31
293.218	91.31
293.449	88.31
293.68	95.31
293.91	82.31
294.141	83.31
294.372	97.31
294.603	93.31
294.833	80.31
295.064	104.31
295.295	95.31
295.525	102.31
295.756	104.31
295.987	113.31
296.217	139.31
296.448	129.31
296.679	84.31
296.909	92.31
297.14	94.31
297.37	89.31
297.601	91.31
297.831	88.31
298.062	85.31
298.292	96.31
298.523	96.31
298.753	91.31
298.984	95.31
299.214	91.31
299.445	99.31
299.675	93.31
299.905	105.31
300.136	87.31
300.366	87.31
300.597	89.31
300.827	99.31
301.057	88.31
301.288	104.31
301.518	95.31
301.748	99.31
301.979	94.31
302.209	92.31
302.439	99.31
302.669	100.31
302.9	97.31
303.13	84.31
303.36	114.31
303.59	125.31
303.82	112.31
304.051	105.31
304.281	83.31
304.511	83.31
304.741	93.31
304.971	93.31
305.201	81.31
305.431	87.31
305.661	100.31
305.891	90.31
306.121	95.31
306.352	111.31
306.582	97.31
306.812	97.31
307.042	117.31
307.272	123.31
307.502	154.31
307.731	160.31
307.961	126.31
308.191	82.31
308.421	106.31
308.651	83.31
308.881	99.31
309.111	88.31
309.341	78.31
309.571	90.31
309.8	98.31
310.03	93.31
310.26	102.31
310.49	94.31
310.72	106.31
310.949	107.31
311.179	95.31
311.409	91.31
311.639	105.31
311.868	106.31
312.098	100.31
312.328	102.31
312.557	104.31
312.787	118.31
313.017	91.31
313.246	86.31
313.476	98.31
313.706	94.31
313.935	86.31
314.165	96.31
314.394	107.31
314.624	94.31
314.853	98.31
315.083	93.31
315.312	81.31
315.542	85.31
315.771	98.31
316.001	78.31
316.23	82.31
316.46	86.31
316.689	90.31
316.919	87.31
317.148	99.31
317.377	87.31
317.607	96.31
317.836	79.31
318.065	89.31
318.295	82.31
318.524	109.31
318.753	85.31
318.983	94.31
319.212	90.31
319.441	98.31
319.67	102.31
319.9	96.31
320.129	97.31
320.358	91.31
320.587	97.31
320.816	94.31
321.046	101.31
321.275	90.31
321.504	99.31
321.733	101.31
321.962	96.31
322.191	111.31
322.42	96.31
322.649	113.31
322.878	108.31
323.108	110.31
323.337	145.31
323.566	147.31
323.795	189.31
324.024	245.31
324.253	459.31
324.482	952.31
324.71	2001.31
324.939	2638.31
325.168	963.31
325.397	265.31
325.626	162.31
325.855	132.31
326.084	125.31
326.313	138.31
326.542	157.31
326.77	241.31
326.999	520.31
327.228	1101.31
327.457	2018.31
327.686	1570.31
327.914	491.31
328.143	424.31
328.372	534.31
328.6	297.31
328.829	161.31
329.058	165.31
329.287	170.31
329.515	149.31
329.744	233.31
329.972	399.31
330.201	759.31
330.43	1079.31
330.658	522.31
330.887	226.31
331.115	163.31
331.344	110.31
331.572	110.31
331.801	100.31
332.03	108.31
332.258	91.31
332.486	98.31
332.715	102.31
332.943	103.31
333.172	94.31
333.4	128.31
333.629	139.31
333.857	202.31
334.085	352.31
334.314	715.31
334.542	1375.31
334.771	1299.31
334.999	361.31
335.227	153.31
335.455	109.31
335.684	106.31
335.912	98.31
336.14	105.31
336.369	97.31
336.597	96.31
336.825	115.31
337.053	96.31
337.281	97.31
337.51	98.31
337.738	95.31
337.966	101.31
338.194	97.31
338.422	103.31
338.65	77.31
338.878	85.31
339.106	75.31
339.334	88.31
339.562	83.31
339.79	92.31
340.018	98.31
340.246	94.31
340.474	93.31
340.702	97.31
340.93	88.31
341.158	111.31
341.386	93.31
341.614	93.31
341.842	88.31
342.07	89.31
342.298	93.31
342.526	83.31
342.754	86.31
342.981	82.31
343.209	89.31
343.437	91.31
343.665	95.31
343.893	88.31
344.12	86.31
344.348	81.31
344.576	96.31
344.804	90.31
345.031	103.31
345.259	98.31
345.487	94.31
345.714	98.31
345.942	95.31
346.17	82.31
346.397	89.31
346.625	89.31
346.853	80.31
347.08	82.31
347.308	99.31
347.535	104.31
347.763	97.31
347.99	73.31
348.218	98.31
348.445	105.31
348.673	103.31
348.9	81.31
349.128	97.31
349.355	91.31
349.583	97.31
349.81	101.31
350.037	86.31
350.265	90.31
350.492	99.31
350.72	101.31
350.947	95.31
351.174	107.31
351.402	114.31
351.629	108.31
351.856	109.31
352.083	115.31
352.311	102.31
352.538	100.31
352.765	103.31
352.992	110.31
353.22	104.31
353.447	102.31
353.674	102.31
353.901	96.31
354.128	84.31
354.355	100.31
354.583	91.31
354.81	94.31
355.037	103.31
355.264	97.31
355.491	84.31
355.718	85.31
355.945	86.31
356.172	79.31
356.399	87.31
356.626	95.31
356.853	99.31
357.08	93.31
357.307	97.31
357.534	83.31
357.761	81.31
357.988	91.31
358.215	87.31
358.441	86.31
358.668	79.31
358.895	86.31
359.122	90.31
359.349	72.31
359.576	98.31
359.802	106.31
360.029	124.31
360.256	121.31
360.483	100.31
360.709	71.31
360.936	97.31
361.163	94.31
361.39	99.31
361.616	110.31
361.843	102.31
362.07	95.31
362.296	94.31
362.523	89.31
362.749	85.31
362.976	94.31
363.203	98.31
363.429	90.31
363.656	89.31
363.882	98.31
364.109	87.31
364.335	97.31
364.562	100.31
364.788	104.31
365.015	93.31
365.241	103.31
365.468	105.31
365.694	108.31
365.92	96.31
366.147	89.31
366.373	89.31
366.599	86.31
366.826	75.31
367.052	96.31
367.278	91.31
367.505	90.31
367.731	96.31
367.957	90.31
368.184	83.31
368.41	102.31
368.636	103.31
368.862	120.31
369.089	117.31
369.315	100.31
369.541	102.31
369.767	77.31
369.993	80.31
370.219	88.31
370.445	88.31
370.672	73.31
370.898	96.31
371.124	78.31
371.35	88.31
371.576	102.31
371.802	88.31
372.028	85.31
372.254	90.31
372.48	89.31
372.706	96.31
372.932	75.31
373.158	87.31
373.384	82.31
373.61	74.31
373.835	85.31
374.061	92.31
374.287	79.31
374.513	101.31
374.739	86.31
374.965	86.31
375.191	94.31
375.416	82.31
375.642	83.31
375.868	86.31
376.094	81.31
376.319	80.31
376.545	95.31
376.771	90.31
376.997	73.31
377.222	84.31
377.448	99.31
377.674	73.31
377.899	91.31
378.125	88.31
378.35	76.31
378.576	96.31
378.802	81.31
379.027	88.31
379.253	104.31
379.478	93.31
379.704	85.31
379.929	92.31
380.155	84.31
380.38	84.31
380.606	103.31
380.831	88.31
381.057	100.31
381.282	89.31
381.507	91.31
381.733	87.31
381.958	96.31
382.184	106.31
382.409	96.31
382.634	104.31
382.86	86.31
383.085	93.31
383.31	100.31
383.535	94.31
383.761	86.31
383.986	100.31
384.211	95.31
384.436	78.31
384.662	95.31
384.887	87.31
385.112	98.31
385.337	100.31
385.562	95.31
385.787	93.31
386.013	106.31
386.238	101.31
386.463	91.31
386.688	100.31
386.913	93.31
387.138	105.31
387.363	101.31
387.588	95.31
387.813	98.31
388.038	97.31
388.263	104.31
388.488	99.31
388.713	83.31
388.938	89.31
389.163	94.31
389.387	99.31
389.612	101.31
389.837	99.31
390.062	81.31
390.287	96.31
390.512	74.31
390.736	67.31
390.961	81.31
391.186	98.31
391.411	90.31
391.636	83.31
391.86	98.31
392.085	93.31
392.31	87.31
392.534	91.31
392.759	82.31
392.984	73.31
393.208	77.31
393.433	97.31
393.658	75.31
393.882	86.31
394.107	84.31
394.331	81.31
394.556	87.31
394.78	97.31
395.005	86.31
395.229	77.31
395.454	70.31
395.678	89.31
395.903	91.31
396.127	91.31
396.352	91.31
396.576	83.31
396.801	87.31
397.025	86.31
397.249	82.31
397.474	83.31
397.698	88.31
397.922	75.31
398.147	77.31
398.371	82.31
398.595	68.31
398.82	95.31
399.044	84.31
399.268	88.31
399.492	73.31
399.717	88.31
399.941	90.31
400.165	93.31
400.389	79.31
400.613	96.31
400.837	81.31
401.062	81.31
401.286	93.31
401.51	84.31
401.734	97.31
401.958	90.31
402.182	112.31
402.406	153.31
402.63	136.31
402.854	98.31
403.078	91.31
403.302	91.31
403.526	86.31
403.75	86.31
403.974	94.31
404.198	92.31
404.422	99.31
404.645	92.31
404.869	107.31
405.093	117.31
405.317	124.31
405.541	121.31
405.765	105.31
405.988	111.31
406.212	187.31
406.436	263.31
406.66	169.31
406.883	109.31
407.107	95.31
407.331	92.31
407.555	100.31
407.778	99.31
408.002	86.31
408.226	89.31
408.449	93.31
408.673	93.31
408.896	95.31
409.12	96.31
409.344	81.31
409.567	74.31
409.791	94.31
410.014	94.31
410.238	81.31
410.461	80.31
410.685	85.31
410.908	92.31
411.132	108.31
411.355	95.31
411.578	87.31
411.802	79.31
412.025	89.31
412.249	96.31
412.472	105.31
412.695	125.31
412.919	107.31
413.142	87.31
413.365	86.31
413.589	90.31
413.812	77.31
414.035	99.31
414.258	89.31
414.482	83.31
414.705	89.31
414.928	80.31
415.151	76.31
415.374	82.31
415.597	88.31
415.821	83.31
416.044	85.31
416.267	83.31
416.49	86.31
416.713	79.31
416.936	111.31
417.159	103.31
417.382	83.31
417.605	106.31
417.828	113.31
418.051	106.31
418.274	110.31
418.497	76.31
418.72	71.31
418.943	83.31
419.166	74.31
419.389	73.31
419.611	83.31
419.834	93.31
420.057	82.31
420.28	86.31
420.503	85.31
420.726	86.31
420.948	99.31
421.171	98.31
421.394	98.31
421.617	82.31
421.839	91.31
422.062	80.31
422.285	89.31
422.507	82.31
422.73	83.31
422.953	81.31
423.175	89.31
423.398	89.31
423.621	88.31
423.843	85.31
424.066	80.31
424.288	86.31
424.511	98.31
424.733	99.31
424.956	97.31
425.178	96.31
425.401	103.31
425.623	103.31
425.846	92.31
426.068	89.31
426.291	91.31
426.513	94.31
426.735	88.31
426.958	101.31
427.18	127.31
427.402	163.31
427.625	227.31
427.847	216.31
428.069	217.31
428.292	126.31
428.514	95.31
428.736	80.31
428.958	79.31
429.181	90.31
429.403	88.31
429.625	99.31
429.847	85.31
430.069	94.31
430.292	100.31
430.514	79.31
430.736	79.31
430.958	75.31
431.18	77.31
431.402	75.31
431.624	92.31
431.846	94.31
432.068	95.31
432.29	81.31
432.512	97.31
432.734	73.31
432.956	91.31
433.178	98.31
433.4	106.31
433.622	85.31
433.844	93.31
434.066	85.31
434.287	90.31
434.509	85.31
434.731	93.31
434.953	101.31
435.175	98.31
435.397	92.31
435.618	91.31
435.84	96.31
436.062	146.31
436.284	109.31
436.505	102.31
436.727	105.31
436.949	100.31
437.17	104.31
437.392	88.31
437.614	104.31
437.835	116.31
438.057	147.31
438.278	117.31
438.5	109.31
438.721	133.31
438.943	101.31
439.165	88.31
439.386	77.31
439.608	85.31
439.829	101.31
440.05	137.31
440.272	171.31
440.493	106.31
440.715	83.31
440.936	92.31
441.158	73.31
441.379	78.31
441.6	90.31
441.822	101.31
442.043	99.31
442.264	106.31
442.486	112.31
442.707	96.31
442.928	103.31
443.149	138.31
443.371	151.31
443.592	122.31
443.813	133.31
444.034	120.31
444.255	98.31
444.476	86.31
444.698	79.31
444.919	86.31
445.14	134.31
445.361	125.31
445.582	120.31
445.803	144.31
446.024	158.31
446.245	168.31
446.466	126.31
446.687	82.31
446.908	93.31
447.129	70.31
447.35	91.31
447.571	91.31
447.792	91.31
448.013	108.31
448.234	117.31
448.455	107.31
448.675	125.31
448.896	127.31
449.117	99.31
449.338	102.31
449.559	133.31
449.779	137.31
450	91.31
450.221	79.31
450.442	95.31
450.662	93.31
450.883	121.31
451.104	114.31
451.324	85.31
451.545	95.31
451.766	89.31
451.986	100.31
452.207	93.31
452.428	83.31
452.648	83.31
452.869	110.31
453.089	138.31
453.31	118.31
453.53	96.31
453.751	106.31
453.971	102.31
454.192	117.31
454.412	91.31
454.633	83.31
454.853	95.31
455.073	81.31
455.294	86.31
455.514	98.31
455.734	87.31
455.955	96.31
456.175	87.31
456.395	88.31
456.616	100.31
456.836	90.31
457.056	87.31
457.276	84.31
457.497	85.31
457.717	82.31
457.937	94.31
458.157	100.31
458.377	84.31
458.598	113.31
458.818	173.31
459.038	171.31
459.258	117.31
459.478	96.31
459.698	79.31
459.918	89.31
460.138	93.31
460.358	81.31
460.578	94.31
460.798	98.31
461.018	86.31
461.238	87.31
461.458	75.31
461.678	87.31
461.898	86.31
462.118	90.31
462.338	97.31
462.558	92.31
462.777	80.31
462.997	89.31
463.217	98.31
463.437	84.31
463.657	96.31
463.876	86.31
464.096	99.31
464.316	90.31
464.536	99.31
464.755	98.31
464.975	112.31
465.195	209.31
465.414	185.31
465.634	97.31
465.854	89.31
466.073	90.31
466.293	80.31
466.512	85.31
466.732	86.31
466.951	94.31
467.171	111.31
467.391	104.31
467.61	136.31
467.829	168.31
468.049	463.31
468.268	642.31
468.488	189.31
468.707	95.31
468.927	91.31
469.146	78.31
469.365	86.31
469.585	84.31
469.804	110.31
470.023	110.31
470.243	91.31
470.462	121.31
470.681	122.31
470.901	105.31
471.12	107.31
471.339	101.31
471.558	112.31
471.777	138.31
471.997	268.31
472.216	855.31
472.435	1918.31
472.654	478.31
472.873	129.31
473.092	102.31
473.311	92.31
473.53	95.31
473.749	108.31
473.968	90.31
474.187	122.31
474.406	97.31
474.625	87.31
474.844	81.31
475.063	75.31
475.282	84.31
475.501	90.31
475.72	93.31
475.939	99.31
476.158	90.31
476.377	78.31
476.596	78.31
476.814	104.31
477.033	94.31
477.252	84.31
477.471	87.31
477.69	89.31
477.908	88.31
478.127	83.31
478.346	110.31
478.564	103.31
478.783	108.31
479.002	100.31
479.22	88.31
479.439	108.31
479.658	121.31
479.876	111.31
480.095	111.31
480.313	118.31
480.532	126.31
480.751	239.31
480.969	813.31
481.188	3316.31
481.406	1904.31
481.624	287.31
481.843	125.31
482.061	102.31
482.28	92.31
482.498	94.31
482.717	82.31
482.935	95.31
483.153	93.31
483.372	79.31
483.59	97.31
483.808	107.31
484.027	93.31
484.245	94.31
484.463	92.31
484.681	96.31
484.9	99.31
485.118	87.31
485.336	109.31
485.554	93.31
485.772	92.31
485.99	110.31
486.209	102.31
486.427	96.31
486.645	127.31
486.863	111.31
487.081	98.31
487.299	91.31
487.517	97.31
487.735	101.31
487.953	94.31
488.171	97.31
488.389	94.31
488.607	105.31
488.825	100.31
489.043	86.31
489.261	78.31
489.479	83.31
489.696	91.31
489.914	78.31
490.132	86.31
490.35	98.31
490.568	86.31
490.786	96.31
491.003	87.31
491.221	89.31
491.439	81.31
491.657	96.31
491.874	91.31
492.092	95.31
492.31	81.31
492.527	107.31
492.745	94.31
492.963	86.31
493.18	87.31
493.398	73.31
493.615	88.31
493.833	103.31
494.05	86.31
494.268	70.31
494.485	81.31
494.703	94.31
494.92	87.31
495.138	87.31
495.355	93.31
495.573	91.31
495.79	90.31
496.008	100.31
496.225	99.31
496.442	97.31
496.66	96.31
496.877	89.31
497.094	92.31
497.312	81.31
497.529	75.31
497.746	96.31
497.963	93.31
498.181	90.31
498.398	104.31
498.615	115.31
498.832	114.31
499.049	91.31
499.267	92.31
499.484	85.31
499.701	98.31
499.918	100.31
500.135	91.31
500.352	94.31
500.569	98.31
500.786	94.31
501.003	81.31
501.22	106.31
501.437	100.31
501.654	89.31
501.871	123.31
502.088	98.31
502.305	100.31
502.522	97.31
502.739	66.31
502.956	79.31
503.172	93.31
503.389	105.31
503.606	117.31
503.823	108.31
504.04	86.31
504.256	80.31
504.473	79.31
504.69	91.31
504.907	90.31
505.123	80.31
505.34	92.31
505.557	90.31
505.773	103.31
505.99	82.31
506.207	83.31
506.423	84.31
506.64	88.31
506.856	84.31
507.073	86.31
507.289	87.31
507.506	99.31
507.722	107.31
507.939	110.31
508.155	109.31
508.372	88.31
508.588	104.31
508.805	93.31
509.021	104.31
509.238	93.31
509.454	104.31
509.67	87.31
509.887	112.31
510.103	134.31
510.319	213.31
510.536	719.31
510.752	2304.31
510.968	657.31
511.184	145.31
511.401	129.31
511.617	98.31
511.833	117.31
512.049	105.31
512.265	88.31
512.481	107.31
512.698	98.31
512.914	89.31
513.13	88.31
513.346	91.31
513.562	85.31
513.778	90.31
513.994	81.31
514.21	107.31
514.426	131.31
514.642	142.31
514.858	130.31
515.074	198.31
515.29	549.31
515.506	1797.31
515.721	685.31
515.937	173.31
516.153	136.31
516.369	95.31
516.585	100.31
516.801	103.31
517.016	103.31
517.232	102.31
517.448	82.31
517.664	103.31
517.879	72.31
518.095	89.31
518.311	101.31
518.527	103.31
518.742	113.31
518.958	99.31
519.173	98.31
519.389	109.31
519.605	81.31
519.82	89.31
520.036	99.31
520.251	118.31
520.467	116.31
520.682	107.31
520.898	120.31
521.113	129.31
521.329	164.31
521.544	231.31
521.76	730.31
521.975	3051.31
522.19	1784.31
522.406	400.31
522.621	146.31
522.836	115.31
523.052	103.31
523.267	97.31
523.482	86.31
523.698	98.31
523.913	130.31
524.128	116.31
524.343	87.31
524.559	92.31
524.774	104.31
524.989	89.31
525.204	111.31
525.419	102.31
525.634	92.31
525.849	71.31
526.064	101.31
526.28	92.31
526.495	98.31
526.71	88.31
526.925	84.31
527.14	80.31
527.355	88.31
527.57	82.31
527.785	92.31
527.999	89.31
528.214	97.31
528.429	88.31
528.644	89.31
528.859	97.31
529.074	108.31
529.289	132.31
529.503	213.31
529.718	106.31
529.933	88.31
530.148	102.31
530.363	83.31
530.577	92.31
530.792	94.31
531.007	89.31
531.221	92.31
531.436	87.31
531.651	82.31
531.865	93.31
532.08	98.31
532.295	95.31
532.509	93.31
532.724	97.31
532.938	86.31
533.153	83.31
533.367	90.31
533.582	95.31
533.796	81.31
534.011	78.31
534.225	73.31
534.44	80.31
534.654	96.31
534.868	97.31
535.083	90.31
535.297	86.31
535.511	99.31
535.726	111.31
535.94	94.31
536.154	103.31
536.369	89.31
536.583	87.31
536.797	88.31
537.011	85.31
537.225	93.31
537.44	93.31
537.654	88.31
537.868	81.31
538.082	91.31
538.296	82.31
538.51	90.31
538.724	98.31
538.938	90.31
539.153	80.31
539.367	110.31
539.581	91.31
539.795	87.31
540.009	92.31
540.222	94.31
540.436	79.31
540.65	96.31
540.864	106.31
541.078	81.31
541.292	101.31
541.506	83.31
541.72	75.31
541.934	89.31
542.147	87.31
542.361	104.31
542.575	73.31
542.789	106.31
543.002	86.31
543.216	77.31
543.43	108.31
543.644	82.31
543.857	84.31
544.071	89.31
544.285	91.31
544.498	95.31
544.712	88.31
544.925	88.31
545.139	81.31
545.352	95.31
545.566	86.31
545.779	82.31
545.993	78.31
546.206	75.31
546.42	85.31
546.633	85.31
546.847	86.31
547.06	86.31
547.274	89.31
547.487	89.31
547.7	90.31
547.914	80.31
548.127	81.31
548.34	94.31
548.554	81.31
548.767	89.31
548.98	95.31
549.193	81.31
549.407	79.31
549.62	100.31
549.833	77.31
550.046	83.31
550.259	89.31
550.473	87.31
550.686	86.31
550.899	82.31
551.112	78.31
551.325	84.31
551.538	97.31
551.751	93.31
551.964	94.31
552.177	86.31
552.39	81.31
552.603	82.31
552.816	77.31
553.029	86.31
553.242	81.31
553.455	84.31
553.667	102.31
553.88	100.31
554.093	103.31
554.306	103.31
554.519	95.31
554.732	83.31
554.944	90.31
555.157	74.31
555.37	93.31
555.583	102.31
555.795	107.31
556.008	99.31
556.221	73.31
556.433	79.31
556.646	95.31
556.859	91.31
557.071	89.31
557.284	84.31
557.496	78.31
557.709	84.31
557.921	74.31
558.134	92.31
558.346	87.31
558.559	81.31
558.771	79.31
558.984	87.31
559.196	104.31
559.409	91.31
559.621	67.31
559.833	94.31
560.046	99.31
560.258	93.31
560.47	127.31
560.683	92.31
560.895	91.31
561.107	82.31
561.32	90.31
561.532	88.31
561.744	81.31
561.956	89.31
562.168	88.31
562.381	89.31
562.593	86.31
562.805	99.31
563.017	89.31
563.229	88.31
563.441	95.31
563.653	77.31
563.865	84.31
564.077	82.31
564.289	84.31
564.501	79.31
564.713	85.31
564.925	90.31
565.137	107.31
565.349	72.31
565.561	71.31
565.773	88.31
565.985	72.31
566.197	75.31
566.408	84.31
566.62	85.31
566.832	78.31
567.044	81.31
567.255	86.31
567.467	80.31
567.679	80.31
567.891	89.31
568.102	86.31
568.314	76.31
568.526	83.31
568.737	89.31
568.949	94.31
569.161	94.31
569.372	83.31
569.584	84.31
569.795	98.31
570.007	113.31
570.218	213.31
570.43	112.31
570.641	91.31
570.853	97.31
571.064	90.31
571.276	69.31
571.487	78.31
571.698	88.31
571.91	88.31
572.121	78.31
572.333	82.31
572.544	89.31
572.755	99.31
572.966	78.31
573.178	82.31
573.389	104.31
573.6	94.31
573.811	97.31
574.023	96.31
574.234	79.31
574.445	90.31
574.656	91.31
574.867	90.31
575.078	85.31
575.289	101.31
575.501	98.31
575.712	75.31
575.923	91.31
576.134	88.31
576.345	94.31
576.556	94.31
576.767	87.31
576.978	89.31
577.188	87.31
577.399	85.31
577.61	82.31
577.821	93.31
578.032	116.31
578.243	256.31
578.454	689.31
578.665	199.31
578.875	100.31
579.086	85.31
579.297	83.31
579.508	81.31
579.718	96.31
579.929	97.31
580.14	87.31
580.35	69.31
580.561	87.31
580.772	91.31
580.982	82.31
581.193	85.31
581.403	93.31
581.614	78.31
581.825	77.31
582.035	90.31
582.246	86.31
582.456	76.31
582.667	93.31
582.877	85.31
583.087	91.31
583.298	80.31
583.508	79.31
583.719	74.31
583.929	82.31
584.139	82.31
584.35	82.31
584.56	87.31
584.77	88.31
584.981	95.31
585.191	90.31
585.401	95.31
585.611	92.31
585.821	98.31
586.032	78.31
586.242	78.31
586.452	82.31
586.662	107.31
586.872	84.31
587.082	76.31
587.292	75.31
587.502	88.31
587.713	72.31
587.923	81.31
588.133	74.31
588.343	85.31
588.553	83.31
588.762	82.31
588.972	82.31
589.182	109.31
589.392	91.31
589.602	83.31
589.812	97.31
590.022	78.31
590.232	77.31
590.441	75.31
590.651	81.31
590.861	73.31
591.071	77.31
591.281	70.31
591.49	86.31
591.7	71.31
591.91	81.31
592.119	87.31
592.329	94.31
592.539	82.31
592.748	84.31
592.958	70.31
593.167	77.31
593.377	93.31
593.587	88.31
593.796	93.31
594.006	78.31
594.215	88.31
594.424	72.31
594.634	76.31
594.843	84.31
595.053	85.31
595.262	85.31
595.472	86.31
595.681	82.31
595.89	77.31
596.1	88.31
596.309	77.31
596.518	80.31
596.727	83.31
596.937	91.31
597.146	78.31
597.355	74.31
597.564	79.31
597.774	75.31
597.983	84.31
598.192	87.31
598.401	70.31
598.61	88.31
598.819	75.31
599.028	74.31
599.237	73.31
599.446	88.31
599.655	79.31
599.864	81.31
600.073	77.31
600.282	94.31
600.491	88.31
600.7	83.31
600.909	83.31
601.118	95.31
601.327	86.31
601.536	80.31
601.745	81.31
601.953	111.31
602.162	90.31
602.371	82.31
602.58	72.31
602.789	80.31
602.997	90.31
603.206	78.31
603.415	85.31
603.623	95.31
603.832	82.31
604.041	74.31
604.249	96.31
604.458	76.31
604.666	83.31
604.875	79.31
605.084	90.31
605.292	81.31
605.501	73.31
605.709	79.31
605.918	84.31
606.126	79.31
606.334	95.31
606.543	89.31
606.751	83.31
606.96	93.31
607.168	81.31
607.376	93.31
607.585	83.31
607.793	85.31
608.001	73.31
608.21	82.31
608.418	78.31
608.626	81.31
608.834	84.31
609.043	94.31
609.251	80.31
609.459	80.31
609.667	83.31
609.875	65.31
610.083	67.31
610.291	83.31
610.499	96.31
610.707	75.31
610.916	85.31
611.124	79.31
611.332	94.31
611.54	82.31
611.748	86.31
611.955	83.31
612.163	87.31
612.371	104.31
612.579	89.31
612.787	89.31
612.995	89.31
613.203	84.31
613.411	77.31
613.618	93.31
613.826	85.31
614.034	88.31
614.242	93.31
614.449	86.31
614.657	84.31
614.865	89.31
615.072	92.31
615.28	83.31
615.488	77.31
615.695	82.31
615.903	85.31
616.111	99.31
616.318	95.31
616.526	89.31
616.733	99.31
616.941	93.31
617.148	90.31
617.356	75.31
617.563	79.31
617.771	84.31
617.978	73.31
618.185	81.31
618.393	96.31
618.6	80.31
618.807	73.31
619.015	87.31
619.222	87.31
619.429	83.31
619.637	88.31
619.844	76.31
620.051	83.31
620.258	90.31
620.466	82.31
620.673	89.31
620.88	89.31
621.087	91.31
621.294	81.31
621.501	75.31
621.708	82.31
621.915	83.31
622.122	73.31
622.329	65.31
622.536	88.31
622.743	87.31
622.95	94.31
623.157	91.31
623.364	78.31
623.571	93.31
623.778	88.31
623.985	97.31
624.192	86.31
624.399	66.31
624.606	79.31
624.812	95.31
625.019	82.31
625.226	91.31
625.433	102.31
625.639	82.31
625.846	75.31
626.053	89.31
626.259	98.31
626.466	77.31
626.673	86.31
626.879	81.31
627.086	77.31
627.293	77.31
627.499	83.31
627.706	86.31
627.912	73.31
628.119	87.31
628.325	74.31
628.532	82.31
628.738	72.31
628.945	77.31
629.151	92.31
629.357	77.31
629.564	81.31
629.77	67.31
629.976	74.31
630.183	73.31
630.389	98.31
630.595	85.31
630.802	85.31
631.008	92.31
631.214	88.31
631.42	91.31
631.627	94.31
631.833	87.31
632.039	76.31
632.245	93.31
632.451	87.31
632.657	73.31
632.863	82.31
633.069	81.31
633.275	80.31
633.481	94.31
633.688	77.31
633.893	68.31
634.099	74.31
634.305	81.31
634.511	85.31
634.717	86.31
634.923	70.31
635.129	82.31
635.335	85.31
635.541	76.31
635.747	84.31
635.952	102.31
636.158	125.31
636.364	291.31
636.57	253.31
636.775	111.31
636.981	101.31
637.187	76.31
637.392	84.31
637.598	85.31
637.804	86.31
638.009	72.31
638.215	83.31
638.421	91.31
638.626	84.31
638.832	79.31
639.037	95.31
639.243	75.31
639.448	83.31
639.654	88.31
639.859	86.31
640.065	84.31
640.27	73.31
640.475	72.31
640.681	89.31
640.886	78.31
641.091	82.31
641.297	95.31
641.502	83.31
641.707	91.31
641.913	75.31
642.118	75.31
642.323	84.31
642.528	83.31
642.733	86.31
642.939	92.31
643.144	91.31
643.349	82.31
643.554	89.31
643.759	86.31
643.964	73.31
644.169	79.31
644.374	86.31
644.579	87.31
644.784	82.31
644.989	92.31
645.194	77.31
645.399	83.31
645.604	86.31
645.809	73.31
646.014	73.31
646.219	78.31
646.423	71.31
646.628	76.31
646.833	93.31
647.038	89.31
647.243	91.31
647.447	81.31
647.652	67.31
647.857	83.31
648.062	95.31
648.266	79.31
648.471	90.31
648.676	92.31
648.88	88.31
649.085	101.31
649.289	96.31
649.494	98.31
649.698	128.31
649.903	106.31
650.107	93.31
650.312	87.31
650.516	88.31
650.721	79.31
650.925	74.31
651.13	81.31
651.334	81.31
651.539	73.31
651.743	83.31
651.947	76.31
652.152	93.31
652.356	76.31
652.56	86.31
652.764	91.31
652.969	83.31
653.173	81.31
653.377	79.31
653.581	85.31
653.785	80.31
653.99	79.31
654.194	83.31
654.398	93.31
654.602	94.31
654.806	86.31
655.01	115.31
655.214	100.31
655.418	73.31
655.622	87.31
655.826	82.31
656.03	74.31
656.234	100.31
656.438	94.31
656.642	91.31
656.846	80.31
657.049	91.31
657.253	91.31
657.457	82.31
657.661	79.31
657.865	71.31
658.068	79.31
658.272	66.31
658.476	95.31
658.68	79.31
658.883	83.31
659.087	73.31
659.291	66.31
659.494	78.31
659.698	85.31
659.901	75.31
660.105	86.31
660.309	81.31
660.512	79.31
660.716	89.31
660.919	80.31
661.123	111.31
661.326	78.31
661.53	66.31
661.733	89.31
661.936	78.31
662.14	85.31
662.343	77.31
662.546	78.31
662.75	74.31
662.953	95.31
663.156	100.31
663.36	89.31
663.563	87.31
663.766	77.31
663.969	88.31
664.173	82.31
664.376	72.31
664.579	76.31
664.782	76.31
664.985	77.31
665.188	84.31
665.391	82.31
665.594	84.31
665.797	65.31
666	79.31
666.203	89.31
666.406	79.31
666.609	87.31
666.812	88.31
667.015	75.31
667.218	76.31
667.421	83.31
667.624	71.31
667.827	89.31
668.03	83.31
668.232	84.31
668.435	81.31
668.638	88.31
668.841	63.31
669.043	71.31
669.246	74.31
669.449	83.31
669.651	74.31
669.854	80.31
670.057	78.31
670.259	87.31
670.462	65.31
670.665	88.31
670.867	70.31
671.07	78.31
671.272	83.31
671.475	75.31
671.677	71.31
671.88	88.31
672.082	82.31
672.284	77.31
672.487	83.31
672.689	78.31
672.892	69.31
