Data from Circ_2001_H10_HRD10591_00057.txt Node
Date: Wed Jan 03 10:45:50 EST 2024
User: Yrep
Spectrometer: HR+D1059
Trigger mode: 1
Integration Time (sec): 1.000000E-1
Scans to average: 1
Electric dark correction enabled: true
Nonlinearity correction enabled: false
Boxcar width: 0
XAxis mode: Wavelengths
Number of Pixels in Spectrum: 2048
>>>>>Begin Spectral Data<<<<<
223.165	-24.06
223.4	-24.06
223.635	-24.06
223.869	-28.06
224.104	-33.06
224.338	-21.06
224.573	-15.06
224.808	-10.06
225.042	0.94
225.277	-6.06
225.511	-7.06
225.746	11.94
225.98	7.94
226.215	16.94
226.449	18.94
226.683	25.94
226.918	19.94
227.152	41.94
227.387	29.94
227.621	25.94
227.856	55.94
228.09	40.94
228.324	48.94
228.559	50.94
228.793	57.94
229.027	52.94
229.262	70.94
229.496	80.94
229.73	90.94
229.964	81.94
230.199	85.94
230.433	57.94
230.667	88.94
230.901	83.94
231.136	82.94
231.37	88.94
231.604	76.94
231.838	79.94
232.072	79.94
232.306	98.94
232.541	85.94
232.775	74.94
233.009	82.94
233.243	77.94
233.477	91.94
233.711	87.94
233.945	69.94
234.179	77.94
234.413	76.94
234.647	83.94
234.881	76.94
235.115	71.94
235.349	88.94
235.583	70.94
235.817	83.94
236.051	79.94
236.285	85.94
236.519	79.94
236.753	85.94
236.987	86.94
237.221	74.94
237.455	93.94
237.689	82.94
237.922	83.94
238.156	70.94
238.39	85.94
238.624	58.94
238.858	85.94
239.091	78.94
239.325	73.94
239.559	61.94
239.793	91.94
240.027	80.94
240.26	65.94
240.494	75.94
240.728	79.94
240.961	76.94
241.195	59.94
241.429	87.94
241.662	88.94
241.896	79.94
242.13	99.94
242.363	69.94
242.597	70.94
242.83	79.94
243.064	85.94
243.298	87.94
243.531	82.94
243.765	71.94
243.998	73.94
244.232	88.94
244.465	74.94
244.699	77.94
244.932	85.94
245.166	80.94
245.399	85.94
245.633	71.94
245.866	80.94
246.099	76.94
246.333	87.94
246.566	68.94
246.8	64.94
247.033	80.94
247.266	68.94
247.5	74.94
247.733	86.94
247.966	72.94
248.2	81.94
248.433	77.94
248.666	72.94
248.899	75.94
249.133	91.94
249.366	115.94
249.599	107.94
249.832	85.94
250.066	81.94
250.299	82.94
250.532	72.94
250.765	90.94
250.998	89.94
251.231	81.94
251.465	75.94
251.698	87.94
251.931	68.94
252.164	70.94
252.397	71.94
252.63	84.94
252.863	83.94
253.096	82.94
253.329	79.94
253.562	79.94
253.795	81.94
254.028	85.94
254.261	92.94
254.494	81.94
254.727	74.94
254.96	79.94
255.193	91.94
255.426	77.94
255.659	94.94
255.892	85.94
256.124	98.94
256.357	79.94
256.59	95.94
256.823	85.94
257.056	95.94
257.289	82.94
257.521	78.94
257.754	86.94
257.987	69.94
258.22	103.94
258.452	78.94
258.685	79.94
258.918	83.94
259.151	79.94
259.383	81.94
259.616	71.94
259.849	73.94
260.081	92.94
260.314	71.94
260.547	95.94
260.779	96.94
261.012	89.94
261.244	96.94
261.477	86.94
261.71	98.94
261.942	116.94
262.175	121.94
262.407	72.94
262.64	71.94
262.872	71.94
263.105	82.94
263.337	73.94
263.57	74.94
263.802	87.94
264.035	73.94
264.267	77.94
264.499	80.94
264.732	80.94
264.964	76.94
265.197	76.94
265.429	81.94
265.661	71.94
265.894	79.94
266.126	76.94
266.358	81.94
266.591	69.94
266.823	86.94
267.055	84.94
267.287	84.94
267.52	79.94
267.752	82.94
267.984	77.94
268.216	75.94
268.448	77.94
268.681	74.94
268.913	78.94
269.145	79.94
269.377	84.94
269.609	84.94
269.841	90.94
270.073	86.94
270.306	86.94
270.538	96.94
270.77	81.94
271.002	81.94
271.234	91.94
271.466	88.94
271.698	73.94
271.93	87.94
272.162	78.94
272.394	87.94
272.626	84.94
272.858	80.94
273.09	85.94
273.322	93.94
273.553	78.94
273.785	90.94
274.017	77.94
274.249	96.94
274.481	83.94
274.713	87.94
274.945	91.94
275.176	81.94
275.408	96.94
275.64	102.94
275.872	112.94
276.104	103.94
276.335	95.94
276.567	84.94
276.799	112.94
277.031	141.94
277.262	149.94
277.494	123.94
277.726	85.94
277.957	75.94
278.189	102.94
278.421	98.94
278.652	100.94
278.884	98.94
279.115	83.94
279.347	99.94
279.579	103.94
279.81	112.94
280.042	150.94
280.273	171.94
280.505	129.94
280.736	90.94
280.968	86.94
281.199	88.94
281.431	90.94
281.662	93.94
281.894	96.94
282.125	111.94
282.356	115.94
282.588	144.94
282.819	115.94
283.051	84.94
283.282	81.94
283.513	86.94
283.745	74.94
283.976	95.94
284.207	79.94
284.439	93.94
284.67	86.94
284.901	96.94
285.132	71.94
285.364	75.94
285.595	85.94
285.826	85.94
286.057	94.94
286.288	79.94
286.52	89.94
286.751	88.94
286.982	87.94
287.213	93.94
287.444	104.94
287.675	78.94
287.906	81.94
288.138	98.94
288.369	93.94
288.6	95.94
288.831	90.94
289.062	90.94
289.293	77.94
289.524	91.94
289.755	86.94
289.986	85.94
290.217	76.94
290.448	72.94
290.679	83.94
290.91	87.94
291.141	93.94
291.371	88.94
291.602	89.94
291.833	92.94
292.064	85.94
292.295	89.94
292.526	87.94
292.757	91.94
292.987	91.94
293.218	86.94
293.449	90.94
293.68	94.94
293.91	94.94
294.141	89.94
294.372	83.94
294.603	87.94
294.833	79.94
295.064	89.94
295.295	103.94
295.525	87.94
295.756	86.94
295.987	136.94
296.217	142.94
296.448	112.94
296.679	98.94
296.909	88.94
297.14	90.94
297.37	76.94
297.601	84.94
297.831	89.94
298.062	99.94
298.292	106.94
298.523	103.94
298.753	99.94
298.984	96.94
299.214	93.94
299.445	100.94
299.675	97.94
299.905	102.94
300.136	97.94
300.366	88.94
300.597	75.94
300.827	90.94
301.057	78.94
301.288	102.94
301.518	87.94
301.748	91.94
301.979	105.94
302.209	104.94
302.439	82.94
302.669	90.94
302.9	85.94
303.13	95.94
303.36	97.94
303.59	106.94
303.82	113.94
304.051	98.94
304.281	84.94
304.511	82.94
304.741	77.94
304.971	89.94
305.201	86.94
305.431	94.94
305.661	85.94
305.891	92.94
306.121	97.94
306.352	100.94
306.582	106.94
306.812	102.94
307.042	104.94
307.272	114.94
307.502	147.94
307.731	134.94
307.961	115.94
308.191	103.94
308.421	83.94
308.651	80.94
308.881	72.94
309.111	95.94
309.341	103.94
309.571	94.94
309.8	103.94
310.03	92.94
310.26	85.94
310.49	98.94
310.72	109.94
310.949	93.94
311.179	104.94
311.409	97.94
311.639	88.94
311.868	111.94
312.098	90.94
312.328	108.94
312.557	101.94
312.787	102.94
313.017	99.94
313.246	80.94
313.476	98.94
313.706	90.94
313.935	104.94
314.165	83.94
314.394	100.94
314.624	88.94
314.853	103.94
315.083	99.94
315.312	83.94
315.542	83.94
315.771	100.94
316.001	94.94
316.23	90.94
316.46	83.94
316.689	103.94
316.919	98.94
317.148	103.94
317.377	97.94
317.607	100.94
317.836	112.94
318.065	92.94
318.295	96.94
318.524	88.94
318.753	93.94
318.983	88.94
319.212	105.94
319.441	108.94
319.67	104.94
319.9	103.94
320.129	85.94
320.358	81.94
320.587	91.94
320.816	95.94
321.046	88.94
321.275	109.94
321.504	92.94
321.733	113.94
321.962	94.94
322.191	102.94
322.42	108.94
322.649	109.94
322.878	120.94
323.108	119.94
323.337	124.94
323.566	143.94
323.795	151.94
324.024	233.94
324.253	461.94
324.482	970.94
324.71	2040.94
324.939	2631.94
325.168	947.94
325.397	259.94
325.626	149.94
325.855	136.94
326.084	127.94
326.313	138.94
326.542	169.94
326.77	263.94
326.999	561.94
327.228	1123.94
327.457	2066.94
327.686	1573.94
327.914	489.94
328.143	385.94
328.372	440.94
328.6	245.94
328.829	147.94
329.058	159.94
329.287	152.94
329.515	147.94
329.744	196.94
329.972	347.94
330.201	658.94
330.43	875.94
330.658	420.94
330.887	203.94
331.115	143.94
331.344	125.94
331.572	107.94
331.801	123.94
332.03	119.94
332.258	99.94
332.486	101.94
332.715	105.94
332.943	97.94
333.172	123.94
333.4	114.94
333.629	156.94
333.857	202.94
334.085	330.94
334.314	627.94
334.542	1156.94
334.771	1020.94
334.999	291.94
335.227	156.94
335.455	128.94
335.684	106.94
335.912	99.94
336.14	111.94
336.369	96.94
336.597	105.94
336.825	105.94
337.053	100.94
337.281	88.94
337.51	94.94
337.738	110.94
337.966	107.94
338.194	104.94
338.422	104.94
338.65	90.94
338.878	75.94
339.106	97.94
339.334	106.94
339.562	81.94
339.79	91.94
340.018	99.94
340.246	101.94
340.474	95.94
340.702	96.94
340.93	85.94
341.158	75.94
341.386	93.94
341.614	93.94
341.842	78.94
342.07	87.94
342.298	78.94
342.526	75.94
342.754	92.94
342.981	85.94
343.209	95.94
343.437	102.94
343.665	87.94
343.893	100.94
344.12	84.94
344.348	86.94
344.576	92.94
344.804	96.94
345.031	91.94
345.259	96.94
345.487	93.94
345.714	95.94
345.942	98.94
346.17	100.94
346.397	104.94
346.625	88.94
346.853	74.94
347.08	76.94
347.308	88.94
347.535	99.94
347.763	107.94
347.99	101.94
348.218	100.94
348.445	94.94
348.673	99.94
348.9	84.94
349.128	103.94
349.355	84.94
349.583	85.94
349.81	94.94
350.037	89.94
350.265	89.94
350.492	96.94
350.72	96.94
350.947	101.94
351.174	103.94
351.402	104.94
351.629	115.94
351.856	114.94
352.083	106.94
352.311	106.94
352.538	112.94
352.765	114.94
352.992	120.94
353.22	107.94
353.447	111.94
353.674	98.94
353.901	103.94
354.128	94.94
354.355	93.94
354.583	101.94
354.81	97.94
355.037	98.94
355.264	104.94
355.491	79.94
355.718	96.94
355.945	92.94
356.172	88.94
356.399	91.94
356.626	93.94
356.853	93.94
357.08	79.94
357.307	89.94
357.534	101.94
357.761	93.94
357.988	90.94
358.215	100.94
358.441	87.94
358.668	92.94
358.895	75.94
359.122	87.94
359.349	83.94
359.576	90.94
359.802	107.94
360.029	128.94
360.256	106.94
360.483	113.94
360.709	87.94
360.936	83.94
361.163	103.94
361.39	95.94
361.616	100.94
361.843	97.94
362.07	99.94
362.296	93.94
362.523	92.94
362.749	96.94
362.976	108.94
363.203	88.94
363.429	89.94
363.656	79.94
363.882	91.94
364.109	86.94
364.335	82.94
364.562	92.94
364.788	83.94
365.015	106.94
365.241	99.94
365.468	117.94
365.694	100.94
365.92	103.94
366.147	99.94
366.373	96.94
366.599	78.94
366.826	92.94
367.052	89.94
367.278	84.94
367.505	91.94
367.731	102.94
367.957	105.94
368.184	82.94
368.41	109.94
368.636	107.94
368.862	120.94
369.089	107.94
369.315	102.94
369.541	89.94
369.767	82.94
369.993	95.94
370.219	81.94
370.445	81.94
370.672	89.94
370.898	84.94
371.124	89.94
371.35	80.94
371.576	101.94
371.802	88.94
372.028	94.94
372.254	74.94
372.48	99.94
372.706	79.94
372.932	79.94
373.158	85.94
373.384	86.94
373.61	92.94
373.835	82.94
374.061	92.94
374.287	96.94
374.513	96.94
374.739	106.94
374.965	92.94
375.191	95.94
375.416	90.94
375.642	80.94
375.868	92.94
376.094	93.94
376.319	84.94
376.545	85.94
376.771	89.94
376.997	96.94
377.222	89.94
377.448	87.94
377.674	90.94
377.899	84.94
378.125	85.94
378.35	92.94
378.576	94.94
378.802	89.94
379.027	90.94
379.253	106.94
379.478	97.94
379.704	91.94
379.929	84.94
380.155	92.94
380.38	89.94
380.606	94.94
380.831	96.94
381.057	95.94
381.282	85.94
381.507	88.94
381.733	101.94
381.958	97.94
382.184	117.94
382.409	92.94
382.634	103.94
382.86	105.94
383.085	99.94
383.31	105.94
383.535	100.94
383.761	89.94
383.986	99.94
384.211	100.94
384.436	100.94
384.662	95.94
384.887	99.94
385.112	111.94
385.337	101.94
385.562	100.94
385.787	99.94
386.013	92.94
386.238	111.94
386.463	97.94
386.688	102.94
386.913	100.94
387.138	99.94
387.363	102.94
387.588	103.94
387.813	98.94
388.038	101.94
388.263	106.94
388.488	110.94
388.713	91.94
388.938	88.94
389.163	72.94
389.387	104.94
389.612	78.94
389.837	87.94
390.062	88.94
390.287	90.94
390.512	104.94
390.736	97.94
390.961	82.94
391.186	83.94
391.411	99.94
391.636	72.94
391.86	96.94
392.085	92.94
392.31	76.94
392.534	85.94
392.759	80.94
392.984	102.94
393.208	87.94
393.433	98.94
393.658	90.94
393.882	90.94
394.107	80.94
394.331	91.94
394.556	92.94
394.78	94.94
395.005	80.94
395.229	82.94
395.454	95.94
395.678	90.94
395.903	90.94
396.127	90.94
396.352	99.94
396.576	89.94
396.801	93.94
397.025	94.94
397.249	75.94
397.474	95.94
397.698	97.94
397.922	93.94
398.147	90.94
398.371	95.94
398.595	87.94
398.82	79.94
399.044	86.94
399.268	83.94
399.492	84.94
399.717	101.94
399.941	88.94
400.165	89.94
400.389	72.94
400.613	87.94
400.837	79.94
401.062	82.94
401.286	79.94
401.51	81.94
401.734	87.94
401.958	100.94
402.182	138.94
402.406	163.94
402.63	124.94
402.854	95.94
403.078	82.94
403.302	76.94
403.526	74.94
403.75	103.94
403.974	101.94
404.198	82.94
404.422	108.94
404.645	75.94
404.869	97.94
405.093	119.94
405.317	130.94
405.541	136.94
405.765	119.94
405.988	124.94
406.212	180.94
406.436	261.94
406.66	175.94
406.883	108.94
407.107	119.94
407.331	97.94
407.555	105.94
407.778	99.94
408.002	89.94
408.226	87.94
408.449	112.94
408.673	77.94
408.896	112.94
409.12	90.94
409.344	91.94
409.567	76.94
409.791	99.94
410.014	95.94
410.238	79.94
410.461	87.94
410.685	88.94
410.908	93.94
411.132	107.94
411.355	100.94
411.578	87.94
411.802	79.94
412.025	83.94
412.249	100.94
412.472	101.94
412.695	118.94
412.919	99.94
413.142	77.94
413.365	91.94
413.589	90.94
413.812	93.94
414.035	89.94
414.258	95.94
414.482	85.94
414.705	100.94
414.928	90.94
415.151	83.94
415.374	90.94
415.597	84.94
415.821	90.94
416.044	86.94
416.267	96.94
416.49	89.94
416.713	88.94
416.936	75.94
417.159	90.94
417.382	96.94
417.605	89.94
417.828	104.94
418.051	109.94
418.274	86.94
418.497	83.94
418.72	86.94
418.943	93.94
419.166	82.94
419.389	90.94
419.611	93.94
419.834	104.94
420.057	93.94
420.28	99.94
420.503	89.94
420.726	95.94
420.948	83.94
421.171	88.94
421.394	101.94
421.617	82.94
421.839	87.94
422.062	97.94
422.285	100.94
422.507	108.94
422.73	95.94
422.953	100.94
423.175	81.94
423.398	85.94
423.621	89.94
423.843	77.94
424.066	87.94
424.288	77.94
424.511	82.94
424.733	100.94
424.956	108.94
425.178	107.94
425.401	94.94
425.623	98.94
425.846	89.94
426.068	97.94
426.291	106.94
426.513	83.94
426.735	84.94
426.958	101.94
427.18	121.94
427.402	180.94
427.625	219.94
427.847	182.94
428.069	198.94
428.292	111.94
428.514	82.94
428.736	91.94
428.958	87.94
429.181	93.94
429.403	103.94
429.625	96.94
429.847	79.94
430.069	100.94
430.292	93.94
430.514	95.94
430.736	78.94
430.958	90.94
431.18	92.94
431.402	89.94
431.624	98.94
431.846	85.94
432.068	90.94
432.29	86.94
432.512	105.94
432.734	76.94
432.956	83.94
433.178	110.94
433.4	91.94
433.622	96.94
433.844	90.94
434.066	89.94
434.287	88.94
434.509	79.94
434.731	72.94
434.953	92.94
435.175	95.94
435.397	87.94
435.618	92.94
435.84	115.94
436.062	124.94
436.284	120.94
436.505	103.94
436.727	85.94
436.949	103.94
437.17	91.94
437.392	91.94
437.614	101.94
437.835	98.94
438.057	133.94
438.278	135.94
438.5	113.94
438.721	138.94
438.943	112.94
439.165	92.94
439.386	109.94
439.608	107.94
439.829	97.94
440.05	156.94
440.272	159.94
440.493	99.94
440.715	85.94
440.936	89.94
441.158	89.94
441.379	89.94
441.6	109.94
441.822	98.94
442.043	103.94
442.264	101.94
442.486	114.94
442.707	101.94
442.928	116.94
443.149	144.94
443.371	147.94
443.592	108.94
443.813	113.94
444.034	99.94
444.255	105.94
444.476	93.94
444.698	95.94
444.919	84.94
445.14	138.94
445.361	128.94
445.582	139.94
445.803	143.94
446.024	146.94
446.245	162.94
446.466	134.94
446.687	91.94
446.908	85.94
447.129	82.94
447.35	87.94
447.571	97.94
447.792	98.94
448.013	98.94
448.234	109.94
448.455	110.94
448.675	114.94
448.896	141.94
449.117	105.94
449.338	101.94
449.559	132.94
449.779	149.94
450	96.94
450.221	93.94
450.442	88.94
450.662	101.94
450.883	108.94
451.104	131.94
451.324	100.94
451.545	77.94
451.766	89.94
451.986	89.94
452.207	95.94
452.428	105.94
452.648	97.94
452.869	101.94
453.089	111.94
453.31	114.94
453.53	83.94
453.751	81.94
453.971	108.94
454.192	120.94
454.412	81.94
454.633	94.94
454.853	93.94
455.073	84.94
455.294	99.94
455.514	100.94
455.734	88.94
455.955	88.94
456.175	77.94
456.395	77.94
456.616	79.94
456.836	86.94
457.056	87.94
457.276	98.94
457.497	90.94
457.717	67.94
457.937	68.94
458.157	71.94
458.377	93.94
458.598	127.94
458.818	161.94
459.038	180.94
459.258	117.94
459.478	95.94
459.698	88.94
459.918	89.94
460.138	92.94
460.358	89.94
460.578	89.94
460.798	101.94
461.018	105.94
461.238	90.94
461.458	88.94
461.678	78.94
461.898	95.94
462.118	93.94
462.338	93.94
462.558	81.94
462.777	84.94
462.997	91.94
463.217	96.94
463.437	83.94
463.657	83.94
463.876	64.94
464.096	92.94
464.316	89.94
464.536	99.94
464.755	101.94
464.975	128.94
465.195	176.94
465.414	200.94
465.634	104.94
465.854	79.94
466.073	93.94
466.293	83.94
466.512	104.94
466.732	91.94
466.951	86.94
467.171	95.94
467.391	100.94
467.61	126.94
467.829	169.94
468.049	383.94
468.268	520.94
468.488	162.94
468.707	107.94
468.927	87.94
469.146	88.94
469.365	96.94
469.585	101.94
469.804	93.94
470.023	106.94
470.243	97.94
470.462	116.94
470.681	130.94
470.901	98.94
471.12	96.94
471.339	92.94
471.558	98.94
471.777	145.94
471.997	243.94
472.216	721.94
472.435	1548.94
472.654	393.94
472.873	129.94
473.092	107.94
473.311	99.94
473.53	84.94
473.749	84.94
473.968	103.94
474.187	115.94
474.406	96.94
474.625	96.94
474.844	90.94
475.063	93.94
475.282	88.94
475.501	87.94
475.72	92.94
475.939	89.94
476.158	100.94
476.377	81.94
476.596	99.94
476.814	97.94
477.033	86.94
477.252	90.94
477.471	89.94
477.69	82.94
477.908	78.94
478.127	98.94
478.346	89.94
478.564	100.94
478.783	105.94
479.002	90.94
479.22	92.94
479.439	112.94
479.658	110.94
479.876	132.94
480.095	115.94
480.313	119.94
480.532	146.94
480.751	213.94
480.969	690.94
481.188	2708.94
481.406	1561.94
481.624	249.94
481.843	92.94
482.061	106.94
482.28	95.94
482.498	94.94
482.717	95.94
482.935	92.94
483.153	88.94
483.372	90.94
483.59	89.94
483.808	84.94
484.027	89.94
484.245	91.94
484.463	97.94
484.681	112.94
484.9	73.94
485.118	90.94
485.336	85.94
485.554	85.94
485.772	98.94
485.99	97.94
486.209	115.94
486.427	108.94
486.645	110.94
486.863	108.94
487.081	95.94
487.299	97.94
487.517	85.94
487.735	88.94
487.953	96.94
488.171	84.94
488.389	93.94
488.607	115.94
488.825	96.94
489.043	81.94
489.261	108.94
489.479	84.94
489.696	71.94
489.914	89.94
490.132	88.94
490.35	101.94
490.568	87.94
490.786	104.94
491.003	74.94
491.221	98.94
491.439	102.94
491.657	83.94
491.874	98.94
492.092	96.94
492.31	92.94
492.527	96.94
492.745	89.94
492.963	86.94
493.18	89.94
493.398	85.94
493.615	81.94
493.833	101.94
494.05	88.94
494.268	91.94
494.485	97.94
494.703	89.94
494.92	86.94
495.138	82.94
495.355	91.94
495.573	93.94
495.79	88.94
496.008	91.94
496.225	90.94
496.442	98.94
496.66	96.94
496.877	78.94
497.094	85.94
497.312	96.94
497.529	85.94
497.746	80.94
497.963	97.94
498.181	93.94
498.398	88.94
498.615	116.94
498.832	102.94
499.049	98.94
499.267	93.94
499.484	90.94
499.701	87.94
499.918	75.94
500.135	92.94
500.352	87.94
500.569	100.94
500.786	93.94
501.003	98.94
501.22	98.94
501.437	90.94
501.654	85.94
501.871	108.94
502.088	99.94
502.305	95.94
502.522	92.94
502.739	79.94
502.956	83.94
503.172	90.94
503.389	84.94
503.606	104.94
503.823	86.94
504.04	100.94
504.256	76.94
504.473	81.94
504.69	93.94
504.907	100.94
505.123	93.94
505.34	91.94
505.557	96.94
505.773	95.94
505.99	89.94
506.207	90.94
506.423	79.94
506.64	93.94
506.856	92.94
507.073	92.94
507.289	96.94
507.506	95.94
507.722	120.94
507.939	109.94
508.155	98.94
508.372	92.94
508.588	90.94
508.805	92.94
509.021	96.94
509.238	94.94
509.454	85.94
509.67	100.94
509.887	100.94
510.103	134.94
510.319	219.94
510.536	708.94
510.752	2281.94
510.968	645.94
511.184	158.94
511.401	113.94
511.617	92.94
511.833	101.94
512.049	107.94
512.265	91.94
512.481	91.94
512.698	92.94
512.914	85.94
513.13	111.94
513.346	81.94
513.562	90.94
513.778	112.94
513.994	109.94
514.21	106.94
514.426	121.94
514.642	140.94
514.858	129.94
515.074	193.94
515.29	514.94
515.506	1694.94
515.721	598.94
515.937	171.94
516.153	115.94
516.369	100.94
516.585	89.94
516.801	95.94
517.016	84.94
517.232	103.94
517.448	87.94
517.664	92.94
517.879	87.94
518.095	91.94
518.311	98.94
518.527	101.94
518.742	96.94
518.958	95.94
519.173	92.94
519.389	97.94
519.605	102.94
519.82	106.94
520.036	105.94
520.251	133.94
520.467	119.94
520.682	99.94
520.898	99.94
521.113	118.94
521.329	145.94
521.544	225.94
521.76	659.94
521.975	2823.94
522.19	1637.94
522.406	367.94
522.621	127.94
522.836	93.94
523.052	93.94
523.267	98.94
523.482	94.94
523.698	102.94
523.913	103.94
524.128	111.94
524.343	94.94
524.559	74.94
524.774	107.94
524.989	97.94
525.204	105.94
525.419	87.94
525.634	100.94
525.849	94.94
526.064	89.94
526.28	109.94
526.495	101.94
526.71	90.94
526.925	90.94
527.14	89.94
527.355	92.94
527.57	96.94
527.785	96.94
527.999	90.94
528.214	90.94
528.429	99.94
528.644	81.94
528.859	92.94
529.074	104.94
529.289	125.94
529.503	189.94
529.718	129.94
529.933	111.94
530.148	85.94
530.363	91.94
530.577	83.94
530.792	76.94
531.007	108.94
531.221	99.94
531.436	98.94
531.651	91.94
531.865	93.94
532.08	91.94
532.295	98.94
532.509	76.94
532.724	91.94
532.938	95.94
533.153	94.94
533.367	98.94
533.582	83.94
533.796	97.94
534.011	79.94
534.225	83.94
534.44	83.94
534.654	89.94
534.868	90.94
535.083	100.94
535.297	114.94
535.511	101.94
535.726	106.94
535.94	80.94
536.154	81.94
536.369	97.94
536.583	92.94
536.797	97.94
537.011	101.94
537.225	87.94
537.44	83.94
537.654	102.94
537.868	93.94
538.082	93.94
538.296	90.94
538.51	70.94
538.724	75.94
538.938	92.94
539.153	104.94
539.367	107.94
539.581	99.94
539.795	83.94
540.009	90.94
540.222	96.94
540.436	91.94
540.65	86.94
540.864	101.94
541.078	93.94
541.292	92.94
541.506	102.94
541.72	78.94
541.934	85.94
542.147	86.94
542.361	99.94
542.575	73.94
542.789	91.94
543.002	83.94
543.216	94.94
543.43	93.94
543.644	93.94
543.857	92.94
544.071	86.94
544.285	88.94
544.498	81.94
544.712	89.94
544.925	68.94
545.139	88.94
545.352	96.94
545.566	86.94
545.779	84.94
545.993	91.94
546.206	83.94
546.42	100.94
546.633	95.94
546.847	85.94
547.06	84.94
547.274	92.94
547.487	95.94
547.7	72.94
547.914	83.94
548.127	78.94
548.34	85.94
548.554	98.94
548.767	90.94
548.98	81.94
549.193	89.94
549.407	85.94
549.62	91.94
549.833	88.94
550.046	69.94
550.259	93.94
550.473	85.94
550.686	75.94
550.899	89.94
551.112	74.94
551.325	83.94
551.538	80.94
551.751	95.94
551.964	93.94
552.177	73.94
552.39	104.94
552.603	89.94
552.816	91.94
553.029	84.94
553.242	96.94
553.455	100.94
553.667	114.94
553.88	118.94
554.093	105.94
554.306	97.94
554.519	101.94
554.732	89.94
554.944	101.94
555.157	92.94
555.37	83.94
555.583	90.94
555.795	90.94
556.008	81.94
556.221	83.94
556.433	97.94
556.646	82.94
556.859	83.94
557.071	85.94
557.284	97.94
557.496	93.94
557.709	82.94
557.921	93.94
558.134	100.94
558.346	87.94
558.559	97.94
558.771	76.94
558.984	82.94
559.196	93.94
559.409	89.94
559.621	81.94
559.833	91.94
560.046	99.94
560.258	83.94
560.47	116.94
560.683	85.94
560.895	93.94
561.107	82.94
561.32	88.94
561.532	90.94
561.744	83.94
561.956	89.94
562.168	103.94
562.381	83.94
562.593	82.94
562.805	91.94
563.017	89.94
563.229	76.94
563.441	84.94
563.653	92.94
563.865	86.94
564.077	85.94
564.289	94.94
564.501	86.94
564.713	92.94
564.925	91.94
565.137	98.94
565.349	96.94
565.561	89.94
565.773	84.94
565.985	79.94
566.197	79.94
566.408	79.94
566.62	101.94
566.832	91.94
567.044	87.94
567.255	90.94
567.467	92.94
567.679	75.94
567.891	72.94
568.102	90.94
568.314	92.94
568.526	87.94
568.737	98.94
568.949	93.94
569.161	85.94
569.372	84.94
569.584	91.94
569.795	90.94
570.007	107.94
570.218	212.94
570.43	116.94
570.641	88.94
570.853	83.94
571.064	89.94
571.276	84.94
571.487	90.94
571.698	90.94
571.91	92.94
572.121	83.94
572.333	72.94
572.544	88.94
572.755	85.94
572.966	83.94
573.178	90.94
573.389	91.94
573.6	83.94
573.811	99.94
574.023	92.94
574.234	104.94
574.445	94.94
574.656	86.94
574.867	87.94
575.078	98.94
575.289	87.94
575.501	89.94
575.712	84.94
575.923	81.94
576.134	92.94
576.345	97.94
576.556	86.94
576.767	95.94
576.978	99.94
577.188	76.94
577.399	87.94
577.61	96.94
577.821	111.94
578.032	117.94
578.243	239.94
578.454	719.94
578.665	218.94
578.875	104.94
579.086	84.94
579.297	90.94
579.508	89.94
579.718	82.94
579.929	97.94
580.14	94.94
580.35	86.94
580.561	78.94
580.772	83.94
580.982	89.94
581.193	86.94
581.403	92.94
581.614	88.94
581.825	99.94
582.035	89.94
582.246	92.94
582.456	89.94
582.667	93.94
582.877	84.94
583.087	92.94
583.298	88.94
583.508	85.94
583.719	90.94
583.929	83.94
584.139	93.94
584.35	83.94
584.56	91.94
584.77	82.94
584.981	90.94
585.191	86.94
585.401	85.94
585.611	104.94
585.821	99.94
586.032	88.94
586.242	87.94
586.452	97.94
586.662	96.94
586.872	88.94
587.082	96.94
587.292	84.94
587.502	89.94
587.713	79.94
587.923	85.94
588.133	73.94
588.343	99.94
588.553	80.94
588.762	97.94
588.972	98.94
589.182	118.94
589.392	101.94
589.602	92.94
589.812	119.94
590.022	98.94
590.232	74.94
590.441	83.94
590.651	82.94
590.861	79.94
591.071	100.94
591.281	93.94
591.49	77.94
591.7	74.94
591.91	97.94
592.119	86.94
592.329	76.94
592.539	98.94
592.748	86.94
592.958	96.94
593.167	72.94
593.377	78.94
593.587	84.94
593.796	89.94
594.006	85.94
594.215	84.94
594.424	89.94
594.634	96.94
594.843	88.94
595.053	87.94
595.262	88.94
595.472	76.94
595.681	79.94
595.89	87.94
596.1	81.94
596.309	79.94
596.518	96.94
596.727	95.94
596.937	80.94
597.146	97.94
597.355	80.94
597.564	89.94
597.774	87.94
597.983	89.94
598.192	84.94
598.401	95.94
598.61	76.94
598.819	83.94
599.028	94.94
599.237	66.94
599.446	81.94
599.655	92.94
599.864	83.94
600.073	82.94
600.282	101.94
600.491	85.94
600.7	83.94
600.909	69.94
601.118	94.94
601.327	109.94
601.536	90.94
601.745	79.94
601.953	70.94
602.162	80.94
602.371	87.94
602.58	91.94
602.789	86.94
602.997	75.94
603.206	92.94
603.415	85.94
603.623	97.94
603.832	101.94
604.041	63.94
604.249	94.94
604.458	85.94
604.666	81.94
604.875	82.94
605.084	95.94
605.292	80.94
605.501	86.94
605.709	100.94
605.918	81.94
606.126	96.94
606.334	96.94
606.543	74.94
606.751	74.94
606.96	74.94
607.168	88.94
607.376	85.94
607.585	89.94
607.793	76.94
608.001	88.94
608.21	90.94
608.418	76.94
608.626	98.94
608.834	91.94
609.043	86.94
609.251	84.94
609.459	77.94
609.667	90.94
609.875	77.94
610.083	86.94
610.291	80.94
610.499	87.94
610.707	92.94
610.916	72.94
611.124	97.94
611.332	86.94
611.54	84.94
611.748	93.94
611.955	80.94
612.163	88.94
612.371	80.94
612.579	89.94
612.787	89.94
612.995	92.94
613.203	88.94
613.411	78.94
613.618	85.94
613.826	90.94
614.034	97.94
614.242	103.94
614.449	85.94
614.657	74.94
614.865	91.94
615.072	101.94
615.28	100.94
615.488	94.94
615.695	91.94
615.903	91.94
616.111	96.94
616.318	89.94
616.526	70.94
616.733	88.94
616.941	76.94
617.148	92.94
617.356	81.94
617.563	85.94
617.771	97.94
617.978	82.94
618.185	99.94
618.393	82.94
618.6	90.94
618.807	90.94
619.015	86.94
619.222	82.94
619.429	83.94
619.637	82.94
619.844	87.94
620.051	91.94
620.258	90.94
620.466	83.94
620.673	93.94
620.88	82.94
621.087	64.94
621.294	68.94
621.501	92.94
621.708	87.94
621.915	84.94
622.122	83.94
622.329	70.94
622.536	86.94
622.743	91.94
622.95	85.94
623.157	102.94
623.364	84.94
623.571	75.94
623.778	86.94
623.985	96.94
624.192	94.94
624.399	84.94
624.606	95.94
624.812	83.94
625.019	90.94
625.226	72.94
625.433	85.94
625.639	96.94
625.846	91.94
626.053	80.94
626.259	87.94
626.466	80.94
626.673	91.94
626.879	79.94
627.086	85.94
627.293	75.94
627.499	73.94
627.706	92.94
627.912	80.94
628.119	76.94
628.325	81.94
628.532	70.94
628.738	87.94
628.945	76.94
629.151	87.94
629.357	74.94
629.564	92.94
629.77	80.94
629.976	80.94
630.183	82.94
630.389	83.94
630.595	77.94
630.802	91.94
631.008	74.94
631.214	82.94
631.42	75.94
631.627	100.94
631.833	97.94
632.039	80.94
632.245	88.94
632.451	83.94
632.657	91.94
632.863	104.94
633.069	104.94
633.275	84.94
633.481	85.94
633.688	88.94
633.893	93.94
634.099	87.94
634.305	72.94
634.511	74.94
634.717	77.94
634.923	80.94
635.129	94.94
635.335	96.94
635.541	91.94
635.747	85.94
635.952	78.94
636.158	127.94
636.364	255.94
636.57	235.94
636.775	109.94
636.981	76.94
637.187	82.94
637.392	94.94
637.598	89.94
637.804	92.94
638.009	76.94
638.215	77.94
638.421	81.94
638.626	83.94
638.832	83.94
639.037	76.94
639.243	83.94
639.448	81.94
639.654	87.94
639.859	87.94
640.065	77.94
640.27	87.94
640.475	90.94
640.681	84.94
640.886	84.94
641.091	80.94
641.297	92.94
641.502	96.94
641.707	81.94
641.913	97.94
642.118	83.94
642.323	70.94
642.528	78.94
642.733	91.94
642.939	87.94
643.144	67.94
643.349	98.94
643.554	91.94
643.759	89.94
643.964	93.94
644.169	79.94
644.374	89.94
644.579	92.94
644.784	88.94
644.989	89.94
645.194	100.94
645.399	81.94
645.604	77.94
645.809	92.94
646.014	85.94
646.219	82.94
646.423	81.94
646.628	89.94
646.833	90.94
647.038	93.94
647.243	84.94
647.447	87.94
647.652	81.94
647.857	79.94
648.062	98.94
648.266	74.94
648.471	81.94
648.676	98.94
648.88	92.94
649.085	92.94
649.289	96.94
649.494	102.94
649.698	140.94
649.903	97.94
650.107	92.94
650.312	83.94
650.516	75.94
650.721	66.94
650.925	79.94
651.13	91.94
651.334	83.94
651.539	81.94
651.743	103.94
651.947	84.94
652.152	95.94
652.356	85.94
652.56	79.94
652.764	92.94
652.969	78.94
653.173	71.94
653.377	89.94
653.581	87.94
653.785	81.94
653.99	83.94
654.194	81.94
654.398	82.94
654.602	87.94
654.806	78.94
655.01	120.94
655.214	89.94
655.418	78.94
655.622	92.94
655.826	93.94
656.03	100.94
656.234	97.94
656.438	89.94
656.642	89.94
656.846	88.94
657.049	91.94
657.253	76.94
657.457	71.94
657.661	80.94
657.865	89.94
658.068	72.94
658.272	75.94
658.476	82.94
658.68	86.94
658.883	83.94
659.087	65.94
659.291	72.94
659.494	77.94
659.698	77.94
659.901	83.94
660.105	76.94
660.309	68.94
660.512	86.94
660.716	93.94
660.919	85.94
661.123	72.94
661.326	85.94
661.53	82.94
661.733	81.94
661.936	85.94
662.14	77.94
662.343	80.94
662.546	101.94
662.75	83.94
662.953	90.94
663.156	72.94
663.36	83.94
663.563	74.94
663.766	92.94
663.969	91.94
664.173	80.94
664.376	73.94
664.579	72.94
664.782	75.94
664.985	90.94
665.188	81.94
665.391	81.94
665.594	79.94
665.797	88.94
666	91.94
666.203	87.94
666.406	68.94
666.609	88.94
666.812	84.94
667.015	99.94
667.218	93.94
667.421	87.94
667.624	88.94
667.827	86.94
668.03	98.94
668.232	79.94
668.435	80.94
668.638	64.94
668.841	86.94
669.043	84.94
669.246	86.94
669.449	76.94
669.651	82.94
669.854	74.94
670.057	71.94
670.259	93.94
670.462	80.94
670.665	85.94
670.867	88.94
671.07	81.94
671.272	96.94
671.475	81.94
671.677	81.94
671.88	79.94
672.082	78.94
672.284	73.94
672.487	90.94
672.689	73.94
672.892	83.94
