Data from Circ_2001_H10_HRD10591_00036.txt Node
Date: Wed Jan 03 10:45:46 EST 2024
User: Yrep
Spectrometer: HR+D1059
Trigger mode: 1
Integration Time (sec): 1.000000E-1
Scans to average: 1
Electric dark correction enabled: true
Nonlinearity correction enabled: false
Boxcar width: 0
XAxis mode: Wavelengths
Number of Pixels in Spectrum: 2048
>>>>>Begin Spectral Data<<<<<
223.165	-18.12
223.4	-18.12
223.635	-18.12
223.869	-13.12
224.104	-27.12
224.338	-19.12
224.573	-16.12
224.808	-8.12
225.042	-5.12
225.277	-7.12
225.511	-11.12
225.746	11.88
225.98	1.88
226.215	16.88
226.449	13.88
226.683	17.88
226.918	16.88
227.152	45.88
227.387	26.88
227.621	48.88
227.856	44.88
228.09	38.88
228.324	46.88
228.559	66.88
228.793	65.88
229.027	56.88
229.262	55.88
229.496	76.88
229.73	81.88
229.964	67.88
230.199	73.88
230.433	74.88
230.667	71.88
230.901	89.88
231.136	76.88
231.37	89.88
231.604	77.88
231.838	81.88
232.072	75.88
232.306	84.88
232.541	88.88
232.775	68.88
233.009	76.88
233.243	75.88
233.477	82.88
233.711	79.88
233.945	82.88
234.179	86.88
234.413	83.88
234.647	85.88
234.881	84.88
235.115	81.88
235.349	76.88
235.583	63.88
235.817	79.88
236.051	82.88
236.285	66.88
236.519	79.88
236.753	89.88
236.987	74.88
237.221	87.88
237.455	87.88
237.689	87.88
237.922	65.88
238.156	73.88
238.39	77.88
238.624	68.88
238.858	84.88
239.091	74.88
239.325	72.88
239.559	87.88
239.793	70.88
240.027	68.88
240.26	82.88
240.494	76.88
240.728	79.88
240.961	76.88
241.195	70.88
241.429	85.88
241.662	71.88
241.896	81.88
242.13	81.88
242.363	79.88
242.597	71.88
242.83	85.88
243.064	82.88
243.298	84.88
243.531	94.88
243.765	77.88
243.998	87.88
244.232	97.88
244.465	87.88
244.699	67.88
244.932	88.88
245.166	88.88
245.399	86.88
245.633	93.88
245.866	72.88
246.099	58.88
246.333	75.88
246.566	84.88
246.8	78.88
247.033	65.88
247.266	84.88
247.5	87.88
247.733	85.88
247.966	82.88
248.2	77.88
248.433	78.88
248.666	92.88
248.899	74.88
249.133	74.88
249.366	100.88
249.599	89.88
249.832	72.88
250.066	82.88
250.299	78.88
250.532	74.88
250.765	88.88
250.998	88.88
251.231	83.88
251.465	84.88
251.698	87.88
251.931	77.88
252.164	68.88
252.397	86.88
252.63	75.88
252.863	74.88
253.096	80.88
253.329	77.88
253.562	80.88
253.795	83.88
254.028	76.88
254.261	81.88
254.494	83.88
254.727	86.88
254.96	84.88
255.193	83.88
255.426	84.88
255.659	90.88
255.892	86.88
256.124	90.88
256.357	98.88
256.59	66.88
256.823	79.88
257.056	86.88
257.289	82.88
257.521	78.88
257.754	84.88
257.987	81.88
258.22	92.88
258.452	92.88
258.685	89.88
258.918	80.88
259.151	83.88
259.383	72.88
259.616	76.88
259.849	83.88
260.081	93.88
260.314	82.88
260.547	104.88
260.779	74.88
261.012	96.88
261.244	104.88
261.477	100.88
261.71	111.88
261.942	122.88
262.175	114.88
262.407	84.88
262.64	81.88
262.872	87.88
263.105	91.88
263.337	80.88
263.57	82.88
263.802	95.88
264.035	77.88
264.267	86.88
264.499	77.88
264.732	86.88
264.964	102.88
265.197	82.88
265.429	89.88
265.661	82.88
265.894	92.88
266.126	84.88
266.358	82.88
266.591	78.88
266.823	83.88
267.055	95.88
267.287	91.88
267.52	87.88
267.752	90.88
267.984	91.88
268.216	81.88
268.448	80.88
268.681	84.88
268.913	94.88
269.145	83.88
269.377	97.88
269.609	94.88
269.841	98.88
270.073	96.88
270.306	86.88
270.538	85.88
270.77	82.88
271.002	92.88
271.234	92.88
271.466	96.88
271.698	97.88
271.93	88.88
272.162	82.88
272.394	89.88
272.626	77.88
272.858	104.88
273.09	92.88
273.322	88.88
273.553	75.88
273.785	89.88
274.017	81.88
274.249	96.88
274.481	88.88
274.713	83.88
274.945	83.88
275.176	91.88
275.408	91.88
275.64	95.88
275.872	106.88
276.104	82.88
276.335	88.88
276.567	99.88
276.799	102.88
277.031	122.88
277.262	148.88
277.494	117.88
277.726	84.88
277.957	102.88
278.189	79.88
278.421	98.88
278.652	82.88
278.884	91.88
279.115	88.88
279.347	92.88
279.579	99.88
279.81	96.88
280.042	152.88
280.273	174.88
280.505	123.88
280.736	105.88
280.968	82.88
281.199	81.88
281.431	91.88
281.662	84.88
281.894	91.88
282.125	98.88
282.356	116.88
282.588	146.88
282.819	126.88
283.051	87.88
283.282	84.88
283.513	92.88
283.745	77.88
283.976	87.88
284.207	79.88
284.439	79.88
284.67	82.88
284.901	87.88
285.132	82.88
285.364	84.88
285.595	85.88
285.826	91.88
286.057	96.88
286.288	93.88
286.52	85.88
286.751	81.88
286.982	99.88
287.213	86.88
287.444	85.88
287.675	84.88
287.906	106.88
288.138	95.88
288.369	100.88
288.6	94.88
288.831	83.88
289.062	87.88
289.293	82.88
289.524	87.88
289.755	79.88
289.986	83.88
290.217	73.88
290.448	91.88
290.679	90.88
290.91	86.88
291.141	88.88
291.371	89.88
291.602	86.88
291.833	82.88
292.064	92.88
292.295	86.88
292.526	90.88
292.757	93.88
292.987	86.88
293.218	98.88
293.449	84.88
293.68	91.88
293.91	76.88
294.141	98.88
294.372	81.88
294.603	95.88
294.833	84.88
295.064	97.88
295.295	83.88
295.525	102.88
295.756	101.88
295.987	119.88
296.217	136.88
296.448	128.88
296.679	110.88
296.909	79.88
297.14	74.88
297.37	92.88
297.601	89.88
297.831	97.88
298.062	90.88
298.292	72.88
298.523	80.88
298.753	101.88
298.984	93.88
299.214	95.88
299.445	97.88
299.675	102.88
299.905	100.88
300.136	83.88
300.366	94.88
300.597	90.88
300.827	102.88
301.057	115.88
301.288	107.88
301.518	112.88
301.748	80.88
301.979	103.88
302.209	96.88
302.439	106.88
302.669	100.88
302.9	85.88
303.13	94.88
303.36	103.88
303.59	121.88
303.82	119.88
304.051	113.88
304.281	112.88
304.511	111.88
304.741	91.88
304.971	84.88
305.201	94.88
305.431	87.88
305.661	88.88
305.891	92.88
306.121	104.88
306.352	103.88
306.582	106.88
306.812	105.88
307.042	109.88
307.272	130.88
307.502	142.88
307.731	142.88
307.961	107.88
308.191	98.88
308.421	92.88
308.651	102.88
308.881	95.88
309.111	87.88
309.341	90.88
309.571	96.88
309.8	99.88
310.03	89.88
310.26	100.88
310.49	90.88
310.72	99.88
310.949	108.88
311.179	101.88
311.409	108.88
311.639	96.88
311.868	96.88
312.098	86.88
312.328	113.88
312.557	88.88
312.787	106.88
313.017	117.88
313.246	96.88
313.476	85.88
313.706	90.88
313.935	100.88
314.165	104.88
314.394	106.88
314.624	103.88
314.853	108.88
315.083	85.88
315.312	99.88
315.542	101.88
315.771	95.88
316.001	83.88
316.23	104.88
316.46	84.88
316.689	92.88
316.919	97.88
317.148	89.88
317.377	108.88
317.607	82.88
317.836	89.88
318.065	85.88
318.295	82.88
318.524	83.88
318.753	104.88
318.983	99.88
319.212	91.88
319.441	106.88
319.67	111.88
319.9	100.88
320.129	97.88
320.358	103.88
320.587	99.88
320.816	85.88
321.046	108.88
321.275	104.88
321.504	94.88
321.733	94.88
321.962	84.88
322.191	113.88
322.42	118.88
322.649	114.88
322.878	113.88
323.108	126.88
323.337	134.88
323.566	146.88
323.795	162.88
324.024	209.88
324.253	404.88
324.482	832.88
324.71	1753.88
324.939	2284.88
325.168	833.88
325.397	247.88
325.626	145.88
325.855	115.88
326.084	122.88
326.313	137.88
326.542	161.88
326.77	233.88
326.999	463.88
327.228	929.88
327.457	1700.88
327.686	1337.88
327.914	451.88
328.143	371.88
328.372	425.88
328.6	238.88
328.829	130.88
329.058	146.88
329.287	149.88
329.515	153.88
329.744	196.88
329.972	320.88
330.201	611.88
330.43	832.88
330.658	394.88
330.887	200.88
331.115	148.88
331.344	115.88
331.572	111.88
331.801	112.88
332.03	111.88
332.258	102.88
332.486	96.88
332.715	102.88
332.943	88.88
333.172	96.88
333.4	115.88
333.629	122.88
333.857	168.88
334.085	299.88
334.314	569.88
334.542	1025.88
334.771	977.88
334.999	272.88
335.227	145.88
335.455	128.88
335.684	109.88
335.912	102.88
336.14	107.88
336.369	109.88
336.597	96.88
336.825	96.88
337.053	99.88
337.281	94.88
337.51	91.88
337.738	103.88
337.966	87.88
338.194	100.88
338.422	108.88
338.65	89.88
338.878	98.88
339.106	97.88
339.334	96.88
339.562	106.88
339.79	98.88
340.018	88.88
340.246	90.88
340.474	96.88
340.702	83.88
340.93	85.88
341.158	86.88
341.386	98.88
341.614	110.88
341.842	101.88
342.07	95.88
342.298	95.88
342.526	89.88
342.754	78.88
342.981	92.88
343.209	91.88
343.437	95.88
343.665	88.88
343.893	72.88
344.12	84.88
344.348	90.88
344.576	88.88
344.804	103.88
345.031	110.88
345.259	99.88
345.487	108.88
345.714	84.88
345.942	86.88
346.17	93.88
346.397	97.88
346.625	84.88
346.853	90.88
347.08	92.88
347.308	94.88
347.535	94.88
347.763	93.88
347.99	95.88
348.218	99.88
348.445	111.88
348.673	105.88
348.9	95.88
349.128	86.88
349.355	107.88
349.583	91.88
349.81	91.88
350.037	104.88
350.265	88.88
350.492	99.88
350.72	82.88
350.947	93.88
351.174	113.88
351.402	119.88
351.629	99.88
351.856	94.88
352.083	100.88
352.311	97.88
352.538	94.88
352.765	111.88
352.992	123.88
353.22	106.88
353.447	110.88
353.674	101.88
353.901	94.88
354.128	87.88
354.355	97.88
354.583	91.88
354.81	91.88
355.037	96.88
355.264	82.88
355.491	86.88
355.718	89.88
355.945	90.88
356.172	92.88
356.399	93.88
356.626	107.88
356.853	95.88
357.08	109.88
357.307	98.88
357.534	82.88
357.761	99.88
357.988	98.88
358.215	82.88
358.441	100.88
358.668	98.88
358.895	83.88
359.122	83.88
359.349	82.88
359.576	98.88
359.802	112.88
360.029	106.88
360.256	111.88
360.483	109.88
360.709	89.88
360.936	95.88
361.163	102.88
361.39	97.88
361.616	97.88
361.843	85.88
362.07	93.88
362.296	90.88
362.523	97.88
362.749	113.88
362.976	86.88
363.203	83.88
363.429	81.88
363.656	95.88
363.882	89.88
364.109	78.88
364.335	84.88
364.562	96.88
364.788	94.88
365.015	100.88
365.241	106.88
365.468	114.88
365.694	104.88
365.92	94.88
366.147	96.88
366.373	100.88
366.599	98.88
366.826	98.88
367.052	84.88
367.278	87.88
367.505	82.88
367.731	83.88
367.957	89.88
368.184	85.88
368.41	96.88
368.636	122.88
368.862	130.88
369.089	105.88
369.315	96.88
369.541	90.88
369.767	92.88
369.993	85.88
370.219	89.88
370.445	85.88
370.672	92.88
370.898	91.88
371.124	74.88
371.35	78.88
371.576	92.88
371.802	82.88
372.028	91.88
372.254	94.88
372.48	86.88
372.706	74.88
372.932	98.88
373.158	90.88
373.384	99.88
373.61	88.88
373.835	92.88
374.061	98.88
374.287	90.88
374.513	89.88
374.739	75.88
374.965	86.88
375.191	83.88
375.416	78.88
375.642	84.88
375.868	101.88
376.094	95.88
376.319	98.88
376.545	97.88
376.771	95.88
376.997	101.88
377.222	100.88
377.448	73.88
377.674	90.88
377.899	88.88
378.125	76.88
378.35	98.88
378.576	89.88
378.802	88.88
379.027	80.88
379.253	96.88
379.478	92.88
379.704	88.88
379.929	86.88
380.155	84.88
380.38	91.88
380.606	91.88
380.831	96.88
381.057	102.88
381.282	100.88
381.507	104.88
381.733	96.88
381.958	101.88
382.184	96.88
382.409	98.88
382.634	98.88
382.86	95.88
383.085	102.88
383.31	77.88
383.535	97.88
383.761	90.88
383.986	103.88
384.211	89.88
384.436	93.88
384.662	94.88
384.887	103.88
385.112	104.88
385.337	100.88
385.562	90.88
385.787	97.88
386.013	105.88
386.238	106.88
386.463	108.88
386.688	120.88
386.913	103.88
387.138	102.88
387.363	101.88
387.588	99.88
387.813	104.88
388.038	113.88
388.263	110.88
388.488	103.88
388.713	93.88
388.938	102.88
389.163	93.88
389.387	89.88
389.612	93.88
389.837	78.88
390.062	95.88
390.287	98.88
390.512	110.88
390.736	90.88
390.961	97.88
391.186	74.88
391.411	81.88
391.636	86.88
391.86	73.88
392.085	91.88
392.31	83.88
392.534	89.88
392.759	87.88
392.984	78.88
393.208	83.88
393.433	92.88
393.658	81.88
393.882	86.88
394.107	76.88
394.331	83.88
394.556	78.88
394.78	76.88
395.005	77.88
395.229	86.88
395.454	82.88
395.678	82.88
395.903	75.88
396.127	94.88
396.352	68.88
396.576	83.88
396.801	90.88
397.025	103.88
397.249	83.88
397.474	100.88
397.698	91.88
397.922	89.88
398.147	101.88
398.371	88.88
398.595	73.88
398.82	95.88
399.044	95.88
399.268	70.88
399.492	88.88
399.717	84.88
399.941	104.88
400.165	91.88
400.389	96.88
400.613	78.88
400.837	86.88
401.062	101.88
401.286	85.88
401.51	103.88
401.734	104.88
401.958	104.88
402.182	124.88
402.406	178.88
402.63	129.88
402.854	103.88
403.078	93.88
403.302	84.88
403.526	96.88
403.75	97.88
403.974	90.88
404.198	76.88
404.422	91.88
404.645	93.88
404.869	76.88
405.093	107.88
405.317	119.88
405.541	128.88
405.765	114.88
405.988	124.88
406.212	171.88
406.436	242.88
406.66	163.88
406.883	105.88
407.107	99.88
407.331	104.88
407.555	107.88
407.778	95.88
408.002	102.88
408.226	96.88
408.449	99.88
408.673	102.88
408.896	86.88
409.12	94.88
409.344	85.88
409.567	86.88
409.791	90.88
410.014	98.88
410.238	86.88
410.461	100.88
410.685	102.88
410.908	99.88
411.132	109.88
411.355	96.88
411.578	88.88
411.802	92.88
412.025	100.88
412.249	109.88
412.472	111.88
412.695	109.88
412.919	100.88
413.142	96.88
413.365	83.88
413.589	87.88
413.812	90.88
414.035	88.88
414.258	87.88
414.482	76.88
414.705	92.88
414.928	83.88
415.151	92.88
415.374	108.88
415.597	104.88
415.821	97.88
416.044	89.88
416.267	94.88
416.49	89.88
416.713	86.88
416.936	86.88
417.159	96.88
417.382	92.88
417.605	80.88
417.828	89.88
418.051	95.88
418.274	82.88
418.497	91.88
418.72	81.88
418.943	90.88
419.166	96.88
419.389	90.88
419.611	92.88
419.834	85.88
420.057	96.88
420.28	101.88
420.503	81.88
420.726	73.88
420.948	95.88
421.171	87.88
421.394	81.88
421.617	97.88
421.839	88.88
422.062	89.88
422.285	95.88
422.507	107.88
422.73	98.88
422.953	92.88
423.175	90.88
423.398	85.88
423.621	99.88
423.843	87.88
424.066	93.88
424.288	96.88
424.511	88.88
424.733	101.88
424.956	119.88
425.178	111.88
425.401	101.88
425.623	107.88
425.846	89.88
426.068	98.88
426.291	87.88
426.513	90.88
426.735	84.88
426.958	92.88
427.18	102.88
427.402	166.88
427.625	201.88
427.847	186.88
428.069	159.88
428.292	119.88
428.514	97.88
428.736	90.88
428.958	86.88
429.181	91.88
429.403	90.88
429.625	87.88
429.847	106.88
430.069	88.88
430.292	90.88
430.514	86.88
430.736	88.88
430.958	74.88
431.18	81.88
431.402	97.88
431.624	87.88
431.846	89.88
432.068	84.88
432.29	89.88
432.512	85.88
432.734	91.88
432.956	98.88
433.178	108.88
433.4	101.88
433.622	92.88
433.844	96.88
434.066	87.88
434.287	89.88
434.509	99.88
434.731	87.88
434.953	101.88
435.175	94.88
435.397	100.88
435.618	100.88
435.84	89.88
436.062	107.88
436.284	102.88
436.505	94.88
436.727	114.88
436.949	103.88
437.17	89.88
437.392	78.88
437.614	83.88
437.835	104.88
438.057	126.88
438.278	114.88
438.5	105.88
438.721	123.88
438.943	80.88
439.165	104.88
439.386	82.88
439.608	94.88
439.829	104.88
440.05	130.88
440.272	160.88
440.493	96.88
440.715	72.88
440.936	86.88
441.158	83.88
441.379	90.88
441.6	80.88
441.822	91.88
442.043	96.88
442.264	99.88
442.486	107.88
442.707	88.88
442.928	87.88
443.149	156.88
443.371	134.88
443.592	106.88
443.813	128.88
444.034	115.88
444.255	83.88
444.476	72.88
444.698	82.88
444.919	84.88
445.14	129.88
445.361	126.88
445.582	123.88
445.803	151.88
446.024	137.88
446.245	127.88
446.466	114.88
446.687	92.88
446.908	85.88
447.129	89.88
447.35	86.88
447.571	87.88
447.792	85.88
448.013	105.88
448.234	107.88
448.455	81.88
448.675	115.88
448.896	111.88
449.117	108.88
449.338	115.88
449.559	133.88
449.779	114.88
450	97.88
450.221	103.88
450.442	81.88
450.662	96.88
450.883	111.88
451.104	129.88
451.324	102.88
451.545	75.88
451.766	86.88
451.986	84.88
452.207	84.88
452.428	78.88
452.648	111.88
452.869	112.88
453.089	127.88
453.31	127.88
453.53	86.88
453.751	76.88
453.971	96.88
454.192	121.88
454.412	100.88
454.633	96.88
454.853	92.88
455.073	84.88
455.294	86.88
455.514	109.88
455.734	83.88
455.955	87.88
456.175	78.88
456.395	72.88
456.616	73.88
456.836	76.88
457.056	91.88
457.276	81.88
457.497	79.88
457.717	95.88
457.937	84.88
458.157	78.88
458.377	80.88
458.598	128.88
458.818	163.88
459.038	171.88
459.258	127.88
459.478	96.88
459.698	74.88
459.918	79.88
460.138	87.88
460.358	83.88
460.578	72.88
460.798	76.88
461.018	96.88
461.238	84.88
461.458	89.88
461.678	81.88
461.898	78.88
462.118	74.88
462.338	96.88
462.558	85.88
462.777	94.88
462.997	86.88
463.217	87.88
463.437	84.88
463.657	80.88
463.876	88.88
464.096	92.88
464.316	79.88
464.536	87.88
464.755	84.88
464.975	100.88
465.195	190.88
465.414	190.88
465.634	87.88
465.854	94.88
466.073	85.88
466.293	87.88
466.512	78.88
466.732	95.88
466.951	79.88
467.171	90.88
467.391	98.88
467.61	133.88
467.829	166.88
468.049	357.88
468.268	524.88
468.488	174.88
468.707	94.88
468.927	92.88
469.146	86.88
469.365	89.88
469.585	87.88
469.804	102.88
470.023	108.88
470.243	92.88
470.462	112.88
470.681	115.88
470.901	99.88
471.12	104.88
471.339	101.88
471.558	101.88
471.777	114.88
471.997	199.88
472.216	686.88
472.435	1447.88
472.654	377.88
472.873	126.88
473.092	88.88
473.311	100.88
473.53	84.88
473.749	95.88
473.968	92.88
474.187	98.88
474.406	103.88
474.625	92.88
474.844	84.88
475.063	90.88
475.282	81.88
475.501	90.88
475.72	88.88
475.939	88.88
476.158	84.88
476.377	92.88
476.596	84.88
476.814	85.88
477.033	74.88
477.252	95.88
477.471	80.88
477.69	82.88
477.908	77.88
478.127	91.88
478.346	100.88
478.564	81.88
478.783	105.88
479.002	88.88
479.22	100.88
479.439	123.88
479.658	112.88
479.876	91.88
480.095	86.88
480.313	97.88
480.532	135.88
480.751	201.88
480.969	622.88
481.188	2501.88
481.406	1467.88
481.624	251.88
481.843	125.88
482.061	98.88
482.28	99.88
482.498	104.88
482.717	103.88
482.935	90.88
483.153	86.88
483.372	89.88
483.59	80.88
483.808	84.88
484.027	102.88
484.245	99.88
484.463	90.88
484.681	90.88
484.9	103.88
485.118	96.88
485.336	91.88
485.554	110.88
485.772	86.88
485.99	105.88
486.209	124.88
486.427	116.88
486.645	105.88
486.863	101.88
487.081	117.88
487.299	87.88
487.517	87.88
487.735	101.88
487.953	97.88
488.171	84.88
488.389	93.88
488.607	95.88
488.825	94.88
489.043	96.88
489.261	83.88
489.479	83.88
489.696	92.88
489.914	86.88
490.132	77.88
490.35	88.88
490.568	89.88
490.786	89.88
491.003	86.88
491.221	77.88
491.439	101.88
491.657	90.88
491.874	100.88
492.092	71.88
492.31	108.88
492.527	76.88
492.745	84.88
492.963	95.88
493.18	98.88
493.398	87.88
493.615	87.88
493.833	105.88
494.05	81.88
494.268	89.88
494.485	84.88
494.703	89.88
494.92	90.88
495.138	104.88
495.355	85.88
495.573	65.88
495.79	83.88
496.008	80.88
496.225	88.88
496.442	87.88
496.66	103.88
496.877	89.88
497.094	96.88
497.312	97.88
497.529	75.88
497.746	88.88
497.963	86.88
498.181	99.88
498.398	95.88
498.615	102.88
498.832	101.88
499.049	79.88
499.267	93.88
499.484	100.88
499.701	86.88
499.918	106.88
500.135	91.88
500.352	86.88
500.569	84.88
500.786	92.88
501.003	90.88
501.22	97.88
501.437	94.88
501.654	96.88
501.871	99.88
502.088	92.88
502.305	85.88
502.522	91.88
502.739	99.88
502.956	98.88
503.172	99.88
503.389	97.88
503.606	102.88
503.823	107.88
504.04	98.88
504.256	94.88
504.473	81.88
504.69	86.88
504.907	90.88
505.123	95.88
505.34	84.88
505.557	91.88
505.773	82.88
505.99	84.88
506.207	87.88
506.423	87.88
506.64	90.88
506.856	83.88
507.073	86.88
507.289	96.88
507.506	91.88
507.722	126.88
507.939	119.88
508.155	95.88
508.372	95.88
508.588	86.88
508.805	86.88
509.021	89.88
509.238	95.88
509.454	100.88
509.67	97.88
509.887	107.88
510.103	124.88
510.319	203.88
510.536	755.88
510.752	2454.88
510.968	676.88
511.184	162.88
511.401	113.88
511.617	94.88
511.833	88.88
512.049	94.88
512.265	87.88
512.481	87.88
512.698	88.88
512.914	97.88
513.13	99.88
513.346	96.88
513.562	106.88
513.778	88.88
513.994	96.88
514.21	96.88
514.426	128.88
514.642	143.88
514.858	139.88
515.074	186.88
515.29	527.88
515.506	1827.88
515.721	681.88
515.937	174.88
516.153	123.88
516.369	101.88
516.585	90.88
516.801	101.88
517.016	96.88
517.232	97.88
517.448	90.88
517.664	86.88
517.879	97.88
518.095	91.88
518.311	115.88
518.527	89.88
518.742	87.88
518.958	100.88
519.173	99.88
519.389	99.88
519.605	82.88
519.82	100.88
520.036	102.88
520.251	133.88
520.467	116.88
520.682	94.88
520.898	106.88
521.113	121.88
521.329	157.88
521.544	236.88
521.76	692.88
521.975	2968.88
522.19	1789.88
522.406	375.88
522.621	144.88
522.836	104.88
523.052	81.88
523.267	91.88
523.482	98.88
523.698	89.88
523.913	122.88
524.128	115.88
524.343	89.88
524.559	106.88
524.774	92.88
524.989	98.88
525.204	119.88
525.419	111.88
525.634	97.88
525.849	84.88
526.064	83.88
526.28	95.88
526.495	75.88
526.71	81.88
526.925	73.88
527.14	80.88
527.355	92.88
527.57	94.88
527.785	89.88
527.999	88.88
528.214	87.88
528.429	96.88
528.644	90.88
528.859	81.88
529.074	94.88
529.289	143.88
529.503	204.88
529.718	112.88
529.933	91.88
530.148	91.88
530.363	95.88
530.577	85.88
530.792	90.88
531.007	80.88
531.221	91.88
531.436	73.88
531.651	91.88
531.865	95.88
532.08	79.88
532.295	89.88
532.509	83.88
532.724	88.88
532.938	96.88
533.153	104.88
533.367	95.88
533.582	83.88
533.796	100.88
534.011	86.88
534.225	82.88
534.44	91.88
534.654	101.88
534.868	85.88
535.083	98.88
535.297	90.88
535.511	112.88
535.726	97.88
535.94	103.88
536.154	99.88
536.369	79.88
536.583	88.88
536.797	93.88
537.011	86.88
537.225	96.88
537.44	91.88
537.654	81.88
537.868	90.88
538.082	88.88
538.296	89.88
538.51	83.88
538.724	90.88
538.938	88.88
539.153	96.88
539.367	106.88
539.581	97.88
539.795	89.88
540.009	79.88
540.222	83.88
540.436	85.88
540.65	90.88
540.864	89.88
541.078	95.88
541.292	101.88
541.506	96.88
541.72	92.88
541.934	81.88
542.147	93.88
542.361	80.88
542.575	84.88
542.789	88.88
543.002	95.88
543.216	91.88
543.43	99.88
543.644	96.88
543.857	89.88
544.071	86.88
544.285	85.88
544.498	87.88
544.712	100.88
544.925	87.88
545.139	106.88
545.352	94.88
545.566	116.88
545.779	90.88
545.993	96.88
546.206	95.88
546.42	94.88
546.633	83.88
546.847	96.88
547.06	97.88
547.274	108.88
547.487	95.88
547.7	77.88
547.914	85.88
548.127	86.88
548.34	91.88
548.554	85.88
548.767	86.88
548.98	103.88
549.193	81.88
549.407	81.88
549.62	91.88
549.833	86.88
550.046	89.88
550.259	73.88
550.473	97.88
550.686	91.88
550.899	82.88
551.112	88.88
551.325	88.88
551.538	94.88
551.751	90.88
551.964	89.88
552.177	78.88
552.39	90.88
552.603	95.88
552.816	89.88
553.029	91.88
553.242	95.88
553.455	105.88
553.667	104.88
553.88	107.88
554.093	96.88
554.306	117.88
554.519	108.88
554.732	99.88
554.944	102.88
555.157	86.88
555.37	98.88
555.583	94.88
555.795	90.88
556.008	94.88
556.221	81.88
556.433	91.88
556.646	85.88
556.859	90.88
557.071	86.88
557.284	92.88
557.496	93.88
557.709	96.88
557.921	100.88
558.134	92.88
558.346	96.88
558.559	89.88
558.771	92.88
558.984	82.88
559.196	98.88
559.409	90.88
559.621	82.88
559.833	91.88
560.046	89.88
560.258	108.88
560.47	97.88
560.683	111.88
560.895	84.88
561.107	82.88
561.32	82.88
561.532	83.88
561.744	95.88
561.956	90.88
562.168	82.88
562.381	78.88
562.593	96.88
562.805	101.88
563.017	107.88
563.229	88.88
563.441	87.88
563.653	75.88
563.865	81.88
564.077	73.88
564.289	101.88
564.501	82.88
564.713	83.88
564.925	82.88
565.137	96.88
565.349	96.88
565.561	84.88
565.773	85.88
565.985	87.88
566.197	95.88
566.408	78.88
566.62	86.88
566.832	84.88
567.044	97.88
567.255	95.88
567.467	89.88
567.679	95.88
567.891	85.88
568.102	93.88
568.314	77.88
568.526	91.88
568.737	84.88
568.949	91.88
569.161	91.88
569.372	88.88
569.584	79.88
569.795	89.88
570.007	128.88
570.218	240.88
570.43	145.88
570.641	90.88
570.853	88.88
571.064	77.88
571.276	75.88
571.487	89.88
571.698	93.88
571.91	92.88
572.121	87.88
572.333	83.88
572.544	81.88
572.755	88.88
572.966	83.88
573.178	89.88
573.389	95.88
573.6	83.88
573.811	85.88
574.023	78.88
574.234	86.88
574.445	90.88
574.656	78.88
574.867	79.88
575.078	90.88
575.289	83.88
575.501	92.88
575.712	87.88
575.923	96.88
576.134	107.88
576.345	90.88
576.556	86.88
576.767	91.88
576.978	78.88
577.188	100.88
577.399	84.88
577.61	90.88
577.821	89.88
578.032	126.88
578.243	268.88
578.454	772.88
578.665	204.88
578.875	106.88
579.086	103.88
579.297	98.88
579.508	91.88
579.718	105.88
579.929	88.88
580.14	86.88
580.35	93.88
580.561	81.88
580.772	99.88
580.982	89.88
581.193	84.88
581.403	83.88
581.614	84.88
581.825	79.88
582.035	99.88
582.246	90.88
582.456	99.88
582.667	88.88
582.877	90.88
583.087	68.88
583.298	84.88
583.508	80.88
583.719	87.88
583.929	92.88
584.139	73.88
584.35	95.88
584.56	95.88
584.77	80.88
584.981	100.88
585.191	84.88
585.401	97.88
585.611	70.88
585.821	82.88
586.032	70.88
586.242	95.88
586.452	83.88
586.662	77.88
586.872	85.88
587.082	87.88
587.292	83.88
587.502	88.88
587.713	92.88
587.923	81.88
588.133	91.88
588.343	82.88
588.553	85.88
588.762	87.88
588.972	103.88
589.182	125.88
589.392	100.88
589.602	90.88
589.812	121.88
590.022	99.88
590.232	91.88
590.441	88.88
590.651	101.88
590.861	98.88
591.071	94.88
591.281	75.88
591.49	89.88
591.7	91.88
591.91	77.88
592.119	78.88
592.329	100.88
592.539	103.88
592.748	81.88
592.958	83.88
593.167	74.88
593.377	68.88
593.587	92.88
593.796	98.88
594.006	92.88
594.215	91.88
594.424	97.88
594.634	102.88
594.843	94.88
595.053	92.88
595.262	96.88
595.472	80.88
595.681	79.88
595.89	88.88
596.1	95.88
596.309	89.88
596.518	82.88
596.727	93.88
596.937	81.88
597.146	87.88
597.355	79.88
597.564	76.88
597.774	96.88
597.983	80.88
598.192	72.88
598.401	81.88
598.61	99.88
598.819	82.88
599.028	75.88
599.237	88.88
599.446	79.88
599.655	86.88
599.864	88.88
600.073	84.88
600.282	85.88
600.491	74.88
600.7	82.88
600.909	99.88
601.118	90.88
601.327	90.88
601.536	94.88
601.745	88.88
601.953	96.88
602.162	89.88
602.371	76.88
602.58	79.88
602.789	86.88
602.997	84.88
603.206	81.88
603.415	80.88
603.623	81.88
603.832	91.88
604.041	75.88
604.249	87.88
604.458	81.88
604.666	82.88
604.875	97.88
605.084	84.88
605.292	84.88
605.501	91.88
605.709	98.88
605.918	86.88
606.126	90.88
606.334	89.88
606.543	88.88
606.751	86.88
606.96	90.88
607.168	93.88
607.376	94.88
607.585	98.88
607.793	97.88
608.001	98.88
608.21	87.88
608.418	84.88
608.626	79.88
608.834	70.88
609.043	88.88
609.251	103.88
609.459	90.88
609.667	82.88
609.875	85.88
610.083	89.88
610.291	85.88
610.499	79.88
610.707	88.88
610.916	79.88
611.124	80.88
611.332	86.88
611.54	75.88
611.748	88.88
611.955	95.88
612.163	89.88
612.371	80.88
612.579	89.88
612.787	83.88
612.995	89.88
613.203	86.88
613.411	71.88
613.618	85.88
613.826	92.88
614.034	71.88
614.242	90.88
614.449	94.88
614.657	83.88
614.865	88.88
615.072	86.88
615.28	95.88
615.488	79.88
615.695	90.88
615.903	80.88
616.111	89.88
616.318	83.88
616.526	81.88
616.733	89.88
616.941	77.88
617.148	97.88
617.356	77.88
617.563	87.88
617.771	74.88
617.978	74.88
618.185	97.88
618.393	69.88
618.6	86.88
618.807	91.88
619.015	69.88
619.222	105.88
619.429	83.88
619.637	79.88
619.844	79.88
620.051	93.88
620.258	98.88
620.466	85.88
620.673	82.88
620.88	87.88
621.087	81.88
621.294	90.88
621.501	92.88
621.708	84.88
621.915	82.88
622.122	89.88
622.329	86.88
622.536	78.88
622.743	90.88
622.95	83.88
623.157	92.88
623.364	89.88
623.571	96.88
623.778	91.88
623.985	86.88
624.192	78.88
624.399	89.88
624.606	79.88
624.812	76.88
625.019	93.88
625.226	86.88
625.433	86.88
625.639	84.88
625.846	87.88
626.053	89.88
626.259	72.88
626.466	85.88
626.673	87.88
626.879	85.88
627.086	94.88
627.293	82.88
627.499	80.88
627.706	81.88
627.912	71.88
628.119	86.88
628.325	86.88
628.532	81.88
628.738	79.88
628.945	94.88
629.151	84.88
629.357	88.88
629.564	89.88
629.77	82.88
629.976	80.88
630.183	81.88
630.389	96.88
630.595	80.88
630.802	79.88
631.008	79.88
631.214	91.88
631.42	81.88
631.627	89.88
631.833	75.88
632.039	88.88
632.245	83.88
632.451	79.88
632.657	95.88
632.863	84.88
633.069	78.88
633.275	91.88
633.481	78.88
633.688	94.88
633.893	79.88
634.099	76.88
634.305	84.88
634.511	83.88
634.717	84.88
634.923	79.88
635.129	96.88
635.335	82.88
635.541	78.88
635.747	85.88
635.952	98.88
636.158	111.88
636.364	238.88
636.57	219.88
636.775	90.88
636.981	85.88
637.187	98.88
637.392	78.88
637.598	78.88
637.804	95.88
638.009	83.88
638.215	89.88
638.421	103.88
638.626	84.88
638.832	81.88
639.037	98.88
639.243	86.88
639.448	95.88
639.654	95.88
639.859	80.88
640.065	86.88
640.27	99.88
640.475	88.88
640.681	85.88
640.886	89.88
641.091	80.88
641.297	92.88
641.502	81.88
641.707	94.88
641.913	92.88
642.118	75.88
642.323	90.88
642.528	107.88
642.733	99.88
642.939	90.88
643.144	81.88
643.349	93.88
643.554	82.88
643.759	76.88
643.964	75.88
644.169	75.88
644.374	86.88
644.579	74.88
644.784	94.88
644.989	70.88
645.194	83.88
645.399	81.88
645.604	86.88
645.809	83.88
646.014	79.88
646.219	89.88
646.423	75.88
646.628	86.88
646.833	97.88
647.038	84.88
647.243	82.88
647.447	91.88
647.652	88.88
647.857	89.88
648.062	87.88
648.266	102.88
648.471	82.88
648.676	81.88
648.88	81.88
649.085	101.88
649.289	84.88
649.494	103.88
649.698	113.88
649.903	98.88
650.107	92.88
650.312	97.88
650.516	84.88
650.721	85.88
650.925	78.88
651.13	66.88
651.334	82.88
651.539	92.88
651.743	87.88
651.947	88.88
652.152	85.88
652.356	75.88
652.56	79.88
652.764	82.88
652.969	72.88
653.173	71.88
653.377	75.88
653.581	84.88
653.785	87.88
653.99	80.88
654.194	96.88
654.398	81.88
654.602	86.88
654.806	96.88
655.01	99.88
655.214	83.88
655.418	88.88
655.622	89.88
655.826	84.88
656.03	95.88
656.234	85.88
656.438	103.88
656.642	88.88
656.846	90.88
657.049	86.88
657.253	91.88
657.457	86.88
657.661	89.88
657.865	84.88
658.068	86.88
658.272	92.88
658.476	100.88
658.68	82.88
658.883	88.88
659.087	102.88
659.291	85.88
659.494	73.88
659.698	95.88
659.901	86.88
660.105	74.88
660.309	81.88
660.512	78.88
660.716	72.88
660.919	83.88
661.123	81.88
661.326	83.88
661.53	82.88
661.733	101.88
661.936	92.88
662.14	90.88
662.343	75.88
662.546	86.88
662.75	88.88
662.953	87.88
663.156	70.88
663.36	93.88
663.563	78.88
663.766	80.88
663.969	90.88
664.173	91.88
664.376	76.88
664.579	71.88
664.782	67.88
664.985	76.88
665.188	83.88
665.391	89.88
665.594	72.88
665.797	85.88
666	80.88
666.203	87.88
666.406	62.88
666.609	86.88
666.812	80.88
667.015	85.88
667.218	74.88
667.421	80.88
667.624	71.88
667.827	79.88
668.03	89.88
668.232	86.88
668.435	79.88
668.638	83.88
668.841	82.88
669.043	81.88
669.246	73.88
669.449	66.88
669.651	73.88
669.854	74.88
670.057	73.88
670.259	73.88
670.462	83.88
670.665	81.88
670.867	69.88
671.07	75.88
671.272	69.88
671.475	87.88
671.677	73.88
671.88	92.88
672.082	68.88
672.284	89.88
672.487	87.88
672.689	79.88
672.892	66.88
