Data from CBS_2_HRD10591_00049.txt Node
Date: Mon Jan 19 14:05:10 EST 2026
User: Yrep
Spectrometer: HR+D1059
Trigger mode: 1
Integration Time (sec): 1.000000E-1
Scans to average: 1
Electric dark correction enabled: true
Nonlinearity correction enabled: false
Boxcar width: 0
XAxis mode: Wavelengths
Number of Pixels in Spectrum: 2048
>>>>>Begin Spectral Data<<<<<
223.165	-27.88
223.4	-27.88
223.635	-27.88
223.869	-23.88
224.104	-7.88
224.338	-22.88
224.573	-8.88
224.808	-9.88
225.042	-12.88
225.277	-10.88
225.511	3.12
225.746	1.12
225.98	13.12
226.215	12.12
226.449	21.12
226.683	23.12
226.918	24.12
227.152	27.12
227.387	42.12
227.621	38.12
227.856	30.12
228.09	39.12
228.324	63.12
228.559	55.12
228.793	62.12
229.027	63.12
229.262	74.12
229.496	71.12
229.73	57.12
229.964	67.12
230.199	70.12
230.433	67.12
230.667	73.12
230.901	76.12
231.136	91.12
231.37	80.12
231.604	67.12
231.838	67.12
232.072	79.12
232.306	88.12
232.541	83.12
232.775	81.12
233.009	85.12
233.243	73.12
233.477	77.12
233.711	84.12
233.945	72.12
234.179	76.12
234.413	83.12
234.647	81.12
234.881	80.12
235.115	78.12
235.349	91.12
235.583	75.12
235.817	70.12
236.051	89.12
236.285	87.12
236.519	88.12
236.753	75.12
236.987	77.12
237.221	81.12
237.455	68.12
237.689	85.12
237.922	81.12
238.156	73.12
238.39	73.12
238.624	78.12
238.858	74.12
239.091	78.12
239.325	77.12
239.559	79.12
239.793	88.12
240.027	73.12
240.26	69.12
240.494	82.12
240.728	71.12
240.961	72.12
241.195	78.12
241.429	67.12
241.662	67.12
241.896	83.12
242.13	92.12
242.363	84.12
242.597	75.12
242.83	74.12
243.064	67.12
243.298	70.12
243.531	81.12
243.765	78.12
243.998	73.12
244.232	69.12
244.465	77.12
244.699	83.12
244.932	80.12
245.166	84.12
245.399	76.12
245.633	79.12
245.866	86.12
246.099	86.12
246.333	81.12
246.566	92.12
246.8	78.12
247.033	73.12
247.266	69.12
247.5	84.12
247.733	79.12
247.966	66.12
248.2	91.12
248.433	82.12
248.666	73.12
248.899	88.12
249.133	75.12
249.366	75.12
249.599	87.12
249.832	83.12
250.066	82.12
250.299	77.12
250.532	83.12
250.765	90.12
250.998	91.12
251.231	78.12
251.465	62.12
251.698	75.12
251.931	72.12
252.164	85.12
252.397	79.12
252.63	88.12
252.863	85.12
253.096	73.12
253.329	88.12
253.562	83.12
253.795	77.12
254.028	85.12
254.261	82.12
254.494	87.12
254.727	83.12
254.96	77.12
255.193	79.12
255.426	78.12
255.659	80.12
255.892	83.12
256.124	89.12
256.357	84.12
256.59	79.12
256.823	63.12
257.056	83.12
257.289	88.12
257.521	76.12
257.754	83.12
257.987	98.12
258.22	91.12
258.452	90.12
258.685	82.12
258.918	80.12
259.151	77.12
259.383	89.12
259.616	77.12
259.849	93.12
260.081	91.12
260.314	73.12
260.547	74.12
260.779	77.12
261.012	95.12
261.244	87.12
261.477	86.12
261.71	84.12
261.942	85.12
262.175	87.12
262.407	68.12
262.64	83.12
262.872	82.12
263.105	87.12
263.337	75.12
263.57	75.12
263.802	78.12
264.035	83.12
264.267	94.12
264.499	86.12
264.732	85.12
264.964	76.12
265.197	81.12
265.429	80.12
265.661	82.12
265.894	81.12
266.126	91.12
266.358	90.12
266.591	73.12
266.823	88.12
267.055	82.12
267.287	74.12
267.52	83.12
267.752	88.12
267.984	67.12
268.216	85.12
268.448	85.12
268.681	85.12
268.913	93.12
269.145	80.12
269.377	91.12
269.609	85.12
269.841	88.12
270.073	80.12
270.306	69.12
270.538	83.12
270.77	73.12
271.002	85.12
271.234	95.12
271.466	96.12
271.698	99.12
271.93	85.12
272.162	78.12
272.394	83.12
272.626	96.12
272.858	86.12
273.09	76.12
273.322	80.12
273.553	82.12
273.785	87.12
274.017	90.12
274.249	88.12
274.481	88.12
274.713	83.12
274.945	71.12
275.176	103.12
275.408	81.12
275.64	85.12
275.872	88.12
276.104	99.12
276.335	79.12
276.567	76.12
276.799	85.12
277.031	76.12
277.262	78.12
277.494	79.12
277.726	82.12
277.957	97.12
278.189	95.12
278.421	75.12
278.652	60.12
278.884	86.12
279.115	90.12
279.347	83.12
279.579	85.12
279.81	87.12
280.042	92.12
280.273	86.12
280.505	90.12
280.736	92.12
280.968	80.12
281.199	86.12
281.431	88.12
281.662	78.12
281.894	80.12
282.125	80.12
282.356	84.12
282.588	86.12
282.819	91.12
283.051	95.12
283.282	85.12
283.513	99.12
283.745	93.12
283.976	88.12
284.207	95.12
284.439	75.12
284.67	69.12
284.901	79.12
285.132	93.12
285.364	88.12
285.595	88.12
285.826	83.12
286.057	103.12
286.288	83.12
286.52	86.12
286.751	83.12
286.982	87.12
287.213	78.12
287.444	93.12
287.675	81.12
287.906	83.12
288.138	97.12
288.369	75.12
288.6	100.12
288.831	81.12
289.062	76.12
289.293	88.12
289.524	87.12
289.755	92.12
289.986	90.12
290.217	81.12
290.448	87.12
290.679	92.12
290.91	87.12
291.141	95.12
291.371	78.12
291.602	88.12
291.833	88.12
292.064	72.12
292.295	64.12
292.526	78.12
292.757	82.12
292.987	92.12
293.218	85.12
293.449	84.12
293.68	91.12
293.91	89.12
294.141	90.12
294.372	109.12
294.603	81.12
294.833	91.12
295.064	84.12
295.295	79.12
295.525	86.12
295.756	85.12
295.987	83.12
296.217	93.12
296.448	65.12
296.679	87.12
296.909	89.12
297.14	77.12
297.37	95.12
297.601	83.12
297.831	93.12
298.062	85.12
298.292	82.12
298.523	78.12
298.753	82.12
298.984	96.12
299.214	88.12
299.445	97.12
299.675	64.12
299.905	91.12
300.136	73.12
300.366	108.12
300.597	99.12
300.827	84.12
301.057	77.12
301.288	92.12
301.518	95.12
301.748	71.12
301.979	100.12
302.209	87.12
302.439	75.12
302.669	87.12
302.9	85.12
303.13	86.12
303.36	105.12
303.59	90.12
303.82	68.12
304.051	83.12
304.281	89.12
304.511	91.12
304.741	81.12
304.971	89.12
305.201	77.12
305.431	96.12
305.661	73.12
305.891	69.12
306.121	87.12
306.352	90.12
306.582	96.12
306.812	88.12
307.042	80.12
307.272	79.12
307.502	91.12
307.731	89.12
307.961	80.12
308.191	89.12
308.421	90.12
308.651	99.12
308.881	91.12
309.111	99.12
309.341	89.12
309.571	85.12
309.8	83.12
310.03	85.12
310.26	95.12
310.49	77.12
310.72	84.12
310.949	83.12
311.179	82.12
311.409	88.12
311.639	81.12
311.868	98.12
312.098	81.12
312.328	76.12
312.557	85.12
312.787	92.12
313.017	93.12
313.246	87.12
313.476	87.12
313.706	88.12
313.935	89.12
314.165	83.12
314.394	96.12
314.624	77.12
314.853	90.12
315.083	95.12
315.312	91.12
315.542	86.12
315.771	86.12
316.001	92.12
316.23	85.12
316.46	76.12
316.689	83.12
316.919	92.12
317.148	104.12
317.377	101.12
317.607	99.12
317.836	79.12
318.065	89.12
318.295	84.12
318.524	89.12
318.753	101.12
318.983	99.12
319.212	68.12
319.441	91.12
319.67	94.12
319.9	67.12
320.129	85.12
320.358	96.12
320.587	85.12
320.816	92.12
321.046	97.12
321.275	87.12
321.504	66.12
321.733	69.12
321.962	94.12
322.191	98.12
322.42	85.12
322.649	92.12
322.878	95.12
323.108	95.12
323.337	72.12
323.566	85.12
323.795	103.12
324.024	90.12
324.253	81.12
324.482	84.12
324.71	94.12
324.939	98.12
325.168	75.12
325.397	83.12
325.626	93.12
325.855	79.12
326.084	101.12
326.313	91.12
326.542	83.12
326.77	97.12
326.999	90.12
327.228	90.12
327.457	90.12
327.686	96.12
327.914	104.12
328.143	86.12
328.372	86.12
328.6	87.12
328.829	103.12
329.058	96.12
329.287	90.12
329.515	80.12
329.744	88.12
329.972	87.12
330.201	90.12
330.43	78.12
330.658	95.12
330.887	84.12
331.115	87.12
331.344	92.12
331.572	90.12
331.801	86.12
332.03	77.12
332.258	103.12
332.486	84.12
332.715	87.12
332.943	81.12
333.172	84.12
333.4	86.12
333.629	91.12
333.857	82.12
334.085	100.12
334.314	82.12
334.542	86.12
334.771	92.12
334.999	99.12
335.227	75.12
335.455	98.12
335.684	73.12
335.912	92.12
336.14	71.12
336.369	95.12
336.597	96.12
336.825	91.12
337.053	89.12
337.281	84.12
337.51	101.12
337.738	84.12
337.966	92.12
338.194	91.12
338.422	85.12
338.65	83.12
338.878	96.12
339.106	84.12
339.334	84.12
339.562	93.12
339.79	88.12
340.018	85.12
340.246	89.12
340.474	80.12
340.702	78.12
340.93	90.12
341.158	85.12
341.386	95.12
341.614	111.12
341.842	101.12
342.07	74.12
342.298	87.12
342.526	88.12
342.754	85.12
342.981	84.12
343.209	93.12
343.437	87.12
343.665	82.12
343.893	80.12
344.12	86.12
344.348	88.12
344.576	81.12
344.804	83.12
345.031	92.12
345.259	95.12
345.487	87.12
345.714	92.12
345.942	77.12
346.17	96.12
346.397	102.12
346.625	83.12
346.853	84.12
347.08	80.12
347.308	81.12
347.535	80.12
347.763	76.12
347.99	89.12
348.218	95.12
348.445	105.12
348.673	92.12
348.9	93.12
349.128	87.12
349.355	102.12
349.583	80.12
349.81	80.12
350.037	92.12
350.265	82.12
350.492	94.12
350.72	95.12
350.947	88.12
351.174	89.12
351.402	97.12
351.629	98.12
351.856	83.12
352.083	86.12
352.311	97.12
352.538	85.12
352.765	76.12
352.992	101.12
353.22	82.12
353.447	86.12
353.674	76.12
353.901	86.12
354.128	91.12
354.355	91.12
354.583	91.12
354.81	85.12
355.037	91.12
355.264	89.12
355.491	99.12
355.718	85.12
355.945	86.12
356.172	93.12
356.399	107.12
356.626	86.12
356.853	85.12
357.08	83.12
357.307	87.12
357.534	79.12
357.761	106.12
357.988	91.12
358.215	98.12
358.441	72.12
358.668	87.12
358.895	85.12
359.122	87.12
359.349	83.12
359.576	99.12
359.802	88.12
360.029	85.12
360.256	95.12
360.483	82.12
360.709	74.12
360.936	89.12
361.163	75.12
361.39	94.12
361.616	86.12
361.843	86.12
362.07	88.12
362.296	101.12
362.523	84.12
362.749	103.12
362.976	96.12
363.203	109.12
363.429	109.12
363.656	86.12
363.882	95.12
364.109	113.12
364.335	102.12
364.562	125.12
364.788	101.12
365.015	87.12
365.241	88.12
365.468	85.12
365.694	83.12
365.92	86.12
366.147	82.12
366.373	90.12
366.599	84.12
366.826	79.12
367.052	102.12
367.278	75.12
367.505	86.12
367.731	97.12
367.957	92.12
368.184	97.12
368.41	94.12
368.636	85.12
368.862	88.12
369.089	88.12
369.315	89.12
369.541	90.12
369.767	87.12
369.993	89.12
370.219	88.12
370.445	80.12
370.672	86.12
370.898	87.12
371.124	84.12
371.35	76.12
371.576	91.12
371.802	70.12
372.028	81.12
372.254	100.12
372.48	85.12
372.706	87.12
372.932	96.12
373.158	92.12
373.384	97.12
373.61	108.12
373.835	103.12
374.061	96.12
374.287	87.12
374.513	74.12
374.739	93.12
374.965	80.12
375.191	79.12
375.416	82.12
375.642	98.12
375.868	99.12
376.094	95.12
376.319	75.12
376.545	76.12
376.771	87.12
376.997	85.12
377.222	95.12
377.448	79.12
377.674	87.12
377.899	88.12
378.125	96.12
378.35	98.12
378.576	83.12
378.802	88.12
379.027	87.12
379.253	87.12
379.478	90.12
379.704	89.12
379.929	82.12
380.155	91.12
380.38	92.12
380.606	86.12
380.831	87.12
381.057	86.12
381.282	81.12
381.507	92.12
381.733	100.12
381.958	99.12
382.184	83.12
382.409	93.12
382.634	78.12
382.86	89.12
383.085	88.12
383.31	81.12
383.535	100.12
383.761	96.12
383.986	91.12
384.211	92.12
384.436	82.12
384.662	82.12
384.887	74.12
385.112	90.12
385.337	95.12
385.562	92.12
385.787	77.12
386.013	85.12
386.238	103.12
386.463	97.12
386.688	107.12
386.913	97.12
387.138	82.12
387.363	79.12
387.588	99.12
387.813	96.12
388.038	94.12
388.263	106.12
388.488	95.12
388.713	76.12
388.938	90.12
389.163	77.12
389.387	86.12
389.612	87.12
389.837	82.12
390.062	95.12
390.287	90.12
390.512	85.12
390.736	95.12
390.961	91.12
391.186	95.12
391.411	84.12
391.636	89.12
391.86	87.12
392.085	89.12
392.31	92.12
392.534	107.12
392.759	99.12
392.984	131.12
393.208	176.12
393.433	259.12
393.658	191.12
393.882	105.12
394.107	93.12
394.331	100.12
394.556	93.12
394.78	84.12
395.005	90.12
395.229	93.12
395.454	101.12
395.678	98.12
395.903	98.12
396.127	117.12
396.352	119.12
396.576	138.12
396.801	177.12
397.025	211.12
397.249	125.12
397.474	97.12
397.698	95.12
397.922	87.12
398.147	98.12
398.371	84.12
398.595	84.12
398.82	97.12
399.044	95.12
399.268	82.12
399.492	61.12
399.717	93.12
399.941	77.12
400.165	98.12
400.389	101.12
400.613	87.12
400.837	86.12
401.062	88.12
401.286	87.12
401.51	91.12
401.734	89.12
401.958	75.12
402.182	87.12
402.406	99.12
402.63	85.12
402.854	79.12
403.078	89.12
403.302	89.12
403.526	82.12
403.75	95.12
403.974	88.12
404.198	92.12
404.422	105.12
404.645	101.12
404.869	101.12
405.093	90.12
405.317	77.12
405.541	98.12
405.765	89.12
405.988	97.12
406.212	98.12
406.436	82.12
406.66	76.12
406.883	86.12
407.107	85.12
407.331	89.12
407.555	99.12
407.778	123.12
408.002	89.12
408.226	88.12
408.449	98.12
408.673	77.12
408.896	90.12
409.12	84.12
409.344	80.12
409.567	99.12
409.791	96.12
410.014	95.12
410.238	96.12
410.461	93.12
410.685	75.12
410.908	104.12
411.132	83.12
411.355	82.12
411.578	100.12
411.802	95.12
412.025	73.12
412.249	79.12
412.472	89.12
412.695	81.12
412.919	92.12
413.142	83.12
413.365	85.12
413.589	81.12
413.812	85.12
414.035	95.12
414.258	77.12
414.482	76.12
414.705	87.12
414.928	81.12
415.151	96.12
415.374	86.12
415.597	63.12
415.821	87.12
416.044	83.12
416.267	70.12
416.49	82.12
416.713	75.12
416.936	104.12
417.159	78.12
417.382	87.12
417.605	83.12
417.828	95.12
418.051	87.12
418.274	92.12
418.497	75.12
418.72	80.12
418.943	83.12
419.166	81.12
419.389	88.12
419.611	93.12
419.834	93.12
420.057	96.12
420.28	78.12
420.503	89.12
420.726	91.12
420.948	103.12
421.171	83.12
421.394	82.12
421.617	107.12
421.839	113.12
422.062	113.12
422.285	159.12
422.507	245.12
422.73	317.12
422.953	313.12
423.175	193.12
423.398	125.12
423.621	123.12
423.843	118.12
424.066	96.12
424.288	96.12
424.511	94.12
424.733	106.12
424.956	99.12
425.178	83.12
425.401	87.12
425.623	90.12
425.846	84.12
426.068	96.12
426.291	104.12
426.513	79.12
426.735	88.12
426.958	75.12
427.18	91.12
427.402	88.12
427.625	75.12
427.847	84.12
428.069	112.12
428.292	107.12
428.514	117.12
428.736	113.12
428.958	112.12
429.181	128.12
429.403	102.12
429.625	115.12
429.847	122.12
430.069	137.12
430.292	162.12
430.514	146.12
430.736	121.12
430.958	128.12
431.18	98.12
431.402	84.12
431.624	98.12
431.846	118.12
432.068	110.12
432.29	91.12
432.512	95.12
432.734	88.12
432.956	87.12
433.178	89.12
433.4	83.12
433.622	87.12
433.844	91.12
434.066	85.12
434.287	81.12
434.509	84.12
434.731	87.12
434.953	86.12
435.175	90.12
435.397	77.12
435.618	89.12
435.84	87.12
436.062	88.12
436.284	73.12
436.505	95.12
436.727	88.12
436.949	92.12
437.17	76.12
437.392	97.12
437.614	82.12
437.835	81.12
438.057	91.12
438.278	84.12
438.5	86.12
438.721	92.12
438.943	104.12
439.165	69.12
439.386	93.12
439.608	99.12
439.829	85.12
440.05	80.12
440.272	78.12
440.493	79.12
440.715	86.12
440.936	88.12
441.158	84.12
441.379	80.12
441.6	89.12
441.822	98.12
442.043	97.12
442.264	96.12
442.486	126.12
442.707	133.12
442.928	125.12
443.149	106.12
443.371	141.12
443.592	215.12
443.813	156.12
444.034	100.12
444.255	89.12
444.476	87.12
444.698	97.12
444.919	92.12
445.14	180.12
445.361	203.12
445.582	239.12
445.803	209.12
446.024	119.12
446.245	88.12
446.466	85.12
446.687	85.12
446.908	84.12
447.129	98.12
447.35	80.12
447.571	84.12
447.792	85.12
448.013	76.12
448.234	89.12
448.455	84.12
448.675	83.12
448.896	85.12
449.117	87.12
449.338	68.12
449.559	99.12
449.779	85.12
450	101.12
450.221	88.12
450.442	65.12
450.662	95.12
450.883	90.12
451.104	99.12
451.324	96.12
451.545	99.12
451.766	73.12
451.986	85.12
452.207	85.12
452.428	99.12
452.648	93.12
452.869	111.12
453.089	78.12
453.31	79.12
453.53	81.12
453.751	88.12
453.971	91.12
454.192	77.12
454.412	92.12
454.633	97.12
454.853	83.12
455.073	71.12
455.294	85.12
455.514	91.12
455.734	79.12
455.955	89.12
456.175	89.12
456.395	94.12
456.616	100.12
456.836	92.12
457.056	88.12
457.276	87.12
457.497	90.12
457.717	82.12
457.937	108.12
458.157	130.12
458.377	120.12
458.598	124.12
458.818	110.12
459.038	94.12
459.258	100.12
459.478	85.12
459.698	98.12
459.918	86.12
460.138	90.12
460.358	83.12
460.578	80.12
460.798	108.12
461.018	115.12
461.238	106.12
461.458	87.12
461.678	87.12
461.898	76.12
462.118	85.12
462.338	83.12
462.558	81.12
462.777	91.12
462.997	92.12
463.217	80.12
463.437	95.12
463.657	75.12
463.876	86.12
464.096	85.12
464.316	76.12
464.536	90.12
464.755	73.12
464.975	79.12
465.195	96.12
465.414	91.12
465.634	80.12
465.854	90.12
466.073	87.12
466.293	91.12
466.512	90.12
466.732	70.12
466.951	95.12
467.171	83.12
467.391	80.12
467.61	80.12
467.829	81.12
468.049	88.12
468.268	71.12
468.488	98.12
468.707	90.12
468.927	88.12
469.146	82.12
469.365	87.12
469.585	86.12
469.804	61.12
470.023	96.12
470.243	82.12
470.462	84.12
470.681	95.12
470.901	89.12
471.12	92.12
471.339	85.12
471.558	91.12
471.777	92.12
471.997	91.12
472.216	87.12
472.435	76.12
472.654	93.12
472.873	76.12
473.092	95.12
473.311	92.12
473.53	76.12
473.749	94.12
473.968	76.12
474.187	93.12
474.406	85.12
474.625	99.12
474.844	77.12
475.063	93.12
475.282	78.12
475.501	71.12
475.72	90.12
475.939	89.12
476.158	97.12
476.377	88.12
476.596	78.12
476.814	78.12
477.033	91.12
477.252	83.12
477.471	83.12
477.69	85.12
477.908	84.12
478.127	98.12
478.346	90.12
478.564	80.12
478.783	93.12
479.002	85.12
479.22	86.12
479.439	93.12
479.658	87.12
479.876	90.12
480.095	102.12
480.313	73.12
480.532	90.12
480.751	86.12
480.969	84.12
481.188	97.12
481.406	92.12
481.624	89.12
481.843	80.12
482.061	92.12
482.28	81.12
482.498	86.12
482.717	87.12
482.935	100.12
483.153	97.12
483.372	86.12
483.59	92.12
483.808	93.12
484.027	90.12
484.245	87.12
484.463	85.12
484.681	84.12
484.9	97.12
485.118	93.12
485.336	100.12
485.554	105.12
485.772	91.12
485.99	92.12
486.209	92.12
486.427	80.12
486.645	79.12
486.863	85.12
487.081	71.12
487.299	102.12
487.517	90.12
487.735	101.12
487.953	158.12
488.171	124.12
488.389	85.12
488.607	97.12
488.825	90.12
489.043	89.12
489.261	95.12
489.479	93.12
489.696	72.12
489.914	82.12
490.132	84.12
490.35	95.12
490.568	87.12
490.786	83.12
491.003	83.12
491.221	95.12
491.439	95.12
491.657	86.12
491.874	95.12
492.092	91.12
492.31	95.12
492.527	96.12
492.745	103.12
492.963	105.12
493.18	90.12
493.398	90.12
493.615	84.12
493.833	90.12
494.05	80.12
494.268	111.12
494.485	79.12
494.703	90.12
494.92	86.12
495.138	96.12
495.355	95.12
495.573	101.12
495.79	84.12
496.008	87.12
496.225	90.12
496.442	99.12
496.66	81.12
496.877	89.12
497.094	77.12
497.312	90.12
497.529	97.12
497.746	91.12
497.963	85.12
498.181	84.12
498.398	91.12
498.615	87.12
498.832	85.12
499.049	89.12
499.267	74.12
499.484	95.12
499.701	83.12
499.918	92.12
500.135	78.12
500.352	96.12
500.569	89.12
500.786	99.12
501.003	101.12
501.22	76.12
501.437	83.12
501.654	81.12
501.871	89.12
502.088	89.12
502.305	99.12
502.522	93.12
502.739	76.12
502.956	90.12
503.172	76.12
503.389	80.12
503.606	88.12
503.823	85.12
504.04	93.12
504.256	119.12
504.473	122.12
504.69	88.12
504.907	99.12
505.123	78.12
505.34	95.12
505.557	90.12
505.773	98.12
505.99	85.12
506.207	94.12
506.423	89.12
506.64	79.12
506.856	83.12
507.073	90.12
507.289	87.12
507.506	90.12
507.722	80.12
507.939	76.12
508.155	96.12
508.372	99.12
508.588	93.12
508.805	99.12
509.021	75.12
509.238	76.12
509.454	87.12
509.67	79.12
509.887	90.12
510.103	89.12
510.319	86.12
510.536	86.12
510.752	102.12
510.968	84.12
511.184	93.12
511.401	89.12
511.617	85.12
511.833	93.12
512.049	96.12
512.265	95.12
512.481	85.12
512.698	99.12
512.914	85.12
513.13	87.12
513.346	87.12
513.562	91.12
513.778	65.12
513.994	73.12
514.21	74.12
514.426	104.12
514.642	83.12
514.858	77.12
515.074	76.12
515.29	97.12
515.506	73.12
515.721	95.12
515.937	93.12
516.153	92.12
516.369	95.12
516.585	103.12
516.801	89.12
517.016	89.12
517.232	92.12
517.448	84.12
517.664	84.12
517.879	96.12
518.095	81.12
518.311	87.12
518.527	102.12
518.742	102.12
518.958	132.12
519.173	136.12
519.389	93.12
519.605	72.12
519.82	99.12
520.036	101.12
520.251	90.12
520.467	98.12
520.682	93.12
520.898	89.12
521.113	92.12
521.329	85.12
521.544	83.12
521.76	91.12
521.975	89.12
522.19	97.12
522.406	92.12
522.621	87.12
522.836	107.12
523.052	96.12
523.267	96.12
523.482	90.12
523.698	99.12
523.913	82.12
524.128	108.12
524.343	92.12
524.559	85.12
524.774	88.12
524.989	88.12
525.204	83.12
525.419	106.12
525.634	99.12
525.849	95.12
526.064	138.12
526.28	191.12
526.495	256.12
526.71	259.12
526.925	185.12
527.14	225.12
527.355	204.12
527.57	90.12
527.785	87.12
527.999	82.12
528.214	105.12
528.429	102.12
528.644	92.12
528.859	78.12
529.074	87.12
529.289	91.12
529.503	80.12
529.718	87.12
529.933	99.12
530.148	90.12
530.363	96.12
530.577	84.12
530.792	89.12
531.007	79.12
531.221	108.12
531.436	92.12
531.651	96.12
531.865	85.12
532.08	85.12
532.295	98.12
532.509	87.12
532.724	97.12
532.938	103.12
533.153	90.12
533.367	103.12
533.582	104.12
533.796	98.12
534.011	92.12
534.225	97.12
534.44	96.12
534.654	104.12
534.868	111.12
535.083	145.12
535.297	137.12
535.511	107.12
535.726	99.12
535.94	95.12
536.154	90.12
536.369	94.12
536.583	88.12
536.797	100.12
537.011	100.12
537.225	94.12
537.44	104.12
537.654	94.12
537.868	101.12
538.082	100.12
538.296	86.12
538.51	107.12
538.724	103.12
538.938	93.12
539.153	83.12
539.367	92.12
539.581	99.12
539.795	99.12
540.009	121.12
540.222	107.12
540.436	95.12
540.65	105.12
540.864	92.12
541.078	104.12
541.292	91.12
541.506	113.12
541.72	83.12
541.934	96.12
542.147	87.12
542.361	96.12
542.575	97.12
542.789	99.12
543.002	101.12
543.216	96.12
543.43	92.12
543.644	95.12
543.857	91.12
544.071	93.12
544.285	113.12
544.498	90.12
544.712	107.12
544.925	93.12
545.139	112.12
545.352	113.12
545.566	103.12
545.779	97.12
545.993	113.12
546.206	87.12
546.42	104.12
546.633	108.12
546.847	124.12
547.06	133.12
547.274	130.12
547.487	128.12
547.7	149.12
547.914	164.12
548.127	175.12
548.34	177.12
548.554	158.12
548.767	163.12
548.98	177.12
549.193	177.12
549.407	173.12
549.62	192.12
549.833	217.12
550.046	204.12
550.259	209.12
550.473	194.12
550.686	222.12
550.899	231.12
551.112	256.12
551.325	279.12
551.538	279.12
551.751	249.12
551.964	233.12
552.177	225.12
552.39	233.12
552.603	214.12
552.816	234.12
553.029	228.12
553.242	241.12
553.455	217.12
553.667	239.12
553.88	249.12
554.093	235.12
554.306	267.12
554.519	243.12
554.732	245.12
554.944	241.12
555.157	224.12
555.37	236.12
555.583	232.12
555.795	208.12
556.008	201.12
556.221	195.12
556.433	188.12
556.646	172.12
556.859	171.12
557.071	163.12
557.284	171.12
557.496	164.12
557.709	137.12
557.921	153.12
558.134	155.12
558.346	181.12
558.559	162.12
558.771	176.12
558.984	263.12
559.196	328.12
559.409	178.12
559.621	257.12
559.833	201.12
560.046	238.12
560.258	209.12
560.47	189.12
560.683	149.12
560.895	101.12
561.107	107.12
561.32	113.12
561.532	111.12
561.744	118.12
561.956	103.12
562.168	97.12
562.381	102.12
562.593	111.12
562.805	113.12
563.017	108.12
563.229	107.12
563.441	101.12
563.653	89.12
563.865	108.12
564.077	111.12
564.289	87.12
564.501	99.12
564.713	113.12
564.925	96.12
565.137	94.12
565.349	105.12
565.561	101.12
565.773	112.12
565.985	97.12
566.197	95.12
566.408	106.12
566.62	113.12
566.832	97.12
567.044	93.12
567.255	102.12
567.467	100.12
567.679	113.12
567.891	106.12
568.102	93.12
568.314	95.12
568.526	87.12
568.737	99.12
568.949	103.12
569.161	94.12
569.372	90.12
569.584	105.12
569.795	88.12
570.007	109.12
570.218	102.12
570.43	93.12
570.641	93.12
570.853	104.12
571.064	106.12
571.276	100.12
571.487	104.12
571.698	91.12
571.91	86.12
572.121	88.12
572.333	84.12
572.544	97.12
572.755	99.12
572.966	88.12
573.178	105.12
573.389	95.12
573.6	95.12
573.811	118.12
574.023	98.12
574.234	94.12
574.445	104.12
574.656	91.12
574.867	87.12
575.078	91.12
575.289	80.12
575.501	89.12
575.712	109.12
575.923	97.12
576.134	100.12
576.345	92.12
576.556	92.12
576.767	98.12
576.978	94.12
577.188	97.12
577.399	90.12
577.61	88.12
577.821	90.12
578.032	83.12
578.243	103.12
578.454	98.12
578.665	91.12
578.875	99.12
579.086	91.12
579.297	101.12
579.508	91.12
579.718	95.12
579.929	99.12
580.14	96.12
580.35	111.12
580.561	108.12
580.772	93.12
580.982	90.12
581.193	103.12
581.403	95.12
581.614	82.12
581.825	102.12
582.035	90.12
582.246	95.12
582.456	91.12
582.667	103.12
582.877	93.12
583.087	94.12
583.298	84.12
583.508	89.12
583.719	98.12
583.929	100.12
584.139	102.12
584.35	102.12
584.56	105.12
584.77	99.12
584.981	97.12
585.191	104.12
585.401	111.12
585.611	113.12
585.821	152.12
586.032	201.12
586.242	117.12
586.452	90.12
586.662	93.12
586.872	97.12
587.082	92.12
587.292	94.12
587.502	109.12
587.713	94.12
587.923	102.12
588.133	118.12
588.343	111.12
588.553	101.12
588.762	116.12
588.972	176.12
589.182	353.12
589.392	252.12
589.602	178.12
589.812	314.12
590.022	181.12
590.232	115.12
590.441	99.12
590.651	107.12
590.861	105.12
591.071	113.12
591.281	104.12
591.49	101.12
591.7	92.12
591.91	108.12
592.119	110.12
592.329	119.12
592.539	105.12
592.748	111.12
592.958	114.12
593.167	108.12
593.377	102.12
593.587	116.12
593.796	117.12
594.006	121.12
594.215	137.12
594.424	122.12
594.634	120.12
594.843	117.12
595.053	145.12
595.262	136.12
595.472	127.12
595.681	133.12
595.89	148.12
596.1	170.12
596.309	149.12
596.518	146.12
596.727	145.12
596.937	160.12
597.146	181.12
597.355	170.12
597.564	159.12
597.774	159.12
597.983	167.12
598.192	169.12
598.401	173.12
598.61	182.12
598.819	195.12
599.028	190.12
599.237	192.12
599.446	192.12
599.655	180.12
599.864	190.12
600.073	185.12
600.282	184.12
600.491	193.12
600.7	181.12
600.909	181.12
601.118	159.12
601.327	155.12
601.536	163.12
601.745	151.12
601.953	148.12
602.162	151.12
602.371	151.12
602.58	156.12
602.789	167.12
602.997	162.12
603.206	156.12
603.415	176.12
603.623	184.12
603.832	166.12
604.041	183.12
604.249	186.12
604.458	183.12
604.666	189.12
604.875	183.12
605.084	208.12
605.292	201.12
605.501	207.12
605.709	204.12
605.918	215.12
606.126	218.12
606.334	220.12
606.543	200.12
606.751	212.12
606.96	197.12
607.168	213.12
607.376	179.12
607.585	182.12
607.793	184.12
608.001	192.12
608.21	179.12
608.418	193.12
608.626	200.12
608.834	219.12
609.043	195.12
609.251	206.12
609.459	210.12
609.667	209.12
609.875	213.12
610.083	224.12
610.291	218.12
610.499	276.12
610.707	229.12
610.916	212.12
611.124	223.12
611.332	205.12
611.54	190.12
611.748	219.12
611.955	241.12
612.163	239.12
612.371	344.12
612.579	311.12
612.787	241.12
612.995	239.12
613.203	235.12
613.411	225.12
613.618	220.12
613.826	213.12
614.034	225.12
614.242	247.12
614.449	248.12
614.657	214.12
614.865	205.12
615.072	232.12
615.28	225.12
615.488	229.12
615.695	227.12
615.903	234.12
616.111	249.12
616.318	345.12
616.526	389.12
616.733	272.12
616.941	260.12
617.148	301.12
617.356	279.12
617.563	219.12
617.771	227.12
617.978	236.12
618.185	191.12
618.393	213.12
618.6	214.12
618.807	209.12
619.015	217.12
619.222	204.12
619.429	196.12
619.637	193.12
619.844	223.12
620.051	192.12
620.258	189.12
620.466	195.12
620.673	195.12
620.88	187.12
621.087	200.12
621.294	169.12
621.501	196.12
621.708	204.12
621.915	205.12
622.122	215.12
622.329	185.12
622.536	200.12
622.743	186.12
622.95	194.12
623.157	199.12
623.364	218.12
623.571	206.12
623.778	213.12
623.985	212.12
624.192	216.12
624.399	195.12
624.606	207.12
624.812	211.12
625.019	192.12
625.226	213.12
625.433	202.12
625.639	192.12
625.846	199.12
626.053	193.12
626.259	191.12
626.466	175.12
626.673	157.12
626.879	159.12
627.086	171.12
627.293	192.12
627.499	181.12
627.706	151.12
627.912	142.12
628.119	143.12
628.325	135.12
628.532	123.12
628.738	130.12
628.945	104.12
629.151	107.12
629.357	103.12
629.564	121.12
629.77	106.12
629.976	121.12
630.183	119.12
630.389	125.12
630.595	114.12
630.802	104.12
631.008	104.12
631.214	92.12
631.42	89.12
631.627	119.12
631.833	108.12
632.039	117.12
632.245	100.12
632.451	83.12
632.657	96.12
632.863	101.12
633.069	91.12
633.275	107.12
633.481	95.12
633.688	99.12
633.893	93.12
634.099	112.12
634.305	100.12
634.511	103.12
634.717	107.12
634.923	97.12
635.129	118.12
635.335	95.12
635.541	117.12
635.747	112.12
635.952	102.12
636.158	101.12
636.364	105.12
636.57	95.12
636.775	95.12
636.981	93.12
637.187	101.12
637.392	105.12
637.598	96.12
637.804	112.12
638.009	90.12
638.215	95.12
638.421	93.12
638.626	111.12
638.832	95.12
639.037	96.12
639.243	89.12
639.448	102.12
639.654	112.12
639.859	91.12
640.065	102.12
640.27	100.12
640.475	95.12
640.681	97.12
640.886	87.12
641.091	100.12
641.297	100.12
641.502	117.12
641.707	93.12
641.913	108.12
642.118	113.12
642.323	103.12
642.528	103.12
642.733	105.12
642.939	92.12
643.144	108.12
643.349	95.12
643.554	101.12
643.759	111.12
643.964	139.12
644.169	177.12
644.374	105.12
644.579	109.12
644.784	87.12
644.989	96.12
645.194	119.12
645.399	116.12
645.604	99.12
645.809	93.12
646.014	95.12
646.219	87.12
646.423	140.12
646.628	120.12
646.833	106.12
647.038	97.12
647.243	109.12
647.447	113.12
647.652	92.12
647.857	87.12
648.062	86.12
648.266	94.12
648.471	110.12
648.676	103.12
648.88	106.12
649.085	92.12
649.289	85.12
649.494	108.12
649.698	112.12
649.903	92.12
650.107	96.12
650.312	103.12
650.516	95.12
650.721	88.12
650.925	84.12
651.13	92.12
651.334	81.12
651.539	88.12
651.743	90.12
651.947	78.12
652.152	93.12
652.356	87.12
652.56	91.12
652.764	93.12
652.969	108.12
653.173	93.12
653.377	85.12
653.581	88.12
653.785	96.12
653.99	91.12
654.194	93.12
654.398	75.12
654.602	104.12
654.806	81.12
655.01	91.12
655.214	88.12
655.418	77.12
655.622	95.12
655.826	89.12
656.03	84.12
656.234	89.12
656.438	79.12
656.642	87.12
656.846	88.12
657.049	88.12
657.253	84.12
657.457	83.12
657.661	90.12
657.865	73.12
658.068	90.12
658.272	94.12
658.476	84.12
658.68	90.12
658.883	74.12
659.087	88.12
659.291	77.12
659.494	76.12
659.698	85.12
659.901	81.12
660.105	88.12
660.309	84.12
660.512	86.12
660.716	87.12
660.919	83.12
661.123	85.12
661.326	93.12
661.53	75.12
661.733	89.12
661.936	77.12
662.14	67.12
662.343	78.12
662.546	79.12
662.75	82.12
662.953	73.12
663.156	91.12
663.36	76.12
663.563	87.12
663.766	87.12
663.969	101.12
664.173	78.12
664.376	91.12
664.579	79.12
664.782	84.12
664.985	97.12
665.188	92.12
665.391	76.12
665.594	77.12
665.797	94.12
666	72.12
666.203	83.12
666.406	79.12
666.609	81.12
666.812	80.12
667.015	74.12
667.218	89.12
667.421	91.12
667.624	95.12
667.827	72.12
668.03	73.12
668.232	76.12
668.435	76.12
668.638	81.12
668.841	99.12
669.043	82.12
669.246	80.12
669.449	96.12
669.651	100.12
669.854	74.12
670.057	78.12
670.259	79.12
670.462	75.12
670.665	85.12
670.867	83.12
671.07	93.12
671.272	83.12
671.475	82.12
671.677	70.12
671.88	67.12
672.082	85.12
672.284	98.12
672.487	90.12
672.689	77.12
672.892	75.12
