Data from Uncirc_1990_H10_HRD10591_00077.txt Node
Date: Wed Jan 03 11:54:07 EST 2024
User: Yrep
Spectrometer: HR+D1059
Trigger mode: 1
Integration Time (sec): 1.000000E-1
Scans to average: 1
Electric dark correction enabled: true
Nonlinearity correction enabled: false
Boxcar width: 0
XAxis mode: Wavelengths
Number of Pixels in Spectrum: 2048
>>>>>Begin Spectral Data<<<<<
223.165	-15.5
223.4	-15.5
223.635	-15.5
223.869	-21.5
224.104	-8.5
224.338	-15.5
224.573	-17.5
224.808	-14.5
225.042	-24.5
225.277	-1.5
225.511	-12.5
225.746	1.5
225.98	8.5
226.215	21.5
226.449	23.5
226.683	27.5
226.918	16.5
227.152	32.5
227.387	28.5
227.621	46.5
227.856	47.5
228.09	44.5
228.324	56.5
228.559	61.5
228.793	59.5
229.027	63.5
229.262	59.5
229.496	70.5
229.73	75.5
229.964	75.5
230.199	74.5
230.433	71.5
230.667	81.5
230.901	86.5
231.136	70.5
231.37	75.5
231.604	65.5
231.838	83.5
232.072	88.5
232.306	81.5
232.541	77.5
232.775	64.5
233.009	89.5
233.243	91.5
233.477	76.5
233.711	76.5
233.945	84.5
234.179	64.5
234.413	81.5
234.647	67.5
234.881	66.5
235.115	87.5
235.349	75.5
235.583	72.5
235.817	59.5
236.051	86.5
236.285	76.5
236.519	88.5
236.753	88.5
236.987	75.5
237.221	96.5
237.455	91.5
237.689	92.5
237.922	67.5
238.156	85.5
238.39	76.5
238.624	64.5
238.858	77.5
239.091	65.5
239.325	69.5
239.559	68.5
239.793	85.5
240.027	75.5
240.26	80.5
240.494	72.5
240.728	93.5
240.961	78.5
241.195	86.5
241.429	70.5
241.662	70.5
241.896	78.5
242.13	64.5
242.363	65.5
242.597	67.5
242.83	86.5
243.064	80.5
243.298	79.5
243.531	84.5
243.765	79.5
243.998	79.5
244.232	72.5
244.465	87.5
244.699	79.5
244.932	84.5
245.166	77.5
245.399	86.5
245.633	80.5
245.866	85.5
246.099	68.5
246.333	83.5
246.566	79.5
246.8	71.5
247.033	76.5
247.266	82.5
247.5	81.5
247.733	84.5
247.966	76.5
248.2	82.5
248.433	79.5
248.666	78.5
248.899	81.5
249.133	94.5
249.366	97.5
249.599	98.5
249.832	83.5
250.066	81.5
250.299	76.5
250.532	75.5
250.765	69.5
250.998	92.5
251.231	95.5
251.465	95.5
251.698	93.5
251.931	72.5
252.164	82.5
252.397	87.5
252.63	80.5
252.863	72.5
253.096	77.5
253.329	91.5
253.562	72.5
253.795	81.5
254.028	91.5
254.261	90.5
254.494	80.5
254.727	90.5
254.96	80.5
255.193	87.5
255.426	80.5
255.659	87.5
255.892	80.5
256.124	69.5
256.357	80.5
256.59	90.5
256.823	77.5
257.056	83.5
257.289	83.5
257.521	83.5
257.754	84.5
257.987	78.5
258.22	95.5
258.452	69.5
258.685	100.5
258.918	93.5
259.151	89.5
259.383	80.5
259.616	89.5
259.849	87.5
260.081	84.5
260.314	85.5
260.547	76.5
260.779	84.5
261.012	75.5
261.244	84.5
261.477	83.5
261.71	77.5
261.942	105.5
262.175	125.5
262.407	89.5
262.64	81.5
262.872	80.5
263.105	81.5
263.337	85.5
263.57	79.5
263.802	96.5
264.035	95.5
264.267	86.5
264.499	81.5
264.732	83.5
264.964	75.5
265.197	80.5
265.429	88.5
265.661	93.5
265.894	93.5
266.126	87.5
266.358	81.5
266.591	78.5
266.823	82.5
267.055	67.5
267.287	84.5
267.52	86.5
267.752	84.5
267.984	81.5
268.216	98.5
268.448	77.5
268.681	81.5
268.913	75.5
269.145	78.5
269.377	92.5
269.609	77.5
269.841	87.5
270.073	80.5
270.306	77.5
270.538	77.5
270.77	76.5
271.002	82.5
271.234	88.5
271.466	79.5
271.698	81.5
271.93	70.5
272.162	94.5
272.394	88.5
272.626	99.5
272.858	79.5
273.09	94.5
273.322	89.5
273.553	77.5
273.785	81.5
274.017	85.5
274.249	80.5
274.481	88.5
274.713	84.5
274.945	93.5
275.176	84.5
275.408	89.5
275.64	88.5
275.872	86.5
276.104	79.5
276.335	109.5
276.567	106.5
276.799	110.5
277.031	96.5
277.262	101.5
277.494	85.5
277.726	85.5
277.957	83.5
278.189	86.5
278.421	88.5
278.652	95.5
278.884	75.5
279.115	79.5
279.347	87.5
279.579	86.5
279.81	83.5
280.042	84.5
280.273	84.5
280.505	91.5
280.736	86.5
280.968	66.5
281.199	97.5
281.431	69.5
281.662	87.5
281.894	94.5
282.125	103.5
282.356	120.5
282.588	156.5
282.819	109.5
283.051	83.5
283.282	79.5
283.513	88.5
283.745	79.5
283.976	94.5
284.207	98.5
284.439	96.5
284.67	79.5
284.901	70.5
285.132	93.5
285.364	89.5
285.595	93.5
285.826	81.5
286.057	70.5
286.288	94.5
286.52	78.5
286.751	88.5
286.982	86.5
287.213	81.5
287.444	94.5
287.675	91.5
287.906	90.5
288.138	88.5
288.369	89.5
288.6	95.5
288.831	93.5
289.062	84.5
289.293	67.5
289.524	87.5
289.755	104.5
289.986	74.5
290.217	93.5
290.448	91.5
290.679	88.5
290.91	85.5
291.141	89.5
291.371	86.5
291.602	90.5
291.833	83.5
292.064	83.5
292.295	84.5
292.526	90.5
292.757	87.5
292.987	81.5
293.218	88.5
293.449	101.5
293.68	94.5
293.91	75.5
294.141	95.5
294.372	87.5
294.603	97.5
294.833	97.5
295.064	79.5
295.295	85.5
295.525	90.5
295.756	88.5
295.987	109.5
296.217	143.5
296.448	116.5
296.679	101.5
296.909	83.5
297.14	83.5
297.37	76.5
297.601	89.5
297.831	93.5
298.062	100.5
298.292	87.5
298.523	85.5
298.753	99.5
298.984	87.5
299.214	91.5
299.445	85.5
299.675	91.5
299.905	98.5
300.136	89.5
300.366	86.5
300.597	94.5
300.827	85.5
301.057	88.5
301.288	109.5
301.518	88.5
301.748	83.5
301.979	108.5
302.209	99.5
302.439	88.5
302.669	83.5
302.9	92.5
303.13	91.5
303.36	86.5
303.59	104.5
303.82	96.5
304.051	97.5
304.281	95.5
304.511	104.5
304.741	72.5
304.971	91.5
305.201	87.5
305.431	87.5
305.661	79.5
305.891	111.5
306.121	115.5
306.352	116.5
306.582	96.5
306.812	99.5
307.042	97.5
307.272	75.5
307.502	99.5
307.731	83.5
307.961	90.5
308.191	99.5
308.421	101.5
308.651	96.5
308.881	94.5
309.111	90.5
309.341	103.5
309.571	103.5
309.8	92.5
310.03	104.5
310.26	99.5
310.49	95.5
310.72	99.5
310.949	109.5
311.179	88.5
311.409	89.5
311.639	100.5
311.868	97.5
312.098	86.5
312.328	106.5
312.557	110.5
312.787	111.5
313.017	94.5
313.246	87.5
313.476	98.5
313.706	99.5
313.935	102.5
314.165	99.5
314.394	107.5
314.624	85.5
314.853	89.5
315.083	92.5
315.312	94.5
315.542	86.5
315.771	102.5
316.001	81.5
316.23	81.5
316.46	88.5
316.689	88.5
316.919	89.5
317.148	111.5
317.377	99.5
317.607	92.5
317.836	89.5
318.065	88.5
318.295	85.5
318.524	95.5
318.753	91.5
318.983	101.5
319.212	97.5
319.441	98.5
319.67	109.5
319.9	97.5
320.129	94.5
320.358	89.5
320.587	97.5
320.816	116.5
321.046	101.5
321.275	96.5
321.504	99.5
321.733	94.5
321.962	107.5
322.191	85.5
322.42	105.5
322.649	120.5
322.878	118.5
323.108	125.5
323.337	131.5
323.566	134.5
323.795	150.5
324.024	214.5
324.253	411.5
324.482	881.5
324.71	1841.5
324.939	2467.5
325.168	871.5
325.397	257.5
325.626	163.5
325.855	135.5
326.084	133.5
326.313	142.5
326.542	165.5
326.77	256.5
326.999	513.5
327.228	999.5
327.457	1892.5
327.686	1501.5
327.914	396.5
328.143	198.5
328.372	153.5
328.6	129.5
328.829	111.5
329.058	135.5
329.287	119.5
329.515	116.5
329.744	103.5
329.972	99.5
330.201	101.5
330.43	121.5
330.658	142.5
330.887	141.5
331.115	121.5
331.344	97.5
331.572	109.5
331.801	97.5
332.03	107.5
332.258	95.5
332.486	93.5
332.715	94.5
332.943	93.5
333.172	101.5
333.4	93.5
333.629	108.5
333.857	122.5
334.085	108.5
334.314	98.5
334.542	101.5
334.771	104.5
334.999	101.5
335.227	103.5
335.455	100.5
335.684	95.5
335.912	96.5
336.14	101.5
336.369	92.5
336.597	99.5
336.825	86.5
337.053	97.5
337.281	88.5
337.51	88.5
337.738	96.5
337.966	78.5
338.194	97.5
338.422	91.5
338.65	106.5
338.878	88.5
339.106	93.5
339.334	86.5
339.562	96.5
339.79	94.5
340.018	85.5
340.246	92.5
340.474	102.5
340.702	86.5
340.93	113.5
341.158	86.5
341.386	95.5
341.614	99.5
341.842	82.5
342.07	92.5
342.298	96.5
342.526	88.5
342.754	87.5
342.981	84.5
343.209	87.5
343.437	103.5
343.665	99.5
343.893	88.5
344.12	83.5
344.348	85.5
344.576	95.5
344.804	99.5
345.031	100.5
345.259	100.5
345.487	95.5
345.714	85.5
345.942	103.5
346.17	100.5
346.397	84.5
346.625	100.5
346.853	95.5
347.08	87.5
347.308	92.5
347.535	94.5
347.763	108.5
347.99	100.5
348.218	96.5
348.445	98.5
348.673	110.5
348.9	99.5
349.128	107.5
349.355	101.5
349.583	95.5
349.81	93.5
350.037	86.5
350.265	88.5
350.492	91.5
350.72	99.5
350.947	100.5
351.174	103.5
351.402	113.5
351.629	102.5
351.856	95.5
352.083	93.5
352.311	108.5
352.538	108.5
352.765	104.5
352.992	106.5
353.22	113.5
353.447	99.5
353.674	85.5
353.901	98.5
354.128	98.5
354.355	101.5
354.583	103.5
354.81	85.5
355.037	87.5
355.264	104.5
355.491	91.5
355.718	104.5
355.945	99.5
356.172	101.5
356.399	102.5
356.626	110.5
356.853	98.5
357.08	105.5
357.307	86.5
357.534	94.5
357.761	83.5
357.988	96.5
358.215	87.5
358.441	88.5
358.668	72.5
358.895	96.5
359.122	97.5
359.349	86.5
359.576	96.5
359.802	99.5
360.029	114.5
360.256	105.5
360.483	96.5
360.709	100.5
360.936	97.5
361.163	99.5
361.39	89.5
361.616	99.5
361.843	83.5
362.07	94.5
362.296	87.5
362.523	97.5
362.749	86.5
362.976	97.5
363.203	95.5
363.429	86.5
363.656	97.5
363.882	85.5
364.109	97.5
364.335	99.5
364.562	83.5
364.788	92.5
365.015	97.5
365.241	103.5
365.468	101.5
365.694	96.5
365.92	107.5
366.147	113.5
366.373	93.5
366.599	96.5
366.826	97.5
367.052	99.5
367.278	92.5
367.505	80.5
367.731	95.5
367.957	102.5
368.184	83.5
368.41	103.5
368.636	107.5
368.862	115.5
369.089	119.5
369.315	87.5
369.541	75.5
369.767	93.5
369.993	88.5
370.219	86.5
370.445	89.5
370.672	81.5
370.898	84.5
371.124	72.5
371.35	101.5
371.576	88.5
371.802	89.5
372.028	94.5
372.254	92.5
372.48	89.5
372.706	97.5
372.932	84.5
373.158	92.5
373.384	82.5
373.61	80.5
373.835	86.5
374.061	103.5
374.287	110.5
374.513	88.5
374.739	83.5
374.965	91.5
375.191	83.5
375.416	83.5
375.642	90.5
375.868	88.5
376.094	101.5
376.319	97.5
376.545	80.5
376.771	95.5
376.997	83.5
377.222	78.5
377.448	87.5
377.674	84.5
377.899	100.5
378.125	89.5
378.35	91.5
378.576	85.5
378.802	90.5
379.027	86.5
379.253	89.5
379.478	88.5
379.704	86.5
379.929	93.5
380.155	102.5
380.38	87.5
380.606	95.5
380.831	95.5
381.057	88.5
381.282	85.5
381.507	108.5
381.733	100.5
381.958	92.5
382.184	98.5
382.409	110.5
382.634	102.5
382.86	85.5
383.085	97.5
383.31	105.5
383.535	115.5
383.761	105.5
383.986	97.5
384.211	108.5
384.436	101.5
384.662	94.5
384.887	101.5
385.112	93.5
385.337	108.5
385.562	93.5
385.787	96.5
386.013	95.5
386.238	96.5
386.463	98.5
386.688	99.5
386.913	89.5
387.138	95.5
387.363	92.5
387.588	92.5
387.813	91.5
388.038	100.5
388.263	91.5
388.488	107.5
388.713	91.5
388.938	93.5
389.163	87.5
389.387	89.5
389.612	91.5
389.837	95.5
390.062	97.5
390.287	92.5
390.512	106.5
390.736	90.5
390.961	96.5
391.186	99.5
391.411	91.5
391.636	80.5
391.86	85.5
392.085	93.5
392.31	86.5
392.534	86.5
392.759	80.5
392.984	77.5
393.208	97.5
393.433	97.5
393.658	92.5
393.882	81.5
394.107	77.5
394.331	84.5
394.556	94.5
394.78	91.5
395.005	95.5
395.229	83.5
395.454	83.5
395.678	94.5
395.903	85.5
396.127	102.5
396.352	97.5
396.576	94.5
396.801	93.5
397.025	86.5
397.249	83.5
397.474	91.5
397.698	88.5
397.922	90.5
398.147	96.5
398.371	81.5
398.595	95.5
398.82	101.5
399.044	99.5
399.268	102.5
399.492	82.5
399.717	100.5
399.941	77.5
400.165	96.5
400.389	75.5
400.613	83.5
400.837	85.5
401.062	87.5
401.286	81.5
401.51	85.5
401.734	98.5
401.958	108.5
402.182	115.5
402.406	162.5
402.63	103.5
402.854	98.5
403.078	90.5
403.302	83.5
403.526	95.5
403.75	97.5
403.974	97.5
404.198	83.5
404.422	99.5
404.645	96.5
404.869	94.5
405.093	91.5
405.317	114.5
405.541	93.5
405.765	99.5
405.988	119.5
406.212	155.5
406.436	223.5
406.66	140.5
406.883	101.5
407.107	91.5
407.331	112.5
407.555	101.5
407.778	83.5
408.002	95.5
408.226	86.5
408.449	91.5
408.673	91.5
408.896	103.5
409.12	91.5
409.344	85.5
409.567	95.5
409.791	91.5
410.014	99.5
410.238	94.5
410.461	95.5
410.685	112.5
410.908	90.5
411.132	112.5
411.355	97.5
411.578	101.5
411.802	83.5
412.025	78.5
412.249	99.5
412.472	106.5
412.695	102.5
412.919	87.5
413.142	98.5
413.365	87.5
413.589	81.5
413.812	101.5
414.035	93.5
414.258	99.5
414.482	91.5
414.705	84.5
414.928	95.5
415.151	88.5
415.374	100.5
415.597	87.5
415.821	98.5
416.044	91.5
416.267	75.5
416.49	106.5
416.713	85.5
416.936	99.5
417.159	78.5
417.382	91.5
417.605	92.5
417.828	83.5
418.051	111.5
418.274	96.5
418.497	84.5
418.72	93.5
418.943	101.5
419.166	98.5
419.389	99.5
419.611	99.5
419.834	78.5
420.057	88.5
420.28	93.5
420.503	85.5
420.726	79.5
420.948	79.5
421.171	82.5
421.394	72.5
421.617	93.5
421.839	95.5
422.062	90.5
422.285	93.5
422.507	100.5
422.73	92.5
422.953	97.5
423.175	96.5
423.398	83.5
423.621	91.5
423.843	73.5
424.066	75.5
424.288	90.5
424.511	94.5
424.733	85.5
424.956	115.5
425.178	100.5
425.401	105.5
425.623	116.5
425.846	100.5
426.068	103.5
426.291	92.5
426.513	81.5
426.735	98.5
426.958	96.5
427.18	110.5
427.402	146.5
427.625	167.5
427.847	131.5
428.069	110.5
428.292	90.5
428.514	79.5
428.736	79.5
428.958	87.5
429.181	85.5
429.403	79.5
429.625	93.5
429.847	91.5
430.069	103.5
430.292	98.5
430.514	91.5
430.736	77.5
430.958	84.5
431.18	97.5
431.402	83.5
431.624	79.5
431.846	95.5
432.068	85.5
432.29	89.5
432.512	97.5
432.734	87.5
432.956	84.5
433.178	102.5
433.4	97.5
433.622	92.5
433.844	96.5
434.066	88.5
434.287	92.5
434.509	89.5
434.731	93.5
434.953	94.5
435.175	87.5
435.397	93.5
435.618	96.5
435.84	102.5
436.062	105.5
436.284	101.5
436.505	97.5
436.727	109.5
436.949	101.5
437.17	85.5
437.392	91.5
437.614	97.5
437.835	121.5
438.057	127.5
438.278	121.5
438.5	110.5
438.721	122.5
438.943	119.5
439.165	107.5
439.386	103.5
439.608	93.5
439.829	114.5
440.05	118.5
440.272	145.5
440.493	107.5
440.715	87.5
440.936	91.5
441.158	92.5
441.379	79.5
441.6	94.5
441.822	92.5
442.043	93.5
442.264	110.5
442.486	109.5
442.707	94.5
442.928	119.5
443.149	126.5
443.371	126.5
443.592	110.5
443.813	101.5
444.034	111.5
444.255	87.5
444.476	84.5
444.698	99.5
444.919	100.5
445.14	142.5
445.361	123.5
445.582	113.5
445.803	132.5
446.024	123.5
446.245	131.5
446.466	115.5
446.687	99.5
446.908	91.5
447.129	90.5
447.35	94.5
447.571	96.5
447.792	98.5
448.013	116.5
448.234	110.5
448.455	105.5
448.675	120.5
448.896	121.5
449.117	101.5
449.338	111.5
449.559	130.5
449.779	140.5
450	107.5
450.221	93.5
450.442	83.5
450.662	97.5
450.883	95.5
451.104	100.5
451.324	103.5
451.545	81.5
451.766	84.5
451.986	75.5
452.207	88.5
452.428	97.5
452.648	92.5
452.869	104.5
453.089	111.5
453.31	118.5
453.53	87.5
453.751	95.5
453.971	93.5
454.192	118.5
454.412	91.5
454.633	107.5
454.853	89.5
455.073	83.5
455.294	84.5
455.514	105.5
455.734	82.5
455.955	90.5
456.175	81.5
456.395	85.5
456.616	105.5
456.836	83.5
457.056	80.5
457.276	71.5
457.497	82.5
457.717	86.5
457.937	96.5
458.157	86.5
458.377	96.5
458.598	106.5
458.818	157.5
459.038	159.5
459.258	128.5
459.478	84.5
459.698	84.5
459.918	85.5
460.138	96.5
460.358	85.5
460.578	97.5
460.798	87.5
461.018	103.5
461.238	102.5
461.458	77.5
461.678	73.5
461.898	96.5
462.118	96.5
462.338	88.5
462.558	95.5
462.777	89.5
462.997	84.5
463.217	97.5
463.437	90.5
463.657	88.5
463.876	95.5
464.096	76.5
464.316	82.5
464.536	85.5
464.755	86.5
464.975	99.5
465.195	150.5
465.414	153.5
465.634	95.5
465.854	81.5
466.073	98.5
466.293	86.5
466.512	92.5
466.732	86.5
466.951	86.5
467.171	90.5
467.391	81.5
467.61	92.5
467.829	108.5
468.049	85.5
468.268	113.5
468.488	83.5
468.707	92.5
468.927	81.5
469.146	94.5
469.365	78.5
469.585	73.5
469.804	109.5
470.023	96.5
470.243	104.5
470.462	111.5
470.681	105.5
470.901	82.5
471.12	87.5
471.339	87.5
471.558	88.5
471.777	83.5
471.997	96.5
472.216	98.5
472.435	114.5
472.654	93.5
472.873	84.5
473.092	84.5
473.311	92.5
473.53	94.5
473.749	82.5
473.968	91.5
474.187	100.5
474.406	102.5
474.625	94.5
474.844	84.5
475.063	79.5
475.282	85.5
475.501	95.5
475.72	89.5
475.939	87.5
476.158	69.5
476.377	91.5
476.596	85.5
476.814	81.5
477.033	96.5
477.252	87.5
477.471	79.5
477.69	97.5
477.908	102.5
478.127	92.5
478.346	79.5
478.564	90.5
478.783	87.5
479.002	87.5
479.22	97.5
479.439	94.5
479.658	95.5
479.876	94.5
480.095	88.5
480.313	86.5
480.532	83.5
480.751	99.5
480.969	104.5
481.188	162.5
481.406	125.5
481.624	93.5
481.843	92.5
482.061	80.5
482.28	88.5
482.498	81.5
482.717	82.5
482.935	97.5
483.153	79.5
483.372	87.5
483.59	83.5
483.808	95.5
484.027	92.5
484.245	81.5
484.463	94.5
484.681	106.5
484.9	91.5
485.118	86.5
485.336	93.5
485.554	96.5
485.772	98.5
485.99	110.5
486.209	111.5
486.427	108.5
486.645	116.5
486.863	104.5
487.081	110.5
487.299	115.5
487.517	103.5
487.735	96.5
487.953	100.5
488.171	86.5
488.389	100.5
488.607	95.5
488.825	87.5
489.043	97.5
489.261	91.5
489.479	77.5
489.696	89.5
489.914	87.5
490.132	81.5
490.35	84.5
490.568	101.5
490.786	81.5
491.003	88.5
491.221	86.5
491.439	94.5
491.657	91.5
491.874	104.5
492.092	84.5
492.31	92.5
492.527	92.5
492.745	85.5
492.963	92.5
493.18	92.5
493.398	73.5
493.615	100.5
493.833	94.5
494.05	82.5
494.268	93.5
494.485	93.5
494.703	94.5
494.92	94.5
495.138	100.5
495.355	103.5
495.573	96.5
495.79	96.5
496.008	92.5
496.225	93.5
496.442	91.5
496.66	91.5
496.877	88.5
497.094	93.5
497.312	81.5
497.529	84.5
497.746	86.5
497.963	95.5
498.181	83.5
498.398	106.5
498.615	103.5
498.832	107.5
499.049	103.5
499.267	96.5
499.484	89.5
499.701	99.5
499.918	96.5
500.135	103.5
500.352	91.5
500.569	84.5
500.786	100.5
501.003	87.5
501.22	86.5
501.437	80.5
501.654	107.5
501.871	101.5
502.088	92.5
502.305	97.5
502.522	105.5
502.739	84.5
502.956	89.5
503.172	95.5
503.389	83.5
503.606	94.5
503.823	112.5
504.04	87.5
504.256	100.5
504.473	108.5
504.69	99.5
504.907	95.5
505.123	95.5
505.34	87.5
505.557	89.5
505.773	89.5
505.99	87.5
506.207	101.5
506.423	89.5
506.64	99.5
506.856	102.5
507.073	100.5
507.289	101.5
507.506	96.5
507.722	110.5
507.939	103.5
508.155	114.5
508.372	97.5
508.588	95.5
508.805	101.5
509.021	88.5
509.238	101.5
509.454	91.5
509.67	96.5
509.887	109.5
510.103	125.5
510.319	190.5
510.536	763.5
510.752	2469.5
510.968	665.5
511.184	160.5
511.401	115.5
511.617	104.5
511.833	100.5
512.049	91.5
512.265	91.5
512.481	96.5
512.698	81.5
512.914	91.5
513.13	110.5
513.346	86.5
513.562	90.5
513.778	95.5
513.994	104.5
514.21	99.5
514.426	116.5
514.642	135.5
514.858	129.5
515.074	171.5
515.29	456.5
515.506	1514.5
515.721	541.5
515.937	163.5
516.153	99.5
516.369	109.5
516.585	101.5
516.801	89.5
517.016	94.5
517.232	100.5
517.448	98.5
517.664	89.5
517.879	87.5
518.095	94.5
518.311	100.5
518.527	91.5
518.742	95.5
518.958	91.5
519.173	105.5
519.389	107.5
519.605	97.5
519.82	90.5
520.036	95.5
520.251	133.5
520.467	103.5
520.682	114.5
520.898	109.5
521.113	113.5
521.329	141.5
521.544	209.5
521.76	550.5
521.975	2481.5
522.19	1473.5
522.406	303.5
522.621	122.5
522.836	101.5
523.052	99.5
523.267	93.5
523.482	94.5
523.698	105.5
523.913	108.5
524.128	112.5
524.343	91.5
524.559	92.5
524.774	75.5
524.989	98.5
525.204	87.5
525.419	96.5
525.634	111.5
525.849	90.5
526.064	93.5
526.28	97.5
526.495	85.5
526.71	94.5
526.925	82.5
527.14	98.5
527.355	99.5
527.57	89.5
527.785	95.5
527.999	93.5
528.214	88.5
528.429	103.5
528.644	100.5
528.859	84.5
529.074	103.5
529.289	123.5
529.503	186.5
529.718	106.5
529.933	103.5
530.148	96.5
530.363	101.5
530.577	87.5
530.792	96.5
531.007	105.5
531.221	106.5
531.436	97.5
531.651	99.5
531.865	93.5
532.08	87.5
532.295	93.5
532.509	94.5
532.724	86.5
532.938	102.5
533.153	100.5
533.367	101.5
533.582	88.5
533.796	99.5
534.011	99.5
534.225	99.5
534.44	96.5
534.654	86.5
534.868	104.5
535.083	108.5
535.297	100.5
535.511	95.5
535.726	95.5
535.94	103.5
536.154	112.5
536.369	87.5
536.583	89.5
536.797	90.5
537.011	98.5
537.225	104.5
537.44	108.5
537.654	86.5
537.868	81.5
538.082	101.5
538.296	91.5
538.51	96.5
538.724	84.5
538.938	84.5
539.153	108.5
539.367	99.5
539.581	100.5
539.795	83.5
540.009	81.5
540.222	102.5
540.436	82.5
540.65	86.5
540.864	89.5
541.078	83.5
541.292	91.5
541.506	93.5
541.72	95.5
541.934	102.5
542.147	87.5
542.361	80.5
542.575	89.5
542.789	94.5
543.002	86.5
543.216	87.5
543.43	87.5
543.644	91.5
543.857	89.5
544.071	106.5
544.285	93.5
544.498	97.5
544.712	94.5
544.925	75.5
545.139	91.5
545.352	95.5
545.566	91.5
545.779	93.5
545.993	92.5
546.206	98.5
546.42	91.5
546.633	85.5
546.847	99.5
547.06	98.5
547.274	85.5
547.487	100.5
547.7	108.5
547.914	91.5
548.127	92.5
548.34	89.5
548.554	92.5
548.767	87.5
548.98	92.5
549.193	91.5
549.407	75.5
549.62	95.5
549.833	79.5
550.046	107.5
550.259	98.5
550.473	81.5
550.686	85.5
550.899	69.5
551.112	85.5
551.325	85.5
551.538	90.5
551.751	92.5
551.964	99.5
552.177	81.5
552.39	101.5
552.603	93.5
552.816	99.5
553.029	94.5
553.242	68.5
553.455	97.5
553.667	104.5
553.88	111.5
554.093	88.5
554.306	92.5
554.519	86.5
554.732	87.5
554.944	97.5
555.157	91.5
555.37	101.5
555.583	99.5
555.795	96.5
556.008	97.5
556.221	86.5
556.433	94.5
556.646	79.5
556.859	93.5
557.071	97.5
557.284	84.5
557.496	89.5
557.709	94.5
557.921	85.5
558.134	97.5
558.346	86.5
558.559	98.5
558.771	82.5
558.984	102.5
559.196	95.5
559.409	82.5
559.621	72.5
559.833	95.5
560.046	89.5
560.258	97.5
560.47	84.5
560.683	79.5
560.895	77.5
561.107	98.5
561.32	93.5
561.532	88.5
561.744	93.5
561.956	92.5
562.168	86.5
562.381	87.5
562.593	97.5
562.805	95.5
563.017	99.5
563.229	113.5
563.441	98.5
563.653	95.5
563.865	75.5
564.077	101.5
564.289	89.5
564.501	85.5
564.713	101.5
564.925	93.5
565.137	85.5
565.349	99.5
565.561	91.5
565.773	99.5
565.985	94.5
566.197	85.5
566.408	87.5
566.62	100.5
566.832	89.5
567.044	91.5
567.255	81.5
567.467	71.5
567.679	80.5
567.891	84.5
568.102	81.5
568.314	76.5
568.526	93.5
568.737	89.5
568.949	93.5
569.161	90.5
569.372	85.5
569.584	91.5
569.795	83.5
570.007	119.5
570.218	244.5
570.43	130.5
570.641	90.5
570.853	94.5
571.064	102.5
571.276	95.5
571.487	91.5
571.698	97.5
571.91	95.5
572.121	95.5
572.333	101.5
572.544	91.5
572.755	81.5
572.966	75.5
573.178	96.5
573.389	98.5
573.6	98.5
573.811	96.5
574.023	79.5
574.234	81.5
574.445	73.5
574.656	77.5
574.867	76.5
575.078	87.5
575.289	103.5
575.501	83.5
575.712	80.5
575.923	87.5
576.134	88.5
576.345	92.5
576.556	99.5
576.767	84.5
576.978	96.5
577.188	98.5
577.399	83.5
577.61	99.5
577.821	104.5
578.032	114.5
578.243	282.5
578.454	767.5
578.665	209.5
578.875	120.5
579.086	95.5
579.297	79.5
579.508	99.5
579.718	95.5
579.929	96.5
580.14	72.5
580.35	82.5
580.561	94.5
580.772	83.5
580.982	81.5
581.193	87.5
581.403	97.5
581.614	79.5
581.825	87.5
582.035	97.5
582.246	90.5
582.456	81.5
582.667	85.5
582.877	90.5
583.087	84.5
583.298	90.5
583.508	94.5
583.719	86.5
583.929	76.5
584.139	81.5
584.35	95.5
584.56	81.5
584.77	86.5
584.981	88.5
585.191	86.5
585.401	79.5
585.611	100.5
585.821	65.5
586.032	96.5
586.242	82.5
586.452	82.5
586.662	80.5
586.872	75.5
587.082	97.5
587.292	81.5
587.502	80.5
587.713	84.5
587.923	73.5
588.133	98.5
588.343	78.5
588.553	80.5
588.762	97.5
588.972	77.5
589.182	102.5
589.392	107.5
589.602	82.5
589.812	100.5
590.022	89.5
590.232	75.5
590.441	82.5
590.651	97.5
590.861	79.5
591.071	79.5
591.281	80.5
591.49	88.5
591.7	84.5
591.91	98.5
592.119	96.5
592.329	90.5
592.539	103.5
592.748	105.5
592.958	96.5
593.167	81.5
593.377	72.5
593.587	91.5
593.796	86.5
594.006	89.5
594.215	96.5
594.424	85.5
594.634	93.5
594.843	87.5
595.053	80.5
595.262	91.5
595.472	99.5
595.681	92.5
595.89	96.5
596.1	86.5
596.309	77.5
596.518	83.5
596.727	84.5
596.937	87.5
597.146	87.5
597.355	93.5
597.564	90.5
597.774	98.5
597.983	103.5
598.192	88.5
598.401	89.5
598.61	87.5
598.819	93.5
599.028	96.5
599.237	91.5
599.446	80.5
599.655	94.5
599.864	71.5
600.073	91.5
600.282	79.5
600.491	88.5
600.7	82.5
600.909	93.5
601.118	89.5
601.327	93.5
601.536	92.5
601.745	93.5
601.953	84.5
602.162	78.5
602.371	91.5
602.58	90.5
602.789	75.5
602.997	88.5
603.206	99.5
603.415	92.5
603.623	91.5
603.832	78.5
604.041	67.5
604.249	86.5
604.458	79.5
604.666	88.5
604.875	93.5
605.084	86.5
605.292	84.5
605.501	88.5
605.709	70.5
605.918	97.5
606.126	80.5
606.334	87.5
606.543	92.5
606.751	87.5
606.96	89.5
607.168	99.5
607.376	92.5
607.585	98.5
607.793	96.5
608.001	90.5
608.21	93.5
608.418	79.5
608.626	87.5
608.834	89.5
609.043	87.5
609.251	103.5
609.459	77.5
609.667	88.5
609.875	90.5
610.083	77.5
610.291	95.5
610.499	81.5
610.707	79.5
610.916	92.5
611.124	91.5
611.332	102.5
611.54	97.5
611.748	93.5
611.955	86.5
612.163	94.5
612.371	77.5
612.579	83.5
612.787	89.5
612.995	84.5
613.203	86.5
613.411	91.5
613.618	95.5
613.826	88.5
614.034	79.5
614.242	67.5
614.449	79.5
614.657	79.5
614.865	86.5
615.072	91.5
615.28	74.5
615.488	78.5
615.695	93.5
615.903	94.5
616.111	83.5
616.318	90.5
616.526	83.5
616.733	102.5
616.941	103.5
617.148	88.5
617.356	103.5
617.563	87.5
617.771	100.5
617.978	86.5
618.185	98.5
618.393	97.5
618.6	82.5
618.807	80.5
619.015	80.5
619.222	82.5
619.429	96.5
619.637	72.5
619.844	86.5
620.051	84.5
620.258	73.5
620.466	92.5
620.673	90.5
620.88	77.5
621.087	72.5
621.294	93.5
621.501	89.5
621.708	76.5
621.915	92.5
622.122	67.5
622.329	91.5
622.536	90.5
622.743	90.5
622.95	76.5
623.157	89.5
623.364	88.5
623.571	98.5
623.778	98.5
623.985	96.5
624.192	92.5
624.399	82.5
624.606	92.5
624.812	89.5
625.019	85.5
625.226	84.5
625.433	88.5
625.639	88.5
625.846	88.5
626.053	89.5
626.259	87.5
626.466	93.5
626.673	85.5
626.879	88.5
627.086	79.5
627.293	97.5
627.499	79.5
627.706	80.5
627.912	89.5
628.119	81.5
628.325	87.5
628.532	69.5
628.738	83.5
628.945	80.5
629.151	86.5
629.357	79.5
629.564	92.5
629.77	102.5
629.976	82.5
630.183	88.5
630.389	91.5
630.595	100.5
630.802	91.5
631.008	97.5
631.214	84.5
631.42	75.5
631.627	92.5
631.833	80.5
632.039	92.5
632.245	71.5
632.451	85.5
632.657	78.5
632.863	73.5
633.069	79.5
633.275	81.5
633.481	95.5
633.688	85.5
633.893	83.5
634.099	73.5
634.305	91.5
634.511	94.5
634.717	90.5
634.923	81.5
635.129	89.5
635.335	84.5
635.541	80.5
635.747	99.5
635.952	96.5
636.158	101.5
636.364	79.5
636.57	82.5
636.775	81.5
636.981	95.5
637.187	95.5
637.392	77.5
637.598	81.5
637.804	90.5
638.009	68.5
638.215	88.5
638.421	80.5
638.626	71.5
638.832	71.5
639.037	78.5
639.243	81.5
639.448	88.5
639.654	90.5
639.859	95.5
640.065	82.5
640.27	85.5
640.475	82.5
640.681	85.5
640.886	97.5
641.091	85.5
641.297	84.5
641.502	89.5
641.707	94.5
641.913	97.5
642.118	86.5
642.323	101.5
642.528	85.5
642.733	80.5
642.939	81.5
643.144	84.5
643.349	80.5
643.554	85.5
643.759	94.5
643.964	77.5
644.169	88.5
644.374	81.5
644.579	84.5
644.784	81.5
644.989	81.5
645.194	82.5
645.399	83.5
645.604	72.5
645.809	83.5
646.014	96.5
646.219	90.5
646.423	98.5
646.628	86.5
646.833	94.5
647.038	81.5
647.243	92.5
647.447	96.5
647.652	93.5
647.857	91.5
648.062	75.5
648.266	102.5
648.471	103.5
648.676	108.5
648.88	95.5
649.085	110.5
649.289	86.5
649.494	106.5
649.698	138.5
649.903	100.5
650.107	88.5
650.312	99.5
650.516	85.5
650.721	90.5
650.925	83.5
651.13	102.5
651.334	73.5
651.539	91.5
651.743	85.5
651.947	90.5
652.152	92.5
652.356	84.5
652.56	82.5
652.764	80.5
652.969	80.5
653.173	77.5
653.377	82.5
653.581	76.5
653.785	78.5
653.99	77.5
654.194	80.5
654.398	99.5
654.602	83.5
654.806	78.5
655.01	108.5
655.214	92.5
655.418	85.5
655.622	84.5
655.826	84.5
656.03	87.5
656.234	86.5
656.438	104.5
656.642	94.5
656.846	88.5
657.049	90.5
657.253	91.5
657.457	86.5
657.661	79.5
657.865	88.5
658.068	87.5
658.272	75.5
658.476	79.5
658.68	78.5
658.883	80.5
659.087	67.5
659.291	67.5
659.494	84.5
659.698	80.5
659.901	69.5
660.105	84.5
660.309	78.5
660.512	75.5
660.716	78.5
660.919	84.5
661.123	85.5
661.326	84.5
661.53	83.5
661.733	82.5
661.936	86.5
662.14	80.5
662.343	92.5
662.546	84.5
662.75	84.5
662.953	91.5
663.156	79.5
663.36	77.5
663.563	89.5
663.766	80.5
663.969	93.5
664.173	80.5
664.376	83.5
664.579	78.5
664.782	86.5
664.985	87.5
665.188	80.5
665.391	86.5
665.594	84.5
665.797	76.5
666	82.5
666.203	73.5
666.406	81.5
666.609	88.5
666.812	82.5
667.015	82.5
667.218	84.5
667.421	79.5
667.624	80.5
667.827	72.5
668.03	86.5
668.232	81.5
668.435	93.5
668.638	71.5
668.841	90.5
669.043	85.5
669.246	75.5
669.449	90.5
669.651	81.5
669.854	70.5
670.057	85.5
670.259	65.5
670.462	82.5
670.665	77.5
670.867	79.5
671.07	80.5
671.272	92.5
671.475	79.5
671.677	84.5
671.88	68.5
672.082	79.5
672.284	62.5
672.487	71.5
672.689	74.5
672.892	83.5
