Data from Uncirc_1990_H10_HRD10591_00065.txt Node
Date: Wed Jan 03 11:54:04 EST 2024
User: Yrep
Spectrometer: HR+D1059
Trigger mode: 1
Integration Time (sec): 1.000000E-1
Scans to average: 1
Electric dark correction enabled: true
Nonlinearity correction enabled: false
Boxcar width: 0
XAxis mode: Wavelengths
Number of Pixels in Spectrum: 2048
>>>>>Begin Spectral Data<<<<<
223.165	-26.25
223.4	-26.25
223.635	-26.25
223.869	-11.25
224.104	-20.25
224.338	-14.25
224.573	-21.25
224.808	-0.25
225.042	-6.25
225.277	0.75
225.511	11.75
225.746	-1.25
225.98	11.75
226.215	16.75
226.449	4.75
226.683	22.75
226.918	11.75
227.152	20.75
227.387	25.75
227.621	32.75
227.856	49.75
228.09	54.75
228.324	46.75
228.559	50.75
228.793	55.75
229.027	54.75
229.262	60.75
229.496	76.75
229.73	87.75
229.964	82.75
230.199	60.75
230.433	84.75
230.667	80.75
230.901	73.75
231.136	79.75
231.37	70.75
231.604	81.75
231.838	76.75
232.072	80.75
232.306	95.75
232.541	77.75
232.775	82.75
233.009	79.75
233.243	75.75
233.477	83.75
233.711	88.75
233.945	86.75
234.179	77.75
234.413	79.75
234.647	80.75
234.881	84.75
235.115	95.75
235.349	69.75
235.583	84.75
235.817	72.75
236.051	76.75
236.285	87.75
236.519	97.75
236.753	85.75
236.987	79.75
237.221	86.75
237.455	100.75
237.689	60.75
237.922	81.75
238.156	82.75
238.39	79.75
238.624	81.75
238.858	76.75
239.091	72.75
239.325	74.75
239.559	79.75
239.793	79.75
240.027	72.75
240.26	75.75
240.494	84.75
240.728	77.75
240.961	79.75
241.195	90.75
241.429	84.75
241.662	78.75
241.896	68.75
242.13	78.75
242.363	79.75
242.597	89.75
242.83	88.75
243.064	72.75
243.298	87.75
243.531	61.75
243.765	79.75
243.998	84.75
244.232	86.75
244.465	95.75
244.699	76.75
244.932	84.75
245.166	84.75
245.399	81.75
245.633	78.75
245.866	85.75
246.099	73.75
246.333	71.75
246.566	92.75
246.8	71.75
247.033	85.75
247.266	81.75
247.5	84.75
247.733	79.75
247.966	67.75
248.2	81.75
248.433	66.75
248.666	83.75
248.899	86.75
249.133	93.75
249.366	93.75
249.599	92.75
249.832	72.75
250.066	64.75
250.299	73.75
250.532	76.75
250.765	87.75
250.998	87.75
251.231	84.75
251.465	87.75
251.698	85.75
251.931	96.75
252.164	69.75
252.397	78.75
252.63	81.75
252.863	68.75
253.096	88.75
253.329	70.75
253.562	84.75
253.795	91.75
254.028	96.75
254.261	87.75
254.494	78.75
254.727	82.75
254.96	82.75
255.193	90.75
255.426	70.75
255.659	80.75
255.892	96.75
256.124	88.75
256.357	84.75
256.59	89.75
256.823	80.75
257.056	67.75
257.289	95.75
257.521	79.75
257.754	82.75
257.987	76.75
258.22	82.75
258.452	91.75
258.685	88.75
258.918	91.75
259.151	76.75
259.383	89.75
259.616	86.75
259.849	73.75
260.081	93.75
260.314	81.75
260.547	90.75
260.779	80.75
261.012	84.75
261.244	78.75
261.477	106.75
261.71	89.75
261.942	98.75
262.175	113.75
262.407	76.75
262.64	85.75
262.872	90.75
263.105	86.75
263.337	87.75
263.57	92.75
263.802	81.75
264.035	100.75
264.267	86.75
264.499	76.75
264.732	84.75
264.964	84.75
265.197	102.75
265.429	97.75
265.661	86.75
265.894	89.75
266.126	99.75
266.358	96.75
266.591	95.75
266.823	85.75
267.055	90.75
267.287	88.75
267.52	87.75
267.752	97.75
267.984	81.75
268.216	79.75
268.448	89.75
268.681	85.75
268.913	84.75
269.145	84.75
269.377	83.75
269.609	88.75
269.841	85.75
270.073	73.75
270.306	68.75
270.538	86.75
270.77	88.75
271.002	87.75
271.234	94.75
271.466	95.75
271.698	98.75
271.93	82.75
272.162	89.75
272.394	82.75
272.626	93.75
272.858	93.75
273.09	97.75
273.322	95.75
273.553	92.75
273.785	68.75
274.017	88.75
274.249	93.75
274.481	85.75
274.713	91.75
274.945	96.75
275.176	78.75
275.408	82.75
275.64	88.75
275.872	77.75
276.104	92.75
276.335	93.75
276.567	89.75
276.799	96.75
277.031	90.75
277.262	102.75
277.494	84.75
277.726	79.75
277.957	86.75
278.189	71.75
278.421	87.75
278.652	80.75
278.884	91.75
279.115	87.75
279.347	77.75
279.579	80.75
279.81	85.75
280.042	101.75
280.273	92.75
280.505	90.75
280.736	86.75
280.968	88.75
281.199	81.75
281.431	98.75
281.662	100.75
281.894	82.75
282.125	110.75
282.356	89.75
282.588	122.75
282.819	115.75
283.051	83.75
283.282	86.75
283.513	78.75
283.745	76.75
283.976	86.75
284.207	77.75
284.439	87.75
284.67	70.75
284.901	80.75
285.132	85.75
285.364	85.75
285.595	90.75
285.826	87.75
286.057	90.75
286.288	94.75
286.52	88.75
286.751	73.75
286.982	106.75
287.213	93.75
287.444	81.75
287.675	95.75
287.906	86.75
288.138	88.75
288.369	100.75
288.6	84.75
288.831	78.75
289.062	88.75
289.293	95.75
289.524	92.75
289.755	87.75
289.986	88.75
290.217	78.75
290.448	93.75
290.679	84.75
290.91	84.75
291.141	84.75
291.371	82.75
291.602	103.75
291.833	80.75
292.064	84.75
292.295	105.75
292.526	84.75
292.757	97.75
292.987	78.75
293.218	89.75
293.449	80.75
293.68	95.75
293.91	90.75
294.141	90.75
294.372	90.75
294.603	95.75
294.833	84.75
295.064	85.75
295.295	96.75
295.525	89.75
295.756	104.75
295.987	120.75
296.217	133.75
296.448	127.75
296.679	95.75
296.909	84.75
297.14	89.75
297.37	89.75
297.601	95.75
297.831	100.75
298.062	92.75
298.292	97.75
298.523	101.75
298.753	83.75
298.984	78.75
299.214	90.75
299.445	85.75
299.675	100.75
299.905	102.75
300.136	90.75
300.366	84.75
300.597	96.75
300.827	109.75
301.057	98.75
301.288	106.75
301.518	103.75
301.748	94.75
301.979	109.75
302.209	87.75
302.439	86.75
302.669	92.75
302.9	88.75
303.13	104.75
303.36	85.75
303.59	98.75
303.82	108.75
304.051	89.75
304.281	103.75
304.511	103.75
304.741	100.75
304.971	89.75
305.201	99.75
305.431	82.75
305.661	96.75
305.891	96.75
306.121	105.75
306.352	97.75
306.582	104.75
306.812	95.75
307.042	88.75
307.272	102.75
307.502	90.75
307.731	97.75
307.961	101.75
308.191	82.75
308.421	82.75
308.651	97.75
308.881	96.75
309.111	92.75
309.341	99.75
309.571	95.75
309.8	106.75
310.03	103.75
310.26	83.75
310.49	74.75
310.72	98.75
310.949	93.75
311.179	93.75
311.409	102.75
311.639	106.75
311.868	91.75
312.098	94.75
312.328	100.75
312.557	108.75
312.787	104.75
313.017	108.75
313.246	96.75
313.476	87.75
313.706	97.75
313.935	92.75
314.165	92.75
314.394	92.75
314.624	96.75
314.853	91.75
315.083	88.75
315.312	83.75
315.542	86.75
315.771	97.75
316.001	96.75
316.23	97.75
316.46	102.75
316.689	91.75
316.919	101.75
317.148	102.75
317.377	96.75
317.607	104.75
317.836	100.75
318.065	82.75
318.295	95.75
318.524	97.75
318.753	85.75
318.983	103.75
319.212	105.75
319.441	102.75
319.67	108.75
319.9	112.75
320.129	88.75
320.358	94.75
320.587	91.75
320.816	89.75
321.046	98.75
321.275	107.75
321.504	98.75
321.733	98.75
321.962	106.75
322.191	93.75
322.42	105.75
322.649	104.75
322.878	108.75
323.108	130.75
323.337	125.75
323.566	126.75
323.795	151.75
324.024	197.75
324.253	379.75
324.482	796.75
324.71	1603.75
324.939	2156.75
325.168	782.75
325.397	251.75
325.626	140.75
325.855	129.75
326.084	124.75
326.313	129.75
326.542	141.75
326.77	230.75
326.999	444.75
327.228	917.75
327.457	1639.75
327.686	1308.75
327.914	364.75
328.143	201.75
328.372	144.75
328.6	129.75
328.829	124.75
329.058	125.75
329.287	129.75
329.515	112.75
329.744	92.75
329.972	111.75
330.201	101.75
330.43	119.75
330.658	111.75
330.887	129.75
331.115	109.75
331.344	105.75
331.572	108.75
331.801	96.75
332.03	104.75
332.258	98.75
332.486	101.75
332.715	86.75
332.943	97.75
333.172	105.75
333.4	105.75
333.629	105.75
333.857	116.75
334.085	112.75
334.314	105.75
334.542	124.75
334.771	110.75
334.999	111.75
335.227	119.75
335.455	95.75
335.684	99.75
335.912	89.75
336.14	102.75
336.369	95.75
336.597	93.75
336.825	101.75
337.053	93.75
337.281	89.75
337.51	98.75
337.738	96.75
337.966	101.75
338.194	103.75
338.422	96.75
338.65	102.75
338.878	105.75
339.106	101.75
339.334	102.75
339.562	83.75
339.79	99.75
340.018	89.75
340.246	98.75
340.474	97.75
340.702	90.75
340.93	89.75
341.158	83.75
341.386	98.75
341.614	109.75
341.842	96.75
342.07	109.75
342.298	97.75
342.526	87.75
342.754	93.75
342.981	76.75
343.209	95.75
343.437	91.75
343.665	96.75
343.893	97.75
344.12	102.75
344.348	83.75
344.576	84.75
344.804	92.75
345.031	98.75
345.259	99.75
345.487	101.75
345.714	104.75
345.942	92.75
346.17	98.75
346.397	89.75
346.625	98.75
346.853	89.75
347.08	87.75
347.308	105.75
347.535	99.75
347.763	101.75
347.99	106.75
348.218	108.75
348.445	97.75
348.673	103.75
348.9	85.75
349.128	97.75
349.355	111.75
349.583	97.75
349.81	106.75
350.037	88.75
350.265	103.75
350.492	108.75
350.72	82.75
350.947	90.75
351.174	105.75
351.402	100.75
351.629	102.75
351.856	90.75
352.083	102.75
352.311	97.75
352.538	105.75
352.765	113.75
352.992	121.75
353.22	104.75
353.447	98.75
353.674	116.75
353.901	97.75
354.128	101.75
354.355	88.75
354.583	98.75
354.81	94.75
355.037	95.75
355.264	86.75
355.491	109.75
355.718	96.75
355.945	95.75
356.172	99.75
356.399	83.75
356.626	81.75
356.853	89.75
357.08	99.75
357.307	109.75
357.534	102.75
357.761	90.75
357.988	92.75
358.215	98.75
358.441	96.75
358.668	96.75
358.895	89.75
359.122	88.75
359.349	97.75
359.576	106.75
359.802	82.75
360.029	96.75
360.256	122.75
360.483	93.75
360.709	89.75
360.936	99.75
361.163	94.75
361.39	103.75
361.616	95.75
361.843	99.75
362.07	110.75
362.296	99.75
362.523	96.75
362.749	96.75
362.976	101.75
363.203	97.75
363.429	110.75
363.656	92.75
363.882	88.75
364.109	94.75
364.335	93.75
364.562	94.75
364.788	90.75
365.015	79.75
365.241	92.75
365.468	105.75
365.694	97.75
365.92	97.75
366.147	104.75
366.373	92.75
366.599	96.75
366.826	89.75
367.052	88.75
367.278	89.75
367.505	98.75
367.731	88.75
367.957	96.75
368.184	97.75
368.41	104.75
368.636	106.75
368.862	112.75
369.089	111.75
369.315	87.75
369.541	98.75
369.767	93.75
369.993	87.75
370.219	88.75
370.445	83.75
370.672	88.75
370.898	94.75
371.124	81.75
371.35	94.75
371.576	103.75
371.802	101.75
372.028	100.75
372.254	100.75
372.48	84.75
372.706	96.75
372.932	86.75
373.158	87.75
373.384	101.75
373.61	81.75
373.835	97.75
374.061	82.75
374.287	98.75
374.513	90.75
374.739	81.75
374.965	106.75
375.191	92.75
375.416	87.75
375.642	94.75
375.868	103.75
376.094	98.75
376.319	92.75
376.545	85.75
376.771	98.75
376.997	86.75
377.222	94.75
377.448	92.75
377.674	96.75
377.899	92.75
378.125	95.75
378.35	101.75
378.576	91.75
378.802	90.75
379.027	84.75
379.253	90.75
379.478	100.75
379.704	97.75
379.929	84.75
380.155	95.75
380.38	93.75
380.606	103.75
380.831	87.75
381.057	88.75
381.282	93.75
381.507	76.75
381.733	110.75
381.958	88.75
382.184	83.75
382.409	90.75
382.634	95.75
382.86	100.75
383.085	106.75
383.31	95.75
383.535	99.75
383.761	81.75
383.986	102.75
384.211	89.75
384.436	95.75
384.662	98.75
384.887	114.75
385.112	97.75
385.337	98.75
385.562	111.75
385.787	98.75
386.013	112.75
386.238	97.75
386.463	102.75
386.688	118.75
386.913	92.75
387.138	82.75
387.363	100.75
387.588	100.75
387.813	107.75
388.038	105.75
388.263	102.75
388.488	99.75
388.713	100.75
388.938	105.75
389.163	108.75
389.387	86.75
389.612	95.75
389.837	101.75
390.062	96.75
390.287	102.75
390.512	89.75
390.736	89.75
390.961	68.75
391.186	86.75
391.411	93.75
391.636	92.75
391.86	69.75
392.085	82.75
392.31	96.75
392.534	91.75
392.759	93.75
392.984	79.75
393.208	72.75
393.433	96.75
393.658	102.75
393.882	71.75
394.107	87.75
394.331	86.75
394.556	77.75
394.78	89.75
395.005	98.75
395.229	94.75
395.454	105.75
395.678	95.75
395.903	90.75
396.127	103.75
396.352	103.75
396.576	90.75
396.801	79.75
397.025	85.75
397.249	94.75
397.474	99.75
397.698	92.75
397.922	100.75
398.147	100.75
398.371	78.75
398.595	89.75
398.82	84.75
399.044	86.75
399.268	86.75
399.492	103.75
399.717	107.75
399.941	99.75
400.165	87.75
400.389	83.75
400.613	82.75
400.837	77.75
401.062	88.75
401.286	89.75
401.51	77.75
401.734	86.75
401.958	97.75
402.182	120.75
402.406	127.75
402.63	120.75
402.854	104.75
403.078	97.75
403.302	92.75
403.526	96.75
403.75	85.75
403.974	98.75
404.198	87.75
404.422	92.75
404.645	98.75
404.869	87.75
405.093	102.75
405.317	104.75
405.541	95.75
405.765	106.75
405.988	105.75
406.212	160.75
406.436	217.75
406.66	139.75
406.883	104.75
407.107	96.75
407.331	103.75
407.555	114.75
407.778	100.75
408.002	110.75
408.226	72.75
408.449	80.75
408.673	104.75
408.896	100.75
409.12	104.75
409.344	92.75
409.567	80.75
409.791	95.75
410.014	84.75
410.238	104.75
410.461	93.75
410.685	100.75
410.908	106.75
411.132	115.75
411.355	109.75
411.578	99.75
411.802	89.75
412.025	89.75
412.249	97.75
412.472	94.75
412.695	101.75
412.919	109.75
413.142	82.75
413.365	86.75
413.589	95.75
413.812	100.75
414.035	84.75
414.258	94.75
414.482	99.75
414.705	97.75
414.928	85.75
415.151	90.75
415.374	96.75
415.597	98.75
415.821	104.75
416.044	83.75
416.267	93.75
416.49	93.75
416.713	92.75
416.936	98.75
417.159	95.75
417.382	83.75
417.605	86.75
417.828	102.75
418.051	91.75
418.274	100.75
418.497	97.75
418.72	88.75
418.943	88.75
419.166	82.75
419.389	100.75
419.611	80.75
419.834	79.75
420.057	106.75
420.28	97.75
420.503	76.75
420.726	102.75
420.948	96.75
421.171	85.75
421.394	107.75
421.617	88.75
421.839	76.75
422.062	84.75
422.285	96.75
422.507	103.75
422.73	106.75
422.953	88.75
423.175	86.75
423.398	82.75
423.621	103.75
423.843	78.75
424.066	69.75
424.288	84.75
424.511	86.75
424.733	86.75
424.956	107.75
425.178	93.75
425.401	107.75
425.623	112.75
425.846	98.75
426.068	88.75
426.291	92.75
426.513	91.75
426.735	98.75
426.958	95.75
427.18	105.75
427.402	120.75
427.625	152.75
427.847	128.75
428.069	86.75
428.292	108.75
428.514	96.75
428.736	77.75
428.958	85.75
429.181	86.75
429.403	94.75
429.625	93.75
429.847	96.75
430.069	96.75
430.292	96.75
430.514	88.75
430.736	99.75
430.958	94.75
431.18	93.75
431.402	98.75
431.624	86.75
431.846	80.75
432.068	98.75
432.29	103.75
432.512	84.75
432.734	80.75
432.956	99.75
433.178	78.75
433.4	98.75
433.622	94.75
433.844	87.75
434.066	100.75
434.287	82.75
434.509	82.75
434.731	81.75
434.953	81.75
435.175	100.75
435.397	91.75
435.618	88.75
435.84	97.75
436.062	119.75
436.284	119.75
436.505	108.75
436.727	96.75
436.949	97.75
437.17	88.75
437.392	86.75
437.614	107.75
437.835	97.75
438.057	110.75
438.278	102.75
438.5	118.75
438.721	130.75
438.943	110.75
439.165	102.75
439.386	86.75
439.608	96.75
439.829	96.75
440.05	121.75
440.272	136.75
440.493	98.75
440.715	92.75
440.936	81.75
441.158	82.75
441.379	97.75
441.6	107.75
441.822	85.75
442.043	94.75
442.264	108.75
442.486	100.75
442.707	93.75
442.928	114.75
443.149	124.75
443.371	132.75
443.592	114.75
443.813	118.75
444.034	108.75
444.255	110.75
444.476	90.75
444.698	84.75
444.919	79.75
445.14	138.75
445.361	116.75
445.582	127.75
445.803	128.75
446.024	146.75
446.245	126.75
446.466	102.75
446.687	83.75
446.908	87.75
447.129	89.75
447.35	98.75
447.571	92.75
447.792	92.75
448.013	100.75
448.234	91.75
448.455	88.75
448.675	118.75
448.896	122.75
449.117	92.75
449.338	105.75
449.559	128.75
449.779	154.75
450	97.75
450.221	76.75
450.442	87.75
450.662	92.75
450.883	97.75
451.104	102.75
451.324	103.75
451.545	95.75
451.766	106.75
451.986	104.75
452.207	89.75
452.428	84.75
452.648	87.75
452.869	101.75
453.089	117.75
453.31	108.75
453.53	104.75
453.751	91.75
453.971	93.75
454.192	106.75
454.412	83.75
454.633	94.75
454.853	88.75
455.073	100.75
455.294	94.75
455.514	106.75
455.734	82.75
455.955	80.75
456.175	95.75
456.395	91.75
456.616	89.75
456.836	65.75
457.056	83.75
457.276	85.75
457.497	71.75
457.717	84.75
457.937	88.75
458.157	101.75
458.377	97.75
458.598	103.75
458.818	145.75
459.038	160.75
459.258	115.75
459.478	84.75
459.698	90.75
459.918	96.75
460.138	101.75
460.358	81.75
460.578	86.75
460.798	91.75
461.018	84.75
461.238	81.75
461.458	105.75
461.678	88.75
461.898	84.75
462.118	89.75
462.338	89.75
462.558	90.75
462.777	92.75
462.997	76.75
463.217	82.75
463.437	88.75
463.657	99.75
463.876	83.75
464.096	92.75
464.316	88.75
464.536	84.75
464.755	88.75
464.975	96.75
465.195	152.75
465.414	144.75
465.634	110.75
465.854	98.75
466.073	84.75
466.293	79.75
466.512	86.75
466.732	99.75
466.951	93.75
467.171	100.75
467.391	90.75
467.61	106.75
467.829	109.75
468.049	84.75
468.268	106.75
468.488	93.75
468.707	84.75
468.927	79.75
469.146	83.75
469.365	90.75
469.585	94.75
469.804	93.75
470.023	93.75
470.243	88.75
470.462	114.75
470.681	104.75
470.901	91.75
471.12	87.75
471.339	89.75
471.558	82.75
471.777	89.75
471.997	101.75
472.216	91.75
472.435	109.75
472.654	102.75
472.873	80.75
473.092	103.75
473.311	87.75
473.53	95.75
473.749	94.75
473.968	96.75
474.187	95.75
474.406	95.75
474.625	98.75
474.844	103.75
475.063	94.75
475.282	97.75
475.501	87.75
475.72	104.75
475.939	85.75
476.158	88.75
476.377	88.75
476.596	94.75
476.814	92.75
477.033	85.75
477.252	87.75
477.471	97.75
477.69	94.75
477.908	108.75
478.127	103.75
478.346	80.75
478.564	92.75
478.783	87.75
479.002	100.75
479.22	99.75
479.439	97.75
479.658	113.75
479.876	82.75
480.095	103.75
480.313	86.75
480.532	89.75
480.751	92.75
480.969	89.75
481.188	147.75
481.406	126.75
481.624	96.75
481.843	93.75
482.061	89.75
482.28	83.75
482.498	101.75
482.717	90.75
482.935	102.75
483.153	94.75
483.372	94.75
483.59	109.75
483.808	89.75
484.027	81.75
484.245	101.75
484.463	87.75
484.681	92.75
484.9	88.75
485.118	99.75
485.336	101.75
485.554	101.75
485.772	110.75
485.99	101.75
486.209	105.75
486.427	116.75
486.645	97.75
486.863	97.75
487.081	97.75
487.299	105.75
487.517	101.75
487.735	86.75
487.953	95.75
488.171	104.75
488.389	86.75
488.607	99.75
488.825	100.75
489.043	88.75
489.261	95.75
489.479	88.75
489.696	89.75
489.914	91.75
490.132	90.75
490.35	84.75
490.568	89.75
490.786	86.75
491.003	94.75
491.221	104.75
491.439	75.75
491.657	102.75
491.874	100.75
492.092	92.75
492.31	86.75
492.527	79.75
492.745	97.75
492.963	79.75
493.18	92.75
493.398	88.75
493.615	110.75
493.833	96.75
494.05	97.75
494.268	84.75
494.485	85.75
494.703	85.75
494.92	86.75
495.138	89.75
495.355	83.75
495.573	76.75
495.79	74.75
496.008	98.75
496.225	94.75
496.442	91.75
496.66	87.75
496.877	89.75
497.094	88.75
497.312	100.75
497.529	90.75
497.746	76.75
497.963	101.75
498.181	94.75
498.398	100.75
498.615	107.75
498.832	89.75
499.049	97.75
499.267	84.75
499.484	86.75
499.701	84.75
499.918	102.75
500.135	78.75
500.352	92.75
500.569	102.75
500.786	87.75
501.003	92.75
501.22	89.75
501.437	87.75
501.654	97.75
501.871	108.75
502.088	86.75
502.305	87.75
502.522	92.75
502.739	89.75
502.956	86.75
503.172	101.75
503.389	104.75
503.606	109.75
503.823	116.75
504.04	81.75
504.256	96.75
504.473	93.75
504.69	95.75
504.907	98.75
505.123	97.75
505.34	93.75
505.557	96.75
505.773	84.75
505.99	87.75
506.207	83.75
506.423	93.75
506.64	105.75
506.856	96.75
507.073	105.75
507.289	111.75
507.506	96.75
507.722	113.75
507.939	112.75
508.155	96.75
508.372	97.75
508.588	72.75
508.805	92.75
509.021	85.75
509.238	96.75
509.454	110.75
509.67	112.75
509.887	116.75
510.103	115.75
510.319	210.75
510.536	732.75
510.752	2256.75
510.968	626.75
511.184	160.75
511.401	107.75
511.617	88.75
511.833	106.75
512.049	82.75
512.265	88.75
512.481	95.75
512.698	99.75
512.914	89.75
513.13	95.75
513.346	74.75
513.562	96.75
513.778	96.75
513.994	107.75
514.21	112.75
514.426	126.75
514.642	144.75
514.858	134.75
515.074	160.75
515.29	402.75
515.506	1365.75
515.721	499.75
515.937	144.75
516.153	98.75
516.369	96.75
516.585	99.75
516.801	84.75
517.016	102.75
517.232	106.75
517.448	85.75
517.664	88.75
517.879	102.75
518.095	86.75
518.311	86.75
518.527	102.75
518.742	89.75
518.958	77.75
519.173	98.75
519.389	112.75
519.605	90.75
519.82	96.75
520.036	98.75
520.251	133.75
520.467	114.75
520.682	120.75
520.898	101.75
521.113	126.75
521.329	132.75
521.544	196.75
521.76	517.75
521.975	2248.75
522.19	1374.75
522.406	310.75
522.621	141.75
522.836	96.75
523.052	94.75
523.267	94.75
523.482	101.75
523.698	96.75
523.913	127.75
524.128	106.75
524.343	91.75
524.559	94.75
524.774	97.75
524.989	101.75
525.204	98.75
525.419	103.75
525.634	86.75
525.849	89.75
526.064	97.75
526.28	102.75
526.495	85.75
526.71	105.75
526.925	95.75
527.14	95.75
527.355	100.75
527.57	88.75
527.785	86.75
527.999	73.75
528.214	88.75
528.429	104.75
528.644	103.75
528.859	84.75
529.074	112.75
529.289	128.75
529.503	159.75
529.718	114.75
529.933	85.75
530.148	88.75
530.363	84.75
530.577	97.75
530.792	97.75
531.007	92.75
531.221	115.75
531.436	98.75
531.651	100.75
531.865	86.75
532.08	82.75
532.295	96.75
532.509	93.75
532.724	78.75
532.938	92.75
533.153	89.75
533.367	96.75
533.582	112.75
533.796	107.75
534.011	88.75
534.225	95.75
534.44	98.75
534.654	80.75
534.868	98.75
535.083	102.75
535.297	98.75
535.511	103.75
535.726	94.75
535.94	104.75
536.154	104.75
536.369	100.75
536.583	100.75
536.797	90.75
537.011	88.75
537.225	76.75
537.44	98.75
537.654	103.75
537.868	111.75
538.082	95.75
538.296	96.75
538.51	96.75
538.724	66.75
538.938	92.75
539.153	86.75
539.367	104.75
539.581	92.75
539.795	98.75
540.009	91.75
540.222	108.75
540.436	96.75
540.65	96.75
540.864	89.75
541.078	105.75
541.292	93.75
541.506	89.75
541.72	88.75
541.934	96.75
542.147	90.75
542.361	90.75
542.575	86.75
542.789	87.75
543.002	98.75
543.216	95.75
543.43	96.75
543.644	86.75
543.857	89.75
544.071	104.75
544.285	100.75
544.498	88.75
544.712	100.75
544.925	96.75
545.139	101.75
545.352	92.75
545.566	85.75
545.779	89.75
545.993	87.75
546.206	99.75
546.42	90.75
546.633	93.75
546.847	84.75
547.06	93.75
547.274	80.75
547.487	100.75
547.7	96.75
547.914	86.75
548.127	87.75
548.34	96.75
548.554	87.75
548.767	89.75
548.98	91.75
549.193	97.75
549.407	96.75
549.62	86.75
549.833	91.75
550.046	94.75
550.259	89.75
550.473	94.75
550.686	84.75
550.899	81.75
551.112	87.75
551.325	93.75
551.538	91.75
551.751	73.75
551.964	99.75
552.177	89.75
552.39	85.75
552.603	83.75
552.816	94.75
553.029	98.75
553.242	102.75
553.455	112.75
553.667	101.75
553.88	98.75
554.093	108.75
554.306	84.75
554.519	84.75
554.732	107.75
554.944	91.75
555.157	98.75
555.37	68.75
555.583	89.75
555.795	84.75
556.008	96.75
556.221	96.75
556.433	102.75
556.646	109.75
556.859	89.75
557.071	97.75
557.284	94.75
557.496	92.75
557.709	89.75
557.921	92.75
558.134	79.75
558.346	99.75
558.559	93.75
558.771	106.75
558.984	86.75
559.196	92.75
559.409	94.75
559.621	85.75
559.833	87.75
560.046	95.75
560.258	94.75
560.47	84.75
560.683	94.75
560.895	98.75
561.107	94.75
561.32	84.75
561.532	90.75
561.744	89.75
561.956	100.75
562.168	90.75
562.381	92.75
562.593	92.75
562.805	87.75
563.017	93.75
563.229	88.75
563.441	105.75
563.653	105.75
563.865	96.75
564.077	94.75
564.289	98.75
564.501	90.75
564.713	94.75
564.925	113.75
565.137	106.75
565.349	84.75
565.561	89.75
565.773	90.75
565.985	95.75
566.197	93.75
566.408	89.75
566.62	73.75
566.832	86.75
567.044	96.75
567.255	104.75
567.467	102.75
567.679	96.75
567.891	93.75
568.102	98.75
568.314	76.75
568.526	85.75
568.737	97.75
568.949	94.75
569.161	93.75
569.372	80.75
569.584	88.75
569.795	94.75
570.007	115.75
570.218	240.75
570.43	124.75
570.641	88.75
570.853	87.75
571.064	78.75
571.276	83.75
571.487	90.75
571.698	88.75
571.91	97.75
572.121	92.75
572.333	80.75
572.544	84.75
572.755	83.75
572.966	95.75
573.178	92.75
573.389	76.75
573.6	94.75
573.811	88.75
574.023	88.75
574.234	95.75
574.445	86.75
574.656	98.75
574.867	101.75
575.078	84.75
575.289	104.75
575.501	85.75
575.712	84.75
575.923	98.75
576.134	87.75
576.345	101.75
576.556	93.75
576.767	99.75
576.978	88.75
577.188	102.75
577.399	95.75
577.61	99.75
577.821	94.75
578.032	117.75
578.243	278.75
578.454	777.75
578.665	200.75
578.875	97.75
579.086	86.75
579.297	72.75
579.508	100.75
579.718	94.75
579.929	91.75
580.14	106.75
580.35	84.75
580.561	94.75
580.772	84.75
580.982	90.75
581.193	93.75
581.403	86.75
581.614	83.75
581.825	83.75
582.035	85.75
582.246	95.75
582.456	94.75
582.667	78.75
582.877	82.75
583.087	85.75
583.298	93.75
583.508	97.75
583.719	91.75
583.929	100.75
584.139	108.75
584.35	87.75
584.56	97.75
584.77	75.75
584.981	99.75
585.191	91.75
585.401	96.75
585.611	86.75
585.821	88.75
586.032	110.75
586.242	94.75
586.452	96.75
586.662	78.75
586.872	93.75
587.082	81.75
587.292	91.75
587.502	103.75
587.713	81.75
587.923	89.75
588.133	89.75
588.343	101.75
588.553	87.75
588.762	73.75
588.972	80.75
589.182	105.75
589.392	95.75
589.602	90.75
589.812	93.75
590.022	85.75
590.232	82.75
590.441	92.75
590.651	101.75
590.861	82.75
591.071	94.75
591.281	98.75
591.49	82.75
591.7	69.75
591.91	94.75
592.119	89.75
592.329	73.75
592.539	88.75
592.748	90.75
592.958	92.75
593.167	84.75
593.377	100.75
593.587	94.75
593.796	92.75
594.006	88.75
594.215	81.75
594.424	79.75
594.634	97.75
594.843	100.75
595.053	84.75
595.262	91.75
595.472	83.75
595.681	100.75
595.89	80.75
596.1	87.75
596.309	96.75
596.518	83.75
596.727	94.75
596.937	84.75
597.146	82.75
597.355	118.75
597.564	93.75
597.774	87.75
597.983	71.75
598.192	79.75
598.401	95.75
598.61	92.75
598.819	104.75
599.028	98.75
599.237	80.75
599.446	83.75
599.655	84.75
599.864	96.75
600.073	84.75
600.282	102.75
600.491	90.75
600.7	101.75
600.909	79.75
601.118	84.75
601.327	94.75
601.536	108.75
601.745	76.75
601.953	102.75
602.162	101.75
602.371	77.75
602.58	83.75
602.789	99.75
602.997	84.75
603.206	86.75
603.415	96.75
603.623	90.75
603.832	101.75
604.041	89.75
604.249	79.75
604.458	90.75
604.666	96.75
604.875	89.75
605.084	85.75
605.292	79.75
605.501	73.75
605.709	87.75
605.918	80.75
606.126	95.75
606.334	92.75
606.543	87.75
606.751	94.75
606.96	80.75
607.168	102.75
607.376	92.75
607.585	116.75
607.793	99.75
608.001	81.75
608.21	82.75
608.418	92.75
608.626	100.75
608.834	75.75
609.043	66.75
609.251	92.75
609.459	85.75
609.667	76.75
609.875	76.75
610.083	87.75
610.291	84.75
610.499	95.75
610.707	88.75
610.916	82.75
611.124	84.75
611.332	84.75
611.54	104.75
611.748	79.75
611.955	76.75
612.163	81.75
612.371	85.75
612.579	88.75
612.787	86.75
612.995	85.75
613.203	94.75
613.411	98.75
613.618	98.75
613.826	79.75
614.034	79.75
614.242	88.75
614.449	93.75
614.657	80.75
614.865	84.75
615.072	92.75
615.28	94.75
615.488	90.75
615.695	95.75
615.903	88.75
616.111	101.75
616.318	96.75
616.526	110.75
616.733	90.75
616.941	84.75
617.148	102.75
617.356	103.75
617.563	90.75
617.771	92.75
617.978	84.75
618.185	83.75
618.393	94.75
618.6	93.75
618.807	86.75
619.015	92.75
619.222	86.75
619.429	82.75
619.637	98.75
619.844	92.75
620.051	91.75
620.258	90.75
620.466	76.75
620.673	80.75
620.88	85.75
621.087	89.75
621.294	90.75
621.501	83.75
621.708	76.75
621.915	84.75
622.122	98.75
622.329	77.75
622.536	88.75
622.743	87.75
622.95	98.75
623.157	89.75
623.364	70.75
623.571	80.75
623.778	82.75
623.985	89.75
624.192	91.75
624.399	83.75
624.606	94.75
624.812	85.75
625.019	88.75
625.226	84.75
625.433	86.75
625.639	90.75
625.846	85.75
626.053	89.75
626.259	92.75
626.466	90.75
626.673	89.75
626.879	92.75
627.086	97.75
627.293	92.75
627.499	83.75
627.706	85.75
627.912	99.75
628.119	85.75
628.325	100.75
628.532	93.75
628.738	87.75
628.945	80.75
629.151	94.75
629.357	84.75
629.564	96.75
629.77	80.75
629.976	84.75
630.183	85.75
630.389	82.75
630.595	74.75
630.802	76.75
631.008	96.75
631.214	85.75
631.42	96.75
631.627	96.75
631.833	84.75
632.039	88.75
632.245	88.75
632.451	82.75
632.657	85.75
632.863	95.75
633.069	93.75
633.275	90.75
633.481	82.75
633.688	93.75
633.893	93.75
634.099	86.75
634.305	93.75
634.511	95.75
634.717	86.75
634.923	97.75
635.129	79.75
635.335	83.75
635.541	74.75
635.747	95.75
635.952	90.75
636.158	86.75
636.364	107.75
636.57	86.75
636.775	74.75
636.981	68.75
637.187	85.75
637.392	88.75
637.598	87.75
637.804	102.75
638.009	85.75
638.215	81.75
638.421	93.75
638.626	91.75
638.832	99.75
639.037	88.75
639.243	89.75
639.448	88.75
639.654	92.75
639.859	88.75
640.065	71.75
640.27	93.75
640.475	86.75
640.681	84.75
640.886	72.75
641.091	81.75
641.297	88.75
641.502	92.75
641.707	88.75
641.913	91.75
642.118	92.75
642.323	77.75
642.528	88.75
642.733	104.75
642.939	78.75
643.144	94.75
643.349	80.75
643.554	88.75
643.759	82.75
643.964	88.75
644.169	92.75
644.374	86.75
644.579	88.75
644.784	71.75
644.989	86.75
645.194	91.75
645.399	78.75
645.604	87.75
645.809	88.75
646.014	107.75
646.219	85.75
646.423	97.75
646.628	86.75
646.833	84.75
647.038	74.75
647.243	85.75
647.447	91.75
647.652	77.75
647.857	79.75
648.062	77.75
648.266	97.75
648.471	91.75
648.676	100.75
648.88	88.75
649.085	99.75
649.289	95.75
649.494	108.75
649.698	137.75
649.903	105.75
650.107	87.75
650.312	94.75
650.516	83.75
650.721	86.75
650.925	98.75
651.13	84.75
651.334	89.75
651.539	76.75
651.743	88.75
651.947	71.75
652.152	88.75
652.356	90.75
652.56	84.75
652.764	86.75
652.969	82.75
653.173	83.75
653.377	85.75
653.581	85.75
653.785	72.75
653.99	98.75
654.194	85.75
654.398	78.75
654.602	95.75
654.806	90.75
655.01	119.75
655.214	88.75
655.418	95.75
655.622	92.75
655.826	83.75
656.03	91.75
656.234	92.75
656.438	95.75
656.642	96.75
656.846	92.75
657.049	76.75
657.253	73.75
657.457	84.75
657.661	83.75
657.865	76.75
658.068	84.75
658.272	89.75
658.476	79.75
658.68	102.75
658.883	89.75
659.087	84.75
659.291	83.75
659.494	85.75
659.698	74.75
659.901	94.75
660.105	85.75
660.309	83.75
660.512	78.75
660.716	82.75
660.919	83.75
661.123	83.75
661.326	85.75
661.53	86.75
661.733	91.75
661.936	94.75
662.14	83.75
662.343	87.75
662.546	82.75
662.75	92.75
662.953	93.75
663.156	79.75
663.36	74.75
663.563	86.75
663.766	80.75
663.969	92.75
664.173	71.75
664.376	84.75
664.579	89.75
664.782	88.75
664.985	88.75
665.188	84.75
665.391	86.75
665.594	81.75
665.797	94.75
666	82.75
666.203	77.75
666.406	88.75
666.609	83.75
666.812	82.75
667.015	86.75
667.218	92.75
667.421	86.75
667.624	76.75
667.827	82.75
668.03	98.75
668.232	71.75
668.435	82.75
668.638	82.75
668.841	86.75
669.043	93.75
669.246	85.75
669.449	83.75
669.651	84.75
669.854	74.75
670.057	90.75
670.259	73.75
670.462	84.75
670.665	72.75
670.867	87.75
671.07	82.75
671.272	91.75
671.475	83.75
671.677	73.75
671.88	78.75
672.082	88.75
672.284	77.75
672.487	73.75
672.689	86.75
672.892	78.75
