Data from Uncirc_1990_H10_HRD10591_00057.txt Node
Date: Wed Jan 03 11:54:03 EST 2024
User: Yrep
Spectrometer: HR+D1059
Trigger mode: 1
Integration Time (sec): 1.000000E-1
Scans to average: 1
Electric dark correction enabled: true
Nonlinearity correction enabled: false
Boxcar width: 0
XAxis mode: Wavelengths
Number of Pixels in Spectrum: 2048
>>>>>Begin Spectral Data<<<<<
223.165	0.31
223.4	0.31
223.635	0.31
223.869	-6.69
224.104	-8.69
224.338	-16.69
224.573	-24.69
224.808	-13.69
225.042	-6.69
225.277	-14.69
225.511	-11.69
225.746	-2.69
225.98	3.31
226.215	0.31
226.449	13.31
226.683	34.31
226.918	28.31
227.152	26.31
227.387	32.31
227.621	28.31
227.856	42.31
228.09	35.31
228.324	54.31
228.559	44.31
228.793	52.31
229.027	56.31
229.262	55.31
229.496	52.31
229.73	82.31
229.964	85.31
230.199	85.31
230.433	62.31
230.667	77.31
230.901	71.31
231.136	81.31
231.37	69.31
231.604	83.31
231.838	73.31
232.072	73.31
232.306	62.31
232.541	75.31
232.775	77.31
233.009	80.31
233.243	75.31
233.477	71.31
233.711	65.31
233.945	81.31
234.179	77.31
234.413	79.31
234.647	69.31
234.881	83.31
235.115	84.31
235.349	63.31
235.583	79.31
235.817	72.31
236.051	73.31
236.285	66.31
236.519	71.31
236.753	60.31
236.987	74.31
237.221	93.31
237.455	66.31
237.689	71.31
237.922	79.31
238.156	80.31
238.39	73.31
238.624	73.31
238.858	71.31
239.091	74.31
239.325	73.31
239.559	63.31
239.793	73.31
240.027	71.31
240.26	85.31
240.494	59.31
240.728	85.31
240.961	63.31
241.195	59.31
241.429	75.31
241.662	64.31
241.896	73.31
242.13	64.31
242.363	65.31
242.597	53.31
242.83	67.31
243.064	76.31
243.298	55.31
243.531	66.31
243.765	64.31
243.998	53.31
244.232	86.31
244.465	75.31
244.699	89.31
244.932	82.31
245.166	71.31
245.399	73.31
245.633	88.31
245.866	66.31
246.099	70.31
246.333	72.31
246.566	68.31
246.8	79.31
247.033	66.31
247.266	60.31
247.5	69.31
247.733	61.31
247.966	85.31
248.2	68.31
248.433	82.31
248.666	69.31
248.899	83.31
249.133	69.31
249.366	97.31
249.599	80.31
249.832	77.31
250.066	86.31
250.299	74.31
250.532	89.31
250.765	79.31
250.998	86.31
251.231	67.31
251.465	68.31
251.698	76.31
251.931	72.31
252.164	51.31
252.397	69.31
252.63	81.31
252.863	84.31
253.096	67.31
253.329	71.31
253.562	73.31
253.795	82.31
254.028	78.31
254.261	71.31
254.494	92.31
254.727	90.31
254.96	77.31
255.193	82.31
255.426	74.31
255.659	70.31
255.892	73.31
256.124	82.31
256.357	66.31
256.59	68.31
256.823	96.31
257.056	75.31
257.289	86.31
257.521	89.31
257.754	77.31
257.987	67.31
258.22	59.31
258.452	72.31
258.685	75.31
258.918	93.31
259.151	79.31
259.383	76.31
259.616	68.31
259.849	86.31
260.081	68.31
260.314	81.31
260.547	79.31
260.779	83.31
261.012	83.31
261.244	76.31
261.477	87.31
261.71	73.31
261.942	76.31
262.175	99.31
262.407	75.31
262.64	75.31
262.872	80.31
263.105	73.31
263.337	94.31
263.57	78.31
263.802	73.31
264.035	95.31
264.267	83.31
264.499	79.31
264.732	85.31
264.964	73.31
265.197	88.31
265.429	72.31
265.661	67.31
265.894	80.31
266.126	76.31
266.358	73.31
266.591	75.31
266.823	72.31
267.055	80.31
267.287	77.31
267.52	77.31
267.752	88.31
267.984	84.31
268.216	77.31
268.448	79.31
268.681	73.31
268.913	78.31
269.145	78.31
269.377	97.31
269.609	80.31
269.841	74.31
270.073	87.31
270.306	81.31
270.538	97.31
270.77	86.31
271.002	84.31
271.234	96.31
271.466	79.31
271.698	87.31
271.93	78.31
272.162	73.31
272.394	76.31
272.626	80.31
272.858	79.31
273.09	85.31
273.322	81.31
273.553	76.31
273.785	93.31
274.017	74.31
274.249	78.31
274.481	68.31
274.713	84.31
274.945	88.31
275.176	74.31
275.408	90.31
275.64	79.31
275.872	85.31
276.104	83.31
276.335	100.31
276.567	95.31
276.799	103.31
277.031	90.31
277.262	98.31
277.494	90.31
277.726	75.31
277.957	83.31
278.189	76.31
278.421	92.31
278.652	83.31
278.884	80.31
279.115	84.31
279.347	77.31
279.579	96.31
279.81	100.31
280.042	76.31
280.273	85.31
280.505	81.31
280.736	84.31
280.968	80.31
281.199	88.31
281.431	66.31
281.662	78.31
281.894	76.31
282.125	81.31
282.356	103.31
282.588	115.31
282.819	111.31
283.051	68.31
283.282	96.31
283.513	93.31
283.745	85.31
283.976	79.31
284.207	76.31
284.439	75.31
284.67	73.31
284.901	81.31
285.132	86.31
285.364	92.31
285.595	88.31
285.826	79.31
286.057	87.31
286.288	87.31
286.52	80.31
286.751	82.31
286.982	71.31
287.213	91.31
287.444	82.31
287.675	90.31
287.906	93.31
288.138	76.31
288.369	93.31
288.6	89.31
288.831	87.31
289.062	84.31
289.293	79.31
289.524	77.31
289.755	76.31
289.986	80.31
290.217	72.31
290.448	76.31
290.679	88.31
290.91	79.31
291.141	69.31
291.371	98.31
291.602	88.31
291.833	78.31
292.064	89.31
292.295	85.31
292.526	93.31
292.757	84.31
292.987	87.31
293.218	84.31
293.449	94.31
293.68	86.31
293.91	90.31
294.141	91.31
294.372	94.31
294.603	96.31
294.833	95.31
295.064	76.31
295.295	77.31
295.525	97.31
295.756	94.31
295.987	109.31
296.217	129.31
296.448	104.31
296.679	90.31
296.909	75.31
297.14	84.31
297.37	88.31
297.601	80.31
297.831	82.31
298.062	87.31
298.292	77.31
298.523	76.31
298.753	78.31
298.984	88.31
299.214	96.31
299.445	83.31
299.675	80.31
299.905	90.31
300.136	99.31
300.366	83.31
300.597	90.31
300.827	79.31
301.057	100.31
301.288	99.31
301.518	78.31
301.748	91.31
301.979	110.31
302.209	91.31
302.439	87.31
302.669	87.31
302.9	83.31
303.13	95.31
303.36	96.31
303.59	92.31
303.82	93.31
304.051	87.31
304.281	91.31
304.511	85.31
304.741	75.31
304.971	79.31
305.201	87.31
305.431	101.31
305.661	105.31
305.891	91.31
306.121	88.31
306.352	101.31
306.582	95.31
306.812	86.31
307.042	90.31
307.272	78.31
307.502	96.31
307.731	84.31
307.961	80.31
308.191	72.31
308.421	72.31
308.651	81.31
308.881	88.31
309.111	91.31
309.341	89.31
309.571	94.31
309.8	77.31
310.03	83.31
310.26	96.31
310.49	95.31
310.72	93.31
310.949	92.31
311.179	84.31
311.409	72.31
311.639	89.31
311.868	102.31
312.098	111.31
312.328	96.31
312.557	96.31
312.787	99.31
313.017	95.31
313.246	93.31
313.476	78.31
313.706	91.31
313.935	89.31
314.165	85.31
314.394	93.31
314.624	78.31
314.853	87.31
315.083	94.31
315.312	101.31
315.542	93.31
315.771	91.31
316.001	92.31
316.23	94.31
316.46	80.31
316.689	85.31
316.919	98.31
317.148	96.31
317.377	93.31
317.607	89.31
317.836	94.31
318.065	85.31
318.295	79.31
318.524	84.31
318.753	94.31
318.983	97.31
319.212	99.31
319.441	89.31
319.67	91.31
319.9	93.31
320.129	78.31
320.358	95.31
320.587	85.31
320.816	108.31
321.046	84.31
321.275	89.31
321.504	87.31
321.733	92.31
321.962	82.31
322.191	95.31
322.42	88.31
322.649	101.31
322.878	107.31
323.108	106.31
323.337	102.31
323.566	120.31
323.795	136.31
324.024	183.31
324.253	323.31
324.482	719.31
324.71	1458.31
324.939	1969.31
325.168	705.31
325.397	233.31
325.626	143.31
325.855	121.31
326.084	119.31
326.313	121.31
326.542	129.31
326.77	193.31
326.999	395.31
327.228	841.31
327.457	1499.31
327.686	1252.31
327.914	339.31
328.143	159.31
328.372	129.31
328.6	100.31
328.829	111.31
329.058	119.31
329.287	117.31
329.515	110.31
329.744	107.31
329.972	93.31
330.201	99.31
330.43	107.31
330.658	116.31
330.887	121.31
331.115	113.31
331.344	98.31
331.572	101.31
331.801	100.31
332.03	97.31
332.258	105.31
332.486	91.31
332.715	79.31
332.943	79.31
333.172	99.31
333.4	97.31
333.629	95.31
333.857	109.31
334.085	98.31
334.314	84.31
334.542	95.31
334.771	101.31
334.999	94.31
335.227	94.31
335.455	101.31
335.684	106.31
335.912	83.31
336.14	87.31
336.369	93.31
336.597	90.31
336.825	88.31
337.053	93.31
337.281	93.31
337.51	92.31
337.738	85.31
337.966	85.31
338.194	95.31
338.422	83.31
338.65	80.31
338.878	89.31
339.106	102.31
339.334	90.31
339.562	100.31
339.79	106.31
340.018	83.31
340.246	101.31
340.474	80.31
340.702	89.31
340.93	81.31
341.158	85.31
341.386	76.31
341.614	103.31
341.842	109.31
342.07	73.31
342.298	85.31
342.526	91.31
342.754	78.31
342.981	86.31
343.209	91.31
343.437	97.31
343.665	94.31
343.893	91.31
344.12	94.31
344.348	92.31
344.576	98.31
344.804	87.31
345.031	98.31
345.259	93.31
345.487	89.31
345.714	80.31
345.942	88.31
346.17	89.31
346.397	86.31
346.625	96.31
346.853	98.31
347.08	88.31
347.308	93.31
347.535	88.31
347.763	100.31
347.99	93.31
348.218	96.31
348.445	95.31
348.673	103.31
348.9	102.31
349.128	101.31
349.355	84.31
349.583	78.31
349.81	88.31
350.037	106.31
350.265	98.31
350.492	81.31
350.72	83.31
350.947	96.31
351.174	108.31
351.402	110.31
351.629	105.31
351.856	88.31
352.083	105.31
352.311	87.31
352.538	97.31
352.765	102.31
352.992	97.31
353.22	103.31
353.447	102.31
353.674	108.31
353.901	97.31
354.128	84.31
354.355	84.31
354.583	84.31
354.81	97.31
355.037	92.31
355.264	88.31
355.491	98.31
355.718	96.31
355.945	83.31
356.172	95.31
356.399	86.31
356.626	90.31
356.853	88.31
357.08	88.31
357.307	89.31
357.534	91.31
357.761	98.31
357.988	91.31
358.215	94.31
358.441	93.31
358.668	92.31
358.895	80.31
359.122	99.31
359.349	99.31
359.576	97.31
359.802	79.31
360.029	92.31
360.256	111.31
360.483	87.31
360.709	82.31
360.936	81.31
361.163	80.31
361.39	100.31
361.616	89.31
361.843	97.31
362.07	83.31
362.296	84.31
362.523	85.31
362.749	85.31
362.976	97.31
363.203	104.31
363.429	84.31
363.656	82.31
363.882	94.31
364.109	85.31
364.335	82.31
364.562	89.31
364.788	73.31
365.015	88.31
365.241	93.31
365.468	116.31
365.694	104.31
365.92	89.31
366.147	87.31
366.373	72.31
366.599	82.31
366.826	85.31
367.052	75.31
367.278	78.31
367.505	77.31
367.731	84.31
367.957	83.31
368.184	95.31
368.41	98.31
368.636	85.31
368.862	91.31
369.089	96.31
369.315	96.31
369.541	87.31
369.767	91.31
369.993	91.31
370.219	84.31
370.445	79.31
370.672	80.31
370.898	76.31
371.124	80.31
371.35	98.31
371.576	91.31
371.802	78.31
372.028	75.31
372.254	92.31
372.48	83.31
372.706	91.31
372.932	78.31
373.158	94.31
373.384	87.31
373.61	79.31
373.835	79.31
374.061	104.31
374.287	91.31
374.513	99.31
374.739	82.31
374.965	79.31
375.191	89.31
375.416	78.31
375.642	91.31
375.868	87.31
376.094	83.31
376.319	86.31
376.545	81.31
376.771	68.31
376.997	89.31
377.222	91.31
377.448	91.31
377.674	72.31
377.899	84.31
378.125	83.31
378.35	74.31
378.576	84.31
378.802	89.31
379.027	85.31
379.253	90.31
379.478	77.31
379.704	82.31
379.929	85.31
380.155	90.31
380.38	89.31
380.606	91.31
380.831	92.31
381.057	101.31
381.282	97.31
381.507	94.31
381.733	90.31
381.958	80.31
382.184	101.31
382.409	99.31
382.634	89.31
382.86	98.31
383.085	90.31
383.31	101.31
383.535	91.31
383.761	72.31
383.986	77.31
384.211	83.31
384.436	91.31
384.662	89.31
384.887	92.31
385.112	111.31
385.337	108.31
385.562	104.31
385.787	102.31
386.013	104.31
386.238	103.31
386.463	91.31
386.688	98.31
386.913	81.31
387.138	106.31
387.363	97.31
387.588	94.31
387.813	96.31
388.038	107.31
388.263	95.31
388.488	104.31
388.713	76.31
388.938	85.31
389.163	85.31
389.387	92.31
389.612	84.31
389.837	77.31
390.062	102.31
390.287	79.31
390.512	97.31
390.736	80.31
390.961	76.31
391.186	84.31
391.411	87.31
391.636	89.31
391.86	78.31
392.085	92.31
392.31	76.31
392.534	69.31
392.759	78.31
392.984	78.31
393.208	84.31
393.433	90.31
393.658	88.31
393.882	80.31
394.107	72.31
394.331	83.31
394.556	70.31
394.78	97.31
395.005	79.31
395.229	75.31
395.454	85.31
395.678	84.31
395.903	85.31
396.127	78.31
396.352	82.31
396.576	83.31
396.801	81.31
397.025	88.31
397.249	79.31
397.474	87.31
397.698	77.31
397.922	82.31
398.147	91.31
398.371	80.31
398.595	78.31
398.82	82.31
399.044	78.31
399.268	85.31
399.492	69.31
399.717	75.31
399.941	101.31
400.165	91.31
400.389	95.31
400.613	91.31
400.837	88.31
401.062	98.31
401.286	101.31
401.51	87.31
401.734	88.31
401.958	87.31
402.182	109.31
402.406	131.31
402.63	101.31
402.854	88.31
403.078	81.31
403.302	78.31
403.526	85.31
403.75	90.31
403.974	91.31
404.198	69.31
404.422	75.31
404.645	81.31
404.869	91.31
405.093	94.31
405.317	98.31
405.541	78.31
405.765	90.31
405.988	99.31
406.212	148.31
406.436	181.31
406.66	130.31
406.883	97.31
407.107	91.31
407.331	84.31
407.555	93.31
407.778	87.31
408.002	82.31
408.226	93.31
408.449	77.31
408.673	99.31
408.896	81.31
409.12	83.31
409.344	96.31
409.567	87.31
409.791	79.31
410.014	78.31
410.238	87.31
410.461	78.31
410.685	71.31
410.908	99.31
411.132	97.31
411.355	96.31
411.578	80.31
411.802	85.31
412.025	94.31
412.249	87.31
412.472	75.31
412.695	91.31
412.919	80.31
413.142	91.31
413.365	96.31
413.589	74.31
413.812	73.31
414.035	91.31
414.258	78.31
414.482	78.31
414.705	80.31
414.928	89.31
415.151	77.31
415.374	87.31
415.597	75.31
415.821	82.31
416.044	76.31
416.267	96.31
416.49	89.31
416.713	75.31
416.936	84.31
417.159	66.31
417.382	72.31
417.605	89.31
417.828	91.31
418.051	90.31
418.274	85.31
418.497	91.31
418.72	75.31
418.943	81.31
419.166	87.31
419.389	75.31
419.611	78.31
419.834	89.31
420.057	87.31
420.28	81.31
420.503	90.31
420.726	91.31
420.948	75.31
421.171	83.31
421.394	96.31
421.617	82.31
421.839	91.31
422.062	99.31
422.285	73.31
422.507	99.31
422.73	111.31
422.953	98.31
423.175	84.31
423.398	93.31
423.621	83.31
423.843	73.31
424.066	75.31
424.288	72.31
424.511	89.31
424.733	88.31
424.956	90.31
425.178	83.31
425.401	88.31
425.623	89.31
425.846	72.31
426.068	97.31
426.291	88.31
426.513	85.31
426.735	92.31
426.958	96.31
427.18	109.31
427.402	121.31
427.625	122.31
427.847	115.31
428.069	87.31
428.292	80.31
428.514	87.31
428.736	79.31
428.958	73.31
429.181	87.31
429.403	95.31
429.625	74.31
429.847	91.31
430.069	92.31
430.292	80.31
430.514	85.31
430.736	75.31
430.958	89.31
431.18	73.31
431.402	68.31
431.624	78.31
431.846	79.31
432.068	99.31
432.29	95.31
432.512	84.31
432.734	93.31
432.956	88.31
433.178	95.31
433.4	98.31
433.622	83.31
433.844	101.31
434.066	93.31
434.287	86.31
434.509	80.31
434.731	89.31
434.953	82.31
435.175	67.31
435.397	91.31
435.618	83.31
435.84	101.31
436.062	99.31
436.284	111.31
436.505	96.31
436.727	88.31
436.949	85.31
437.17	88.31
437.392	90.31
437.614	87.31
437.835	88.31
438.057	115.31
438.278	98.31
438.5	99.31
438.721	95.31
438.943	97.31
439.165	86.31
439.386	78.31
439.608	76.31
439.829	87.31
440.05	117.31
440.272	121.31
440.493	97.31
440.715	96.31
440.936	77.31
441.158	89.31
441.379	80.31
441.6	92.31
441.822	88.31
442.043	85.31
442.264	101.31
442.486	98.31
442.707	98.31
442.928	90.31
443.149	118.31
443.371	121.31
443.592	109.31
443.813	99.31
444.034	86.31
444.255	95.31
444.476	77.31
444.698	92.31
444.919	90.31
445.14	121.31
445.361	115.31
445.582	97.31
445.803	123.31
446.024	137.31
446.245	122.31
446.466	122.31
446.687	91.31
446.908	85.31
447.129	88.31
447.35	84.31
447.571	80.31
447.792	86.31
448.013	83.31
448.234	97.31
448.455	85.31
448.675	109.31
448.896	105.31
449.117	103.31
449.338	76.31
449.559	115.31
449.779	121.31
450	92.31
450.221	87.31
450.442	85.31
450.662	91.31
450.883	100.31
451.104	107.31
451.324	81.31
451.545	82.31
451.766	85.31
451.986	85.31
452.207	89.31
452.428	100.31
452.648	84.31
452.869	107.31
453.089	113.31
453.31	104.31
453.53	86.31
453.751	91.31
453.971	84.31
454.192	93.31
454.412	82.31
454.633	80.31
454.853	88.31
455.073	91.31
455.294	75.31
455.514	95.31
455.734	84.31
455.955	82.31
456.175	87.31
456.395	83.31
456.616	75.31
456.836	84.31
457.056	77.31
457.276	79.31
457.497	85.31
457.717	82.31
457.937	96.31
458.157	82.31
458.377	80.31
458.598	109.31
458.818	123.31
459.038	130.31
459.258	104.31
459.478	76.31
459.698	84.31
459.918	87.31
460.138	77.31
460.358	96.31
460.578	84.31
460.798	90.31
461.018	81.31
461.238	85.31
461.458	73.31
461.678	72.31
461.898	76.31
462.118	84.31
462.338	87.31
462.558	71.31
462.777	96.31
462.997	92.31
463.217	84.31
463.437	78.31
463.657	84.31
463.876	74.31
464.096	78.31
464.316	92.31
464.536	82.31
464.755	80.31
464.975	100.31
465.195	136.31
465.414	122.31
465.634	103.31
465.854	83.31
466.073	79.31
466.293	83.31
466.512	75.31
466.732	76.31
466.951	94.31
467.171	79.31
467.391	74.31
467.61	104.31
467.829	80.31
468.049	75.31
468.268	85.31
468.488	73.31
468.707	75.31
468.927	74.31
469.146	80.31
469.365	93.31
469.585	89.31
469.804	93.31
470.023	96.31
470.243	93.31
470.462	95.31
470.681	98.31
470.901	85.31
471.12	79.31
471.339	93.31
471.558	82.31
471.777	91.31
471.997	78.31
472.216	87.31
472.435	89.31
472.654	73.31
472.873	75.31
473.092	84.31
473.311	90.31
473.53	80.31
473.749	81.31
473.968	83.31
474.187	87.31
474.406	79.31
474.625	92.31
474.844	89.31
475.063	87.31
475.282	89.31
475.501	82.31
475.72	97.31
475.939	85.31
476.158	94.31
476.377	86.31
476.596	89.31
476.814	90.31
477.033	91.31
477.252	103.31
477.471	66.31
477.69	83.31
477.908	96.31
478.127	85.31
478.346	84.31
478.564	97.31
478.783	91.31
479.002	80.31
479.22	71.31
479.439	92.31
479.658	88.31
479.876	76.31
480.095	81.31
480.313	74.31
480.532	98.31
480.751	69.31
480.969	102.31
481.188	125.31
481.406	105.31
481.624	82.31
481.843	85.31
482.061	83.31
482.28	85.31
482.498	93.31
482.717	92.31
482.935	80.31
483.153	90.31
483.372	84.31
483.59	97.31
483.808	81.31
484.027	88.31
484.245	93.31
484.463	94.31
484.681	75.31
484.9	89.31
485.118	95.31
485.336	96.31
485.554	80.31
485.772	94.31
485.99	96.31
486.209	109.31
486.427	91.31
486.645	85.31
486.863	107.31
487.081	103.31
487.299	86.31
487.517	87.31
487.735	68.31
487.953	83.31
488.171	99.31
488.389	80.31
488.607	92.31
488.825	78.31
489.043	94.31
489.261	88.31
489.479	82.31
489.696	77.31
489.914	80.31
490.132	88.31
490.35	84.31
490.568	63.31
490.786	84.31
491.003	83.31
491.221	92.31
491.439	97.31
491.657	98.31
491.874	87.31
492.092	74.31
492.31	97.31
492.527	84.31
492.745	80.31
492.963	81.31
493.18	75.31
493.398	86.31
493.615	74.31
493.833	99.31
494.05	87.31
494.268	99.31
494.485	81.31
494.703	93.31
494.92	89.31
495.138	84.31
495.355	77.31
495.573	104.31
495.79	92.31
496.008	79.31
496.225	90.31
496.442	98.31
496.66	96.31
496.877	75.31
497.094	77.31
497.312	75.31
497.529	85.31
497.746	94.31
497.963	72.31
498.181	88.31
498.398	90.31
498.615	106.31
498.832	97.31
499.049	79.31
499.267	76.31
499.484	79.31
499.701	93.31
499.918	99.31
500.135	87.31
500.352	89.31
500.569	79.31
500.786	90.31
501.003	81.31
501.22	88.31
501.437	73.31
501.654	87.31
501.871	109.31
502.088	101.31
502.305	90.31
502.522	90.31
502.739	96.31
502.956	91.31
503.172	84.31
503.389	95.31
503.606	87.31
503.823	76.31
504.04	94.31
504.256	100.31
504.473	77.31
504.69	91.31
504.907	109.31
505.123	83.31
505.34	91.31
505.557	83.31
505.773	86.31
505.99	78.31
506.207	98.31
506.423	74.31
506.64	81.31
506.856	69.31
507.073	90.31
507.289	91.31
507.506	98.31
507.722	110.31
507.939	110.31
508.155	97.31
508.372	94.31
508.588	91.31
508.805	85.31
509.021	94.31
509.238	95.31
509.454	93.31
509.67	99.31
509.887	102.31
510.103	103.31
510.319	189.31
510.536	620.31
510.752	1999.31
510.968	557.31
511.184	137.31
511.401	108.31
511.617	97.31
511.833	94.31
512.049	81.31
512.265	84.31
512.481	75.31
512.698	91.31
512.914	76.31
513.13	81.31
513.346	83.31
513.562	92.31
513.778	98.31
513.994	100.31
514.21	88.31
514.426	97.31
514.642	104.31
514.858	117.31
515.074	135.31
515.29	372.31
515.506	1183.31
515.721	445.31
515.937	136.31
516.153	102.31
516.369	112.31
516.585	105.31
516.801	92.31
517.016	97.31
517.232	93.31
517.448	80.31
517.664	79.31
517.879	91.31
518.095	89.31
518.311	88.31
518.527	93.31
518.742	94.31
518.958	96.31
519.173	94.31
519.389	81.31
519.605	87.31
519.82	98.31
520.036	96.31
520.251	110.31
520.467	96.31
520.682	96.31
520.898	97.31
521.113	110.31
521.329	121.31
521.544	191.31
521.76	473.31
521.975	1919.31
522.19	1175.31
522.406	258.31
522.621	116.31
522.836	90.31
523.052	83.31
523.267	89.31
523.482	90.31
523.698	96.31
523.913	101.31
524.128	102.31
524.343	92.31
524.559	86.31
524.774	79.31
524.989	85.31
525.204	99.31
525.419	90.31
525.634	75.31
525.849	85.31
526.064	76.31
526.28	94.31
526.495	80.31
526.71	94.31
526.925	68.31
527.14	76.31
527.355	82.31
527.57	88.31
527.785	85.31
527.999	88.31
528.214	82.31
528.429	104.31
528.644	81.31
528.859	94.31
529.074	87.31
529.289	112.31
529.503	148.31
529.718	97.31
529.933	79.31
530.148	81.31
530.363	103.31
530.577	98.31
530.792	89.31
531.007	92.31
531.221	72.31
531.436	80.31
531.651	81.31
531.865	81.31
532.08	95.31
532.295	94.31
532.509	73.31
532.724	92.31
532.938	74.31
533.153	91.31
533.367	93.31
533.582	82.31
533.796	77.31
534.011	76.31
534.225	98.31
534.44	81.31
534.654	78.31
534.868	81.31
535.083	96.31
535.297	80.31
535.511	84.31
535.726	98.31
535.94	89.31
536.154	85.31
536.369	88.31
536.583	96.31
536.797	100.31
537.011	79.31
537.225	78.31
537.44	89.31
537.654	88.31
537.868	106.31
538.082	75.31
538.296	98.31
538.51	86.31
538.724	87.31
538.938	89.31
539.153	92.31
539.367	81.31
539.581	77.31
539.795	88.31
540.009	88.31
540.222	88.31
540.436	83.31
540.65	76.31
540.864	87.31
541.078	99.31
541.292	76.31
541.506	85.31
541.72	87.31
541.934	71.31
542.147	77.31
542.361	77.31
542.575	91.31
542.789	86.31
543.002	61.31
543.216	83.31
543.43	86.31
543.644	80.31
543.857	88.31
544.071	74.31
544.285	103.31
544.498	90.31
544.712	94.31
544.925	90.31
545.139	87.31
545.352	92.31
545.566	73.31
545.779	92.31
545.993	89.31
546.206	89.31
546.42	89.31
546.633	98.31
546.847	96.31
547.06	88.31
547.274	82.31
547.487	79.31
547.7	85.31
547.914	81.31
548.127	67.31
548.34	98.31
548.554	83.31
548.767	90.31
548.98	80.31
549.193	91.31
549.407	75.31
549.62	75.31
549.833	82.31
550.046	78.31
550.259	71.31
550.473	89.31
550.686	75.31
550.899	85.31
551.112	85.31
551.325	98.31
551.538	83.31
551.751	83.31
551.964	85.31
552.177	92.31
552.39	92.31
552.603	94.31
552.816	90.31
553.029	85.31
553.242	99.31
553.455	99.31
553.667	93.31
553.88	97.31
554.093	85.31
554.306	87.31
554.519	89.31
554.732	88.31
554.944	95.31
555.157	97.31
555.37	89.31
555.583	85.31
555.795	96.31
556.008	89.31
556.221	89.31
556.433	84.31
556.646	70.31
556.859	95.31
557.071	105.31
557.284	85.31
557.496	92.31
557.709	75.31
557.921	97.31
558.134	82.31
558.346	67.31
558.559	76.31
558.771	97.31
558.984	89.31
559.196	82.31
559.409	90.31
559.621	100.31
559.833	90.31
560.046	85.31
560.258	67.31
560.47	81.31
560.683	81.31
560.895	79.31
561.107	76.31
561.32	85.31
561.532	91.31
561.744	96.31
561.956	77.31
562.168	80.31
562.381	77.31
562.593	72.31
562.805	83.31
563.017	85.31
563.229	94.31
563.441	105.31
563.653	82.31
563.865	83.31
564.077	85.31
564.289	90.31
564.501	80.31
564.713	90.31
564.925	79.31
565.137	85.31
565.349	93.31
565.561	85.31
565.773	70.31
565.985	89.31
566.197	91.31
566.408	74.31
566.62	75.31
566.832	67.31
567.044	83.31
567.255	84.31
567.467	81.31
567.679	63.31
567.891	76.31
568.102	95.31
568.314	81.31
568.526	82.31
568.737	91.31
568.949	77.31
569.161	89.31
569.372	93.31
569.584	82.31
569.795	90.31
570.007	117.31
570.218	208.31
570.43	116.31
570.641	69.31
570.853	97.31
571.064	85.31
571.276	91.31
571.487	66.31
571.698	86.31
571.91	95.31
572.121	85.31
572.333	84.31
572.544	74.31
572.755	87.31
572.966	84.31
573.178	82.31
573.389	91.31
573.6	88.31
573.811	68.31
574.023	90.31
574.234	73.31
574.445	94.31
574.656	89.31
574.867	83.31
575.078	92.31
575.289	94.31
575.501	92.31
575.712	92.31
575.923	92.31
576.134	88.31
576.345	97.31
576.556	95.31
576.767	100.31
576.978	103.31
577.188	94.31
577.399	87.31
577.61	67.31
577.821	96.31
578.032	102.31
578.243	227.31
578.454	645.31
578.665	193.31
578.875	75.31
579.086	81.31
579.297	88.31
579.508	85.31
579.718	85.31
579.929	82.31
580.14	86.31
580.35	69.31
580.561	90.31
580.772	79.31
580.982	84.31
581.193	79.31
581.403	70.31
581.614	79.31
581.825	102.31
582.035	91.31
582.246	97.31
582.456	95.31
582.667	85.31
582.877	81.31
583.087	99.31
583.298	84.31
583.508	79.31
583.719	80.31
583.929	91.31
584.139	76.31
584.35	83.31
584.56	98.31
584.77	79.31
584.981	95.31
585.191	88.31
585.401	80.31
585.611	79.31
585.821	83.31
586.032	73.31
586.242	79.31
586.452	89.31
586.662	86.31
586.872	98.31
587.082	85.31
587.292	76.31
587.502	82.31
587.713	95.31
587.923	91.31
588.133	73.31
588.343	83.31
588.553	84.31
588.762	85.31
588.972	84.31
589.182	85.31
589.392	96.31
589.602	71.31
589.812	79.31
590.022	83.31
590.232	88.31
590.441	76.31
590.651	82.31
590.861	82.31
591.071	69.31
591.281	73.31
591.49	74.31
591.7	94.31
591.91	81.31
592.119	85.31
592.329	88.31
592.539	90.31
592.748	83.31
592.958	79.31
593.167	68.31
593.377	81.31
593.587	80.31
593.796	84.31
594.006	95.31
594.215	84.31
594.424	73.31
594.634	85.31
594.843	82.31
595.053	76.31
595.262	88.31
595.472	72.31
595.681	90.31
595.89	84.31
596.1	81.31
596.309	85.31
596.518	96.31
596.727	86.31
596.937	89.31
597.146	87.31
597.355	97.31
597.564	87.31
597.774	83.31
597.983	64.31
598.192	76.31
598.401	91.31
598.61	79.31
598.819	91.31
599.028	90.31
599.237	86.31
599.446	61.31
599.655	84.31
599.864	76.31
600.073	85.31
600.282	80.31
600.491	89.31
600.7	71.31
600.909	88.31
601.118	94.31
601.327	80.31
601.536	96.31
601.745	89.31
601.953	80.31
602.162	82.31
602.371	88.31
602.58	92.31
602.789	90.31
602.997	100.31
603.206	81.31
603.415	89.31
603.623	83.31
603.832	64.31
604.041	85.31
604.249	66.31
604.458	82.31
604.666	63.31
604.875	99.31
605.084	85.31
605.292	88.31
605.501	74.31
605.709	72.31
605.918	96.31
606.126	79.31
606.334	77.31
606.543	79.31
606.751	80.31
606.96	71.31
607.168	83.31
607.376	100.31
607.585	92.31
607.793	82.31
608.001	87.31
608.21	80.31
608.418	79.31
608.626	84.31
608.834	86.31
609.043	81.31
609.251	88.31
609.459	81.31
609.667	77.31
609.875	75.31
610.083	85.31
610.291	77.31
610.499	94.31
610.707	93.31
610.916	89.31
611.124	73.31
611.332	79.31
611.54	76.31
611.748	81.31
611.955	90.31
612.163	82.31
612.371	74.31
612.579	79.31
612.787	95.31
612.995	92.31
613.203	71.31
613.411	89.31
613.618	89.31
613.826	80.31
614.034	92.31
614.242	85.31
614.449	80.31
614.657	58.31
614.865	77.31
615.072	87.31
615.28	87.31
615.488	84.31
615.695	89.31
615.903	81.31
616.111	100.31
616.318	90.31
616.526	94.31
616.733	95.31
616.941	85.31
617.148	96.31
617.356	83.31
617.563	85.31
617.771	88.31
617.978	82.31
618.185	82.31
618.393	95.31
618.6	97.31
618.807	76.31
619.015	84.31
619.222	88.31
619.429	93.31
619.637	80.31
619.844	90.31
620.051	89.31
620.258	73.31
620.466	92.31
620.673	95.31
620.88	71.31
621.087	88.31
621.294	79.31
621.501	89.31
621.708	71.31
621.915	93.31
622.122	77.31
622.329	94.31
622.536	92.31
622.743	89.31
622.95	94.31
623.157	81.31
623.364	77.31
623.571	79.31
623.778	81.31
623.985	72.31
624.192	84.31
624.399	71.31
624.606	80.31
624.812	83.31
625.019	67.31
625.226	89.31
625.433	81.31
625.639	75.31
625.846	87.31
626.053	79.31
626.259	69.31
626.466	95.31
626.673	74.31
626.879	76.31
627.086	80.31
627.293	75.31
627.499	92.31
627.706	85.31
627.912	71.31
628.119	97.31
628.325	85.31
628.532	89.31
628.738	80.31
628.945	73.31
629.151	74.31
629.357	93.31
629.564	77.31
629.77	89.31
629.976	82.31
630.183	75.31
630.389	91.31
630.595	76.31
630.802	83.31
631.008	68.31
631.214	83.31
631.42	85.31
631.627	87.31
631.833	75.31
632.039	71.31
632.245	93.31
632.451	82.31
632.657	82.31
632.863	82.31
633.069	74.31
633.275	80.31
633.481	87.31
633.688	79.31
633.893	87.31
634.099	83.31
634.305	88.31
634.511	100.31
634.717	78.31
634.923	64.31
635.129	82.31
635.335	91.31
635.541	80.31
635.747	85.31
635.952	88.31
636.158	90.31
636.364	87.31
636.57	63.31
636.775	68.31
636.981	88.31
637.187	71.31
637.392	80.31
637.598	79.31
637.804	80.31
638.009	82.31
638.215	77.31
638.421	78.31
638.626	76.31
638.832	76.31
639.037	77.31
639.243	78.31
639.448	82.31
639.654	82.31
639.859	87.31
640.065	84.31
640.27	98.31
640.475	81.31
640.681	70.31
640.886	81.31
641.091	82.31
641.297	91.31
641.502	80.31
641.707	68.31
641.913	77.31
642.118	81.31
642.323	81.31
642.528	96.31
642.733	90.31
642.939	84.31
643.144	85.31
643.349	79.31
643.554	64.31
643.759	77.31
643.964	79.31
644.169	102.31
644.374	87.31
644.579	79.31
644.784	90.31
644.989	87.31
645.194	68.31
645.399	87.31
645.604	83.31
645.809	67.31
646.014	92.31
646.219	91.31
646.423	94.31
646.628	73.31
646.833	87.31
647.038	84.31
647.243	89.31
647.447	81.31
647.652	92.31
647.857	91.31
648.062	84.31
648.266	98.31
648.471	88.31
648.676	99.31
648.88	88.31
649.085	91.31
649.289	103.31
649.494	92.31
649.698	128.31
649.903	83.31
650.107	84.31
650.312	81.31
650.516	79.31
650.721	82.31
650.925	75.31
651.13	82.31
651.334	78.31
651.539	78.31
651.743	74.31
651.947	79.31
652.152	88.31
652.356	64.31
652.56	89.31
652.764	67.31
652.969	95.31
653.173	77.31
653.377	83.31
653.581	77.31
653.785	73.31
653.99	96.31
654.194	80.31
654.398	77.31
654.602	75.31
654.806	85.31
655.01	98.31
655.214	78.31
655.418	82.31
655.622	85.31
655.826	99.31
656.03	86.31
656.234	75.31
656.438	82.31
656.642	91.31
656.846	92.31
657.049	80.31
657.253	84.31
657.457	83.31
657.661	105.31
657.865	82.31
658.068	83.31
658.272	74.31
658.476	91.31
658.68	84.31
658.883	78.31
659.087	82.31
659.291	92.31
659.494	67.31
659.698	71.31
659.901	85.31
660.105	75.31
660.309	89.31
660.512	84.31
660.716	86.31
660.919	79.31
661.123	68.31
661.326	73.31
661.53	77.31
661.733	87.31
661.936	66.31
662.14	81.31
662.343	88.31
662.546	65.31
662.75	82.31
662.953	66.31
663.156	81.31
663.36	87.31
663.563	93.31
663.766	79.31
663.969	80.31
664.173	87.31
664.376	69.31
664.579	85.31
664.782	76.31
664.985	74.31
665.188	88.31
665.391	87.31
665.594	78.31
665.797	82.31
666	79.31
666.203	81.31
666.406	70.31
666.609	89.31
666.812	85.31
667.015	79.31
667.218	83.31
667.421	78.31
667.624	83.31
667.827	91.31
668.03	77.31
668.232	69.31
668.435	83.31
668.638	75.31
668.841	87.31
669.043	91.31
669.246	95.31
669.449	68.31
669.651	69.31
669.854	94.31
670.057	84.31
670.259	83.31
670.462	84.31
670.665	67.31
670.867	80.31
671.07	96.31
671.272	67.31
671.475	87.31
671.677	84.31
671.88	82.31
672.082	78.31
672.284	74.31
672.487	61.31
672.689	78.31
672.892	66.31
