Data from Uncirc_1990_H10_HRD10591_00012.txt Node
Date: Wed Jan 03 11:53:54 EST 2024
User: Yrep
Spectrometer: HR+D1059
Trigger mode: 1
Integration Time (sec): 1.000000E-1
Scans to average: 1
Electric dark correction enabled: true
Nonlinearity correction enabled: false
Boxcar width: 0
XAxis mode: Wavelengths
Number of Pixels in Spectrum: 2048
>>>>>Begin Spectral Data<<<<<
223.165	-8.81
223.4	-8.81
223.635	-8.81
223.869	-32.81
224.104	-16.81
224.338	-4.81
224.573	-19.81
224.808	-13.81
225.042	-4.81
225.277	-9.81
225.511	0.19
225.746	19.19
225.98	-4.81
226.215	12.19
226.449	15.19
226.683	20.19
226.918	25.19
227.152	24.19
227.387	42.19
227.621	35.19
227.856	41.19
228.09	56.19
228.324	58.19
228.559	46.19
228.793	55.19
229.027	62.19
229.262	66.19
229.496	82.19
229.73	67.19
229.964	89.19
230.199	95.19
230.433	75.19
230.667	82.19
230.901	72.19
231.136	81.19
231.37	79.19
231.604	85.19
231.838	70.19
232.072	73.19
232.306	89.19
232.541	72.19
232.775	80.19
233.009	89.19
233.243	78.19
233.477	89.19
233.711	96.19
233.945	90.19
234.179	90.19
234.413	78.19
234.647	77.19
234.881	87.19
235.115	90.19
235.349	82.19
235.583	75.19
235.817	77.19
236.051	71.19
236.285	86.19
236.519	72.19
236.753	77.19
236.987	77.19
237.221	83.19
237.455	86.19
237.689	66.19
237.922	87.19
238.156	87.19
238.39	73.19
238.624	90.19
238.858	79.19
239.091	72.19
239.325	82.19
239.559	83.19
239.793	89.19
240.027	78.19
240.26	74.19
240.494	81.19
240.728	70.19
240.961	91.19
241.195	70.19
241.429	73.19
241.662	74.19
241.896	58.19
242.13	74.19
242.363	80.19
242.597	81.19
242.83	77.19
243.064	77.19
243.298	84.19
243.531	89.19
243.765	74.19
243.998	73.19
244.232	69.19
244.465	81.19
244.699	85.19
244.932	70.19
245.166	70.19
245.399	75.19
245.633	79.19
245.866	77.19
246.099	67.19
246.333	79.19
246.566	84.19
246.8	85.19
247.033	69.19
247.266	88.19
247.5	75.19
247.733	69.19
247.966	88.19
248.2	88.19
248.433	103.19
248.666	75.19
248.899	85.19
249.133	87.19
249.366	95.19
249.599	104.19
249.832	85.19
250.066	93.19
250.299	98.19
250.532	88.19
250.765	88.19
250.998	88.19
251.231	90.19
251.465	75.19
251.698	88.19
251.931	86.19
252.164	86.19
252.397	86.19
252.63	85.19
252.863	80.19
253.096	82.19
253.329	87.19
253.562	82.19
253.795	82.19
254.028	77.19
254.261	63.19
254.494	83.19
254.727	81.19
254.96	86.19
255.193	83.19
255.426	87.19
255.659	82.19
255.892	69.19
256.124	85.19
256.357	83.19
256.59	82.19
256.823	84.19
257.056	84.19
257.289	90.19
257.521	81.19
257.754	85.19
257.987	71.19
258.22	78.19
258.452	78.19
258.685	101.19
258.918	79.19
259.151	84.19
259.383	75.19
259.616	82.19
259.849	92.19
260.081	71.19
260.314	77.19
260.547	88.19
260.779	88.19
261.012	85.19
261.244	90.19
261.477	91.19
261.71	79.19
261.942	96.19
262.175	112.19
262.407	88.19
262.64	86.19
262.872	83.19
263.105	83.19
263.337	93.19
263.57	76.19
263.802	81.19
264.035	86.19
264.267	94.19
264.499	83.19
264.732	79.19
264.964	67.19
265.197	73.19
265.429	93.19
265.661	89.19
265.894	77.19
266.126	74.19
266.358	81.19
266.591	81.19
266.823	91.19
267.055	83.19
267.287	79.19
267.52	86.19
267.752	75.19
267.984	89.19
268.216	80.19
268.448	94.19
268.681	84.19
268.913	86.19
269.145	93.19
269.377	88.19
269.609	78.19
269.841	85.19
270.073	91.19
270.306	97.19
270.538	90.19
270.77	87.19
271.002	102.19
271.234	92.19
271.466	94.19
271.698	73.19
271.93	95.19
272.162	91.19
272.394	89.19
272.626	83.19
272.858	80.19
273.09	90.19
273.322	93.19
273.553	86.19
273.785	74.19
274.017	85.19
274.249	77.19
274.481	89.19
274.713	85.19
274.945	81.19
275.176	66.19
275.408	89.19
275.64	94.19
275.872	87.19
276.104	88.19
276.335	82.19
276.567	89.19
276.799	99.19
277.031	89.19
277.262	84.19
277.494	89.19
277.726	89.19
277.957	79.19
278.189	88.19
278.421	75.19
278.652	89.19
278.884	95.19
279.115	77.19
279.347	85.19
279.579	99.19
279.81	87.19
280.042	69.19
280.273	79.19
280.505	74.19
280.736	80.19
280.968	89.19
281.199	100.19
281.431	85.19
281.662	89.19
281.894	101.19
282.125	78.19
282.356	122.19
282.588	132.19
282.819	105.19
283.051	87.19
283.282	94.19
283.513	93.19
283.745	92.19
283.976	91.19
284.207	85.19
284.439	80.19
284.67	95.19
284.901	87.19
285.132	87.19
285.364	75.19
285.595	87.19
285.826	84.19
286.057	81.19
286.288	82.19
286.52	78.19
286.751	94.19
286.982	88.19
287.213	86.19
287.444	87.19
287.675	88.19
287.906	93.19
288.138	98.19
288.369	91.19
288.6	93.19
288.831	95.19
289.062	89.19
289.293	87.19
289.524	87.19
289.755	83.19
289.986	95.19
290.217	77.19
290.448	79.19
290.679	99.19
290.91	103.19
291.141	85.19
291.371	99.19
291.602	81.19
291.833	90.19
292.064	83.19
292.295	98.19
292.526	106.19
292.757	82.19
292.987	94.19
293.218	93.19
293.449	95.19
293.68	86.19
293.91	93.19
294.141	72.19
294.372	96.19
294.603	97.19
294.833	78.19
295.064	82.19
295.295	96.19
295.525	93.19
295.756	90.19
295.987	109.19
296.217	137.19
296.448	115.19
296.679	93.19
296.909	87.19
297.14	102.19
297.37	104.19
297.601	91.19
297.831	91.19
298.062	94.19
298.292	81.19
298.523	72.19
298.753	92.19
298.984	97.19
299.214	101.19
299.445	98.19
299.675	74.19
299.905	91.19
300.136	94.19
300.366	92.19
300.597	94.19
300.827	95.19
301.057	101.19
301.288	94.19
301.518	81.19
301.748	94.19
301.979	101.19
302.209	79.19
302.439	85.19
302.669	92.19
302.9	91.19
303.13	94.19
303.36	93.19
303.59	114.19
303.82	96.19
304.051	98.19
304.281	89.19
304.511	103.19
304.741	97.19
304.971	97.19
305.201	90.19
305.431	82.19
305.661	89.19
305.891	88.19
306.121	89.19
306.352	100.19
306.582	104.19
306.812	94.19
307.042	86.19
307.272	96.19
307.502	86.19
307.731	91.19
307.961	97.19
308.191	94.19
308.421	95.19
308.651	89.19
308.881	81.19
309.111	88.19
309.341	89.19
309.571	103.19
309.8	95.19
310.03	99.19
310.26	87.19
310.49	99.19
310.72	82.19
310.949	97.19
311.179	94.19
311.409	98.19
311.639	98.19
311.868	93.19
312.098	96.19
312.328	86.19
312.557	104.19
312.787	97.19
313.017	83.19
313.246	91.19
313.476	81.19
313.706	90.19
313.935	90.19
314.165	105.19
314.394	106.19
314.624	107.19
314.853	97.19
315.083	94.19
315.312	86.19
315.542	89.19
315.771	93.19
316.001	93.19
316.23	90.19
316.46	90.19
316.689	97.19
316.919	73.19
317.148	97.19
317.377	102.19
317.607	96.19
317.836	91.19
318.065	99.19
318.295	93.19
318.524	79.19
318.753	88.19
318.983	95.19
319.212	96.19
319.441	101.19
319.67	91.19
319.9	107.19
320.129	111.19
320.358	88.19
320.587	85.19
320.816	108.19
321.046	98.19
321.275	104.19
321.504	101.19
321.733	86.19
321.962	103.19
322.191	119.19
322.42	95.19
322.649	106.19
322.878	112.19
323.108	119.19
323.337	113.19
323.566	132.19
323.795	142.19
324.024	208.19
324.253	367.19
324.482	740.19
324.71	1512.19
324.939	2016.19
325.168	737.19
325.397	223.19
325.626	160.19
325.855	118.19
326.084	110.19
326.313	140.19
326.542	145.19
326.77	222.19
326.999	423.19
327.228	853.19
327.457	1554.19
327.686	1298.19
327.914	338.19
328.143	183.19
328.372	146.19
328.6	117.19
328.829	119.19
329.058	113.19
329.287	120.19
329.515	104.19
329.744	99.19
329.972	91.19
330.201	94.19
330.43	92.19
330.658	118.19
330.887	129.19
331.115	114.19
331.344	109.19
331.572	105.19
331.801	97.19
332.03	104.19
332.258	100.19
332.486	88.19
332.715	105.19
332.943	95.19
333.172	91.19
333.4	104.19
333.629	113.19
333.857	95.19
334.085	91.19
334.314	105.19
334.542	91.19
334.771	89.19
334.999	98.19
335.227	106.19
335.455	100.19
335.684	93.19
335.912	87.19
336.14	111.19
336.369	99.19
336.597	102.19
336.825	103.19
337.053	95.19
337.281	92.19
337.51	93.19
337.738	98.19
337.966	82.19
338.194	105.19
338.422	106.19
338.65	93.19
338.878	89.19
339.106	100.19
339.334	112.19
339.562	86.19
339.79	97.19
340.018	93.19
340.246	97.19
340.474	109.19
340.702	93.19
340.93	80.19
341.158	88.19
341.386	106.19
341.614	84.19
341.842	91.19
342.07	86.19
342.298	80.19
342.526	91.19
342.754	91.19
342.981	101.19
343.209	90.19
343.437	102.19
343.665	100.19
343.893	93.19
344.12	89.19
344.348	121.19
344.576	89.19
344.804	81.19
345.031	90.19
345.259	89.19
345.487	105.19
345.714	110.19
345.942	100.19
346.17	91.19
346.397	81.19
346.625	103.19
346.853	100.19
347.08	91.19
347.308	89.19
347.535	92.19
347.763	101.19
347.99	109.19
348.218	104.19
348.445	97.19
348.673	96.19
348.9	91.19
349.128	91.19
349.355	90.19
349.583	94.19
349.81	92.19
350.037	84.19
350.265	105.19
350.492	106.19
350.72	95.19
350.947	99.19
351.174	109.19
351.402	100.19
351.629	94.19
351.856	98.19
352.083	111.19
352.311	103.19
352.538	105.19
352.765	109.19
352.992	123.19
353.22	102.19
353.447	97.19
353.674	116.19
353.901	97.19
354.128	91.19
354.355	107.19
354.583	116.19
354.81	111.19
355.037	94.19
355.264	89.19
355.491	86.19
355.718	105.19
355.945	97.19
356.172	102.19
356.399	92.19
356.626	100.19
356.853	94.19
357.08	109.19
357.307	106.19
357.534	97.19
357.761	87.19
357.988	100.19
358.215	93.19
358.441	93.19
358.668	89.19
358.895	94.19
359.122	88.19
359.349	91.19
359.576	102.19
359.802	107.19
360.029	104.19
360.256	109.19
360.483	115.19
360.709	88.19
360.936	94.19
361.163	105.19
361.39	96.19
361.616	106.19
361.843	90.19
362.07	103.19
362.296	98.19
362.523	98.19
362.749	86.19
362.976	84.19
363.203	98.19
363.429	103.19
363.656	100.19
363.882	87.19
364.109	94.19
364.335	105.19
364.562	105.19
364.788	102.19
365.015	102.19
365.241	97.19
365.468	102.19
365.694	99.19
365.92	93.19
366.147	82.19
366.373	94.19
366.599	86.19
366.826	77.19
367.052	81.19
367.278	98.19
367.505	89.19
367.731	86.19
367.957	97.19
368.184	89.19
368.41	93.19
368.636	101.19
368.862	107.19
369.089	115.19
369.315	91.19
369.541	99.19
369.767	94.19
369.993	105.19
370.219	84.19
370.445	72.19
370.672	89.19
370.898	93.19
371.124	95.19
371.35	102.19
371.576	90.19
371.802	91.19
372.028	106.19
372.254	86.19
372.48	82.19
372.706	94.19
372.932	94.19
373.158	101.19
373.384	90.19
373.61	95.19
373.835	97.19
374.061	97.19
374.287	92.19
374.513	93.19
374.739	89.19
374.965	95.19
375.191	96.19
375.416	84.19
375.642	99.19
375.868	77.19
376.094	94.19
376.319	89.19
376.545	77.19
376.771	93.19
376.997	78.19
377.222	80.19
377.448	93.19
377.674	111.19
377.899	83.19
378.125	83.19
378.35	87.19
378.576	86.19
378.802	95.19
379.027	86.19
379.253	92.19
379.478	97.19
379.704	103.19
379.929	103.19
380.155	103.19
380.38	90.19
380.606	98.19
380.831	92.19
381.057	106.19
381.282	102.19
381.507	98.19
381.733	101.19
381.958	95.19
382.184	113.19
382.409	92.19
382.634	93.19
382.86	100.19
383.085	94.19
383.31	91.19
383.535	95.19
383.761	99.19
383.986	113.19
384.211	92.19
384.436	103.19
384.662	104.19
384.887	96.19
385.112	94.19
385.337	111.19
385.562	88.19
385.787	110.19
386.013	94.19
386.238	107.19
386.463	98.19
386.688	113.19
386.913	101.19
387.138	107.19
387.363	100.19
387.588	101.19
387.813	102.19
388.038	100.19
388.263	106.19
388.488	101.19
388.713	104.19
388.938	94.19
389.163	105.19
389.387	104.19
389.612	90.19
389.837	89.19
390.062	88.19
390.287	87.19
390.512	90.19
390.736	94.19
390.961	97.19
391.186	95.19
391.411	103.19
391.636	86.19
391.86	86.19
392.085	78.19
392.31	87.19
392.534	75.19
392.759	85.19
392.984	89.19
393.208	93.19
393.433	96.19
393.658	86.19
393.882	86.19
394.107	93.19
394.331	87.19
394.556	95.19
394.78	90.19
395.005	96.19
395.229	84.19
395.454	71.19
395.678	69.19
395.903	94.19
396.127	87.19
396.352	77.19
396.576	88.19
396.801	106.19
397.025	83.19
397.249	90.19
397.474	92.19
397.698	87.19
397.922	94.19
398.147	101.19
398.371	88.19
398.595	91.19
398.82	86.19
399.044	87.19
399.268	83.19
399.492	88.19
399.717	89.19
399.941	82.19
400.165	107.19
400.389	102.19
400.613	81.19
400.837	102.19
401.062	93.19
401.286	93.19
401.51	94.19
401.734	92.19
401.958	96.19
402.182	113.19
402.406	144.19
402.63	122.19
402.854	87.19
403.078	96.19
403.302	88.19
403.526	91.19
403.75	84.19
403.974	87.19
404.198	89.19
404.422	94.19
404.645	91.19
404.869	95.19
405.093	100.19
405.317	93.19
405.541	102.19
405.765	103.19
405.988	120.19
406.212	146.19
406.436	173.19
406.66	118.19
406.883	94.19
407.107	98.19
407.331	95.19
407.555	112.19
407.778	99.19
408.002	97.19
408.226	93.19
408.449	80.19
408.673	76.19
408.896	106.19
409.12	88.19
409.344	79.19
409.567	86.19
409.791	106.19
410.014	101.19
410.238	102.19
410.461	83.19
410.685	97.19
410.908	95.19
411.132	114.19
411.355	97.19
411.578	108.19
411.802	81.19
412.025	90.19
412.249	96.19
412.472	94.19
412.695	86.19
412.919	83.19
413.142	86.19
413.365	88.19
413.589	94.19
413.812	85.19
414.035	101.19
414.258	97.19
414.482	92.19
414.705	90.19
414.928	88.19
415.151	90.19
415.374	99.19
415.597	91.19
415.821	94.19
416.044	87.19
416.267	89.19
416.49	74.19
416.713	81.19
416.936	85.19
417.159	93.19
417.382	103.19
417.605	98.19
417.828	101.19
418.051	96.19
418.274	89.19
418.497	89.19
418.72	89.19
418.943	94.19
419.166	87.19
419.389	81.19
419.611	94.19
419.834	77.19
420.057	78.19
420.28	84.19
420.503	94.19
420.726	97.19
420.948	82.19
421.171	97.19
421.394	86.19
421.617	87.19
421.839	96.19
422.062	105.19
422.285	102.19
422.507	89.19
422.73	106.19
422.953	105.19
423.175	89.19
423.398	89.19
423.621	82.19
423.843	97.19
424.066	79.19
424.288	74.19
424.511	111.19
424.733	99.19
424.956	90.19
425.178	98.19
425.401	97.19
425.623	98.19
425.846	87.19
426.068	101.19
426.291	103.19
426.513	97.19
426.735	100.19
426.958	103.19
427.18	97.19
427.402	117.19
427.625	143.19
427.847	117.19
428.069	102.19
428.292	105.19
428.514	89.19
428.736	89.19
428.958	74.19
429.181	105.19
429.403	97.19
429.625	77.19
429.847	91.19
430.069	80.19
430.292	84.19
430.514	94.19
430.736	72.19
430.958	82.19
431.18	78.19
431.402	87.19
431.624	87.19
431.846	86.19
432.068	99.19
432.29	91.19
432.512	87.19
432.734	103.19
432.956	94.19
433.178	91.19
433.4	100.19
433.622	85.19
433.844	96.19
434.066	95.19
434.287	101.19
434.509	104.19
434.731	99.19
434.953	84.19
435.175	78.19
435.397	94.19
435.618	95.19
435.84	96.19
436.062	115.19
436.284	109.19
436.505	105.19
436.727	103.19
436.949	108.19
437.17	83.19
437.392	88.19
437.614	84.19
437.835	88.19
438.057	100.19
438.278	113.19
438.5	112.19
438.721	114.19
438.943	105.19
439.165	87.19
439.386	92.19
439.608	91.19
439.829	84.19
440.05	118.19
440.272	125.19
440.493	100.19
440.715	83.19
440.936	87.19
441.158	93.19
441.379	89.19
441.6	99.19
441.822	82.19
442.043	96.19
442.264	100.19
442.486	86.19
442.707	85.19
442.928	103.19
443.149	110.19
443.371	114.19
443.592	118.19
443.813	114.19
444.034	116.19
444.255	111.19
444.476	105.19
444.698	95.19
444.919	90.19
445.14	135.19
445.361	113.19
445.582	104.19
445.803	121.19
446.024	119.19
446.245	139.19
446.466	110.19
446.687	91.19
446.908	93.19
447.129	88.19
447.35	82.19
447.571	85.19
447.792	106.19
448.013	93.19
448.234	101.19
448.455	101.19
448.675	107.19
448.896	122.19
449.117	97.19
449.338	106.19
449.559	125.19
449.779	133.19
450	94.19
450.221	80.19
450.442	91.19
450.662	86.19
450.883	104.19
451.104	99.19
451.324	100.19
451.545	85.19
451.766	102.19
451.986	83.19
452.207	90.19
452.428	90.19
452.648	91.19
452.869	94.19
453.089	117.19
453.31	113.19
453.53	88.19
453.751	105.19
453.971	88.19
454.192	101.19
454.412	99.19
454.633	68.19
454.853	97.19
455.073	101.19
455.294	96.19
455.514	103.19
455.734	97.19
455.955	86.19
456.175	98.19
456.395	87.19
456.616	87.19
456.836	80.19
457.056	83.19
457.276	89.19
457.497	81.19
457.717	109.19
457.937	93.19
458.157	88.19
458.377	81.19
458.598	103.19
458.818	119.19
459.038	132.19
459.258	115.19
459.478	104.19
459.698	75.19
459.918	96.19
460.138	88.19
460.358	77.19
460.578	94.19
460.798	91.19
461.018	81.19
461.238	94.19
461.458	86.19
461.678	96.19
461.898	92.19
462.118	106.19
462.338	91.19
462.558	79.19
462.777	79.19
462.997	93.19
463.217	98.19
463.437	88.19
463.657	93.19
463.876	85.19
464.096	94.19
464.316	101.19
464.536	87.19
464.755	88.19
464.975	97.19
465.195	146.19
465.414	149.19
465.634	100.19
465.854	68.19
466.073	94.19
466.293	100.19
466.512	81.19
466.732	75.19
466.951	90.19
467.171	98.19
467.391	97.19
467.61	91.19
467.829	84.19
468.049	87.19
468.268	87.19
468.488	69.19
468.707	85.19
468.927	97.19
469.146	91.19
469.365	93.19
469.585	107.19
469.804	96.19
470.023	91.19
470.243	99.19
470.462	115.19
470.681	109.19
470.901	97.19
471.12	82.19
471.339	79.19
471.558	89.19
471.777	82.19
471.997	60.19
472.216	87.19
472.435	96.19
472.654	83.19
472.873	96.19
473.092	81.19
473.311	86.19
473.53	98.19
473.749	101.19
473.968	95.19
474.187	99.19
474.406	95.19
474.625	93.19
474.844	69.19
475.063	95.19
475.282	80.19
475.501	95.19
475.72	85.19
475.939	83.19
476.158	78.19
476.377	96.19
476.596	87.19
476.814	85.19
477.033	99.19
477.252	97.19
477.471	86.19
477.69	84.19
477.908	82.19
478.127	86.19
478.346	90.19
478.564	81.19
478.783	93.19
479.002	99.19
479.22	98.19
479.439	101.19
479.658	94.19
479.876	99.19
480.095	85.19
480.313	85.19
480.532	90.19
480.751	77.19
480.969	99.19
481.188	103.19
481.406	104.19
481.624	106.19
481.843	86.19
482.061	96.19
482.28	86.19
482.498	103.19
482.717	94.19
482.935	101.19
483.153	90.19
483.372	97.19
483.59	83.19
483.808	99.19
484.027	98.19
484.245	97.19
484.463	100.19
484.681	89.19
484.9	109.19
485.118	91.19
485.336	86.19
485.554	113.19
485.772	109.19
485.99	102.19
486.209	101.19
486.427	115.19
486.645	107.19
486.863	123.19
487.081	97.19
487.299	87.19
487.517	89.19
487.735	96.19
487.953	83.19
488.171	104.19
488.389	99.19
488.607	105.19
488.825	83.19
489.043	91.19
489.261	91.19
489.479	97.19
489.696	108.19
489.914	101.19
490.132	100.19
490.35	94.19
490.568	89.19
490.786	73.19
491.003	93.19
491.221	100.19
491.439	97.19
491.657	101.19
491.874	100.19
492.092	79.19
492.31	97.19
492.527	90.19
492.745	94.19
492.963	78.19
493.18	93.19
493.398	95.19
493.615	101.19
493.833	101.19
494.05	90.19
494.268	120.19
494.485	90.19
494.703	78.19
494.92	86.19
495.138	93.19
495.355	102.19
495.573	93.19
495.79	88.19
496.008	83.19
496.225	100.19
496.442	91.19
496.66	88.19
496.877	90.19
497.094	89.19
497.312	99.19
497.529	93.19
497.746	89.19
497.963	96.19
498.181	84.19
498.398	93.19
498.615	112.19
498.832	95.19
499.049	103.19
499.267	96.19
499.484	94.19
499.701	95.19
499.918	88.19
500.135	107.19
500.352	91.19
500.569	95.19
500.786	81.19
501.003	88.19
501.22	102.19
501.437	102.19
501.654	88.19
501.871	101.19
502.088	100.19
502.305	97.19
502.522	89.19
502.739	98.19
502.956	84.19
503.172	106.19
503.389	89.19
503.606	102.19
503.823	101.19
504.04	97.19
504.256	88.19
504.473	97.19
504.69	98.19
504.907	98.19
505.123	99.19
505.34	93.19
505.557	107.19
505.773	85.19
505.99	85.19
506.207	84.19
506.423	78.19
506.64	97.19
506.856	83.19
507.073	98.19
507.289	113.19
507.506	97.19
507.722	103.19
507.939	100.19
508.155	101.19
508.372	90.19
508.588	103.19
508.805	102.19
509.021	96.19
509.238	110.19
509.454	107.19
509.67	107.19
509.887	121.19
510.103	131.19
510.319	200.19
510.536	647.19
510.752	1964.19
510.968	534.19
511.184	137.19
511.401	117.19
511.617	95.19
511.833	95.19
512.049	97.19
512.265	110.19
512.481	89.19
512.698	97.19
512.914	90.19
513.13	95.19
513.346	90.19
513.562	97.19
513.778	90.19
513.994	89.19
514.21	94.19
514.426	110.19
514.642	121.19
514.858	112.19
515.074	148.19
515.29	355.19
515.506	1149.19
515.721	435.19
515.937	146.19
516.153	107.19
516.369	97.19
516.585	97.19
516.801	87.19
517.016	91.19
517.232	102.19
517.448	100.19
517.664	87.19
517.879	100.19
518.095	95.19
518.311	75.19
518.527	89.19
518.742	94.19
518.958	95.19
519.173	107.19
519.389	99.19
519.605	92.19
519.82	102.19
520.036	90.19
520.251	117.19
520.467	100.19
520.682	112.19
520.898	106.19
521.113	109.19
521.329	138.19
521.544	185.19
521.76	441.19
521.975	1905.19
522.19	1127.19
522.406	265.19
522.621	114.19
522.836	99.19
523.052	110.19
523.267	102.19
523.482	83.19
523.698	100.19
523.913	119.19
524.128	111.19
524.343	103.19
524.559	99.19
524.774	84.19
524.989	98.19
525.204	105.19
525.419	94.19
525.634	91.19
525.849	89.19
526.064	88.19
526.28	76.19
526.495	95.19
526.71	87.19
526.925	104.19
527.14	101.19
527.355	78.19
527.57	88.19
527.785	86.19
527.999	85.19
528.214	91.19
528.429	102.19
528.644	104.19
528.859	90.19
529.074	85.19
529.289	119.19
529.503	151.19
529.718	107.19
529.933	101.19
530.148	95.19
530.363	86.19
530.577	85.19
530.792	85.19
531.007	107.19
531.221	114.19
531.436	97.19
531.651	104.19
531.865	87.19
532.08	94.19
532.295	95.19
532.509	96.19
532.724	101.19
532.938	93.19
533.153	98.19
533.367	98.19
533.582	107.19
533.796	93.19
534.011	89.19
534.225	83.19
534.44	87.19
534.654	90.19
534.868	87.19
535.083	99.19
535.297	104.19
535.511	107.19
535.726	102.19
535.94	94.19
536.154	95.19
536.369	82.19
536.583	78.19
536.797	99.19
537.011	93.19
537.225	106.19
537.44	98.19
537.654	97.19
537.868	97.19
538.082	100.19
538.296	92.19
538.51	92.19
538.724	110.19
538.938	98.19
539.153	96.19
539.367	92.19
539.581	99.19
539.795	92.19
540.009	86.19
540.222	84.19
540.436	98.19
540.65	92.19
540.864	75.19
541.078	113.19
541.292	96.19
541.506	89.19
541.72	96.19
541.934	95.19
542.147	91.19
542.361	79.19
542.575	91.19
542.789	94.19
543.002	86.19
543.216	92.19
543.43	103.19
543.644	87.19
543.857	91.19
544.071	97.19
544.285	93.19
544.498	84.19
544.712	95.19
544.925	85.19
545.139	83.19
545.352	93.19
545.566	93.19
545.779	89.19
545.993	82.19
546.206	88.19
546.42	88.19
546.633	89.19
546.847	91.19
547.06	96.19
547.274	109.19
547.487	72.19
547.7	85.19
547.914	90.19
548.127	83.19
548.34	101.19
548.554	97.19
548.767	95.19
548.98	98.19
549.193	89.19
549.407	87.19
549.62	90.19
549.833	77.19
550.046	100.19
550.259	85.19
550.473	84.19
550.686	93.19
550.899	87.19
551.112	95.19
551.325	86.19
551.538	90.19
551.751	106.19
551.964	101.19
552.177	109.19
552.39	99.19
552.603	99.19
552.816	87.19
553.029	95.19
553.242	88.19
553.455	83.19
553.667	103.19
553.88	90.19
554.093	98.19
554.306	84.19
554.519	88.19
554.732	97.19
554.944	105.19
555.157	108.19
555.37	81.19
555.583	89.19
555.795	93.19
556.008	96.19
556.221	83.19
556.433	94.19
556.646	89.19
556.859	99.19
557.071	92.19
557.284	85.19
557.496	95.19
557.709	109.19
557.921	96.19
558.134	101.19
558.346	100.19
558.559	94.19
558.771	85.19
558.984	93.19
559.196	104.19
559.409	89.19
559.621	103.19
559.833	82.19
560.046	93.19
560.258	88.19
560.47	94.19
560.683	97.19
560.895	102.19
561.107	95.19
561.32	81.19
561.532	87.19
561.744	99.19
561.956	106.19
562.168	84.19
562.381	99.19
562.593	98.19
562.805	92.19
563.017	93.19
563.229	89.19
563.441	96.19
563.653	101.19
563.865	90.19
564.077	87.19
564.289	98.19
564.501	87.19
564.713	85.19
564.925	86.19
565.137	107.19
565.349	97.19
565.561	87.19
565.773	89.19
565.985	86.19
566.197	92.19
566.408	85.19
566.62	81.19
566.832	87.19
567.044	88.19
567.255	97.19
567.467	87.19
567.679	88.19
567.891	91.19
568.102	93.19
568.314	88.19
568.526	87.19
568.737	100.19
568.949	79.19
569.161	82.19
569.372	91.19
569.584	96.19
569.795	87.19
570.007	113.19
570.218	201.19
570.43	126.19
570.641	81.19
570.853	85.19
571.064	81.19
571.276	93.19
571.487	91.19
571.698	105.19
571.91	86.19
572.121	94.19
572.333	90.19
572.544	91.19
572.755	82.19
572.966	79.19
573.178	87.19
573.389	87.19
573.6	94.19
573.811	102.19
574.023	71.19
574.234	101.19
574.445	106.19
574.656	85.19
574.867	93.19
575.078	98.19
575.289	101.19
575.501	90.19
575.712	89.19
575.923	85.19
576.134	90.19
576.345	85.19
576.556	93.19
576.767	99.19
576.978	96.19
577.188	98.19
577.399	99.19
577.61	101.19
577.821	95.19
578.032	113.19
578.243	256.19
578.454	673.19
578.665	212.19
578.875	100.19
579.086	89.19
579.297	83.19
579.508	106.19
579.718	95.19
579.929	91.19
580.14	109.19
580.35	89.19
580.561	93.19
580.772	95.19
580.982	108.19
581.193	96.19
581.403	81.19
581.614	81.19
581.825	98.19
582.035	100.19
582.246	101.19
582.456	101.19
582.667	75.19
582.877	86.19
583.087	91.19
583.298	88.19
583.508	88.19
583.719	87.19
583.929	97.19
584.139	104.19
584.35	77.19
584.56	95.19
584.77	91.19
584.981	93.19
585.191	101.19
585.401	80.19
585.611	87.19
585.821	89.19
586.032	86.19
586.242	77.19
586.452	94.19
586.662	94.19
586.872	70.19
587.082	79.19
587.292	91.19
587.502	103.19
587.713	92.19
587.923	86.19
588.133	89.19
588.343	105.19
588.553	85.19
588.762	91.19
588.972	96.19
589.182	101.19
589.392	84.19
589.602	74.19
589.812	89.19
590.022	98.19
590.232	85.19
590.441	83.19
590.651	86.19
590.861	89.19
591.071	90.19
591.281	77.19
591.49	75.19
591.7	81.19
591.91	100.19
592.119	89.19
592.329	92.19
592.539	103.19
592.748	83.19
592.958	90.19
593.167	97.19
593.377	87.19
593.587	99.19
593.796	82.19
594.006	82.19
594.215	98.19
594.424	90.19
594.634	95.19
594.843	87.19
595.053	78.19
595.262	100.19
595.472	95.19
595.681	95.19
595.89	94.19
596.1	104.19
596.309	89.19
596.518	94.19
596.727	89.19
596.937	100.19
597.146	86.19
597.355	90.19
597.564	85.19
597.774	89.19
597.983	88.19
598.192	90.19
598.401	81.19
598.61	97.19
598.819	79.19
599.028	98.19
599.237	83.19
599.446	92.19
599.655	93.19
599.864	91.19
600.073	95.19
600.282	85.19
600.491	98.19
600.7	81.19
600.909	93.19
601.118	94.19
601.327	93.19
601.536	77.19
601.745	69.19
601.953	90.19
602.162	69.19
602.371	86.19
602.58	82.19
602.789	96.19
602.997	87.19
603.206	89.19
603.415	99.19
603.623	80.19
603.832	78.19
604.041	95.19
604.249	90.19
604.458	98.19
604.666	83.19
604.875	77.19
605.084	85.19
605.292	82.19
605.501	82.19
605.709	102.19
605.918	90.19
606.126	80.19
606.334	83.19
606.543	78.19
606.751	86.19
606.96	85.19
607.168	95.19
607.376	85.19
607.585	84.19
607.793	78.19
608.001	99.19
608.21	97.19
608.418	82.19
608.626	98.19
608.834	94.19
609.043	89.19
609.251	90.19
609.459	97.19
609.667	90.19
609.875	84.19
610.083	78.19
610.291	89.19
610.499	90.19
610.707	93.19
610.916	91.19
611.124	89.19
611.332	71.19
611.54	75.19
611.748	98.19
611.955	96.19
612.163	94.19
612.371	82.19
612.579	85.19
612.787	79.19
612.995	97.19
613.203	81.19
613.411	85.19
613.618	83.19
613.826	71.19
614.034	73.19
614.242	91.19
614.449	93.19
614.657	86.19
614.865	82.19
615.072	103.19
615.28	97.19
615.488	86.19
615.695	107.19
615.903	97.19
616.111	89.19
616.318	103.19
616.526	88.19
616.733	113.19
616.941	103.19
617.148	104.19
617.356	73.19
617.563	90.19
617.771	84.19
617.978	92.19
618.185	100.19
618.393	88.19
618.6	90.19
618.807	92.19
619.015	85.19
619.222	89.19
619.429	78.19
619.637	91.19
619.844	89.19
620.051	77.19
620.258	87.19
620.466	86.19
620.673	81.19
620.88	85.19
621.087	82.19
621.294	110.19
621.501	85.19
621.708	87.19
621.915	86.19
622.122	88.19
622.329	90.19
622.536	69.19
622.743	81.19
622.95	85.19
623.157	80.19
623.364	91.19
623.571	88.19
623.778	107.19
623.985	97.19
624.192	86.19
624.399	87.19
624.606	86.19
624.812	71.19
625.019	80.19
625.226	75.19
625.433	69.19
625.639	97.19
625.846	94.19
626.053	86.19
626.259	85.19
626.466	97.19
626.673	87.19
626.879	102.19
627.086	88.19
627.293	81.19
627.499	90.19
627.706	96.19
627.912	98.19
628.119	82.19
628.325	90.19
628.532	87.19
628.738	97.19
628.945	95.19
629.151	102.19
629.357	84.19
629.564	102.19
629.77	98.19
629.976	81.19
630.183	89.19
630.389	93.19
630.595	85.19
630.802	83.19
631.008	93.19
631.214	92.19
631.42	101.19
631.627	93.19
631.833	86.19
632.039	87.19
632.245	83.19
632.451	70.19
632.657	87.19
632.863	87.19
633.069	85.19
633.275	91.19
633.481	90.19
633.688	88.19
633.893	82.19
634.099	98.19
634.305	92.19
634.511	75.19
634.717	86.19
634.923	83.19
635.129	98.19
635.335	89.19
635.541	85.19
635.747	83.19
635.952	81.19
636.158	91.19
636.364	96.19
636.57	87.19
636.775	97.19
636.981	85.19
637.187	98.19
637.392	76.19
637.598	83.19
637.804	79.19
638.009	79.19
638.215	88.19
638.421	88.19
638.626	94.19
638.832	96.19
639.037	87.19
639.243	97.19
639.448	97.19
639.654	93.19
639.859	82.19
640.065	80.19
640.27	93.19
640.475	83.19
640.681	68.19
640.886	89.19
641.091	93.19
641.297	88.19
641.502	77.19
641.707	88.19
641.913	87.19
642.118	94.19
642.323	72.19
642.528	99.19
642.733	103.19
642.939	91.19
643.144	78.19
643.349	90.19
643.554	89.19
643.759	80.19
643.964	100.19
644.169	97.19
644.374	89.19
644.579	87.19
644.784	85.19
644.989	81.19
645.194	90.19
645.399	90.19
645.604	89.19
645.809	107.19
646.014	101.19
646.219	94.19
646.423	81.19
646.628	76.19
646.833	82.19
647.038	89.19
647.243	90.19
647.447	82.19
647.652	98.19
647.857	100.19
648.062	74.19
648.266	80.19
648.471	101.19
648.676	91.19
648.88	101.19
649.085	102.19
649.289	99.19
649.494	95.19
649.698	138.19
649.903	109.19
650.107	93.19
650.312	101.19
650.516	86.19
650.721	89.19
650.925	91.19
651.13	78.19
651.334	66.19
651.539	95.19
651.743	86.19
651.947	89.19
652.152	99.19
652.356	79.19
652.56	87.19
652.764	86.19
652.969	87.19
653.173	99.19
653.377	88.19
653.581	86.19
653.785	82.19
653.99	87.19
654.194	74.19
654.398	75.19
654.602	81.19
654.806	69.19
655.01	108.19
655.214	89.19
655.418	83.19
655.622	88.19
655.826	77.19
656.03	87.19
656.234	77.19
656.438	108.19
656.642	103.19
656.846	97.19
657.049	86.19
657.253	89.19
657.457	90.19
657.661	104.19
657.865	88.19
658.068	78.19
658.272	82.19
658.476	96.19
658.68	94.19
658.883	84.19
659.087	94.19
659.291	95.19
659.494	86.19
659.698	87.19
659.901	92.19
660.105	82.19
660.309	93.19
660.512	69.19
660.716	79.19
660.919	86.19
661.123	70.19
661.326	95.19
661.53	96.19
661.733	79.19
661.936	73.19
662.14	81.19
662.343	87.19
662.546	79.19
662.75	74.19
662.953	76.19
663.156	75.19
663.36	81.19
663.563	83.19
663.766	80.19
663.969	73.19
664.173	70.19
664.376	86.19
664.579	89.19
664.782	67.19
664.985	71.19
665.188	78.19
665.391	85.19
665.594	77.19
665.797	83.19
666	90.19
666.203	97.19
666.406	87.19
666.609	85.19
666.812	81.19
667.015	85.19
667.218	75.19
667.421	81.19
667.624	75.19
667.827	75.19
668.03	84.19
668.232	85.19
668.435	95.19
668.638	87.19
668.841	83.19
669.043	95.19
669.246	78.19
669.449	84.19
669.651	94.19
669.854	76.19
670.057	98.19
670.259	63.19
670.462	95.19
670.665	93.19
670.867	85.19
671.07	91.19
671.272	87.19
671.475	86.19
671.677	72.19
671.88	85.19
672.082	87.19
672.284	84.19
672.487	88.19
672.689	78.19
672.892	89.19
