Data from Foil_1_HRD10591_00008.txt Node
Date: Wed Nov 05 16:15:24 EST 2025
User: Yrep
Spectrometer: HR+D1059
Trigger mode: 1
Integration Time (sec): 1.000000E-1
Scans to average: 1
Electric dark correction enabled: true
Nonlinearity correction enabled: false
Boxcar width: 0
XAxis mode: Wavelengths
Number of Pixels in Spectrum: 2048
>>>>>Begin Spectral Data<<<<<
223.165	-24.12
223.4	-24.12
223.635	-24.12
223.869	-7.12
224.104	-25.12
224.338	-12.12
224.573	-7.12
224.808	-17.12
225.042	-7.12
225.277	2.88
225.511	-1.12
225.746	6.88
225.98	5.88
226.215	18.88
226.449	7.88
226.683	19.88
226.918	17.88
227.152	20.88
227.387	24.88
227.621	28.88
227.856	33.88
228.09	46.88
228.324	53.88
228.559	56.88
228.793	54.88
229.027	60.88
229.262	59.88
229.496	68.88
229.73	70.88
229.964	73.88
230.199	58.88
230.433	67.88
230.667	76.88
230.901	69.88
231.136	78.88
231.37	69.88
231.604	94.88
231.838	87.88
232.072	81.88
232.306	72.88
232.541	68.88
232.775	74.88
233.009	79.88
233.243	80.88
233.477	82.88
233.711	88.88
233.945	78.88
234.179	65.88
234.413	83.88
234.647	66.88
234.881	75.88
235.115	74.88
235.349	72.88
235.583	63.88
235.817	78.88
236.051	63.88
236.285	53.88
236.519	73.88
236.753	73.88
236.987	76.88
237.221	82.88
237.455	62.88
237.689	72.88
237.922	68.88
238.156	68.88
238.39	81.88
238.624	81.88
238.858	77.88
239.091	73.88
239.325	83.88
239.559	71.88
239.793	70.88
240.027	64.88
240.26	72.88
240.494	70.88
240.728	76.88
240.961	60.88
241.195	69.88
241.429	77.88
241.662	85.88
241.896	76.88
242.13	79.88
242.363	67.88
242.597	68.88
242.83	76.88
243.064	86.88
243.298	70.88
243.531	74.88
243.765	71.88
243.998	64.88
244.232	72.88
244.465	72.88
244.699	66.88
244.932	77.88
245.166	69.88
245.399	81.88
245.633	72.88
245.866	56.88
246.099	69.88
246.333	65.88
246.566	77.88
246.8	83.88
247.033	86.88
247.266	82.88
247.5	82.88
247.733	90.88
247.966	67.88
248.2	73.88
248.433	72.88
248.666	60.88
248.899	70.88
249.133	83.88
249.366	90.88
249.599	81.88
249.832	75.88
250.066	92.88
250.299	83.88
250.532	73.88
250.765	87.88
250.998	84.88
251.231	80.88
251.465	79.88
251.698	82.88
251.931	84.88
252.164	74.88
252.397	74.88
252.63	76.88
252.863	74.88
253.096	79.88
253.329	86.88
253.562	74.88
253.795	84.88
254.028	74.88
254.261	68.88
254.494	82.88
254.727	87.88
254.96	70.88
255.193	76.88
255.426	62.88
255.659	62.88
255.892	76.88
256.124	78.88
256.357	79.88
256.59	76.88
256.823	80.88
257.056	64.88
257.289	72.88
257.521	85.88
257.754	76.88
257.987	70.88
258.22	91.88
258.452	64.88
258.685	80.88
258.918	84.88
259.151	78.88
259.383	75.88
259.616	69.88
259.849	75.88
260.081	69.88
260.314	76.88
260.547	72.88
260.779	81.88
261.012	68.88
261.244	58.88
261.477	70.88
261.71	70.88
261.942	71.88
262.175	58.88
262.407	77.88
262.64	84.88
262.872	80.88
263.105	72.88
263.337	81.88
263.57	73.88
263.802	74.88
264.035	84.88
264.267	77.88
264.499	78.88
264.732	98.88
264.964	62.88
265.197	82.88
265.429	73.88
265.661	73.88
265.894	81.88
266.126	92.88
266.358	81.88
266.591	80.88
266.823	83.88
267.055	84.88
267.287	72.88
267.52	85.88
267.752	84.88
267.984	74.88
268.216	91.88
268.448	77.88
268.681	73.88
268.913	61.88
269.145	88.88
269.377	69.88
269.609	80.88
269.841	76.88
270.073	75.88
270.306	66.88
270.538	64.88
270.77	87.88
271.002	70.88
271.234	87.88
271.466	78.88
271.698	77.88
271.93	78.88
272.162	68.88
272.394	71.88
272.626	78.88
272.858	83.88
273.09	92.88
273.322	70.88
273.553	84.88
273.785	75.88
274.017	91.88
274.249	77.88
274.481	82.88
274.713	84.88
274.945	75.88
275.176	79.88
275.408	84.88
275.64	71.88
275.872	84.88
276.104	74.88
276.335	73.88
276.567	84.88
276.799	84.88
277.031	71.88
277.262	84.88
277.494	88.88
277.726	76.88
277.957	88.88
278.189	77.88
278.421	82.88
278.652	78.88
278.884	82.88
279.115	71.88
279.347	84.88
279.579	80.88
279.81	96.88
280.042	82.88
280.273	66.88
280.505	75.88
280.736	81.88
280.968	68.88
281.199	74.88
281.431	83.88
281.662	74.88
281.894	88.88
282.125	85.88
282.356	77.88
282.588	72.88
282.819	79.88
283.051	77.88
283.282	82.88
283.513	79.88
283.745	75.88
283.976	80.88
284.207	86.88
284.439	66.88
284.67	81.88
284.901	78.88
285.132	69.88
285.364	70.88
285.595	74.88
285.826	77.88
286.057	101.88
286.288	79.88
286.52	89.88
286.751	91.88
286.982	88.88
287.213	61.88
287.444	80.88
287.675	86.88
287.906	76.88
288.138	87.88
288.369	92.88
288.6	96.88
288.831	79.88
289.062	84.88
289.293	84.88
289.524	84.88
289.755	68.88
289.986	80.88
290.217	64.88
290.448	79.88
290.679	80.88
290.91	105.88
291.141	81.88
291.371	84.88
291.602	80.88
291.833	88.88
292.064	73.88
292.295	82.88
292.526	69.88
292.757	73.88
292.987	86.88
293.218	78.88
293.449	83.88
293.68	77.88
293.91	77.88
294.141	79.88
294.372	72.88
294.603	89.88
294.833	68.88
295.064	83.88
295.295	82.88
295.525	84.88
295.756	90.88
295.987	83.88
296.217	86.88
296.448	78.88
296.679	82.88
296.909	100.88
297.14	78.88
297.37	89.88
297.601	74.88
297.831	97.88
298.062	80.88
298.292	85.88
298.523	70.88
298.753	93.88
298.984	80.88
299.214	92.88
299.445	86.88
299.675	85.88
299.905	92.88
300.136	77.88
300.366	82.88
300.597	89.88
300.827	72.88
301.057	78.88
301.288	90.88
301.518	76.88
301.748	76.88
301.979	99.88
302.209	62.88
302.439	78.88
302.669	84.88
302.9	84.88
303.13	81.88
303.36	95.88
303.59	72.88
303.82	83.88
304.051	84.88
304.281	78.88
304.511	94.88
304.741	75.88
304.971	86.88
305.201	82.88
305.431	76.88
305.661	91.88
305.891	83.88
306.121	85.88
306.352	86.88
306.582	82.88
306.812	92.88
307.042	91.88
307.272	84.88
307.502	79.88
307.731	91.88
307.961	96.88
308.191	111.88
308.421	100.88
308.651	100.88
308.881	92.88
309.111	98.88
309.341	126.88
309.571	120.88
309.8	88.88
310.03	84.88
310.26	85.88
310.49	78.88
310.72	78.88
310.949	87.88
311.179	76.88
311.409	88.88
311.639	89.88
311.868	89.88
312.098	83.88
312.328	77.88
312.557	92.88
312.787	89.88
313.017	76.88
313.246	73.88
313.476	72.88
313.706	70.88
313.935	75.88
314.165	73.88
314.394	77.88
314.624	79.88
314.853	83.88
315.083	98.88
315.312	88.88
315.542	85.88
315.771	72.88
316.001	76.88
316.23	80.88
316.46	92.88
316.689	91.88
316.919	68.88
317.148	78.88
317.377	88.88
317.607	83.88
317.836	77.88
318.065	94.88
318.295	84.88
318.524	89.88
318.753	83.88
318.983	82.88
319.212	81.88
319.441	87.88
319.67	83.88
319.9	74.88
320.129	88.88
320.358	75.88
320.587	80.88
320.816	68.88
321.046	75.88
321.275	91.88
321.504	80.88
321.733	88.88
321.962	81.88
322.191	80.88
322.42	66.88
322.649	76.88
322.878	77.88
323.108	85.88
323.337	83.88
323.566	73.88
323.795	88.88
324.024	83.88
324.253	102.88
324.482	82.88
324.71	77.88
324.939	81.88
325.168	91.88
325.397	92.88
325.626	80.88
325.855	71.88
326.084	90.88
326.313	92.88
326.542	86.88
326.77	74.88
326.999	82.88
327.228	81.88
327.457	81.88
327.686	78.88
327.914	84.88
328.143	102.88
328.372	81.88
328.6	87.88
328.829	78.88
329.058	77.88
329.287	90.88
329.515	92.88
329.744	79.88
329.972	73.88
330.201	66.88
330.43	84.88
330.658	78.88
330.887	92.88
331.115	84.88
331.344	84.88
331.572	86.88
331.801	86.88
332.03	91.88
332.258	90.88
332.486	76.88
332.715	75.88
332.943	77.88
333.172	84.88
333.4	74.88
333.629	74.88
333.857	69.88
334.085	99.88
334.314	102.88
334.542	87.88
334.771	84.88
334.999	82.88
335.227	85.88
335.455	84.88
335.684	80.88
335.912	85.88
336.14	94.88
336.369	74.88
336.597	77.88
336.825	98.88
337.053	85.88
337.281	98.88
337.51	73.88
337.738	86.88
337.966	82.88
338.194	79.88
338.422	82.88
338.65	75.88
338.878	86.88
339.106	85.88
339.334	78.88
339.562	68.88
339.79	80.88
340.018	83.88
340.246	81.88
340.474	100.88
340.702	85.88
340.93	88.88
341.158	78.88
341.386	78.88
341.614	79.88
341.842	88.88
342.07	80.88
342.298	81.88
342.526	89.88
342.754	94.88
342.981	84.88
343.209	84.88
343.437	94.88
343.665	87.88
343.893	78.88
344.12	88.88
344.348	80.88
344.576	80.88
344.804	92.88
345.031	82.88
345.259	76.88
345.487	85.88
345.714	71.88
345.942	79.88
346.17	71.88
346.397	93.88
346.625	85.88
346.853	87.88
347.08	84.88
347.308	86.88
347.535	76.88
347.763	60.88
347.99	81.88
348.218	89.88
348.445	90.88
348.673	84.88
348.9	98.88
349.128	83.88
349.355	81.88
349.583	83.88
349.81	88.88
350.037	70.88
350.265	72.88
350.492	75.88
350.72	77.88
350.947	74.88
351.174	74.88
351.402	72.88
351.629	74.88
351.856	77.88
352.083	70.88
352.311	76.88
352.538	85.88
352.765	84.88
352.992	85.88
353.22	78.88
353.447	98.88
353.674	94.88
353.901	74.88
354.128	70.88
354.355	78.88
354.583	75.88
354.81	73.88
355.037	73.88
355.264	70.88
355.491	75.88
355.718	81.88
355.945	99.88
356.172	86.88
356.399	88.88
356.626	78.88
356.853	71.88
357.08	73.88
357.307	70.88
357.534	100.88
357.761	76.88
357.988	89.88
358.215	78.88
358.441	86.88
358.668	72.88
358.895	77.88
359.122	79.88
359.349	89.88
359.576	82.88
359.802	90.88
360.029	82.88
360.256	62.88
360.483	81.88
360.709	76.88
360.936	86.88
361.163	86.88
361.39	75.88
361.616	88.88
361.843	86.88
362.07	82.88
362.296	83.88
362.523	80.88
362.749	68.88
362.976	88.88
363.203	82.88
363.429	74.88
363.656	74.88
363.882	84.88
364.109	79.88
364.335	83.88
364.562	81.88
364.788	87.88
365.015	88.88
365.241	81.88
365.468	86.88
365.694	74.88
365.92	86.88
366.147	72.88
366.373	58.88
366.599	81.88
366.826	76.88
367.052	79.88
367.278	91.88
367.505	89.88
367.731	84.88
367.957	80.88
368.184	85.88
368.41	77.88
368.636	93.88
368.862	90.88
369.089	78.88
369.315	81.88
369.541	90.88
369.767	91.88
369.993	73.88
370.219	72.88
370.445	92.88
370.672	83.88
370.898	94.88
371.124	84.88
371.35	76.88
371.576	76.88
371.802	68.88
372.028	89.88
372.254	92.88
372.48	84.88
372.706	84.88
372.932	91.88
373.158	84.88
373.384	97.88
373.61	79.88
373.835	91.88
374.061	101.88
374.287	76.88
374.513	85.88
374.739	76.88
374.965	76.88
375.191	88.88
375.416	77.88
375.642	90.88
375.868	89.88
376.094	76.88
376.319	90.88
376.545	69.88
376.771	77.88
376.997	93.88
377.222	75.88
377.448	64.88
377.674	76.88
377.899	82.88
378.125	92.88
378.35	91.88
378.576	100.88
378.802	91.88
379.027	84.88
379.253	88.88
379.478	82.88
379.704	89.88
379.929	78.88
380.155	78.88
380.38	76.88
380.606	78.88
380.831	90.88
381.057	88.88
381.282	80.88
381.507	86.88
381.733	98.88
381.958	87.88
382.184	81.88
382.409	76.88
382.634	87.88
382.86	81.88
383.085	82.88
383.31	84.88
383.535	92.88
383.761	78.88
383.986	85.88
384.211	85.88
384.436	84.88
384.662	76.88
384.887	81.88
385.112	75.88
385.337	87.88
385.562	96.88
385.787	87.88
386.013	89.88
386.238	86.88
386.463	91.88
386.688	100.88
386.913	81.88
387.138	80.88
387.363	92.88
387.588	99.88
387.813	85.88
388.038	91.88
388.263	93.88
388.488	84.88
388.713	66.88
388.938	68.88
389.163	84.88
389.387	101.88
389.612	85.88
389.837	88.88
390.062	100.88
390.287	99.88
390.512	79.88
390.736	77.88
390.961	88.88
391.186	78.88
391.411	98.88
391.636	95.88
391.86	83.88
392.085	86.88
392.31	71.88
392.534	87.88
392.759	93.88
392.984	84.88
393.208	89.88
393.433	86.88
393.658	90.88
393.882	99.88
394.107	126.88
394.331	192.88
394.556	186.88
394.78	134.88
395.005	89.88
395.229	94.88
395.454	96.88
395.678	106.88
395.903	155.88
396.127	232.88
396.352	213.88
396.576	116.88
396.801	97.88
397.025	101.88
397.249	91.88
397.474	84.88
397.698	93.88
397.922	90.88
398.147	100.88
398.371	94.88
398.595	84.88
398.82	86.88
399.044	116.88
399.268	93.88
399.492	97.88
399.717	101.88
399.941	96.88
400.165	89.88
400.389	69.88
400.613	100.88
400.837	91.88
401.062	86.88
401.286	98.88
401.51	94.88
401.734	102.88
401.958	85.88
402.182	92.88
402.406	84.88
402.63	82.88
402.854	90.88
403.078	87.88
403.302	99.88
403.526	99.88
403.75	99.88
403.974	104.88
404.198	88.88
404.422	98.88
404.645	94.88
404.869	106.88
405.093	107.88
405.317	93.88
405.541	94.88
405.765	98.88
405.988	104.88
406.212	85.88
406.436	99.88
406.66	92.88
406.883	98.88
407.107	100.88
407.331	92.88
407.555	84.88
407.778	83.88
408.002	94.88
408.226	92.88
408.449	91.88
408.673	92.88
408.896	100.88
409.12	90.88
409.344	89.88
409.567	86.88
409.791	91.88
410.014	94.88
410.238	100.88
410.461	97.88
410.685	88.88
410.908	96.88
411.132	104.88
411.355	104.88
411.578	94.88
411.802	108.88
412.025	93.88
412.249	94.88
412.472	94.88
412.695	79.88
412.919	96.88
413.142	88.88
413.365	99.88
413.589	99.88
413.812	97.88
414.035	106.88
414.258	112.88
414.482	96.88
414.705	98.88
414.928	97.88
415.151	92.88
415.374	100.88
415.597	100.88
415.821	98.88
416.044	102.88
416.267	94.88
416.49	96.88
416.713	95.88
416.936	107.88
417.159	98.88
417.382	99.88
417.605	93.88
417.828	97.88
418.051	93.88
418.274	105.88
418.497	98.88
418.72	104.88
418.943	104.88
419.166	107.88
419.389	102.88
419.611	112.88
419.834	89.88
420.057	85.88
420.28	77.88
420.503	106.88
420.726	91.88
420.948	103.88
421.171	88.88
421.394	91.88
421.617	96.88
421.839	90.88
422.062	109.88
422.285	82.88
422.507	84.88
422.73	96.88
422.953	100.88
423.175	105.88
423.398	95.88
423.621	90.88
423.843	83.88
424.066	90.88
424.288	89.88
424.511	117.88
424.733	94.88
424.956	93.88
425.178	97.88
425.401	96.88
425.623	96.88
425.846	97.88
426.068	93.88
426.291	90.88
426.513	97.88
426.735	98.88
426.958	104.88
427.18	89.88
427.402	90.88
427.625	104.88
427.847	74.88
428.069	93.88
428.292	93.88
428.514	98.88
428.736	92.88
428.958	106.88
429.181	96.88
429.403	93.88
429.625	92.88
429.847	112.88
430.069	99.88
430.292	108.88
430.514	89.88
430.736	88.88
430.958	100.88
431.18	99.88
431.402	98.88
431.624	91.88
431.846	76.88
432.068	83.88
432.29	92.88
432.512	97.88
432.734	99.88
432.956	105.88
433.178	104.88
433.4	90.88
433.622	86.88
433.844	91.88
434.066	93.88
434.287	71.88
434.509	91.88
434.731	84.88
434.953	87.88
435.175	98.88
435.397	93.88
435.618	88.88
435.84	86.88
436.062	92.88
436.284	94.88
436.505	92.88
436.727	92.88
436.949	97.88
437.17	93.88
437.392	77.88
437.614	91.88
437.835	72.88
438.057	76.88
438.278	88.88
438.5	90.88
438.721	105.88
438.943	101.88
439.165	102.88
439.386	107.88
439.608	122.88
439.829	102.88
440.05	108.88
440.272	83.88
440.493	103.88
440.715	105.88
440.936	110.88
441.158	104.88
441.379	106.88
441.6	94.88
441.822	97.88
442.043	108.88
442.264	103.88
442.486	102.88
442.707	103.88
442.928	99.88
443.149	94.88
443.371	101.88
443.592	107.88
443.813	96.88
444.034	110.88
444.255	100.88
444.476	109.88
444.698	105.88
444.919	101.88
445.14	188.88
445.361	143.88
445.582	104.88
445.803	116.88
446.024	108.88
446.245	91.88
446.466	106.88
446.687	91.88
446.908	96.88
447.129	104.88
447.35	101.88
447.571	107.88
447.792	97.88
448.013	110.88
448.234	97.88
448.455	102.88
448.675	105.88
448.896	105.88
449.117	112.88
449.338	100.88
449.559	100.88
449.779	95.88
450	109.88
450.221	110.88
450.442	126.88
450.662	86.88
450.883	108.88
451.104	100.88
451.324	99.88
451.545	107.88
451.766	96.88
451.986	101.88
452.207	100.88
452.428	99.88
452.648	104.88
452.869	93.88
453.089	81.88
453.31	88.88
453.53	85.88
453.751	87.88
453.971	85.88
454.192	89.88
454.412	97.88
454.633	83.88
454.853	91.88
455.073	101.88
455.294	92.88
455.514	92.88
455.734	91.88
455.955	91.88
456.175	95.88
456.395	94.88
456.616	90.88
456.836	89.88
457.056	91.88
457.276	74.88
457.497	85.88
457.717	77.88
457.937	88.88
458.157	76.88
458.377	78.88
458.598	76.88
458.818	78.88
459.038	80.88
459.258	90.88
459.478	88.88
459.698	80.88
459.918	82.88
460.138	88.88
460.358	80.88
460.578	87.88
460.798	85.88
461.018	98.88
461.238	88.88
461.458	88.88
461.678	82.88
461.898	76.88
462.118	72.88
462.338	79.88
462.558	84.88
462.777	85.88
462.997	84.88
463.217	83.88
463.437	92.88
463.657	88.88
463.876	73.88
464.096	88.88
464.316	82.88
464.536	95.88
464.755	87.88
464.975	99.88
465.195	103.88
465.414	99.88
465.634	96.88
465.854	90.88
466.073	89.88
466.293	104.88
466.512	97.88
466.732	100.88
466.951	97.88
467.171	106.88
467.391	120.88
467.61	117.88
467.829	119.88
468.049	97.88
468.268	125.88
468.488	116.88
468.707	109.88
468.927	104.88
469.146	108.88
469.365	112.88
469.585	116.88
469.804	103.88
470.023	94.88
470.243	109.88
470.462	109.88
470.681	102.88
470.901	102.88
471.12	107.88
471.339	101.88
471.558	100.88
471.777	100.88
471.997	81.88
472.216	94.88
472.435	67.88
472.654	90.88
472.873	99.88
473.092	99.88
473.311	106.88
473.53	112.88
473.749	103.88
473.968	99.88
474.187	95.88
474.406	107.88
474.625	114.88
474.844	122.88
475.063	105.88
475.282	95.88
475.501	87.88
475.72	96.88
475.939	100.88
476.158	89.88
476.377	101.88
476.596	103.88
476.814	79.88
477.033	97.88
477.252	90.88
477.471	97.88
477.69	109.88
477.908	101.88
478.127	108.88
478.346	100.88
478.564	103.88
478.783	88.88
479.002	113.88
479.22	104.88
479.439	107.88
479.658	97.88
479.876	69.88
480.095	83.88
480.313	97.88
480.532	92.88
480.751	91.88
480.969	84.88
481.188	90.88
481.406	101.88
481.624	98.88
481.843	84.88
482.061	79.88
482.28	89.88
482.498	92.88
482.717	95.88
482.935	88.88
483.153	106.88
483.372	105.88
483.59	110.88
483.808	114.88
484.027	96.88
484.245	94.88
484.463	98.88
484.681	89.88
484.9	84.88
485.118	93.88
485.336	88.88
485.554	74.88
485.772	91.88
485.99	84.88
486.209	89.88
486.427	84.88
486.645	102.88
486.863	107.88
487.081	100.88
487.299	105.88
487.517	102.88
487.735	112.88
487.953	109.88
488.171	114.88
488.389	92.88
488.607	96.88
488.825	94.88
489.043	93.88
489.261	93.88
489.479	98.88
489.696	104.88
489.914	113.88
490.132	108.88
490.35	114.88
490.568	116.88
490.786	122.88
491.003	121.88
491.221	118.88
491.439	140.88
491.657	126.88
491.874	158.88
492.092	123.88
492.31	137.88
492.527	151.88
492.745	132.88
492.963	132.88
493.18	132.88
493.398	106.88
493.615	134.88
493.833	125.88
494.05	113.88
494.268	116.88
494.485	132.88
494.703	121.88
494.92	137.88
495.138	122.88
495.355	131.88
495.573	110.88
495.79	130.88
496.008	122.88
496.225	113.88
496.442	117.88
496.66	117.88
496.877	105.88
497.094	120.88
497.312	95.88
497.529	87.88
497.746	106.88
497.963	99.88
498.181	91.88
498.398	98.88
498.615	100.88
498.832	109.88
499.049	88.88
499.267	91.88
499.484	108.88
499.701	95.88
499.918	112.88
500.135	103.88
500.352	91.88
500.569	99.88
500.786	101.88
501.003	120.88
501.22	96.88
501.437	105.88
501.654	92.88
501.871	106.88
502.088	92.88
502.305	100.88
502.522	99.88
502.739	106.88
502.956	93.88
503.172	103.88
503.389	85.88
503.606	95.88
503.823	93.88
504.04	104.88
504.256	85.88
504.473	91.88
504.69	92.88
504.907	89.88
505.123	97.88
505.34	107.88
505.557	100.88
505.773	105.88
505.99	82.88
506.207	88.88
506.423	84.88
506.64	96.88
506.856	88.88
507.073	103.88
507.289	88.88
507.506	90.88
507.722	91.88
507.939	78.88
508.155	87.88
508.372	84.88
508.588	92.88
508.805	82.88
509.021	88.88
509.238	87.88
509.454	85.88
509.67	82.88
509.887	84.88
510.103	88.88
510.319	79.88
510.536	88.88
510.752	90.88
510.968	98.88
511.184	81.88
511.401	77.88
511.617	83.88
511.833	96.88
512.049	93.88
512.265	85.88
512.481	88.88
512.698	82.88
512.914	90.88
513.13	90.88
513.346	89.88
513.562	87.88
513.778	84.88
513.994	79.88
514.21	91.88
514.426	85.88
514.642	76.88
514.858	78.88
515.074	77.88
515.29	86.88
515.506	84.88
515.721	76.88
515.937	91.88
516.153	81.88
516.369	88.88
516.585	93.88
516.801	77.88
517.016	91.88
517.232	86.88
517.448	89.88
517.664	102.88
517.879	96.88
518.095	90.88
518.311	87.88
518.527	93.88
518.742	85.88
518.958	84.88
519.173	81.88
519.389	92.88
519.605	84.88
519.82	85.88
520.036	107.88
520.251	85.88
520.467	92.88
520.682	86.88
520.898	85.88
521.113	84.88
521.329	82.88
521.544	97.88
521.76	74.88
521.975	97.88
522.19	80.88
522.406	108.88
522.621	87.88
522.836	89.88
523.052	91.88
523.267	93.88
523.482	83.88
523.698	84.88
523.913	101.88
524.128	86.88
524.343	94.88
524.559	114.88
524.774	92.88
524.989	94.88
525.204	92.88
525.419	87.88
525.634	69.88
525.849	84.88
526.064	84.88
526.28	91.88
526.495	94.88
526.71	70.88
526.925	72.88
527.14	81.88
527.355	88.88
527.57	82.88
527.785	85.88
527.999	89.88
528.214	94.88
528.429	88.88
528.644	105.88
528.859	92.88
529.074	98.88
529.289	84.88
529.503	109.88
529.718	90.88
529.933	96.88
530.148	87.88
530.363	89.88
530.577	83.88
530.792	86.88
531.007	75.88
531.221	85.88
531.436	74.88
531.651	98.88
531.865	84.88
532.08	70.88
532.295	96.88
532.509	81.88
532.724	93.88
532.938	75.88
533.153	73.88
533.367	85.88
533.582	85.88
533.796	64.88
534.011	84.88
534.225	79.88
534.44	77.88
534.654	70.88
534.868	76.88
535.083	86.88
535.297	86.88
535.511	88.88
535.726	87.88
535.94	80.88
536.154	86.88
536.369	91.88
536.583	87.88
536.797	78.88
537.011	62.88
537.225	70.88
537.44	74.88
537.654	91.88
537.868	82.88
538.082	82.88
538.296	81.88
538.51	79.88
538.724	82.88
538.938	108.88
539.153	86.88
539.367	84.88
539.581	96.88
539.795	90.88
540.009	90.88
540.222	84.88
540.436	94.88
540.65	83.88
540.864	104.88
541.078	105.88
541.292	98.88
541.506	107.88
541.72	103.88
541.934	115.88
542.147	118.88
542.361	116.88
542.575	105.88
542.789	102.88
543.002	104.88
543.216	93.88
543.43	97.88
543.644	110.88
543.857	96.88
544.071	106.88
544.285	119.88
544.498	113.88
544.712	117.88
544.925	122.88
545.139	117.88
545.352	125.88
545.566	112.88
545.779	119.88
545.993	121.88
546.206	102.88
546.42	129.88
546.633	122.88
546.847	126.88
547.06	119.88
547.274	105.88
547.487	118.88
547.7	135.88
547.914	114.88
548.127	114.88
548.34	116.88
548.554	108.88
548.767	109.88
548.98	122.88
549.193	134.88
549.407	117.88
549.62	116.88
549.833	104.88
550.046	114.88
550.259	117.88
550.473	127.88
550.686	130.88
550.899	104.88
551.112	104.88
551.325	117.88
551.538	100.88
551.751	91.88
551.964	97.88
552.177	101.88
552.39	110.88
552.603	130.88
552.816	117.88
553.029	122.88
553.242	118.88
553.455	120.88
553.667	118.88
553.88	100.88
554.093	103.88
554.306	127.88
554.519	115.88
554.732	120.88
554.944	102.88
555.157	112.88
555.37	117.88
555.583	108.88
555.795	114.88
556.008	96.88
556.221	106.88
556.433	98.88
556.646	96.88
556.859	112.88
557.071	117.88
557.284	108.88
557.496	109.88
557.709	100.88
557.921	108.88
558.134	104.88
558.346	109.88
558.559	97.88
558.771	101.88
558.984	115.88
559.196	105.88
559.409	102.88
559.621	110.88
559.833	106.88
560.046	106.88
560.258	98.88
560.47	120.88
560.683	116.88
560.895	106.88
561.107	100.88
561.32	98.88
561.532	102.88
561.744	110.88
561.956	102.88
562.168	93.88
562.381	119.88
562.593	101.88
562.805	93.88
563.017	110.88
563.229	89.88
563.441	106.88
563.653	93.88
563.865	86.88
564.077	96.88
564.289	96.88
564.501	89.88
564.713	96.88
564.925	82.88
565.137	99.88
565.349	94.88
565.561	90.88
565.773	97.88
565.985	99.88
566.197	78.88
566.408	105.88
566.62	78.88
566.832	101.88
567.044	84.88
567.255	93.88
567.467	93.88
567.679	83.88
567.891	94.88
568.102	73.88
568.314	84.88
568.526	86.88
568.737	92.88
568.949	81.88
569.161	82.88
569.372	68.88
569.584	84.88
569.795	86.88
570.007	87.88
570.218	84.88
570.43	85.88
570.641	94.88
570.853	80.88
571.064	80.88
571.276	85.88
571.487	90.88
571.698	88.88
571.91	87.88
572.121	81.88
572.333	89.88
572.544	84.88
572.755	90.88
572.966	87.88
573.178	79.88
573.389	92.88
573.6	89.88
573.811	82.88
574.023	75.88
574.234	66.88
574.445	85.88
574.656	98.88
574.867	77.88
575.078	82.88
575.289	74.88
575.501	93.88
575.712	86.88
575.923	76.88
576.134	78.88
576.345	82.88
576.556	82.88
576.767	105.88
576.978	78.88
577.188	93.88
577.399	86.88
577.61	83.88
577.821	82.88
578.032	90.88
578.243	84.88
578.454	80.88
578.665	93.88
578.875	66.88
579.086	82.88
579.297	91.88
579.508	84.88
579.718	78.88
579.929	88.88
580.14	79.88
580.35	88.88
580.561	78.88
580.772	81.88
580.982	91.88
581.193	76.88
581.403	89.88
581.614	75.88
581.825	86.88
582.035	85.88
582.246	87.88
582.456	81.88
582.667	78.88
582.877	78.88
583.087	72.88
583.298	95.88
583.508	83.88
583.719	92.88
583.929	89.88
584.139	75.88
584.35	68.88
584.56	78.88
584.77	71.88
584.981	93.88
585.191	93.88
585.401	75.88
585.611	77.88
585.821	92.88
586.032	80.88
586.242	94.88
586.452	82.88
586.662	92.88
586.872	72.88
587.082	85.88
587.292	82.88
587.502	85.88
587.713	69.88
587.923	66.88
588.133	90.88
588.343	93.88
588.553	92.88
588.762	77.88
588.972	82.88
589.182	86.88
589.392	85.88
589.602	85.88
589.812	87.88
590.022	84.88
590.232	81.88
590.441	82.88
590.651	84.88
590.861	71.88
591.071	86.88
591.281	69.88
591.49	86.88
591.7	94.88
591.91	92.88
592.119	68.88
592.329	74.88
592.539	87.88
592.748	87.88
592.958	80.88
593.167	96.88
593.377	73.88
593.587	82.88
593.796	86.88
594.006	79.88
594.215	86.88
594.424	79.88
594.634	83.88
594.843	83.88
595.053	79.88
595.262	86.88
595.472	78.88
595.681	85.88
595.89	73.88
596.1	86.88
596.309	96.88
596.518	76.88
596.727	97.88
596.937	84.88
597.146	78.88
597.355	83.88
597.564	92.88
597.774	84.88
597.983	92.88
598.192	80.88
598.401	85.88
598.61	90.88
598.819	83.88
599.028	79.88
599.237	76.88
599.446	78.88
599.655	91.88
599.864	81.88
600.073	81.88
600.282	82.88
600.491	96.88
600.7	87.88
600.909	73.88
601.118	77.88
601.327	89.88
601.536	84.88
601.745	93.88
601.953	100.88
602.162	92.88
602.371	116.88
602.58	97.88
602.789	91.88
602.997	84.88
603.206	86.88
603.415	89.88
603.623	101.88
603.832	91.88
604.041	83.88
604.249	82.88
604.458	86.88
604.666	74.88
604.875	93.88
605.084	87.88
605.292	90.88
605.501	76.88
605.709	94.88
605.918	103.88
606.126	92.88
606.334	88.88
606.543	106.88
606.751	95.88
606.96	90.88
607.168	83.88
607.376	92.88
607.585	86.88
607.793	87.88
608.001	97.88
608.21	98.88
608.418	88.88
608.626	82.88
608.834	98.88
609.043	91.88
609.251	96.88
609.459	84.88
609.667	96.88
609.875	96.88
610.083	91.88
610.291	82.88
610.499	91.88
610.707	89.88
610.916	93.88
611.124	93.88
611.332	90.88
611.54	98.88
611.748	105.88
611.955	92.88
612.163	92.88
612.371	103.88
612.579	85.88
612.787	91.88
612.995	109.88
613.203	101.88
613.411	93.88
613.618	98.88
613.826	101.88
614.034	93.88
614.242	105.88
614.449	95.88
614.657	85.88
614.865	96.88
615.072	90.88
615.28	91.88
615.488	93.88
615.695	97.88
615.903	106.88
616.111	86.88
616.318	98.88
616.526	81.88
616.733	88.88
616.941	100.88
617.148	103.88
617.356	89.88
617.563	87.88
617.771	105.88
617.978	90.88
618.185	84.88
618.393	90.88
618.6	93.88
618.807	93.88
619.015	103.88
619.222	109.88
619.429	99.88
619.637	86.88
619.844	83.88
620.051	87.88
620.258	96.88
620.466	92.88
620.673	89.88
620.88	90.88
621.087	94.88
621.294	94.88
621.501	84.88
621.708	97.88
621.915	84.88
622.122	95.88
622.329	97.88
622.536	88.88
622.743	92.88
622.95	92.88
623.157	88.88
623.364	85.88
623.571	101.88
623.778	91.88
623.985	88.88
624.192	93.88
624.399	92.88
624.606	82.88
624.812	85.88
625.019	83.88
625.226	88.88
625.433	102.88
625.639	84.88
625.846	75.88
626.053	93.88
626.259	91.88
626.466	107.88
626.673	80.88
626.879	77.88
627.086	94.88
627.293	84.88
627.499	94.88
627.706	80.88
627.912	90.88
628.119	85.88
628.325	91.88
628.532	90.88
628.738	85.88
628.945	97.88
629.151	100.88
629.357	98.88
629.564	93.88
629.77	79.88
629.976	91.88
630.183	76.88
630.389	85.88
630.595	98.88
630.802	105.88
631.008	89.88
631.214	64.88
631.42	94.88
631.627	104.88
631.833	88.88
632.039	102.88
632.245	88.88
632.451	78.88
632.657	86.88
632.863	100.88
633.069	84.88
633.275	96.88
633.481	91.88
633.688	91.88
633.893	86.88
634.099	91.88
634.305	90.88
634.511	93.88
634.717	79.88
634.923	86.88
635.129	83.88
635.335	77.88
635.541	79.88
635.747	86.88
635.952	89.88
636.158	86.88
636.364	79.88
636.57	88.88
636.775	99.88
636.981	99.88
637.187	83.88
637.392	78.88
637.598	93.88
637.804	87.88
638.009	89.88
638.215	100.88
638.421	67.88
638.626	97.88
638.832	96.88
639.037	78.88
639.243	77.88
639.448	99.88
639.654	89.88
639.859	68.88
640.065	75.88
640.27	96.88
640.475	91.88
640.681	89.88
640.886	89.88
641.091	89.88
641.297	81.88
641.502	82.88
641.707	100.88
641.913	86.88
642.118	83.88
642.323	88.88
642.528	87.88
642.733	92.88
642.939	87.88
643.144	96.88
643.349	70.88
643.554	101.88
643.759	79.88
643.964	82.88
644.169	82.88
644.374	84.88
644.579	83.88
644.784	96.88
644.989	88.88
645.194	85.88
645.399	90.88
645.604	100.88
645.809	91.88
646.014	88.88
646.219	83.88
646.423	93.88
646.628	100.88
646.833	83.88
647.038	85.88
647.243	84.88
647.447	92.88
647.652	79.88
647.857	102.88
648.062	88.88
648.266	80.88
648.471	92.88
648.676	97.88
648.88	84.88
649.085	83.88
649.289	91.88
649.494	78.88
649.698	85.88
649.903	89.88
650.107	86.88
650.312	93.88
650.516	92.88
650.721	105.88
650.925	91.88
651.13	96.88
651.334	86.88
651.539	76.88
651.743	101.88
651.947	74.88
652.152	78.88
652.356	84.88
652.56	84.88
652.764	93.88
652.969	89.88
653.173	80.88
653.377	70.88
653.581	101.88
653.785	95.88
653.99	74.88
654.194	96.88
654.398	75.88
654.602	93.88
654.806	92.88
655.01	86.88
655.214	81.88
655.418	95.88
655.622	85.88
655.826	86.88
656.03	81.88
656.234	103.88
656.438	84.88
656.642	87.88
656.846	78.88
657.049	76.88
657.253	86.88
657.457	75.88
657.661	86.88
657.865	78.88
658.068	67.88
658.272	90.88
658.476	76.88
658.68	86.88
658.883	89.88
659.087	88.88
659.291	70.88
659.494	82.88
659.698	84.88
659.901	82.88
660.105	75.88
660.309	76.88
660.512	72.88
660.716	86.88
660.919	84.88
661.123	75.88
661.326	78.88
661.53	82.88
661.733	73.88
661.936	90.88
662.14	84.88
662.343	79.88
662.546	77.88
662.75	80.88
662.953	81.88
663.156	78.88
663.36	79.88
663.563	70.88
663.766	76.88
663.969	90.88
664.173	65.88
664.376	74.88
664.579	91.88
664.782	90.88
664.985	72.88
665.188	84.88
665.391	82.88
665.594	96.88
665.797	90.88
666	89.88
666.203	89.88
666.406	74.88
666.609	88.88
666.812	68.88
667.015	58.88
667.218	72.88
667.421	85.88
667.624	80.88
667.827	93.88
668.03	82.88
668.232	68.88
668.435	86.88
668.638	63.88
668.841	88.88
669.043	65.88
669.246	66.88
669.449	76.88
669.651	89.88
669.854	84.88
670.057	73.88
670.259	72.88
670.462	75.88
670.665	73.88
670.867	81.88
671.07	80.88
671.272	84.88
671.475	78.88
671.677	87.88
671.88	78.88
672.082	74.88
672.284	73.88
672.487	73.88
672.689	68.88
672.892	60.88
