Data from Circ_2012_H10_HRD10591_00100.txt Node
Date: Wed Jan 03 10:06:10 EST 2024
User: Yrep
Spectrometer: HR+D1059
Trigger mode: 1
Integration Time (sec): 1.000000E-1
Scans to average: 1
Electric dark correction enabled: true
Nonlinearity correction enabled: false
Boxcar width: 0
XAxis mode: Wavelengths
Number of Pixels in Spectrum: 2048
>>>>>Begin Spectral Data<<<<<
223.165	-16.94
223.4	-16.94
223.635	-16.94
223.869	-20.94
224.104	-19.94
224.338	-16.94
224.573	-29.94
224.808	-10.94
225.042	0.06
225.277	4.06
225.511	-1.94
225.746	-3.94
225.98	15.06
226.215	9.06
226.449	17.06
226.683	14.06
226.918	28.06
227.152	34.06
227.387	42.06
227.621	26.06
227.856	48.06
228.09	52.06
228.324	55.06
228.559	61.06
228.793	63.06
229.027	61.06
229.262	71.06
229.496	68.06
229.73	79.06
229.964	81.06
230.199	73.06
230.433	88.06
230.667	72.06
230.901	86.06
231.136	75.06
231.37	74.06
231.604	88.06
231.838	93.06
232.072	94.06
232.306	62.06
232.541	70.06
232.775	72.06
233.009	80.06
233.243	90.06
233.477	94.06
233.711	75.06
233.945	87.06
234.179	80.06
234.413	73.06
234.647	67.06
234.881	84.06
235.115	86.06
235.349	74.06
235.583	91.06
235.817	80.06
236.051	83.06
236.285	66.06
236.519	59.06
236.753	72.06
236.987	70.06
237.221	71.06
237.455	78.06
237.689	63.06
237.922	75.06
238.156	65.06
238.39	69.06
238.624	83.06
238.858	79.06
239.091	71.06
239.325	72.06
239.559	71.06
239.793	81.06
240.027	73.06
240.26	81.06
240.494	98.06
240.728	77.06
240.961	83.06
241.195	68.06
241.429	69.06
241.662	63.06
241.896	67.06
242.13	71.06
242.363	86.06
242.597	74.06
242.83	83.06
243.064	80.06
243.298	78.06
243.531	77.06
243.765	86.06
243.998	81.06
244.232	85.06
244.465	77.06
244.699	83.06
244.932	76.06
245.166	85.06
245.399	76.06
245.633	79.06
245.866	100.06
246.099	84.06
246.333	85.06
246.566	77.06
246.8	74.06
247.033	77.06
247.266	80.06
247.5	76.06
247.733	74.06
247.966	80.06
248.2	82.06
248.433	82.06
248.666	89.06
248.899	77.06
249.133	93.06
249.366	92.06
249.599	90.06
249.832	83.06
250.066	78.06
250.299	74.06
250.532	91.06
250.765	77.06
250.998	80.06
251.231	80.06
251.465	67.06
251.698	71.06
251.931	71.06
252.164	86.06
252.397	83.06
252.63	73.06
252.863	77.06
253.096	87.06
253.329	71.06
253.562	80.06
253.795	82.06
254.028	82.06
254.261	78.06
254.494	92.06
254.727	71.06
254.96	70.06
255.193	82.06
255.426	86.06
255.659	77.06
255.892	86.06
256.124	99.06
256.357	82.06
256.59	82.06
256.823	92.06
257.056	79.06
257.289	78.06
257.521	98.06
257.754	73.06
257.987	67.06
258.22	83.06
258.452	90.06
258.685	75.06
258.918	98.06
259.151	88.06
259.383	101.06
259.616	80.06
259.849	79.06
260.081	79.06
260.314	71.06
260.547	81.06
260.779	78.06
261.012	76.06
261.244	82.06
261.477	84.06
261.71	95.06
261.942	102.06
262.175	102.06
262.407	90.06
262.64	76.06
262.872	90.06
263.105	93.06
263.337	87.06
263.57	72.06
263.802	88.06
264.035	69.06
264.267	87.06
264.499	77.06
264.732	86.06
264.964	69.06
265.197	76.06
265.429	91.06
265.661	86.06
265.894	92.06
266.126	80.06
266.358	77.06
266.591	79.06
266.823	76.06
267.055	82.06
267.287	67.06
267.52	86.06
267.752	77.06
267.984	77.06
268.216	86.06
268.448	84.06
268.681	86.06
268.913	88.06
269.145	72.06
269.377	86.06
269.609	80.06
269.841	96.06
270.073	88.06
270.306	90.06
270.538	93.06
270.77	90.06
271.002	77.06
271.234	85.06
271.466	86.06
271.698	69.06
271.93	78.06
272.162	69.06
272.394	68.06
272.626	84.06
272.858	77.06
273.09	78.06
273.322	77.06
273.553	86.06
273.785	79.06
274.017	89.06
274.249	87.06
274.481	94.06
274.713	90.06
274.945	74.06
275.176	87.06
275.408	92.06
275.64	73.06
275.872	76.06
276.104	102.06
276.335	70.06
276.567	86.06
276.799	89.06
277.031	83.06
277.262	96.06
277.494	83.06
277.726	68.06
277.957	93.06
278.189	90.06
278.421	87.06
278.652	94.06
278.884	88.06
279.115	69.06
279.347	77.06
279.579	71.06
279.81	94.06
280.042	83.06
280.273	100.06
280.505	96.06
280.736	86.06
280.968	88.06
281.199	71.06
281.431	76.06
281.662	80.06
281.894	95.06
282.125	86.06
282.356	111.06
282.588	123.06
282.819	99.06
283.051	81.06
283.282	75.06
283.513	88.06
283.745	67.06
283.976	90.06
284.207	82.06
284.439	96.06
284.67	83.06
284.901	85.06
285.132	86.06
285.364	85.06
285.595	84.06
285.826	85.06
286.057	72.06
286.288	73.06
286.52	78.06
286.751	78.06
286.982	82.06
287.213	98.06
287.444	93.06
287.675	85.06
287.906	88.06
288.138	92.06
288.369	93.06
288.6	88.06
288.831	85.06
289.062	87.06
289.293	89.06
289.524	85.06
289.755	76.06
289.986	88.06
290.217	82.06
290.448	96.06
290.679	91.06
290.91	98.06
291.141	84.06
291.371	76.06
291.602	92.06
291.833	88.06
292.064	86.06
292.295	90.06
292.526	93.06
292.757	98.06
292.987	78.06
293.218	85.06
293.449	86.06
293.68	99.06
293.91	84.06
294.141	90.06
294.372	87.06
294.603	103.06
294.833	85.06
295.064	87.06
295.295	92.06
295.525	83.06
295.756	77.06
295.987	107.06
296.217	121.06
296.448	117.06
296.679	84.06
296.909	95.06
297.14	79.06
297.37	98.06
297.601	83.06
297.831	85.06
298.062	94.06
298.292	70.06
298.523	94.06
298.753	79.06
298.984	100.06
299.214	75.06
299.445	104.06
299.675	96.06
299.905	101.06
300.136	90.06
300.366	70.06
300.597	93.06
300.827	90.06
301.057	106.06
301.288	97.06
301.518	85.06
301.748	94.06
301.979	98.06
302.209	97.06
302.439	89.06
302.669	103.06
302.9	90.06
303.13	89.06
303.36	89.06
303.59	104.06
303.82	100.06
304.051	76.06
304.281	101.06
304.511	97.06
304.741	95.06
304.971	88.06
305.201	77.06
305.431	86.06
305.661	75.06
305.891	90.06
306.121	86.06
306.352	92.06
306.582	107.06
306.812	88.06
307.042	76.06
307.272	98.06
307.502	94.06
307.731	95.06
307.961	95.06
308.191	92.06
308.421	100.06
308.651	90.06
308.881	92.06
309.111	87.06
309.341	103.06
309.571	108.06
309.8	100.06
310.03	101.06
310.26	95.06
310.49	86.06
310.72	92.06
310.949	97.06
311.179	97.06
311.409	97.06
311.639	90.06
311.868	77.06
312.098	102.06
312.328	104.06
312.557	92.06
312.787	95.06
313.017	86.06
313.246	80.06
313.476	79.06
313.706	84.06
313.935	84.06
314.165	105.06
314.394	92.06
314.624	83.06
314.853	99.06
315.083	88.06
315.312	73.06
315.542	84.06
315.771	96.06
316.001	97.06
316.23	107.06
316.46	94.06
316.689	72.06
316.919	77.06
317.148	102.06
317.377	94.06
317.607	107.06
317.836	91.06
318.065	86.06
318.295	100.06
318.524	96.06
318.753	68.06
318.983	95.06
319.212	87.06
319.441	88.06
319.67	104.06
319.9	88.06
320.129	89.06
320.358	86.06
320.587	93.06
320.816	91.06
321.046	79.06
321.275	104.06
321.504	92.06
321.733	85.06
321.962	98.06
322.191	115.06
322.42	100.06
322.649	107.06
322.878	100.06
323.108	100.06
323.337	113.06
323.566	117.06
323.795	156.06
324.024	194.06
324.253	390.06
324.482	780.06
324.71	1577.06
324.939	2046.06
325.168	766.06
325.397	224.06
325.626	130.06
325.855	133.06
326.084	125.06
326.313	140.06
326.542	147.06
326.77	233.06
326.999	444.06
327.228	907.06
327.457	1643.06
327.686	1280.06
327.914	349.06
328.143	188.06
328.372	168.06
328.6	119.06
328.829	111.06
329.058	124.06
329.287	128.06
329.515	108.06
329.744	108.06
329.972	109.06
330.201	145.06
330.43	173.06
330.658	148.06
330.887	149.06
331.115	127.06
331.344	99.06
331.572	91.06
331.801	106.06
332.03	102.06
332.258	93.06
332.486	100.06
332.715	93.06
332.943	90.06
333.172	102.06
333.4	108.06
333.629	106.06
333.857	132.06
334.085	132.06
334.314	160.06
334.542	175.06
334.771	190.06
334.999	109.06
335.227	93.06
335.455	97.06
335.684	99.06
335.912	93.06
336.14	103.06
336.369	93.06
336.597	111.06
336.825	95.06
337.053	77.06
337.281	82.06
337.51	102.06
337.738	88.06
337.966	103.06
338.194	98.06
338.422	87.06
338.65	91.06
338.878	85.06
339.106	89.06
339.334	86.06
339.562	95.06
339.79	97.06
340.018	78.06
340.246	95.06
340.474	84.06
340.702	95.06
340.93	93.06
341.158	92.06
341.386	95.06
341.614	100.06
341.842	107.06
342.07	88.06
342.298	93.06
342.526	92.06
342.754	95.06
342.981	90.06
343.209	92.06
343.437	93.06
343.665	92.06
343.893	107.06
344.12	106.06
344.348	79.06
344.576	87.06
344.804	94.06
345.031	96.06
345.259	97.06
345.487	102.06
345.714	93.06
345.942	86.06
346.17	93.06
346.397	92.06
346.625	99.06
346.853	104.06
347.08	81.06
347.308	87.06
347.535	100.06
347.763	81.06
347.99	92.06
348.218	101.06
348.445	105.06
348.673	101.06
348.9	102.06
349.128	94.06
349.355	106.06
349.583	94.06
349.81	87.06
350.037	108.06
350.265	110.06
350.492	80.06
350.72	85.06
350.947	108.06
351.174	108.06
351.402	110.06
351.629	102.06
351.856	100.06
352.083	106.06
352.311	99.06
352.538	91.06
352.765	99.06
352.992	111.06
353.22	106.06
353.447	112.06
353.674	94.06
353.901	85.06
354.128	83.06
354.355	85.06
354.583	101.06
354.81	95.06
355.037	95.06
355.264	92.06
355.491	89.06
355.718	87.06
355.945	102.06
356.172	99.06
356.399	95.06
356.626	103.06
356.853	88.06
357.08	95.06
357.307	90.06
357.534	90.06
357.761	85.06
357.988	88.06
358.215	87.06
358.441	90.06
358.668	89.06
358.895	86.06
359.122	98.06
359.349	84.06
359.576	96.06
359.802	102.06
360.029	105.06
360.256	101.06
360.483	105.06
360.709	76.06
360.936	97.06
361.163	94.06
361.39	107.06
361.616	93.06
361.843	95.06
362.07	85.06
362.296	87.06
362.523	77.06
362.749	82.06
362.976	95.06
363.203	92.06
363.429	88.06
363.656	91.06
363.882	92.06
364.109	94.06
364.335	86.06
364.562	84.06
364.788	93.06
365.015	108.06
365.241	99.06
365.468	112.06
365.694	95.06
365.92	94.06
366.147	79.06
366.373	79.06
366.599	81.06
366.826	78.06
367.052	98.06
367.278	85.06
367.505	102.06
367.731	87.06
367.957	78.06
368.184	91.06
368.41	90.06
368.636	104.06
368.862	110.06
369.089	101.06
369.315	104.06
369.541	103.06
369.767	89.06
369.993	90.06
370.219	90.06
370.445	92.06
370.672	96.06
370.898	88.06
371.124	85.06
371.35	88.06
371.576	92.06
371.802	91.06
372.028	75.06
372.254	104.06
372.48	103.06
372.706	76.06
372.932	90.06
373.158	89.06
373.384	84.06
373.61	92.06
373.835	93.06
374.061	87.06
374.287	88.06
374.513	102.06
374.739	78.06
374.965	94.06
375.191	93.06
375.416	95.06
375.642	93.06
375.868	91.06
376.094	86.06
376.319	86.06
376.545	98.06
376.771	86.06
376.997	83.06
377.222	90.06
377.448	91.06
377.674	95.06
377.899	83.06
378.125	96.06
378.35	90.06
378.576	97.06
378.802	86.06
379.027	103.06
379.253	98.06
379.478	105.06
379.704	92.06
379.929	88.06
380.155	83.06
380.38	93.06
380.606	86.06
380.831	85.06
381.057	95.06
381.282	95.06
381.507	87.06
381.733	85.06
381.958	95.06
382.184	90.06
382.409	91.06
382.634	103.06
382.86	92.06
383.085	94.06
383.31	93.06
383.535	108.06
383.761	91.06
383.986	108.06
384.211	90.06
384.436	98.06
384.662	91.06
384.887	88.06
385.112	93.06
385.337	91.06
385.562	100.06
385.787	108.06
386.013	101.06
386.238	111.06
386.463	111.06
386.688	100.06
386.913	98.06
387.138	91.06
387.363	98.06
387.588	101.06
387.813	101.06
388.038	102.06
388.263	108.06
388.488	96.06
388.713	93.06
388.938	76.06
389.163	75.06
389.387	78.06
389.612	86.06
389.837	82.06
390.062	89.06
390.287	95.06
390.512	92.06
390.736	85.06
390.961	88.06
391.186	102.06
391.411	83.06
391.636	91.06
391.86	89.06
392.085	84.06
392.31	82.06
392.534	92.06
392.759	75.06
392.984	95.06
393.208	91.06
393.433	77.06
393.658	84.06
393.882	82.06
394.107	99.06
394.331	77.06
394.556	90.06
394.78	85.06
395.005	95.06
395.229	92.06
395.454	90.06
395.678	89.06
395.903	88.06
396.127	102.06
396.352	89.06
396.576	96.06
396.801	76.06
397.025	79.06
397.249	85.06
397.474	94.06
397.698	86.06
397.922	86.06
398.147	91.06
398.371	82.06
398.595	85.06
398.82	99.06
399.044	85.06
399.268	90.06
399.492	86.06
399.717	87.06
399.941	86.06
400.165	101.06
400.389	81.06
400.613	82.06
400.837	91.06
401.062	59.06
401.286	100.06
401.51	79.06
401.734	93.06
401.958	97.06
402.182	130.06
402.406	136.06
402.63	126.06
402.854	102.06
403.078	94.06
403.302	85.06
403.526	88.06
403.75	87.06
403.974	73.06
404.198	94.06
404.422	89.06
404.645	80.06
404.869	84.06
405.093	104.06
405.317	107.06
405.541	86.06
405.765	100.06
405.988	104.06
406.212	161.06
406.436	197.06
406.66	130.06
406.883	99.06
407.107	85.06
407.331	92.06
407.555	96.06
407.778	98.06
408.002	99.06
408.226	95.06
408.449	98.06
408.673	89.06
408.896	106.06
409.12	107.06
409.344	74.06
409.567	89.06
409.791	99.06
410.014	97.06
410.238	89.06
410.461	92.06
410.685	101.06
410.908	89.06
411.132	105.06
411.355	95.06
411.578	88.06
411.802	77.06
412.025	84.06
412.249	85.06
412.472	106.06
412.695	105.06
412.919	77.06
413.142	71.06
413.365	85.06
413.589	81.06
413.812	93.06
414.035	87.06
414.258	105.06
414.482	79.06
414.705	84.06
414.928	88.06
415.151	95.06
415.374	91.06
415.597	83.06
415.821	98.06
416.044	102.06
416.267	86.06
416.49	77.06
416.713	78.06
416.936	75.06
417.159	84.06
417.382	80.06
417.605	89.06
417.828	92.06
418.051	84.06
418.274	83.06
418.497	85.06
418.72	82.06
418.943	86.06
419.166	80.06
419.389	89.06
419.611	79.06
419.834	85.06
420.057	87.06
420.28	81.06
420.503	76.06
420.726	75.06
420.948	84.06
421.171	79.06
421.394	87.06
421.617	84.06
421.839	77.06
422.062	88.06
422.285	89.06
422.507	96.06
422.73	96.06
422.953	105.06
423.175	84.06
423.398	100.06
423.621	89.06
423.843	88.06
424.066	98.06
424.288	93.06
424.511	89.06
424.733	95.06
424.956	118.06
425.178	78.06
425.401	97.06
425.623	104.06
425.846	86.06
426.068	87.06
426.291	75.06
426.513	87.06
426.735	95.06
426.958	93.06
427.18	108.06
427.402	128.06
427.625	154.06
427.847	130.06
428.069	119.06
428.292	93.06
428.514	85.06
428.736	71.06
428.958	96.06
429.181	86.06
429.403	79.06
429.625	79.06
429.847	71.06
430.069	80.06
430.292	78.06
430.514	91.06
430.736	89.06
430.958	87.06
431.18	86.06
431.402	86.06
431.624	87.06
431.846	86.06
432.068	88.06
432.29	84.06
432.512	87.06
432.734	80.06
432.956	91.06
433.178	111.06
433.4	104.06
433.622	76.06
433.844	81.06
434.066	61.06
434.287	86.06
434.509	89.06
434.731	90.06
434.953	87.06
435.175	78.06
435.397	64.06
435.618	98.06
435.84	113.06
436.062	111.06
436.284	117.06
436.505	90.06
436.727	90.06
436.949	99.06
437.17	74.06
437.392	88.06
437.614	85.06
437.835	101.06
438.057	108.06
438.278	102.06
438.5	108.06
438.721	124.06
438.943	100.06
439.165	80.06
439.386	75.06
439.608	82.06
439.829	91.06
440.05	104.06
440.272	118.06
440.493	106.06
440.715	81.06
440.936	80.06
441.158	88.06
441.379	89.06
441.6	89.06
441.822	87.06
442.043	78.06
442.264	109.06
442.486	96.06
442.707	95.06
442.928	92.06
443.149	134.06
443.371	126.06
443.592	97.06
443.813	107.06
444.034	103.06
444.255	91.06
444.476	88.06
444.698	89.06
444.919	97.06
445.14	130.06
445.361	115.06
445.582	110.06
445.803	138.06
446.024	119.06
446.245	127.06
446.466	100.06
446.687	73.06
446.908	89.06
447.129	98.06
447.35	91.06
447.571	70.06
447.792	102.06
448.013	88.06
448.234	86.06
448.455	91.06
448.675	101.06
448.896	98.06
449.117	91.06
449.338	99.06
449.559	117.06
449.779	128.06
450	87.06
450.221	89.06
450.442	90.06
450.662	91.06
450.883	98.06
451.104	94.06
451.324	110.06
451.545	92.06
451.766	86.06
451.986	80.06
452.207	88.06
452.428	95.06
452.648	97.06
452.869	97.06
453.089	111.06
453.31	119.06
453.53	87.06
453.751	93.06
453.971	114.06
454.192	114.06
454.412	84.06
454.633	86.06
454.853	84.06
455.073	80.06
455.294	89.06
455.514	103.06
455.734	76.06
455.955	101.06
456.175	103.06
456.395	83.06
456.616	94.06
456.836	92.06
457.056	89.06
457.276	85.06
457.497	75.06
457.717	94.06
457.937	99.06
458.157	95.06
458.377	81.06
458.598	112.06
458.818	129.06
459.038	144.06
459.258	110.06
459.478	98.06
459.698	82.06
459.918	99.06
460.138	92.06
460.358	95.06
460.578	101.06
460.798	91.06
461.018	92.06
461.238	88.06
461.458	97.06
461.678	78.06
461.898	84.06
462.118	83.06
462.338	88.06
462.558	87.06
462.777	81.06
462.997	91.06
463.217	83.06
463.437	92.06
463.657	102.06
463.876	95.06
464.096	94.06
464.316	102.06
464.536	97.06
464.755	80.06
464.975	97.06
465.195	151.06
465.414	138.06
465.634	92.06
465.854	66.06
466.073	85.06
466.293	100.06
466.512	87.06
466.732	94.06
466.951	102.06
467.171	97.06
467.391	100.06
467.61	101.06
467.829	85.06
468.049	117.06
468.268	122.06
468.488	87.06
468.707	91.06
468.927	100.06
469.146	93.06
469.365	84.06
469.585	90.06
469.804	84.06
470.023	104.06
470.243	89.06
470.462	107.06
470.681	103.06
470.901	84.06
471.12	91.06
471.339	92.06
471.558	91.06
471.777	99.06
471.997	92.06
472.216	164.06
472.435	256.06
472.654	117.06
472.873	102.06
473.092	78.06
473.311	79.06
473.53	78.06
473.749	80.06
473.968	68.06
474.187	93.06
474.406	102.06
474.625	85.06
474.844	77.06
475.063	70.06
475.282	94.06
475.501	101.06
475.72	91.06
475.939	78.06
476.158	91.06
476.377	79.06
476.596	91.06
476.814	83.06
477.033	87.06
477.252	80.06
477.471	90.06
477.69	85.06
477.908	91.06
478.127	100.06
478.346	91.06
478.564	87.06
478.783	99.06
479.002	91.06
479.22	83.06
479.439	108.06
479.658	110.06
479.876	85.06
480.095	90.06
480.313	86.06
480.532	108.06
480.751	94.06
480.969	158.06
481.188	373.06
481.406	246.06
481.624	118.06
481.843	97.06
482.061	100.06
482.28	92.06
482.498	69.06
482.717	84.06
482.935	80.06
483.153	105.06
483.372	81.06
483.59	82.06
483.808	91.06
484.027	90.06
484.245	88.06
484.463	84.06
484.681	78.06
484.9	99.06
485.118	98.06
485.336	98.06
485.554	92.06
485.772	99.06
485.99	105.06
486.209	98.06
486.427	99.06
486.645	123.06
486.863	93.06
487.081	93.06
487.299	96.06
487.517	103.06
487.735	95.06
487.953	102.06
488.171	91.06
488.389	92.06
488.607	90.06
488.825	94.06
489.043	102.06
489.261	85.06
489.479	81.06
489.696	92.06
489.914	77.06
490.132	88.06
490.35	91.06
490.568	97.06
490.786	86.06
491.003	96.06
491.221	93.06
491.439	89.06
491.657	90.06
491.874	90.06
492.092	69.06
492.31	97.06
492.527	83.06
492.745	102.06
492.963	89.06
493.18	95.06
493.398	81.06
493.615	91.06
493.833	94.06
494.05	82.06
494.268	95.06
494.485	91.06
494.703	92.06
494.92	83.06
495.138	96.06
495.355	79.06
495.573	104.06
495.79	97.06
496.008	96.06
496.225	104.06
496.442	99.06
496.66	82.06
496.877	92.06
497.094	98.06
497.312	94.06
497.529	107.06
497.746	90.06
497.963	92.06
498.181	96.06
498.398	108.06
498.615	103.06
498.832	85.06
499.049	82.06
499.267	92.06
499.484	104.06
499.701	92.06
499.918	96.06
500.135	86.06
500.352	78.06
500.569	89.06
500.786	82.06
501.003	83.06
501.22	91.06
501.437	89.06
501.654	91.06
501.871	84.06
502.088	85.06
502.305	87.06
502.522	85.06
502.739	80.06
502.956	102.06
503.172	92.06
503.389	86.06
503.606	113.06
503.823	88.06
504.04	91.06
504.256	86.06
504.473	91.06
504.69	91.06
504.907	104.06
505.123	90.06
505.34	82.06
505.557	87.06
505.773	93.06
505.99	90.06
506.207	86.06
506.423	95.06
506.64	82.06
506.856	74.06
507.073	85.06
507.289	81.06
507.506	72.06
507.722	91.06
507.939	98.06
508.155	92.06
508.372	108.06
508.588	101.06
508.805	95.06
509.021	90.06
509.238	100.06
509.454	103.06
509.67	102.06
509.887	121.06
510.103	120.06
510.319	195.06
510.536	672.06
510.752	2112.06
510.968	600.06
511.184	149.06
511.401	104.06
511.617	100.06
511.833	93.06
512.049	84.06
512.265	100.06
512.481	97.06
512.698	77.06
512.914	87.06
513.13	82.06
513.346	96.06
513.562	93.06
513.778	85.06
513.994	89.06
514.21	93.06
514.426	119.06
514.642	118.06
514.858	111.06
515.074	150.06
515.29	376.06
515.506	1255.06
515.721	494.06
515.937	141.06
516.153	103.06
516.369	98.06
516.585	90.06
516.801	92.06
517.016	93.06
517.232	92.06
517.448	84.06
517.664	97.06
517.879	83.06
518.095	88.06
518.311	93.06
518.527	95.06
518.742	96.06
518.958	106.06
519.173	88.06
519.389	94.06
519.605	85.06
519.82	93.06
520.036	95.06
520.251	108.06
520.467	97.06
520.682	96.06
520.898	106.06
521.113	106.06
521.329	119.06
521.544	175.06
521.76	469.06
521.975	1998.06
522.19	1251.06
522.406	292.06
522.621	105.06
522.836	106.06
523.052	102.06
523.267	101.06
523.482	120.06
523.698	103.06
523.913	110.06
524.128	96.06
524.343	87.06
524.559	102.06
524.774	100.06
524.989	93.06
525.204	98.06
525.419	92.06
525.634	91.06
525.849	89.06
526.064	79.06
526.28	96.06
526.495	85.06
526.71	95.06
526.925	106.06
527.14	94.06
527.355	94.06
527.57	76.06
527.785	98.06
527.999	94.06
528.214	99.06
528.429	89.06
528.644	101.06
528.859	90.06
529.074	90.06
529.289	89.06
529.503	161.06
529.718	99.06
529.933	82.06
530.148	86.06
530.363	103.06
530.577	102.06
530.792	89.06
531.007	95.06
531.221	79.06
531.436	86.06
531.651	94.06
531.865	86.06
532.08	89.06
532.295	106.06
532.509	91.06
532.724	90.06
532.938	95.06
533.153	84.06
533.367	84.06
533.582	94.06
533.796	104.06
534.011	94.06
534.225	89.06
534.44	78.06
534.654	84.06
534.868	103.06
535.083	87.06
535.297	98.06
535.511	83.06
535.726	104.06
535.94	95.06
536.154	82.06
536.369	88.06
536.583	79.06
536.797	103.06
537.011	93.06
537.225	88.06
537.44	75.06
537.654	91.06
537.868	78.06
538.082	91.06
538.296	104.06
538.51	88.06
538.724	94.06
538.938	91.06
539.153	108.06
539.367	116.06
539.581	87.06
539.795	93.06
540.009	78.06
540.222	95.06
540.436	87.06
540.65	83.06
540.864	88.06
541.078	98.06
541.292	96.06
541.506	87.06
541.72	99.06
541.934	80.06
542.147	83.06
542.361	99.06
542.575	87.06
542.789	68.06
543.002	66.06
543.216	96.06
543.43	90.06
543.644	89.06
543.857	90.06
544.071	85.06
544.285	89.06
544.498	102.06
544.712	94.06
544.925	82.06
545.139	88.06
545.352	88.06
545.566	90.06
545.779	84.06
545.993	88.06
546.206	100.06
546.42	90.06
546.633	95.06
546.847	93.06
547.06	81.06
547.274	94.06
547.487	88.06
547.7	78.06
547.914	84.06
548.127	89.06
548.34	106.06
548.554	93.06
548.767	92.06
548.98	97.06
549.193	98.06
549.407	90.06
549.62	85.06
549.833	79.06
550.046	81.06
550.259	86.06
550.473	85.06
550.686	84.06
550.899	97.06
551.112	87.06
551.325	97.06
551.538	88.06
551.751	83.06
551.964	102.06
552.177	92.06
552.39	83.06
552.603	100.06
552.816	80.06
553.029	82.06
553.242	99.06
553.455	93.06
553.667	105.06
553.88	100.06
554.093	92.06
554.306	87.06
554.519	80.06
554.732	94.06
554.944	86.06
555.157	84.06
555.37	91.06
555.583	85.06
555.795	96.06
556.008	97.06
556.221	91.06
556.433	99.06
556.646	90.06
556.859	92.06
557.071	84.06
557.284	89.06
557.496	91.06
557.709	101.06
557.921	85.06
558.134	82.06
558.346	85.06
558.559	103.06
558.771	92.06
558.984	76.06
559.196	88.06
559.409	72.06
559.621	101.06
559.833	81.06
560.046	88.06
560.258	84.06
560.47	80.06
560.683	90.06
560.895	92.06
561.107	99.06
561.32	92.06
561.532	101.06
561.744	86.06
561.956	98.06
562.168	87.06
562.381	79.06
562.593	92.06
562.805	70.06
563.017	99.06
563.229	106.06
563.441	90.06
563.653	90.06
563.865	86.06
564.077	87.06
564.289	65.06
564.501	97.06
564.713	84.06
564.925	101.06
565.137	113.06
565.349	85.06
565.561	94.06
565.773	83.06
565.985	74.06
566.197	75.06
566.408	94.06
566.62	96.06
566.832	89.06
567.044	94.06
567.255	84.06
567.467	82.06
567.679	88.06
567.891	90.06
568.102	86.06
568.314	103.06
568.526	78.06
568.737	86.06
568.949	70.06
569.161	94.06
569.372	94.06
569.584	95.06
569.795	79.06
570.007	116.06
570.218	227.06
570.43	131.06
570.641	74.06
570.853	86.06
571.064	85.06
571.276	76.06
571.487	85.06
571.698	94.06
571.91	83.06
572.121	91.06
572.333	80.06
572.544	73.06
572.755	72.06
572.966	88.06
573.178	80.06
573.389	90.06
573.6	86.06
573.811	79.06
574.023	79.06
574.234	92.06
574.445	100.06
574.656	88.06
574.867	84.06
575.078	92.06
575.289	95.06
575.501	80.06
575.712	81.06
575.923	102.06
576.134	88.06
576.345	97.06
576.556	96.06
576.767	93.06
576.978	100.06
577.188	89.06
577.399	98.06
577.61	99.06
577.821	104.06
578.032	111.06
578.243	220.06
578.454	636.06
578.665	189.06
578.875	111.06
579.086	82.06
579.297	102.06
579.508	90.06
579.718	80.06
579.929	89.06
580.14	90.06
580.35	74.06
580.561	88.06
580.772	89.06
580.982	95.06
581.193	104.06
581.403	88.06
581.614	87.06
581.825	99.06
582.035	80.06
582.246	94.06
582.456	85.06
582.667	91.06
582.877	84.06
583.087	73.06
583.298	94.06
583.508	88.06
583.719	75.06
583.929	95.06
584.139	86.06
584.35	88.06
584.56	86.06
584.77	82.06
584.981	88.06
585.191	84.06
585.401	88.06
585.611	93.06
585.821	84.06
586.032	85.06
586.242	91.06
586.452	79.06
586.662	97.06
586.872	79.06
587.082	83.06
587.292	94.06
587.502	89.06
587.713	92.06
587.923	92.06
588.133	89.06
588.343	93.06
588.553	103.06
588.762	99.06
588.972	90.06
589.182	96.06
589.392	77.06
589.602	100.06
589.812	82.06
590.022	96.06
590.232	94.06
590.441	86.06
590.651	89.06
590.861	93.06
591.071	85.06
591.281	89.06
591.49	83.06
591.7	77.06
591.91	103.06
592.119	88.06
592.329	84.06
592.539	91.06
592.748	91.06
592.958	95.06
593.167	71.06
593.377	76.06
593.587	98.06
593.796	87.06
594.006	84.06
594.215	88.06
594.424	102.06
594.634	89.06
594.843	92.06
595.053	77.06
595.262	84.06
595.472	92.06
595.681	87.06
595.89	80.06
596.1	82.06
596.309	88.06
596.518	80.06
596.727	91.06
596.937	78.06
597.146	78.06
597.355	91.06
597.564	79.06
597.774	89.06
597.983	86.06
598.192	89.06
598.401	83.06
598.61	85.06
598.819	75.06
599.028	75.06
599.237	86.06
599.446	89.06
599.655	87.06
599.864	82.06
600.073	71.06
600.282	89.06
600.491	85.06
600.7	87.06
600.909	86.06
601.118	94.06
601.327	95.06
601.536	96.06
601.745	81.06
601.953	94.06
602.162	90.06
602.371	89.06
602.58	73.06
602.789	87.06
602.997	92.06
603.206	87.06
603.415	86.06
603.623	81.06
603.832	95.06
604.041	96.06
604.249	69.06
604.458	81.06
604.666	102.06
604.875	79.06
605.084	93.06
605.292	89.06
605.501	67.06
605.709	94.06
605.918	82.06
606.126	86.06
606.334	76.06
606.543	72.06
606.751	64.06
606.96	87.06
607.168	94.06
607.376	92.06
607.585	79.06
607.793	78.06
608.001	91.06
608.21	70.06
608.418	80.06
608.626	85.06
608.834	81.06
609.043	92.06
609.251	80.06
609.459	74.06
609.667	93.06
609.875	77.06
610.083	79.06
610.291	89.06
610.499	87.06
610.707	100.06
610.916	94.06
611.124	80.06
611.332	93.06
611.54	79.06
611.748	84.06
611.955	78.06
612.163	87.06
612.371	82.06
612.579	88.06
612.787	78.06
612.995	76.06
613.203	82.06
613.411	78.06
613.618	92.06
613.826	77.06
614.034	84.06
614.242	79.06
614.449	92.06
614.657	94.06
614.865	95.06
615.072	75.06
615.28	98.06
615.488	77.06
615.695	86.06
615.903	106.06
616.111	84.06
616.318	102.06
616.526	102.06
616.733	93.06
616.941	86.06
617.148	94.06
617.356	82.06
617.563	74.06
617.771	84.06
617.978	87.06
618.185	88.06
618.393	92.06
618.6	80.06
618.807	68.06
619.015	90.06
619.222	95.06
619.429	86.06
619.637	87.06
619.844	75.06
620.051	86.06
620.258	76.06
620.466	84.06
620.673	85.06
620.88	82.06
621.087	90.06
621.294	74.06
621.501	100.06
621.708	85.06
621.915	87.06
622.122	69.06
622.329	89.06
622.536	92.06
622.743	90.06
622.95	94.06
623.157	87.06
623.364	94.06
623.571	77.06
623.778	72.06
623.985	100.06
624.192	95.06
624.399	93.06
624.606	74.06
624.812	94.06
625.019	89.06
625.226	68.06
625.433	82.06
625.639	74.06
625.846	88.06
626.053	82.06
626.259	94.06
626.466	82.06
626.673	82.06
626.879	93.06
627.086	71.06
627.293	70.06
627.499	69.06
627.706	86.06
627.912	88.06
628.119	84.06
628.325	88.06
628.532	86.06
628.738	87.06
628.945	74.06
629.151	80.06
629.357	95.06
629.564	79.06
629.77	80.06
629.976	88.06
630.183	94.06
630.389	87.06
630.595	87.06
630.802	100.06
631.008	80.06
631.214	89.06
631.42	89.06
631.627	83.06
631.833	92.06
632.039	85.06
632.245	68.06
632.451	72.06
632.657	82.06
632.863	65.06
633.069	81.06
633.275	75.06
633.481	80.06
633.688	93.06
633.893	96.06
634.099	80.06
634.305	82.06
634.511	83.06
634.717	82.06
634.923	103.06
635.129	89.06
635.335	84.06
635.541	79.06
635.747	78.06
635.952	91.06
636.158	93.06
636.364	95.06
636.57	82.06
636.775	88.06
636.981	99.06
637.187	87.06
637.392	90.06
637.598	88.06
637.804	65.06
638.009	86.06
638.215	87.06
638.421	77.06
638.626	89.06
638.832	98.06
639.037	84.06
639.243	74.06
639.448	92.06
639.654	90.06
639.859	77.06
640.065	83.06
640.27	90.06
640.475	85.06
640.681	82.06
640.886	71.06
641.091	83.06
641.297	104.06
641.502	87.06
641.707	84.06
641.913	81.06
642.118	82.06
642.323	92.06
642.528	96.06
642.733	89.06
642.939	77.06
643.144	81.06
643.349	88.06
643.554	83.06
643.759	79.06
643.964	69.06
644.169	79.06
644.374	84.06
644.579	85.06
644.784	98.06
644.989	72.06
645.194	88.06
645.399	96.06
645.604	77.06
645.809	76.06
646.014	99.06
646.219	97.06
646.423	96.06
646.628	94.06
646.833	95.06
647.038	88.06
647.243	77.06
647.447	83.06
647.652	80.06
647.857	78.06
648.062	76.06
648.266	73.06
648.471	91.06
648.676	96.06
648.88	81.06
649.085	93.06
649.289	96.06
649.494	98.06
649.698	130.06
649.903	100.06
650.107	89.06
650.312	107.06
650.516	82.06
650.721	80.06
650.925	64.06
651.13	77.06
651.334	94.06
651.539	72.06
651.743	99.06
651.947	66.06
652.152	72.06
652.356	86.06
652.56	87.06
652.764	99.06
652.969	79.06
653.173	88.06
653.377	80.06
653.581	67.06
653.785	87.06
653.99	77.06
654.194	83.06
654.398	77.06
654.602	96.06
654.806	91.06
655.01	94.06
655.214	93.06
655.418	82.06
655.622	71.06
655.826	84.06
656.03	103.06
656.234	95.06
656.438	96.06
656.642	99.06
656.846	105.06
657.049	106.06
657.253	84.06
657.457	75.06
657.661	88.06
657.865	89.06
658.068	80.06
658.272	72.06
658.476	88.06
658.68	88.06
658.883	66.06
659.087	90.06
659.291	77.06
659.494	82.06
659.698	91.06
659.901	98.06
660.105	93.06
660.309	99.06
660.512	67.06
660.716	83.06
660.919	62.06
661.123	86.06
661.326	78.06
661.53	86.06
661.733	68.06
661.936	71.06
662.14	71.06
662.343	80.06
662.546	84.06
662.75	84.06
662.953	85.06
663.156	76.06
663.36	84.06
663.563	88.06
663.766	85.06
663.969	75.06
664.173	82.06
664.376	85.06
664.579	62.06
664.782	78.06
664.985	81.06
665.188	87.06
665.391	95.06
665.594	74.06
665.797	78.06
666	76.06
666.203	84.06
666.406	75.06
666.609	69.06
666.812	68.06
667.015	77.06
667.218	79.06
667.421	88.06
667.624	85.06
667.827	86.06
668.03	77.06
668.232	71.06
668.435	84.06
668.638	85.06
668.841	74.06
669.043	90.06
669.246	79.06
669.449	86.06
669.651	83.06
669.854	72.06
670.057	86.06
670.259	82.06
670.462	67.06
670.665	73.06
670.867	85.06
671.07	76.06
671.272	84.06
671.475	87.06
671.677	94.06
671.88	86.06
672.082	80.06
672.284	86.06
672.487	83.06
672.689	76.06
672.892	72.06
