Data from Circ_2012_H10_HRD10591_00006.txt Node
Date: Wed Jan 03 10:05:51 EST 2024
User: Yrep
Spectrometer: HR+D1059
Trigger mode: 1
Integration Time (sec): 1.000000E-1
Scans to average: 1
Electric dark correction enabled: true
Nonlinearity correction enabled: false
Boxcar width: 0
XAxis mode: Wavelengths
Number of Pixels in Spectrum: 2048
>>>>>Begin Spectral Data<<<<<
223.165	-18.25
223.4	-18.25
223.635	-18.25
223.869	-22.25
224.104	-29.25
224.338	-14.25
224.573	-13.25
224.808	-26.25
225.042	-20.25
225.277	3.75
225.511	0.75
225.746	9.75
225.98	-2.25
226.215	25.75
226.449	16.75
226.683	21.75
226.918	33.75
227.152	33.75
227.387	38.75
227.621	34.75
227.856	44.75
228.09	46.75
228.324	42.75
228.559	51.75
228.793	65.75
229.027	61.75
229.262	67.75
229.496	78.75
229.73	87.75
229.964	74.75
230.199	79.75
230.433	70.75
230.667	83.75
230.901	90.75
231.136	74.75
231.37	98.75
231.604	78.75
231.838	72.75
232.072	83.75
232.306	79.75
232.541	81.75
232.775	67.75
233.009	83.75
233.243	83.75
233.477	74.75
233.711	95.75
233.945	64.75
234.179	70.75
234.413	78.75
234.647	82.75
234.881	85.75
235.115	84.75
235.349	81.75
235.583	81.75
235.817	77.75
236.051	81.75
236.285	66.75
236.519	74.75
236.753	64.75
236.987	72.75
237.221	87.75
237.455	78.75
237.689	79.75
237.922	72.75
238.156	78.75
238.39	63.75
238.624	80.75
238.858	83.75
239.091	69.75
239.325	85.75
239.559	76.75
239.793	94.75
240.027	69.75
240.26	70.75
240.494	68.75
240.728	80.75
240.961	73.75
241.195	72.75
241.429	101.75
241.662	78.75
241.896	67.75
242.13	75.75
242.363	76.75
242.597	72.75
242.83	87.75
243.064	78.75
243.298	85.75
243.531	78.75
243.765	85.75
243.998	66.75
244.232	75.75
244.465	88.75
244.699	67.75
244.932	85.75
245.166	86.75
245.399	67.75
245.633	82.75
245.866	83.75
246.099	91.75
246.333	78.75
246.566	67.75
246.8	88.75
247.033	86.75
247.266	75.75
247.5	79.75
247.733	87.75
247.966	77.75
248.2	79.75
248.433	74.75
248.666	66.75
248.899	76.75
249.133	73.75
249.366	101.75
249.599	107.75
249.832	90.75
250.066	71.75
250.299	83.75
250.532	90.75
250.765	76.75
250.998	83.75
251.231	65.75
251.465	79.75
251.698	80.75
251.931	85.75
252.164	76.75
252.397	68.75
252.63	67.75
252.863	66.75
253.096	59.75
253.329	75.75
253.562	79.75
253.795	86.75
254.028	85.75
254.261	73.75
254.494	86.75
254.727	70.75
254.96	61.75
255.193	73.75
255.426	84.75
255.659	88.75
255.892	78.75
256.124	79.75
256.357	73.75
256.59	87.75
256.823	82.75
257.056	76.75
257.289	90.75
257.521	78.75
257.754	78.75
257.987	92.75
258.22	71.75
258.452	74.75
258.685	69.75
258.918	78.75
259.151	69.75
259.383	91.75
259.616	88.75
259.849	77.75
260.081	78.75
260.314	77.75
260.547	73.75
260.779	91.75
261.012	92.75
261.244	84.75
261.477	90.75
261.71	93.75
261.942	108.75
262.175	121.75
262.407	87.75
262.64	57.75
262.872	76.75
263.105	80.75
263.337	93.75
263.57	81.75
263.802	91.75
264.035	86.75
264.267	74.75
264.499	88.75
264.732	82.75
264.964	86.75
265.197	86.75
265.429	92.75
265.661	85.75
265.894	89.75
266.126	83.75
266.358	85.75
266.591	85.75
266.823	73.75
267.055	90.75
267.287	68.75
267.52	90.75
267.752	90.75
267.984	84.75
268.216	79.75
268.448	86.75
268.681	73.75
268.913	81.75
269.145	74.75
269.377	85.75
269.609	87.75
269.841	83.75
270.073	87.75
270.306	90.75
270.538	84.75
270.77	81.75
271.002	82.75
271.234	89.75
271.466	85.75
271.698	89.75
271.93	76.75
272.162	74.75
272.394	93.75
272.626	92.75
272.858	88.75
273.09	87.75
273.322	84.75
273.553	95.75
273.785	84.75
274.017	97.75
274.249	89.75
274.481	90.75
274.713	88.75
274.945	89.75
275.176	88.75
275.408	98.75
275.64	87.75
275.872	83.75
276.104	91.75
276.335	86.75
276.567	102.75
276.799	115.75
277.031	106.75
277.262	98.75
277.494	82.75
277.726	95.75
277.957	86.75
278.189	79.75
278.421	77.75
278.652	85.75
278.884	72.75
279.115	76.75
279.347	89.75
279.579	85.75
279.81	103.75
280.042	94.75
280.273	91.75
280.505	101.75
280.736	90.75
280.968	90.75
281.199	94.75
281.431	85.75
281.662	84.75
281.894	97.75
282.125	106.75
282.356	129.75
282.588	144.75
282.819	134.75
283.051	98.75
283.282	82.75
283.513	97.75
283.745	89.75
283.976	75.75
284.207	82.75
284.439	78.75
284.67	88.75
284.901	83.75
285.132	87.75
285.364	86.75
285.595	94.75
285.826	86.75
286.057	81.75
286.288	87.75
286.52	80.75
286.751	70.75
286.982	91.75
287.213	94.75
287.444	92.75
287.675	94.75
287.906	100.75
288.138	107.75
288.369	91.75
288.6	85.75
288.831	89.75
289.062	89.75
289.293	87.75
289.524	76.75
289.755	88.75
289.986	98.75
290.217	87.75
290.448	80.75
290.679	92.75
290.91	81.75
291.141	86.75
291.371	92.75
291.602	92.75
291.833	83.75
292.064	81.75
292.295	97.75
292.526	71.75
292.757	90.75
292.987	96.75
293.218	82.75
293.449	89.75
293.68	94.75
293.91	87.75
294.141	85.75
294.372	88.75
294.603	72.75
294.833	96.75
295.064	97.75
295.295	90.75
295.525	91.75
295.756	101.75
295.987	117.75
296.217	156.75
296.448	124.75
296.679	108.75
296.909	94.75
297.14	78.75
297.37	83.75
297.601	90.75
297.831	95.75
298.062	78.75
298.292	88.75
298.523	85.75
298.753	94.75
298.984	89.75
299.214	93.75
299.445	94.75
299.675	83.75
299.905	93.75
300.136	88.75
300.366	74.75
300.597	87.75
300.827	91.75
301.057	102.75
301.288	86.75
301.518	104.75
301.748	87.75
301.979	96.75
302.209	99.75
302.439	104.75
302.669	99.75
302.9	90.75
303.13	96.75
303.36	101.75
303.59	103.75
303.82	106.75
304.051	89.75
304.281	91.75
304.511	84.75
304.741	103.75
304.971	79.75
305.201	93.75
305.431	89.75
305.661	88.75
305.891	91.75
306.121	106.75
306.352	107.75
306.582	104.75
306.812	94.75
307.042	98.75
307.272	103.75
307.502	84.75
307.731	96.75
307.961	90.75
308.191	97.75
308.421	99.75
308.651	93.75
308.881	98.75
309.111	102.75
309.341	85.75
309.571	92.75
309.8	97.75
310.03	91.75
310.26	90.75
310.49	100.75
310.72	99.75
310.949	112.75
311.179	107.75
311.409	93.75
311.639	98.75
311.868	113.75
312.098	90.75
312.328	86.75
312.557	94.75
312.787	118.75
313.017	116.75
313.246	101.75
313.476	91.75
313.706	82.75
313.935	85.75
314.165	123.75
314.394	113.75
314.624	95.75
314.853	96.75
315.083	97.75
315.312	90.75
315.542	86.75
315.771	97.75
316.001	94.75
316.23	89.75
316.46	75.75
316.689	69.75
316.919	104.75
317.148	99.75
317.377	94.75
317.607	99.75
317.836	84.75
318.065	89.75
318.295	98.75
318.524	76.75
318.753	102.75
318.983	96.75
319.212	103.75
319.441	123.75
319.67	106.75
319.9	108.75
320.129	90.75
320.358	90.75
320.587	94.75
320.816	96.75
321.046	101.75
321.275	106.75
321.504	94.75
321.733	91.75
321.962	106.75
322.191	108.75
322.42	115.75
322.649	105.75
322.878	131.75
323.108	129.75
323.337	141.75
323.566	142.75
323.795	174.75
324.024	247.75
324.253	493.75
324.482	1032.75
324.71	2120.75
324.939	2834.75
325.168	1035.75
325.397	281.75
325.626	181.75
325.855	133.75
326.084	115.75
326.313	148.75
326.542	178.75
326.77	277.75
326.999	540.75
327.228	1147.75
327.457	2109.75
327.686	1678.75
327.914	428.75
328.143	206.75
328.372	163.75
328.6	129.75
328.829	139.75
329.058	147.75
329.287	133.75
329.515	115.75
329.744	101.75
329.972	116.75
330.201	117.75
330.43	124.75
330.658	145.75
330.887	153.75
331.115	136.75
331.344	121.75
331.572	105.75
331.801	102.75
332.03	109.75
332.258	107.75
332.486	104.75
332.715	93.75
332.943	100.75
333.172	100.75
333.4	96.75
333.629	102.75
333.857	124.75
334.085	95.75
334.314	99.75
334.542	101.75
334.771	109.75
334.999	101.75
335.227	101.75
335.455	105.75
335.684	95.75
335.912	93.75
336.14	86.75
336.369	77.75
336.597	102.75
336.825	98.75
337.053	105.75
337.281	99.75
337.51	95.75
337.738	78.75
337.966	100.75
338.194	91.75
338.422	113.75
338.65	99.75
338.878	90.75
339.106	71.75
339.334	85.75
339.562	90.75
339.79	98.75
340.018	93.75
340.246	92.75
340.474	101.75
340.702	94.75
340.93	90.75
341.158	88.75
341.386	85.75
341.614	100.75
341.842	104.75
342.07	91.75
342.298	99.75
342.526	92.75
342.754	81.75
342.981	86.75
343.209	90.75
343.437	99.75
343.665	86.75
343.893	98.75
344.12	88.75
344.348	72.75
344.576	87.75
344.804	111.75
345.031	114.75
345.259	98.75
345.487	95.75
345.714	92.75
345.942	94.75
346.17	87.75
346.397	89.75
346.625	105.75
346.853	94.75
347.08	85.75
347.308	98.75
347.535	101.75
347.763	99.75
347.99	89.75
348.218	106.75
348.445	107.75
348.673	94.75
348.9	98.75
349.128	86.75
349.355	95.75
349.583	87.75
349.81	100.75
350.037	102.75
350.265	101.75
350.492	94.75
350.72	88.75
350.947	104.75
351.174	118.75
351.402	118.75
351.629	98.75
351.856	97.75
352.083	115.75
352.311	120.75
352.538	111.75
352.765	119.75
352.992	129.75
353.22	133.75
353.447	98.75
353.674	101.75
353.901	95.75
354.128	96.75
354.355	98.75
354.583	85.75
354.81	101.75
355.037	93.75
355.264	98.75
355.491	104.75
355.718	94.75
355.945	84.75
356.172	97.75
356.399	102.75
356.626	93.75
356.853	91.75
357.08	98.75
357.307	78.75
357.534	94.75
357.761	90.75
357.988	92.75
358.215	97.75
358.441	80.75
358.668	90.75
358.895	91.75
359.122	84.75
359.349	89.75
359.576	95.75
359.802	101.75
360.029	114.75
360.256	133.75
360.483	107.75
360.709	85.75
360.936	84.75
361.163	107.75
361.39	117.75
361.616	115.75
361.843	86.75
362.07	91.75
362.296	92.75
362.523	102.75
362.749	91.75
362.976	99.75
363.203	109.75
363.429	95.75
363.656	103.75
363.882	95.75
364.109	93.75
364.335	84.75
364.562	92.75
364.788	94.75
365.015	93.75
365.241	98.75
365.468	116.75
365.694	105.75
365.92	113.75
366.147	93.75
366.373	97.75
366.599	77.75
366.826	98.75
367.052	73.75
367.278	85.75
367.505	97.75
367.731	93.75
367.957	86.75
368.184	100.75
368.41	110.75
368.636	99.75
368.862	136.75
369.089	108.75
369.315	103.75
369.541	97.75
369.767	95.75
369.993	101.75
370.219	102.75
370.445	102.75
370.672	93.75
370.898	91.75
371.124	82.75
371.35	86.75
371.576	96.75
371.802	89.75
372.028	89.75
372.254	95.75
372.48	75.75
372.706	84.75
372.932	83.75
373.158	100.75
373.384	87.75
373.61	94.75
373.835	93.75
374.061	92.75
374.287	109.75
374.513	97.75
374.739	78.75
374.965	77.75
375.191	98.75
375.416	95.75
375.642	98.75
375.868	100.75
376.094	86.75
376.319	103.75
376.545	100.75
376.771	99.75
376.997	98.75
377.222	103.75
377.448	106.75
377.674	89.75
377.899	106.75
378.125	94.75
378.35	93.75
378.576	70.75
378.802	97.75
379.027	87.75
379.253	98.75
379.478	90.75
379.704	94.75
379.929	93.75
380.155	92.75
380.38	101.75
380.606	106.75
380.831	97.75
381.057	87.75
381.282	115.75
381.507	86.75
381.733	81.75
381.958	81.75
382.184	97.75
382.409	99.75
382.634	105.75
382.86	99.75
383.085	100.75
383.31	102.75
383.535	100.75
383.761	93.75
383.986	98.75
384.211	91.75
384.436	109.75
384.662	104.75
384.887	103.75
385.112	106.75
385.337	115.75
385.562	115.75
385.787	118.75
386.013	118.75
386.238	116.75
386.463	113.75
386.688	98.75
386.913	95.75
387.138	109.75
387.363	117.75
387.588	108.75
387.813	102.75
388.038	111.75
388.263	118.75
388.488	106.75
388.713	83.75
388.938	104.75
389.163	97.75
389.387	100.75
389.612	108.75
389.837	98.75
390.062	92.75
390.287	103.75
390.512	86.75
390.736	90.75
390.961	81.75
391.186	93.75
391.411	94.75
391.636	97.75
391.86	75.75
392.085	84.75
392.31	78.75
392.534	78.75
392.759	92.75
392.984	92.75
393.208	87.75
393.433	104.75
393.658	98.75
393.882	94.75
394.107	83.75
394.331	94.75
394.556	89.75
394.78	94.75
395.005	89.75
395.229	80.75
395.454	95.75
395.678	98.75
395.903	79.75
396.127	88.75
396.352	77.75
396.576	78.75
396.801	93.75
397.025	88.75
397.249	94.75
397.474	100.75
397.698	98.75
397.922	85.75
398.147	88.75
398.371	83.75
398.595	74.75
398.82	94.75
399.044	97.75
399.268	88.75
399.492	94.75
399.717	99.75
399.941	94.75
400.165	89.75
400.389	85.75
400.613	91.75
400.837	109.75
401.062	103.75
401.286	96.75
401.51	74.75
401.734	72.75
401.958	89.75
402.182	133.75
402.406	194.75
402.63	137.75
402.854	97.75
403.078	83.75
403.302	83.75
403.526	93.75
403.75	86.75
403.974	86.75
404.198	90.75
404.422	91.75
404.645	82.75
404.869	79.75
405.093	90.75
405.317	100.75
405.541	97.75
405.765	111.75
405.988	129.75
406.212	209.75
406.436	281.75
406.66	171.75
406.883	105.75
407.107	106.75
407.331	109.75
407.555	91.75
407.778	91.75
408.002	77.75
408.226	84.75
408.449	83.75
408.673	88.75
408.896	78.75
409.12	88.75
409.344	84.75
409.567	86.75
409.791	97.75
410.014	88.75
410.238	98.75
410.461	88.75
410.685	94.75
410.908	104.75
411.132	104.75
411.355	90.75
411.578	87.75
411.802	99.75
412.025	83.75
412.249	92.75
412.472	91.75
412.695	84.75
412.919	88.75
413.142	82.75
413.365	92.75
413.589	90.75
413.812	78.75
414.035	89.75
414.258	79.75
414.482	102.75
414.705	86.75
414.928	90.75
415.151	103.75
415.374	96.75
415.597	86.75
415.821	99.75
416.044	92.75
416.267	105.75
416.49	86.75
416.713	83.75
416.936	90.75
417.159	79.75
417.382	90.75
417.605	101.75
417.828	97.75
418.051	88.75
418.274	95.75
418.497	106.75
418.72	87.75
418.943	77.75
419.166	97.75
419.389	95.75
419.611	96.75
419.834	83.75
420.057	98.75
420.28	89.75
420.503	85.75
420.726	88.75
420.948	77.75
421.171	97.75
421.394	106.75
421.617	90.75
421.839	87.75
422.062	84.75
422.285	89.75
422.507	96.75
422.73	103.75
422.953	92.75
423.175	87.75
423.398	95.75
423.621	90.75
423.843	95.75
424.066	95.75
424.288	97.75
424.511	82.75
424.733	104.75
424.956	123.75
425.178	98.75
425.401	100.75
425.623	90.75
425.846	108.75
426.068	107.75
426.291	99.75
426.513	86.75
426.735	93.75
426.958	99.75
427.18	109.75
427.402	142.75
427.625	188.75
427.847	140.75
428.069	103.75
428.292	85.75
428.514	69.75
428.736	82.75
428.958	81.75
429.181	87.75
429.403	83.75
429.625	100.75
429.847	102.75
430.069	106.75
430.292	82.75
430.514	86.75
430.736	88.75
430.958	82.75
431.18	84.75
431.402	90.75
431.624	88.75
431.846	99.75
432.068	92.75
432.29	95.75
432.512	88.75
432.734	99.75
432.956	99.75
433.178	96.75
433.4	87.75
433.622	91.75
433.844	91.75
434.066	91.75
434.287	105.75
434.509	89.75
434.731	90.75
434.953	91.75
435.175	105.75
435.397	95.75
435.618	95.75
435.84	103.75
436.062	135.75
436.284	122.75
436.505	101.75
436.727	120.75
436.949	100.75
437.17	79.75
437.392	71.75
437.614	92.75
437.835	99.75
438.057	129.75
438.278	113.75
438.5	115.75
438.721	115.75
438.943	101.75
439.165	82.75
439.386	83.75
439.608	87.75
439.829	104.75
440.05	126.75
440.272	165.75
440.493	114.75
440.715	96.75
440.936	88.75
441.158	91.75
441.379	100.75
441.6	87.75
441.822	95.75
442.043	87.75
442.264	118.75
442.486	95.75
442.707	92.75
442.928	101.75
443.149	140.75
443.371	143.75
443.592	124.75
443.813	115.75
444.034	113.75
444.255	89.75
444.476	101.75
444.698	99.75
444.919	87.75
445.14	139.75
445.361	116.75
445.582	122.75
445.803	153.75
446.024	143.75
446.245	149.75
446.466	137.75
446.687	88.75
446.908	76.75
447.129	102.75
447.35	94.75
447.571	104.75
447.792	102.75
448.013	106.75
448.234	103.75
448.455	105.75
448.675	121.75
448.896	125.75
449.117	94.75
449.338	101.75
449.559	116.75
449.779	136.75
450	93.75
450.221	94.75
450.442	95.75
450.662	107.75
450.883	122.75
451.104	114.75
451.324	95.75
451.545	91.75
451.766	82.75
451.986	100.75
452.207	88.75
452.428	98.75
452.648	99.75
452.869	129.75
453.089	120.75
453.31	125.75
453.53	109.75
453.751	105.75
453.971	107.75
454.192	132.75
454.412	102.75
454.633	95.75
454.853	84.75
455.073	75.75
455.294	97.75
455.514	94.75
455.734	104.75
455.955	90.75
456.175	82.75
456.395	72.75
456.616	102.75
456.836	79.75
457.056	99.75
457.276	97.75
457.497	89.75
457.717	62.75
457.937	81.75
458.157	88.75
458.377	87.75
458.598	111.75
458.818	180.75
459.038	189.75
459.258	150.75
459.478	87.75
459.698	97.75
459.918	92.75
460.138	89.75
460.358	83.75
460.578	79.75
460.798	91.75
461.018	91.75
461.238	93.75
461.458	86.75
461.678	99.75
461.898	92.75
462.118	92.75
462.338	104.75
462.558	85.75
462.777	83.75
462.997	73.75
463.217	85.75
463.437	99.75
463.657	92.75
463.876	87.75
464.096	97.75
464.316	95.75
464.536	114.75
464.755	100.75
464.975	118.75
465.195	210.75
465.414	186.75
465.634	102.75
465.854	89.75
466.073	99.75
466.293	91.75
466.512	106.75
466.732	79.75
466.951	90.75
467.171	88.75
467.391	97.75
467.61	103.75
467.829	115.75
468.049	101.75
468.268	79.75
468.488	88.75
468.707	92.75
468.927	75.75
469.146	88.75
469.365	71.75
469.585	77.75
469.804	89.75
470.023	99.75
470.243	94.75
470.462	107.75
470.681	129.75
470.901	96.75
471.12	89.75
471.339	99.75
471.558	87.75
471.777	91.75
471.997	76.75
472.216	87.75
472.435	101.75
472.654	87.75
472.873	83.75
473.092	83.75
473.311	79.75
473.53	97.75
473.749	85.75
473.968	99.75
474.187	107.75
474.406	102.75
474.625	93.75
474.844	93.75
475.063	87.75
475.282	94.75
475.501	93.75
475.72	89.75
475.939	84.75
476.158	91.75
476.377	95.75
476.596	101.75
476.814	88.75
477.033	91.75
477.252	93.75
477.471	93.75
477.69	79.75
477.908	84.75
478.127	79.75
478.346	80.75
478.564	83.75
478.783	108.75
479.002	102.75
479.22	88.75
479.439	115.75
479.658	105.75
479.876	92.75
480.095	94.75
480.313	90.75
480.532	82.75
480.751	86.75
480.969	95.75
481.188	134.75
481.406	110.75
481.624	94.75
481.843	90.75
482.061	89.75
482.28	73.75
482.498	84.75
482.717	93.75
482.935	82.75
483.153	85.75
483.372	77.75
483.59	92.75
483.808	80.75
484.027	79.75
484.245	100.75
484.463	95.75
484.681	109.75
484.9	101.75
485.118	86.75
485.336	81.75
485.554	92.75
485.772	100.75
485.99	101.75
486.209	103.75
486.427	111.75
486.645	101.75
486.863	113.75
487.081	90.75
487.299	101.75
487.517	108.75
487.735	98.75
487.953	101.75
488.171	78.75
488.389	97.75
488.607	103.75
488.825	90.75
489.043	104.75
489.261	85.75
489.479	91.75
489.696	86.75
489.914	70.75
490.132	89.75
490.35	94.75
490.568	84.75
490.786	105.75
491.003	100.75
491.221	85.75
491.439	94.75
491.657	94.75
491.874	97.75
492.092	86.75
492.31	88.75
492.527	84.75
492.745	58.75
492.963	89.75
493.18	104.75
493.398	105.75
493.615	93.75
493.833	91.75
494.05	87.75
494.268	79.75
494.485	79.75
494.703	90.75
494.92	88.75
495.138	94.75
495.355	87.75
495.573	84.75
495.79	85.75
496.008	95.75
496.225	86.75
496.442	98.75
496.66	79.75
496.877	77.75
497.094	87.75
497.312	94.75
497.529	106.75
497.746	105.75
497.963	90.75
498.181	93.75
498.398	92.75
498.615	110.75
498.832	105.75
499.049	86.75
499.267	87.75
499.484	85.75
499.701	82.75
499.918	92.75
500.135	89.75
500.352	78.75
500.569	72.75
500.786	98.75
501.003	82.75
501.22	90.75
501.437	87.75
501.654	91.75
501.871	108.75
502.088	83.75
502.305	75.75
502.522	88.75
502.739	110.75
502.956	99.75
503.172	86.75
503.389	115.75
503.606	120.75
503.823	98.75
504.04	87.75
504.256	95.75
504.473	88.75
504.69	86.75
504.907	94.75
505.123	93.75
505.34	97.75
505.557	77.75
505.773	84.75
505.99	80.75
506.207	94.75
506.423	86.75
506.64	102.75
506.856	90.75
507.073	90.75
507.289	97.75
507.506	92.75
507.722	125.75
507.939	117.75
508.155	105.75
508.372	85.75
508.588	96.75
508.805	92.75
509.021	87.75
509.238	106.75
509.454	80.75
509.67	92.75
509.887	109.75
510.103	141.75
510.319	240.75
510.536	953.75
510.752	3144.75
510.968	862.75
511.184	185.75
511.401	97.75
511.617	94.75
511.833	91.75
512.049	102.75
512.265	98.75
512.481	90.75
512.698	97.75
512.914	79.75
513.13	103.75
513.346	103.75
513.562	91.75
513.778	105.75
513.994	104.75
514.21	105.75
514.426	121.75
514.642	143.75
514.858	144.75
515.074	209.75
515.29	579.75
515.506	2042.75
515.721	769.75
515.937	197.75
516.153	123.75
516.369	108.75
516.585	82.75
516.801	84.75
517.016	90.75
517.232	97.75
517.448	104.75
517.664	99.75
517.879	95.75
518.095	105.75
518.311	97.75
518.527	89.75
518.742	112.75
518.958	101.75
519.173	92.75
519.389	97.75
519.605	96.75
519.82	106.75
520.036	114.75
520.251	138.75
520.467	124.75
520.682	111.75
520.898	100.75
521.113	131.75
521.329	155.75
521.544	257.75
521.76	747.75
521.975	3373.75
522.19	2058.75
522.406	404.75
522.621	139.75
522.836	120.75
523.052	100.75
523.267	91.75
523.482	104.75
523.698	116.75
523.913	140.75
524.128	114.75
524.343	83.75
524.559	87.75
524.774	86.75
524.989	99.75
525.204	110.75
525.419	101.75
525.634	87.75
525.849	91.75
526.064	91.75
526.28	99.75
526.495	103.75
526.71	84.75
526.925	89.75
527.14	80.75
527.355	93.75
527.57	102.75
527.785	83.75
527.999	101.75
528.214	93.75
528.429	102.75
528.644	82.75
528.859	91.75
529.074	95.75
529.289	130.75
529.503	209.75
529.718	107.75
529.933	90.75
530.148	84.75
530.363	84.75
530.577	84.75
530.792	95.75
531.007	102.75
531.221	82.75
531.436	86.75
531.651	91.75
531.865	75.75
532.08	78.75
532.295	91.75
532.509	101.75
532.724	84.75
532.938	96.75
533.153	98.75
533.367	98.75
533.582	86.75
533.796	82.75
534.011	95.75
534.225	89.75
534.44	82.75
534.654	92.75
534.868	92.75
535.083	90.75
535.297	100.75
535.511	99.75
535.726	97.75
535.94	90.75
536.154	98.75
536.369	95.75
536.583	87.75
536.797	93.75
537.011	78.75
537.225	85.75
537.44	84.75
537.654	91.75
537.868	81.75
538.082	88.75
538.296	92.75
538.51	86.75
538.724	100.75
538.938	88.75
539.153	97.75
539.367	107.75
539.581	98.75
539.795	91.75
540.009	85.75
540.222	78.75
540.436	76.75
540.65	101.75
540.864	94.75
541.078	91.75
541.292	81.75
541.506	108.75
541.72	85.75
541.934	81.75
542.147	84.75
542.361	91.75
542.575	85.75
542.789	82.75
543.002	72.75
543.216	108.75
543.43	106.75
543.644	99.75
543.857	85.75
544.071	92.75
544.285	82.75
544.498	94.75
544.712	102.75
544.925	98.75
545.139	80.75
545.352	96.75
545.566	87.75
545.779	83.75
545.993	90.75
546.206	90.75
546.42	86.75
546.633	79.75
546.847	82.75
547.06	79.75
547.274	88.75
547.487	91.75
547.7	92.75
547.914	86.75
548.127	92.75
548.34	80.75
548.554	85.75
548.767	77.75
548.98	84.75
549.193	89.75
549.407	84.75
549.62	91.75
549.833	85.75
550.046	90.75
550.259	77.75
550.473	89.75
550.686	93.75
550.899	93.75
551.112	97.75
551.325	89.75
551.538	84.75
551.751	85.75
551.964	85.75
552.177	97.75
552.39	91.75
552.603	102.75
552.816	89.75
553.029	100.75
553.242	98.75
553.455	100.75
553.667	101.75
553.88	100.75
554.093	79.75
554.306	93.75
554.519	105.75
554.732	99.75
554.944	99.75
555.157	101.75
555.37	91.75
555.583	90.75
555.795	94.75
556.008	85.75
556.221	78.75
556.433	94.75
556.646	92.75
556.859	97.75
557.071	97.75
557.284	97.75
557.496	65.75
557.709	105.75
557.921	94.75
558.134	99.75
558.346	94.75
558.559	94.75
558.771	83.75
558.984	86.75
559.196	94.75
559.409	89.75
559.621	86.75
559.833	76.75
560.046	66.75
560.258	86.75
560.47	84.75
560.683	83.75
560.895	85.75
561.107	96.75
561.32	93.75
561.532	100.75
561.744	98.75
561.956	95.75
562.168	113.75
562.381	87.75
562.593	90.75
562.805	73.75
563.017	94.75
563.229	88.75
563.441	87.75
563.653	91.75
563.865	88.75
564.077	81.75
564.289	89.75
564.501	83.75
564.713	90.75
564.925	93.75
565.137	107.75
565.349	89.75
565.561	77.75
565.773	83.75
565.985	87.75
566.197	97.75
566.408	87.75
566.62	112.75
566.832	85.75
567.044	93.75
567.255	94.75
567.467	83.75
567.679	87.75
567.891	85.75
568.102	76.75
568.314	82.75
568.526	79.75
568.737	83.75
568.949	87.75
569.161	81.75
569.372	72.75
569.584	94.75
569.795	108.75
570.007	129.75
570.218	282.75
570.43	149.75
570.641	85.75
570.853	90.75
571.064	91.75
571.276	87.75
571.487	91.75
571.698	94.75
571.91	88.75
572.121	95.75
572.333	79.75
572.544	90.75
572.755	91.75
572.966	108.75
573.178	98.75
573.389	95.75
573.6	98.75
573.811	96.75
574.023	88.75
574.234	95.75
574.445	83.75
574.656	99.75
574.867	85.75
575.078	86.75
575.289	86.75
575.501	76.75
575.712	86.75
575.923	95.75
576.134	76.75
576.345	92.75
576.556	94.75
576.767	93.75
576.978	97.75
577.188	98.75
577.399	106.75
577.61	102.75
577.821	94.75
578.032	122.75
578.243	307.75
578.454	952.75
578.665	250.75
578.875	97.75
579.086	83.75
579.297	89.75
579.508	105.75
579.718	94.75
579.929	94.75
580.14	97.75
580.35	91.75
580.561	90.75
580.772	81.75
580.982	84.75
581.193	97.75
581.403	93.75
581.614	84.75
581.825	86.75
582.035	102.75
582.246	88.75
582.456	76.75
582.667	85.75
582.877	81.75
583.087	90.75
583.298	88.75
583.508	80.75
583.719	87.75
583.929	84.75
584.139	88.75
584.35	74.75
584.56	69.75
584.77	86.75
584.981	79.75
585.191	87.75
585.401	88.75
585.611	94.75
585.821	90.75
586.032	77.75
586.242	79.75
586.452	90.75
586.662	81.75
586.872	88.75
587.082	79.75
587.292	83.75
587.502	85.75
587.713	90.75
587.923	83.75
588.133	79.75
588.343	90.75
588.553	99.75
588.762	94.75
588.972	94.75
589.182	126.75
589.392	88.75
589.602	103.75
589.812	120.75
590.022	80.75
590.232	84.75
590.441	93.75
590.651	78.75
590.861	85.75
591.071	73.75
591.281	76.75
591.49	80.75
591.7	98.75
591.91	94.75
592.119	94.75
592.329	87.75
592.539	100.75
592.748	89.75
592.958	97.75
593.167	81.75
593.377	91.75
593.587	95.75
593.796	81.75
594.006	84.75
594.215	80.75
594.424	92.75
594.634	81.75
594.843	95.75
595.053	83.75
595.262	85.75
595.472	78.75
595.681	77.75
595.89	95.75
596.1	97.75
596.309	86.75
596.518	97.75
596.727	85.75
596.937	90.75
597.146	89.75
597.355	80.75
597.564	100.75
597.774	102.75
597.983	79.75
598.192	86.75
598.401	87.75
598.61	76.75
598.819	88.75
599.028	76.75
599.237	88.75
599.446	92.75
599.655	88.75
599.864	92.75
600.073	87.75
600.282	84.75
600.491	82.75
600.7	94.75
600.909	84.75
601.118	78.75
601.327	86.75
601.536	91.75
601.745	106.75
601.953	99.75
602.162	101.75
602.371	93.75
602.58	82.75
602.789	85.75
602.997	97.75
603.206	84.75
603.415	85.75
603.623	95.75
603.832	86.75
604.041	82.75
604.249	74.75
604.458	80.75
604.666	77.75
604.875	91.75
605.084	91.75
605.292	77.75
605.501	86.75
605.709	95.75
605.918	89.75
606.126	73.75
606.334	87.75
606.543	92.75
606.751	89.75
606.96	90.75
607.168	86.75
607.376	85.75
607.585	87.75
607.793	79.75
608.001	98.75
608.21	77.75
608.418	89.75
608.626	72.75
608.834	85.75
609.043	90.75
609.251	91.75
609.459	85.75
609.667	96.75
609.875	90.75
610.083	94.75
610.291	80.75
610.499	81.75
610.707	80.75
610.916	98.75
611.124	88.75
611.332	81.75
611.54	81.75
611.748	88.75
611.955	73.75
612.163	85.75
612.371	83.75
612.579	76.75
612.787	91.75
612.995	87.75
613.203	74.75
613.411	73.75
613.618	86.75
613.826	87.75
614.034	75.75
614.242	88.75
614.449	79.75
614.657	93.75
614.865	95.75
615.072	82.75
615.28	89.75
615.488	92.75
615.695	85.75
615.903	95.75
616.111	110.75
616.318	98.75
616.526	87.75
616.733	89.75
616.941	90.75
617.148	87.75
617.356	90.75
617.563	78.75
617.771	87.75
617.978	81.75
618.185	82.75
618.393	85.75
618.6	86.75
618.807	78.75
619.015	88.75
619.222	85.75
619.429	84.75
619.637	83.75
619.844	84.75
620.051	67.75
620.258	65.75
620.466	85.75
620.673	86.75
620.88	92.75
621.087	98.75
621.294	103.75
621.501	84.75
621.708	86.75
621.915	82.75
622.122	74.75
622.329	97.75
622.536	95.75
622.743	94.75
622.95	79.75
623.157	88.75
623.364	93.75
623.571	75.75
623.778	75.75
623.985	80.75
624.192	95.75
624.399	85.75
624.606	87.75
624.812	82.75
625.019	95.75
625.226	85.75
625.433	95.75
625.639	98.75
625.846	87.75
626.053	90.75
626.259	86.75
626.466	85.75
626.673	83.75
626.879	84.75
627.086	92.75
627.293	77.75
627.499	92.75
627.706	84.75
627.912	74.75
628.119	82.75
628.325	91.75
628.532	89.75
628.738	83.75
628.945	98.75
629.151	78.75
629.357	78.75
629.564	87.75
629.77	89.75
629.976	85.75
630.183	78.75
630.389	103.75
630.595	83.75
630.802	68.75
631.008	97.75
631.214	86.75
631.42	87.75
631.627	78.75
631.833	99.75
632.039	78.75
632.245	74.75
632.451	90.75
632.657	85.75
632.863	68.75
633.069	87.75
633.275	97.75
633.481	84.75
633.688	73.75
633.893	93.75
634.099	88.75
634.305	85.75
634.511	79.75
634.717	92.75
634.923	91.75
635.129	76.75
635.335	92.75
635.541	74.75
635.747	88.75
635.952	89.75
636.158	66.75
636.364	81.75
636.57	75.75
636.775	79.75
636.981	98.75
637.187	71.75
637.392	88.75
637.598	89.75
637.804	89.75
638.009	91.75
638.215	80.75
638.421	84.75
638.626	81.75
638.832	83.75
639.037	86.75
639.243	91.75
639.448	92.75
639.654	83.75
639.859	60.75
640.065	74.75
640.27	88.75
640.475	83.75
640.681	82.75
640.886	94.75
641.091	79.75
641.297	83.75
641.502	70.75
641.707	75.75
641.913	84.75
642.118	91.75
642.323	85.75
642.528	102.75
642.733	77.75
642.939	76.75
643.144	76.75
643.349	68.75
643.554	78.75
643.759	84.75
643.964	75.75
644.169	83.75
644.374	88.75
644.579	87.75
644.784	92.75
644.989	79.75
645.194	70.75
645.399	72.75
645.604	79.75
645.809	99.75
646.014	91.75
646.219	74.75
646.423	88.75
646.628	89.75
646.833	86.75
647.038	93.75
647.243	82.75
647.447	79.75
647.652	81.75
647.857	92.75
648.062	94.75
648.266	81.75
648.471	86.75
648.676	82.75
648.88	84.75
649.085	85.75
649.289	92.75
649.494	105.75
649.698	151.75
649.903	101.75
650.107	69.75
650.312	86.75
650.516	77.75
650.721	79.75
650.925	84.75
651.13	76.75
651.334	75.75
651.539	87.75
651.743	75.75
651.947	89.75
652.152	96.75
652.356	79.75
652.56	87.75
652.764	87.75
652.969	86.75
653.173	83.75
653.377	89.75
653.581	78.75
653.785	85.75
653.99	77.75
654.194	82.75
654.398	87.75
654.602	92.75
654.806	92.75
655.01	103.75
655.214	91.75
655.418	89.75
655.622	80.75
655.826	88.75
656.03	92.75
656.234	84.75
656.438	85.75
656.642	94.75
656.846	92.75
657.049	74.75
657.253	82.75
657.457	79.75
657.661	75.75
657.865	75.75
658.068	93.75
658.272	83.75
658.476	86.75
658.68	71.75
658.883	73.75
659.087	86.75
659.291	83.75
659.494	74.75
659.698	77.75
659.901	88.75
660.105	74.75
660.309	81.75
660.512	83.75
660.716	81.75
660.919	80.75
661.123	84.75
661.326	72.75
661.53	85.75
661.733	77.75
661.936	79.75
662.14	90.75
662.343	80.75
662.546	93.75
662.75	98.75
662.953	69.75
663.156	85.75
663.36	75.75
663.563	80.75
663.766	78.75
663.969	75.75
664.173	61.75
664.376	82.75
664.579	81.75
664.782	92.75
664.985	77.75
665.188	86.75
665.391	70.75
665.594	85.75
665.797	79.75
666	80.75
666.203	75.75
666.406	88.75
666.609	80.75
666.812	80.75
667.015	87.75
667.218	79.75
667.421	79.75
667.624	101.75
667.827	79.75
668.03	76.75
668.232	88.75
668.435	77.75
668.638	94.75
668.841	77.75
669.043	98.75
669.246	76.75
669.449	73.75
669.651	83.75
669.854	84.75
670.057	80.75
670.259	82.75
670.462	83.75
670.665	90.75
670.867	73.75
671.07	75.75
671.272	81.75
671.475	88.75
671.677	93.75
671.88	86.75
672.082	75.75
672.284	74.75
672.487	64.75
672.689	74.75
672.892	69.75
