Data from Circ_2012_H10_HRD10591_00066.txt Node
Date: Wed Jan 03 10:06:03 EST 2024
User: Yrep
Spectrometer: HR+D1059
Trigger mode: 1
Integration Time (sec): 1.000000E-1
Scans to average: 1
Electric dark correction enabled: true
Nonlinearity correction enabled: false
Boxcar width: 0
XAxis mode: Wavelengths
Number of Pixels in Spectrum: 2048
>>>>>Begin Spectral Data<<<<<
223.165	-20.38
223.4	-20.38
223.635	-20.38
223.869	-22.38
224.104	-20.38
224.338	-1.38
224.573	-13.38
224.808	-11.38
225.042	-5.38
225.277	-13.38
225.511	5.62
225.746	7.62
225.98	1.62
226.215	9.62
226.449	18.62
226.683	10.62
226.918	24.62
227.152	29.62
227.387	37.62
227.621	39.62
227.856	50.62
228.09	42.62
228.324	49.62
228.559	44.62
228.793	52.62
229.027	61.62
229.262	70.62
229.496	74.62
229.73	87.62
229.964	78.62
230.199	91.62
230.433	69.62
230.667	75.62
230.901	57.62
231.136	78.62
231.37	76.62
231.604	76.62
231.838	74.62
232.072	76.62
232.306	71.62
232.541	86.62
232.775	86.62
233.009	67.62
233.243	91.62
233.477	76.62
233.711	85.62
233.945	82.62
234.179	81.62
234.413	89.62
234.647	67.62
234.881	71.62
235.115	77.62
235.349	82.62
235.583	69.62
235.817	84.62
236.051	81.62
236.285	75.62
236.519	85.62
236.753	75.62
236.987	63.62
237.221	92.62
237.455	77.62
237.689	70.62
237.922	64.62
238.156	73.62
238.39	70.62
238.624	84.62
238.858	70.62
239.091	70.62
239.325	79.62
239.559	82.62
239.793	77.62
240.027	95.62
240.26	64.62
240.494	81.62
240.728	68.62
240.961	94.62
241.195	84.62
241.429	72.62
241.662	72.62
241.896	66.62
242.13	69.62
242.363	72.62
242.597	76.62
242.83	78.62
243.064	73.62
243.298	81.62
243.531	74.62
243.765	81.62
243.998	76.62
244.232	82.62
244.465	82.62
244.699	65.62
244.932	84.62
245.166	61.62
245.399	71.62
245.633	68.62
245.866	74.62
246.099	81.62
246.333	72.62
246.566	74.62
246.8	87.62
247.033	76.62
247.266	86.62
247.5	65.62
247.733	68.62
247.966	60.62
248.2	73.62
248.433	65.62
248.666	75.62
248.899	89.62
249.133	82.62
249.366	89.62
249.599	82.62
249.832	86.62
250.066	88.62
250.299	77.62
250.532	89.62
250.765	75.62
250.998	79.62
251.231	83.62
251.465	71.62
251.698	80.62
251.931	80.62
252.164	77.62
252.397	82.62
252.63	69.62
252.863	74.62
253.096	69.62
253.329	77.62
253.562	83.62
253.795	74.62
254.028	86.62
254.261	70.62
254.494	69.62
254.727	92.62
254.96	71.62
255.193	75.62
255.426	72.62
255.659	75.62
255.892	80.62
256.124	90.62
256.357	78.62
256.59	81.62
256.823	86.62
257.056	86.62
257.289	77.62
257.521	96.62
257.754	70.62
257.987	77.62
258.22	81.62
258.452	77.62
258.685	85.62
258.918	77.62
259.151	83.62
259.383	73.62
259.616	77.62
259.849	82.62
260.081	78.62
260.314	74.62
260.547	85.62
260.779	87.62
261.012	109.62
261.244	94.62
261.477	86.62
261.71	93.62
261.942	96.62
262.175	105.62
262.407	83.62
262.64	82.62
262.872	88.62
263.105	87.62
263.337	82.62
263.57	80.62
263.802	81.62
264.035	73.62
264.267	76.62
264.499	74.62
264.732	73.62
264.964	78.62
265.197	84.62
265.429	88.62
265.661	65.62
265.894	82.62
266.126	76.62
266.358	78.62
266.591	91.62
266.823	82.62
267.055	72.62
267.287	89.62
267.52	69.62
267.752	64.62
267.984	84.62
268.216	79.62
268.448	87.62
268.681	90.62
268.913	76.62
269.145	92.62
269.377	77.62
269.609	75.62
269.841	74.62
270.073	77.62
270.306	87.62
270.538	78.62
270.77	72.62
271.002	73.62
271.234	70.62
271.466	86.62
271.698	77.62
271.93	76.62
272.162	93.62
272.394	84.62
272.626	75.62
272.858	91.62
273.09	78.62
273.322	89.62
273.553	79.62
273.785	84.62
274.017	87.62
274.249	82.62
274.481	75.62
274.713	77.62
274.945	91.62
275.176	99.62
275.408	82.62
275.64	75.62
275.872	89.62
276.104	81.62
276.335	92.62
276.567	110.62
276.799	104.62
277.031	88.62
277.262	93.62
277.494	88.62
277.726	76.62
277.957	78.62
278.189	93.62
278.421	72.62
278.652	76.62
278.884	78.62
279.115	82.62
279.347	73.62
279.579	90.62
279.81	90.62
280.042	84.62
280.273	85.62
280.505	78.62
280.736	88.62
280.968	82.62
281.199	97.62
281.431	80.62
281.662	85.62
281.894	84.62
282.125	101.62
282.356	132.62
282.588	124.62
282.819	99.62
283.051	82.62
283.282	85.62
283.513	87.62
283.745	98.62
283.976	82.62
284.207	79.62
284.439	74.62
284.67	85.62
284.901	75.62
285.132	84.62
285.364	86.62
285.595	86.62
285.826	78.62
286.057	93.62
286.288	82.62
286.52	74.62
286.751	75.62
286.982	88.62
287.213	92.62
287.444	98.62
287.675	63.62
287.906	89.62
288.138	87.62
288.369	94.62
288.6	106.62
288.831	93.62
289.062	70.62
289.293	89.62
289.524	77.62
289.755	85.62
289.986	77.62
290.217	88.62
290.448	87.62
290.679	86.62
290.91	93.62
291.141	90.62
291.371	89.62
291.602	101.62
291.833	83.62
292.064	94.62
292.295	86.62
292.526	93.62
292.757	80.62
292.987	102.62
293.218	82.62
293.449	83.62
293.68	82.62
293.91	93.62
294.141	80.62
294.372	77.62
294.603	87.62
294.833	85.62
295.064	87.62
295.295	82.62
295.525	83.62
295.756	103.62
295.987	104.62
296.217	135.62
296.448	135.62
296.679	103.62
296.909	93.62
297.14	94.62
297.37	85.62
297.601	55.62
297.831	83.62
298.062	76.62
298.292	98.62
298.523	95.62
298.753	101.62
298.984	92.62
299.214	86.62
299.445	87.62
299.675	81.62
299.905	96.62
300.136	102.62
300.366	92.62
300.597	83.62
300.827	93.62
301.057	99.62
301.288	103.62
301.518	86.62
301.748	93.62
301.979	100.62
302.209	81.62
302.439	81.62
302.669	80.62
302.9	81.62
303.13	77.62
303.36	87.62
303.59	95.62
303.82	100.62
304.051	99.62
304.281	75.62
304.511	89.62
304.741	82.62
304.971	77.62
305.201	96.62
305.431	95.62
305.661	103.62
305.891	102.62
306.121	85.62
306.352	108.62
306.582	98.62
306.812	92.62
307.042	93.62
307.272	83.62
307.502	77.62
307.731	112.62
307.961	92.62
308.191	94.62
308.421	96.62
308.651	96.62
308.881	85.62
309.111	89.62
309.341	89.62
309.571	99.62
309.8	79.62
310.03	95.62
310.26	90.62
310.49	88.62
310.72	97.62
310.949	102.62
311.179	88.62
311.409	87.62
311.639	82.62
311.868	99.62
312.098	93.62
312.328	97.62
312.557	100.62
312.787	106.62
313.017	95.62
313.246	97.62
313.476	101.62
313.706	92.62
313.935	82.62
314.165	85.62
314.394	96.62
314.624	103.62
314.853	92.62
315.083	94.62
315.312	79.62
315.542	82.62
315.771	92.62
316.001	77.62
316.23	89.62
316.46	92.62
316.689	81.62
316.919	75.62
317.148	102.62
317.377	99.62
317.607	95.62
317.836	94.62
318.065	94.62
318.295	97.62
318.524	95.62
318.753	78.62
318.983	85.62
319.212	94.62
319.441	101.62
319.67	119.62
319.9	91.62
320.129	100.62
320.358	90.62
320.587	97.62
320.816	90.62
321.046	91.62
321.275	89.62
321.504	91.62
321.733	109.62
321.962	96.62
322.191	96.62
322.42	103.62
322.649	118.62
322.878	103.62
323.108	116.62
323.337	114.62
323.566	134.62
323.795	142.62
324.024	218.62
324.253	380.62
324.482	801.62
324.71	1638.62
324.939	2198.62
325.168	811.62
325.397	252.62
325.626	142.62
325.855	122.62
326.084	129.62
326.313	127.62
326.542	155.62
326.77	223.62
326.999	439.62
327.228	905.62
327.457	1682.62
327.686	1305.62
327.914	365.62
328.143	203.62
328.372	168.62
328.6	127.62
328.829	120.62
329.058	130.62
329.287	113.62
329.515	89.62
329.744	102.62
329.972	108.62
330.201	149.62
330.43	152.62
330.658	145.62
330.887	139.62
331.115	120.62
331.344	100.62
331.572	105.62
331.801	105.62
332.03	99.62
332.258	89.62
332.486	93.62
332.715	104.62
332.943	89.62
333.172	93.62
333.4	104.62
333.629	105.62
333.857	115.62
334.085	112.62
334.314	116.62
334.542	177.62
334.771	152.62
334.999	103.62
335.227	98.62
335.455	90.62
335.684	83.62
335.912	87.62
336.14	100.62
336.369	95.62
336.597	103.62
336.825	100.62
337.053	92.62
337.281	91.62
337.51	77.62
337.738	98.62
337.966	78.62
338.194	102.62
338.422	86.62
338.65	99.62
338.878	85.62
339.106	82.62
339.334	72.62
339.562	75.62
339.79	99.62
340.018	108.62
340.246	96.62
340.474	102.62
340.702	99.62
340.93	101.62
341.158	82.62
341.386	88.62
341.614	89.62
341.842	93.62
342.07	90.62
342.298	82.62
342.526	93.62
342.754	77.62
342.981	95.62
343.209	81.62
343.437	93.62
343.665	96.62
343.893	86.62
344.12	82.62
344.348	78.62
344.576	84.62
344.804	86.62
345.031	96.62
345.259	100.62
345.487	90.62
345.714	98.62
345.942	77.62
346.17	94.62
346.397	94.62
346.625	91.62
346.853	88.62
347.08	86.62
347.308	76.62
347.535	105.62
347.763	101.62
347.99	98.62
348.218	91.62
348.445	92.62
348.673	91.62
348.9	102.62
349.128	88.62
349.355	89.62
349.583	88.62
349.81	85.62
350.037	92.62
350.265	86.62
350.492	88.62
350.72	84.62
350.947	105.62
351.174	102.62
351.402	115.62
351.629	105.62
351.856	92.62
352.083	99.62
352.311	102.62
352.538	100.62
352.765	104.62
352.992	121.62
353.22	107.62
353.447	93.62
353.674	104.62
353.901	100.62
354.128	82.62
354.355	101.62
354.583	89.62
354.81	97.62
355.037	102.62
355.264	96.62
355.491	84.62
355.718	97.62
355.945	87.62
356.172	95.62
356.399	101.62
356.626	91.62
356.853	82.62
357.08	91.62
357.307	101.62
357.534	89.62
357.761	96.62
357.988	78.62
358.215	96.62
358.441	93.62
358.668	83.62
358.895	76.62
359.122	89.62
359.349	88.62
359.576	83.62
359.802	97.62
360.029	105.62
360.256	107.62
360.483	86.62
360.709	88.62
360.936	102.62
361.163	97.62
361.39	93.62
361.616	89.62
361.843	90.62
362.07	100.62
362.296	77.62
362.523	89.62
362.749	105.62
362.976	88.62
363.203	90.62
363.429	79.62
363.656	75.62
363.882	93.62
364.109	91.62
364.335	89.62
364.562	87.62
364.788	83.62
365.015	87.62
365.241	83.62
365.468	113.62
365.694	101.62
365.92	91.62
366.147	98.62
366.373	79.62
366.599	84.62
366.826	75.62
367.052	84.62
367.278	98.62
367.505	105.62
367.731	85.62
367.957	89.62
368.184	105.62
368.41	100.62
368.636	109.62
368.862	115.62
369.089	106.62
369.315	79.62
369.541	94.62
369.767	86.62
369.993	86.62
370.219	81.62
370.445	90.62
370.672	85.62
370.898	84.62
371.124	82.62
371.35	89.62
371.576	96.62
371.802	88.62
372.028	75.62
372.254	94.62
372.48	91.62
372.706	95.62
372.932	92.62
373.158	91.62
373.384	82.62
373.61	90.62
373.835	92.62
374.061	94.62
374.287	94.62
374.513	87.62
374.739	75.62
374.965	83.62
375.191	92.62
375.416	82.62
375.642	86.62
375.868	88.62
376.094	82.62
376.319	78.62
376.545	84.62
376.771	92.62
376.997	82.62
377.222	102.62
377.448	91.62
377.674	91.62
377.899	97.62
378.125	78.62
378.35	102.62
378.576	93.62
378.802	108.62
379.027	87.62
379.253	89.62
379.478	91.62
379.704	94.62
379.929	88.62
380.155	96.62
380.38	90.62
380.606	106.62
380.831	105.62
381.057	106.62
381.282	99.62
381.507	78.62
381.733	97.62
381.958	100.62
382.184	97.62
382.409	96.62
382.634	87.62
382.86	101.62
383.085	93.62
383.31	98.62
383.535	92.62
383.761	94.62
383.986	92.62
384.211	98.62
384.436	103.62
384.662	102.62
384.887	96.62
385.112	105.62
385.337	98.62
385.562	98.62
385.787	87.62
386.013	105.62
386.238	119.62
386.463	93.62
386.688	103.62
386.913	116.62
387.138	95.62
387.363	97.62
387.588	95.62
387.813	93.62
388.038	115.62
388.263	108.62
388.488	106.62
388.713	77.62
388.938	86.62
389.163	88.62
389.387	97.62
389.612	94.62
389.837	96.62
390.062	106.62
390.287	81.62
390.512	91.62
390.736	90.62
390.961	94.62
391.186	91.62
391.411	93.62
391.636	82.62
391.86	70.62
392.085	82.62
392.31	83.62
392.534	77.62
392.759	84.62
392.984	72.62
393.208	79.62
393.433	78.62
393.658	74.62
393.882	93.62
394.107	72.62
394.331	82.62
394.556	98.62
394.78	80.62
395.005	97.62
395.229	85.62
395.454	87.62
395.678	69.62
395.903	83.62
396.127	89.62
396.352	76.62
396.576	74.62
396.801	88.62
397.025	78.62
397.249	84.62
397.474	93.62
397.698	97.62
397.922	94.62
398.147	96.62
398.371	75.62
398.595	81.62
398.82	86.62
399.044	77.62
399.268	94.62
399.492	83.62
399.717	88.62
399.941	82.62
400.165	90.62
400.389	85.62
400.613	90.62
400.837	88.62
401.062	72.62
401.286	76.62
401.51	78.62
401.734	83.62
401.958	100.62
402.182	137.62
402.406	158.62
402.63	119.62
402.854	105.62
403.078	98.62
403.302	99.62
403.526	87.62
403.75	89.62
403.974	76.62
404.198	81.62
404.422	82.62
404.645	81.62
404.869	98.62
405.093	81.62
405.317	89.62
405.541	106.62
405.765	92.62
405.988	123.62
406.212	179.62
406.436	225.62
406.66	152.62
406.883	101.62
407.107	91.62
407.331	97.62
407.555	107.62
407.778	106.62
408.002	82.62
408.226	86.62
408.449	76.62
408.673	91.62
408.896	110.62
409.12	105.62
409.344	87.62
409.567	89.62
409.791	98.62
410.014	95.62
410.238	94.62
410.461	103.62
410.685	85.62
410.908	101.62
411.132	103.62
411.355	105.62
411.578	90.62
411.802	91.62
412.025	80.62
412.249	88.62
412.472	98.62
412.695	97.62
412.919	93.62
413.142	93.62
413.365	83.62
413.589	86.62
413.812	99.62
414.035	74.62
414.258	80.62
414.482	92.62
414.705	82.62
414.928	80.62
415.151	91.62
415.374	86.62
415.597	81.62
415.821	86.62
416.044	77.62
416.267	79.62
416.49	80.62
416.713	78.62
416.936	84.62
417.159	86.62
417.382	91.62
417.605	90.62
417.828	90.62
418.051	90.62
418.274	72.62
418.497	77.62
418.72	87.62
418.943	88.62
419.166	87.62
419.389	83.62
419.611	86.62
419.834	88.62
420.057	82.62
420.28	77.62
420.503	85.62
420.726	89.62
420.948	85.62
421.171	93.62
421.394	77.62
421.617	88.62
421.839	90.62
422.062	96.62
422.285	91.62
422.507	104.62
422.73	106.62
422.953	94.62
423.175	91.62
423.398	99.62
423.621	89.62
423.843	94.62
424.066	80.62
424.288	83.62
424.511	80.62
424.733	74.62
424.956	115.62
425.178	102.62
425.401	90.62
425.623	86.62
425.846	84.62
426.068	92.62
426.291	86.62
426.513	79.62
426.735	112.62
426.958	98.62
427.18	105.62
427.402	136.62
427.625	157.62
427.847	137.62
428.069	119.62
428.292	93.62
428.514	86.62
428.736	80.62
428.958	75.62
429.181	88.62
429.403	68.62
429.625	93.62
429.847	92.62
430.069	88.62
430.292	85.62
430.514	85.62
430.736	90.62
430.958	84.62
431.18	81.62
431.402	70.62
431.624	72.62
431.846	88.62
432.068	81.62
432.29	89.62
432.512	88.62
432.734	82.62
432.956	91.62
433.178	89.62
433.4	96.62
433.622	96.62
433.844	81.62
434.066	84.62
434.287	99.62
434.509	87.62
434.731	86.62
434.953	77.62
435.175	91.62
435.397	97.62
435.618	86.62
435.84	99.62
436.062	112.62
436.284	112.62
436.505	90.62
436.727	101.62
436.949	97.62
437.17	92.62
437.392	79.62
437.614	85.62
437.835	105.62
438.057	110.62
438.278	104.62
438.5	104.62
438.721	113.62
438.943	103.62
439.165	78.62
439.386	88.62
439.608	81.62
439.829	82.62
440.05	114.62
440.272	138.62
440.493	99.62
440.715	108.62
440.936	88.62
441.158	77.62
441.379	76.62
441.6	91.62
441.822	92.62
442.043	87.62
442.264	101.62
442.486	93.62
442.707	96.62
442.928	96.62
443.149	138.62
443.371	124.62
443.592	107.62
443.813	112.62
444.034	106.62
444.255	96.62
444.476	98.62
444.698	81.62
444.919	77.62
445.14	130.62
445.361	120.62
445.582	115.62
445.803	137.62
446.024	116.62
446.245	105.62
446.466	95.62
446.687	83.62
446.908	93.62
447.129	104.62
447.35	84.62
447.571	87.62
447.792	91.62
448.013	93.62
448.234	98.62
448.455	101.62
448.675	107.62
448.896	104.62
449.117	83.62
449.338	103.62
449.559	130.62
449.779	121.62
450	86.62
450.221	84.62
450.442	96.62
450.662	87.62
450.883	83.62
451.104	109.62
451.324	100.62
451.545	76.62
451.766	86.62
451.986	90.62
452.207	81.62
452.428	82.62
452.648	93.62
452.869	114.62
453.089	128.62
453.31	115.62
453.53	88.62
453.751	91.62
453.971	94.62
454.192	92.62
454.412	76.62
454.633	90.62
454.853	80.62
455.073	82.62
455.294	77.62
455.514	102.62
455.734	97.62
455.955	81.62
456.175	88.62
456.395	92.62
456.616	83.62
456.836	89.62
457.056	86.62
457.276	89.62
457.497	89.62
457.717	88.62
457.937	86.62
458.157	93.62
458.377	91.62
458.598	122.62
458.818	141.62
459.038	160.62
459.258	110.62
459.478	86.62
459.698	86.62
459.918	94.62
460.138	84.62
460.358	82.62
460.578	100.62
460.798	80.62
461.018	86.62
461.238	70.62
461.458	77.62
461.678	80.62
461.898	84.62
462.118	90.62
462.338	84.62
462.558	87.62
462.777	97.62
462.997	98.62
463.217	91.62
463.437	77.62
463.657	75.62
463.876	76.62
464.096	88.62
464.316	77.62
464.536	86.62
464.755	100.62
464.975	85.62
465.195	145.62
465.414	133.62
465.634	90.62
465.854	88.62
466.073	91.62
466.293	81.62
466.512	94.62
466.732	89.62
466.951	74.62
467.171	82.62
467.391	92.62
467.61	95.62
467.829	106.62
468.049	133.62
468.268	117.62
468.488	73.62
468.707	83.62
468.927	92.62
469.146	77.62
469.365	72.62
469.585	73.62
469.804	101.62
470.023	103.62
470.243	84.62
470.462	92.62
470.681	104.62
470.901	97.62
471.12	95.62
471.339	88.62
471.558	87.62
471.777	105.62
471.997	78.62
472.216	132.62
472.435	207.62
472.654	89.62
472.873	95.62
473.092	81.62
473.311	68.62
473.53	72.62
473.749	85.62
473.968	96.62
474.187	109.62
474.406	91.62
474.625	77.62
474.844	96.62
475.063	72.62
475.282	81.62
475.501	74.62
475.72	94.62
475.939	90.62
476.158	83.62
476.377	88.62
476.596	86.62
476.814	100.62
477.033	99.62
477.252	90.62
477.471	80.62
477.69	80.62
477.908	95.62
478.127	84.62
478.346	89.62
478.564	87.62
478.783	96.62
479.002	88.62
479.22	85.62
479.439	103.62
479.658	112.62
479.876	89.62
480.095	85.62
480.313	86.62
480.532	87.62
480.751	96.62
480.969	139.62
481.188	310.62
481.406	218.62
481.624	112.62
481.843	82.62
482.061	88.62
482.28	88.62
482.498	77.62
482.717	78.62
482.935	97.62
483.153	81.62
483.372	73.62
483.59	88.62
483.808	90.62
484.027	75.62
484.245	91.62
484.463	96.62
484.681	93.62
484.9	82.62
485.118	102.62
485.336	87.62
485.554	96.62
485.772	104.62
485.99	92.62
486.209	97.62
486.427	92.62
486.645	98.62
486.863	105.62
487.081	94.62
487.299	92.62
487.517	99.62
487.735	93.62
487.953	88.62
488.171	95.62
488.389	87.62
488.607	92.62
488.825	101.62
489.043	80.62
489.261	66.62
489.479	83.62
489.696	89.62
489.914	71.62
490.132	93.62
490.35	90.62
490.568	94.62
490.786	87.62
491.003	89.62
491.221	93.62
491.439	70.62
491.657	84.62
491.874	88.62
492.092	82.62
492.31	108.62
492.527	91.62
492.745	85.62
492.963	100.62
493.18	79.62
493.398	85.62
493.615	83.62
493.833	81.62
494.05	85.62
494.268	82.62
494.485	103.62
494.703	87.62
494.92	80.62
495.138	85.62
495.355	82.62
495.573	92.62
495.79	85.62
496.008	88.62
496.225	79.62
496.442	94.62
496.66	86.62
496.877	76.62
497.094	96.62
497.312	88.62
497.529	76.62
497.746	85.62
497.963	85.62
498.181	90.62
498.398	93.62
498.615	115.62
498.832	97.62
499.049	85.62
499.267	91.62
499.484	80.62
499.701	96.62
499.918	80.62
500.135	81.62
500.352	75.62
500.569	100.62
500.786	81.62
501.003	86.62
501.22	85.62
501.437	75.62
501.654	93.62
501.871	92.62
502.088	95.62
502.305	103.62
502.522	82.62
502.739	88.62
502.956	101.62
503.172	90.62
503.389	75.62
503.606	105.62
503.823	103.62
504.04	86.62
504.256	83.62
504.473	99.62
504.69	87.62
504.907	93.62
505.123	84.62
505.34	82.62
505.557	74.62
505.773	93.62
505.99	104.62
506.207	91.62
506.423	96.62
506.64	85.62
506.856	78.62
507.073	87.62
507.289	89.62
507.506	92.62
507.722	110.62
507.939	105.62
508.155	84.62
508.372	76.62
508.588	92.62
508.805	94.62
509.021	104.62
509.238	99.62
509.454	77.62
509.67	105.62
509.887	108.62
510.103	119.62
510.319	198.62
510.536	782.62
510.752	2518.62
510.968	722.62
511.184	160.62
511.401	106.62
511.617	114.62
511.833	104.62
512.049	82.62
512.265	96.62
512.481	85.62
512.698	90.62
512.914	98.62
513.13	91.62
513.346	87.62
513.562	93.62
513.778	104.62
513.994	103.62
514.21	112.62
514.426	120.62
514.642	120.62
514.858	120.62
515.074	152.62
515.29	439.62
515.506	1542.62
515.721	585.62
515.937	149.62
516.153	104.62
516.369	109.62
516.585	92.62
516.801	94.62
517.016	102.62
517.232	89.62
517.448	78.62
517.664	91.62
517.879	90.62
518.095	101.62
518.311	95.62
518.527	92.62
518.742	91.62
518.958	92.62
519.173	106.62
519.389	103.62
519.605	113.62
519.82	104.62
520.036	97.62
520.251	109.62
520.467	114.62
520.682	101.62
520.898	96.62
521.113	115.62
521.329	138.62
521.544	196.62
521.76	569.62
521.975	2461.62
522.19	1520.62
522.406	323.62
522.621	109.62
522.836	101.62
523.052	100.62
523.267	89.62
523.482	92.62
523.698	97.62
523.913	115.62
524.128	98.62
524.343	105.62
524.559	91.62
524.774	95.62
524.989	103.62
525.204	94.62
525.419	89.62
525.634	83.62
525.849	102.62
526.064	77.62
526.28	91.62
526.495	90.62
526.71	78.62
526.925	82.62
527.14	83.62
527.355	80.62
527.57	70.62
527.785	92.62
527.999	72.62
528.214	79.62
528.429	105.62
528.644	98.62
528.859	100.62
529.074	91.62
529.289	104.62
529.503	168.62
529.718	104.62
529.933	85.62
530.148	89.62
530.363	76.62
530.577	79.62
530.792	91.62
531.007	66.62
531.221	76.62
531.436	99.62
531.651	92.62
531.865	77.62
532.08	80.62
532.295	83.62
532.509	100.62
532.724	85.62
532.938	82.62
533.153	85.62
533.367	96.62
533.582	89.62
533.796	93.62
534.011	100.62
534.225	82.62
534.44	88.62
534.654	109.62
534.868	83.62
535.083	86.62
535.297	86.62
535.511	89.62
535.726	95.62
535.94	80.62
536.154	86.62
536.369	84.62
536.583	91.62
536.797	100.62
537.011	95.62
537.225	83.62
537.44	95.62
537.654	93.62
537.868	101.62
538.082	92.62
538.296	99.62
538.51	84.62
538.724	83.62
538.938	100.62
539.153	104.62
539.367	96.62
539.581	86.62
539.795	84.62
540.009	90.62
540.222	80.62
540.436	87.62
540.65	84.62
540.864	93.62
541.078	98.62
541.292	103.62
541.506	81.62
541.72	95.62
541.934	72.62
542.147	91.62
542.361	81.62
542.575	85.62
542.789	90.62
543.002	101.62
543.216	84.62
543.43	81.62
543.644	89.62
543.857	79.62
544.071	98.62
544.285	86.62
544.498	84.62
544.712	99.62
544.925	82.62
545.139	94.62
545.352	81.62
545.566	94.62
545.779	75.62
545.993	88.62
546.206	95.62
546.42	95.62
546.633	85.62
546.847	94.62
547.06	78.62
547.274	83.62
547.487	88.62
547.7	95.62
547.914	91.62
548.127	79.62
548.34	85.62
548.554	91.62
548.767	84.62
548.98	72.62
549.193	86.62
549.407	85.62
549.62	87.62
549.833	74.62
550.046	85.62
550.259	101.62
550.473	84.62
550.686	91.62
550.899	100.62
551.112	82.62
551.325	89.62
551.538	82.62
551.751	84.62
551.964	85.62
552.177	80.62
552.39	78.62
552.603	86.62
552.816	96.62
553.029	76.62
553.242	95.62
553.455	86.62
553.667	98.62
553.88	86.62
554.093	83.62
554.306	80.62
554.519	88.62
554.732	84.62
554.944	89.62
555.157	80.62
555.37	77.62
555.583	88.62
555.795	90.62
556.008	86.62
556.221	79.62
556.433	85.62
556.646	84.62
556.859	92.62
557.071	87.62
557.284	84.62
557.496	85.62
557.709	84.62
557.921	86.62
558.134	77.62
558.346	82.62
558.559	76.62
558.771	81.62
558.984	84.62
559.196	81.62
559.409	84.62
559.621	99.62
559.833	85.62
560.046	88.62
560.258	90.62
560.47	99.62
560.683	90.62
560.895	74.62
561.107	95.62
561.32	83.62
561.532	83.62
561.744	79.62
561.956	89.62
562.168	93.62
562.381	91.62
562.593	81.62
562.805	90.62
563.017	98.62
563.229	85.62
563.441	74.62
563.653	100.62
563.865	94.62
564.077	93.62
564.289	94.62
564.501	92.62
564.713	90.62
564.925	91.62
565.137	105.62
565.349	88.62
565.561	89.62
565.773	76.62
565.985	103.62
566.197	82.62
566.408	85.62
566.62	78.62
566.832	85.62
567.044	82.62
567.255	80.62
567.467	77.62
567.679	91.62
567.891	84.62
568.102	74.62
568.314	87.62
568.526	95.62
568.737	87.62
568.949	86.62
569.161	95.62
569.372	87.62
569.584	86.62
569.795	106.62
570.007	124.62
570.218	263.62
570.43	135.62
570.641	80.62
570.853	74.62
571.064	85.62
571.276	77.62
571.487	102.62
571.698	89.62
571.91	102.62
572.121	91.62
572.333	83.62
572.544	84.62
572.755	89.62
572.966	82.62
573.178	96.62
573.389	91.62
573.6	91.62
573.811	79.62
574.023	85.62
574.234	81.62
574.445	84.62
574.656	79.62
574.867	90.62
575.078	72.62
575.289	78.62
575.501	76.62
575.712	87.62
575.923	78.62
576.134	89.62
576.345	88.62
576.556	69.62
576.767	89.62
576.978	84.62
577.188	86.62
577.399	90.62
577.61	94.62
577.821	96.62
578.032	113.62
578.243	265.62
578.454	791.62
578.665	216.62
578.875	102.62
579.086	94.62
579.297	75.62
579.508	79.62
579.718	79.62
579.929	87.62
580.14	78.62
580.35	81.62
580.561	83.62
580.772	86.62
580.982	77.62
581.193	80.62
581.403	87.62
581.614	94.62
581.825	84.62
582.035	86.62
582.246	84.62
582.456	88.62
582.667	95.62
582.877	92.62
583.087	102.62
583.298	94.62
583.508	93.62
583.719	90.62
583.929	88.62
584.139	77.62
584.35	78.62
584.56	78.62
584.77	91.62
584.981	84.62
585.191	88.62
585.401	75.62
585.611	81.62
585.821	93.62
586.032	79.62
586.242	84.62
586.452	89.62
586.662	79.62
586.872	96.62
587.082	85.62
587.292	81.62
587.502	66.62
587.713	95.62
587.923	80.62
588.133	81.62
588.343	83.62
588.553	84.62
588.762	89.62
588.972	86.62
589.182	107.62
589.392	85.62
589.602	89.62
589.812	100.62
590.022	85.62
590.232	97.62
590.441	91.62
590.651	84.62
590.861	82.62
591.071	88.62
591.281	91.62
591.49	90.62
591.7	83.62
591.91	80.62
592.119	66.62
592.329	100.62
592.539	93.62
592.748	97.62
592.958	99.62
593.167	92.62
593.377	88.62
593.587	91.62
593.796	93.62
594.006	82.62
594.215	70.62
594.424	90.62
594.634	86.62
594.843	90.62
595.053	69.62
595.262	87.62
595.472	80.62
595.681	85.62
595.89	77.62
596.1	88.62
596.309	83.62
596.518	83.62
596.727	85.62
596.937	71.62
597.146	72.62
597.355	86.62
597.564	86.62
597.774	92.62
597.983	79.62
598.192	86.62
598.401	59.62
598.61	90.62
598.819	88.62
599.028	94.62
599.237	85.62
599.446	101.62
599.655	80.62
599.864	78.62
600.073	88.62
600.282	97.62
600.491	78.62
600.7	84.62
600.909	65.62
601.118	95.62
601.327	89.62
601.536	88.62
601.745	70.62
601.953	82.62
602.162	79.62
602.371	83.62
602.58	83.62
602.789	85.62
602.997	89.62
603.206	92.62
603.415	85.62
603.623	83.62
603.832	75.62
604.041	77.62
604.249	90.62
604.458	77.62
604.666	88.62
604.875	86.62
605.084	91.62
605.292	93.62
605.501	84.62
605.709	81.62
605.918	96.62
606.126	90.62
606.334	81.62
606.543	93.62
606.751	82.62
606.96	89.62
607.168	91.62
607.376	88.62
607.585	81.62
607.793	83.62
608.001	81.62
608.21	92.62
608.418	88.62
608.626	76.62
608.834	87.62
609.043	81.62
609.251	89.62
609.459	85.62
609.667	78.62
609.875	90.62
610.083	83.62
610.291	93.62
610.499	82.62
610.707	61.62
610.916	75.62
611.124	76.62
611.332	83.62
611.54	90.62
611.748	87.62
611.955	81.62
612.163	91.62
612.371	81.62
612.579	77.62
612.787	80.62
612.995	85.62
613.203	86.62
613.411	85.62
613.618	91.62
613.826	75.62
614.034	80.62
614.242	69.62
614.449	85.62
614.657	82.62
614.865	84.62
615.072	82.62
615.28	71.62
615.488	96.62
615.695	94.62
615.903	93.62
616.111	91.62
616.318	99.62
616.526	88.62
616.733	96.62
616.941	82.62
617.148	84.62
617.356	82.62
617.563	90.62
617.771	85.62
617.978	94.62
618.185	81.62
618.393	96.62
618.6	85.62
618.807	84.62
619.015	68.62
619.222	79.62
619.429	84.62
619.637	90.62
619.844	77.62
620.051	77.62
620.258	88.62
620.466	94.62
620.673	84.62
620.88	78.62
621.087	76.62
621.294	83.62
621.501	83.62
621.708	92.62
621.915	90.62
622.122	87.62
622.329	92.62
622.536	87.62
622.743	80.62
622.95	89.62
623.157	84.62
623.364	81.62
623.571	80.62
623.778	92.62
623.985	90.62
624.192	81.62
624.399	91.62
624.606	77.62
624.812	93.62
625.019	83.62
625.226	73.62
625.433	79.62
625.639	80.62
625.846	82.62
626.053	95.62
626.259	76.62
626.466	85.62
626.673	82.62
626.879	86.62
627.086	85.62
627.293	76.62
627.499	76.62
627.706	84.62
627.912	74.62
628.119	77.62
628.325	84.62
628.532	83.62
628.738	79.62
628.945	62.62
629.151	80.62
629.357	92.62
629.564	76.62
629.77	92.62
629.976	79.62
630.183	76.62
630.389	72.62
630.595	86.62
630.802	74.62
631.008	93.62
631.214	76.62
631.42	89.62
631.627	84.62
631.833	85.62
632.039	75.62
632.245	80.62
632.451	78.62
632.657	82.62
632.863	90.62
633.069	81.62
633.275	75.62
633.481	87.62
633.688	74.62
633.893	100.62
634.099	83.62
634.305	82.62
634.511	88.62
634.717	72.62
634.923	76.62
635.129	90.62
635.335	85.62
635.541	78.62
635.747	91.62
635.952	81.62
636.158	80.62
636.364	89.62
636.57	97.62
636.775	76.62
636.981	81.62
637.187	66.62
637.392	80.62
637.598	80.62
637.804	87.62
638.009	81.62
638.215	73.62
638.421	75.62
638.626	84.62
638.832	75.62
639.037	75.62
639.243	81.62
639.448	82.62
639.654	94.62
639.859	95.62
640.065	90.62
640.27	82.62
640.475	73.62
640.681	77.62
640.886	83.62
641.091	72.62
641.297	85.62
641.502	76.62
641.707	73.62
641.913	82.62
642.118	98.62
642.323	88.62
642.528	88.62
642.733	90.62
642.939	86.62
643.144	78.62
643.349	77.62
643.554	89.62
643.759	78.62
643.964	88.62
644.169	94.62
644.374	80.62
644.579	107.62
644.784	86.62
644.989	92.62
645.194	74.62
645.399	86.62
645.604	87.62
645.809	87.62
646.014	84.62
646.219	94.62
646.423	91.62
646.628	82.62
646.833	76.62
647.038	85.62
647.243	77.62
647.447	74.62
647.652	87.62
647.857	64.62
648.062	70.62
648.266	99.62
648.471	82.62
648.676	101.62
648.88	85.62
649.085	89.62
649.289	89.62
649.494	89.62
649.698	140.62
649.903	94.62
650.107	85.62
650.312	82.62
650.516	90.62
650.721	66.62
650.925	91.62
651.13	84.62
651.334	83.62
651.539	83.62
651.743	77.62
651.947	76.62
652.152	90.62
652.356	79.62
652.56	85.62
652.764	89.62
652.969	94.62
653.173	72.62
653.377	71.62
653.581	82.62
653.785	75.62
653.99	82.62
654.194	77.62
654.398	75.62
654.602	72.62
654.806	94.62
655.01	88.62
655.214	68.62
655.418	75.62
655.622	80.62
655.826	77.62
656.03	81.62
656.234	92.62
656.438	76.62
656.642	83.62
656.846	76.62
657.049	81.62
657.253	68.62
657.457	77.62
657.661	92.62
657.865	89.62
658.068	72.62
658.272	76.62
658.476	98.62
658.68	67.62
658.883	78.62
659.087	82.62
659.291	75.62
659.494	75.62
659.698	80.62
659.901	93.62
660.105	75.62
660.309	90.62
660.512	76.62
660.716	70.62
660.919	89.62
661.123	81.62
661.326	74.62
661.53	82.62
661.733	85.62
661.936	88.62
662.14	78.62
662.343	73.62
662.546	87.62
662.75	72.62
662.953	75.62
663.156	76.62
663.36	67.62
663.563	75.62
663.766	74.62
663.969	73.62
664.173	79.62
664.376	86.62
664.579	80.62
664.782	76.62
664.985	86.62
665.188	71.62
665.391	76.62
665.594	81.62
665.797	82.62
666	70.62
666.203	69.62
666.406	93.62
666.609	103.62
666.812	88.62
667.015	89.62
667.218	82.62
667.421	67.62
667.624	86.62
667.827	83.62
668.03	77.62
668.232	83.62
668.435	76.62
668.638	62.62
668.841	85.62
669.043	85.62
669.246	72.62
669.449	79.62
669.651	85.62
669.854	95.62
670.057	100.62
670.259	74.62
670.462	80.62
670.665	73.62
670.867	74.62
671.07	73.62
671.272	78.62
671.475	86.62
671.677	74.62
671.88	82.62
672.082	84.62
672.284	94.62
672.487	73.62
672.689	75.62
672.892	70.62
