Data from StdB_HRD10591_087.txt Node
Date: Fri May 16 15:25:29 EDT 2025
User: Yrep
Spectrometer: HR+D1059
Trigger mode: 1
Integration Time (sec): 1.000000E-1
Scans to average: 1
Electric dark correction enabled: true
Nonlinearity correction enabled: false
Boxcar width: 0
XAxis mode: Wavelengths
Number of Pixels in Spectrum: 2048
>>>>>Begin Spectral Data<<<<<
223.165	-10.94
223.4	-10.94
223.635	-10.94
223.869	-15.94
224.104	-24.94
224.338	-21.94
224.573	-16.94
224.808	-20.94
225.042	-9.94
225.277	-12.94
225.511	0.06
225.746	7.06
225.98	16.06
226.215	6.06
226.449	28.06
226.683	16.06
226.918	29.06
227.152	32.06
227.387	31.06
227.621	51.06
227.856	48.06
228.09	50.06
228.324	51.06
228.559	54.06
228.793	57.06
229.027	64.06
229.262	59.06
229.496	62.06
229.73	75.06
229.964	79.06
230.199	80.06
230.433	78.06
230.667	63.06
230.901	78.06
231.136	77.06
231.37	69.06
231.604	87.06
231.838	73.06
232.072	75.06
232.306	88.06
232.541	80.06
232.775	71.06
233.009	86.06
233.243	64.06
233.477	79.06
233.711	88.06
233.945	83.06
234.179	81.06
234.413	85.06
234.647	76.06
234.881	77.06
235.115	73.06
235.349	80.06
235.583	83.06
235.817	80.06
236.051	78.06
236.285	76.06
236.519	76.06
236.753	84.06
236.987	84.06
237.221	65.06
237.455	80.06
237.689	86.06
237.922	78.06
238.156	69.06
238.39	73.06
238.624	89.06
238.858	78.06
239.091	84.06
239.325	82.06
239.559	64.06
239.793	87.06
240.027	77.06
240.26	88.06
240.494	71.06
240.728	89.06
240.961	91.06
241.195	80.06
241.429	81.06
241.662	77.06
241.896	75.06
242.13	80.06
242.363	77.06
242.597	75.06
242.83	78.06
243.064	84.06
243.298	75.06
243.531	83.06
243.765	83.06
243.998	86.06
244.232	84.06
244.465	88.06
244.699	83.06
244.932	85.06
245.166	72.06
245.399	87.06
245.633	83.06
245.866	73.06
246.099	64.06
246.333	83.06
246.566	78.06
246.8	74.06
247.033	73.06
247.266	70.06
247.5	75.06
247.733	84.06
247.966	88.06
248.2	86.06
248.433	86.06
248.666	79.06
248.899	67.06
249.133	78.06
249.366	87.06
249.599	85.06
249.832	85.06
250.066	76.06
250.299	83.06
250.532	90.06
250.765	78.06
250.998	81.06
251.231	87.06
251.465	80.06
251.698	73.06
251.931	78.06
252.164	85.06
252.397	83.06
252.63	85.06
252.863	73.06
253.096	81.06
253.329	82.06
253.562	81.06
253.795	85.06
254.028	81.06
254.261	80.06
254.494	76.06
254.727	88.06
254.96	90.06
255.193	85.06
255.426	72.06
255.659	77.06
255.892	67.06
256.124	83.06
256.357	79.06
256.59	88.06
256.823	80.06
257.056	92.06
257.289	79.06
257.521	71.06
257.754	93.06
257.987	77.06
258.22	84.06
258.452	87.06
258.685	88.06
258.918	75.06
259.151	81.06
259.383	102.06
259.616	84.06
259.849	75.06
260.081	74.06
260.314	86.06
260.547	69.06
260.779	87.06
261.012	92.06
261.244	79.06
261.477	107.06
261.71	80.06
261.942	83.06
262.175	96.06
262.407	96.06
262.64	91.06
262.872	73.06
263.105	85.06
263.337	90.06
263.57	75.06
263.802	77.06
264.035	81.06
264.267	72.06
264.499	92.06
264.732	88.06
264.964	81.06
265.197	99.06
265.429	95.06
265.661	93.06
265.894	76.06
266.126	82.06
266.358	74.06
266.591	69.06
266.823	73.06
267.055	94.06
267.287	87.06
267.52	83.06
267.752	93.06
267.984	89.06
268.216	78.06
268.448	83.06
268.681	86.06
268.913	77.06
269.145	81.06
269.377	85.06
269.609	69.06
269.841	79.06
270.073	75.06
270.306	68.06
270.538	73.06
270.77	78.06
271.002	88.06
271.234	68.06
271.466	84.06
271.698	63.06
271.93	71.06
272.162	84.06
272.394	90.06
272.626	66.06
272.858	77.06
273.09	103.06
273.322	91.06
273.553	87.06
273.785	74.06
274.017	79.06
274.249	80.06
274.481	73.06
274.713	83.06
274.945	91.06
275.176	78.06
275.408	73.06
275.64	90.06
275.872	78.06
276.104	84.06
276.335	85.06
276.567	85.06
276.799	70.06
277.031	78.06
277.262	78.06
277.494	80.06
277.726	86.06
277.957	76.06
278.189	88.06
278.421	88.06
278.652	83.06
278.884	81.06
279.115	79.06
279.347	75.06
279.579	86.06
279.81	95.06
280.042	96.06
280.273	102.06
280.505	107.06
280.736	87.06
280.968	69.06
281.199	80.06
281.431	81.06
281.662	89.06
281.894	86.06
282.125	81.06
282.356	93.06
282.588	90.06
282.819	84.06
283.051	85.06
283.282	97.06
283.513	115.06
283.745	87.06
283.976	96.06
284.207	84.06
284.439	91.06
284.67	92.06
284.901	90.06
285.132	76.06
285.364	83.06
285.595	83.06
285.826	79.06
286.057	95.06
286.288	71.06
286.52	83.06
286.751	89.06
286.982	89.06
287.213	109.06
287.444	104.06
287.675	103.06
287.906	90.06
288.138	69.06
288.369	75.06
288.6	81.06
288.831	67.06
289.062	82.06
289.293	86.06
289.524	79.06
289.755	88.06
289.986	92.06
290.217	80.06
290.448	82.06
290.679	95.06
290.91	83.06
291.141	77.06
291.371	75.06
291.602	90.06
291.833	81.06
292.064	71.06
292.295	75.06
292.526	85.06
292.757	71.06
292.987	79.06
293.218	88.06
293.449	94.06
293.68	82.06
293.91	83.06
294.141	86.06
294.372	75.06
294.603	78.06
294.833	95.06
295.064	79.06
295.295	84.06
295.525	82.06
295.756	99.06
295.987	91.06
296.217	90.06
296.448	77.06
296.679	86.06
296.909	85.06
297.14	82.06
297.37	85.06
297.601	84.06
297.831	90.06
298.062	90.06
298.292	85.06
298.523	101.06
298.753	84.06
298.984	86.06
299.214	91.06
299.445	86.06
299.675	85.06
299.905	86.06
300.136	88.06
300.366	76.06
300.597	75.06
300.827	82.06
301.057	81.06
301.288	89.06
301.518	76.06
301.748	83.06
301.979	104.06
302.209	76.06
302.439	86.06
302.669	78.06
302.9	88.06
303.13	73.06
303.36	86.06
303.59	88.06
303.82	86.06
304.051	76.06
304.281	83.06
304.511	103.06
304.741	82.06
304.971	83.06
305.201	79.06
305.431	90.06
305.661	82.06
305.891	83.06
306.121	79.06
306.352	79.06
306.582	85.06
306.812	81.06
307.042	85.06
307.272	79.06
307.502	97.06
307.731	83.06
307.961	75.06
308.191	80.06
308.421	99.06
308.651	90.06
308.881	75.06
309.111	96.06
309.341	67.06
309.571	73.06
309.8	85.06
310.03	88.06
310.26	80.06
310.49	80.06
310.72	74.06
310.949	82.06
311.179	86.06
311.409	92.06
311.639	88.06
311.868	85.06
312.098	67.06
312.328	95.06
312.557	84.06
312.787	87.06
313.017	81.06
313.246	80.06
313.476	91.06
313.706	83.06
313.935	76.06
314.165	99.06
314.394	90.06
314.624	85.06
314.853	91.06
315.083	97.06
315.312	107.06
315.542	78.06
315.771	73.06
316.001	77.06
316.23	80.06
316.46	93.06
316.689	103.06
316.919	83.06
317.148	76.06
317.377	88.06
317.607	84.06
317.836	85.06
318.065	88.06
318.295	73.06
318.524	70.06
318.753	92.06
318.983	87.06
319.212	91.06
319.441	86.06
319.67	66.06
319.9	73.06
320.129	83.06
320.358	85.06
320.587	80.06
320.816	97.06
321.046	104.06
321.275	80.06
321.504	74.06
321.733	80.06
321.962	91.06
322.191	96.06
322.42	90.06
322.649	69.06
322.878	93.06
323.108	84.06
323.337	87.06
323.566	78.06
323.795	83.06
324.024	71.06
324.253	85.06
324.482	89.06
324.71	89.06
324.939	94.06
325.168	80.06
325.397	90.06
325.626	80.06
325.855	97.06
326.084	85.06
326.313	94.06
326.542	84.06
326.77	92.06
326.999	80.06
327.228	95.06
327.457	83.06
327.686	78.06
327.914	84.06
328.143	76.06
328.372	89.06
328.6	82.06
328.829	85.06
329.058	83.06
329.287	90.06
329.515	81.06
329.744	79.06
329.972	73.06
330.201	78.06
330.43	88.06
330.658	76.06
330.887	80.06
331.115	88.06
331.344	85.06
331.572	75.06
331.801	88.06
332.03	92.06
332.258	87.06
332.486	71.06
332.715	71.06
332.943	94.06
333.172	94.06
333.4	86.06
333.629	92.06
333.857	88.06
334.085	84.06
334.314	90.06
334.542	101.06
334.771	85.06
334.999	78.06
335.227	91.06
335.455	94.06
335.684	79.06
335.912	79.06
336.14	91.06
336.369	83.06
336.597	79.06
336.825	85.06
337.053	88.06
337.281	78.06
337.51	92.06
337.738	89.06
337.966	85.06
338.194	80.06
338.422	75.06
338.65	94.06
338.878	89.06
339.106	69.06
339.334	80.06
339.562	69.06
339.79	90.06
340.018	87.06
340.246	89.06
340.474	87.06
340.702	91.06
340.93	83.06
341.158	76.06
341.386	79.06
341.614	77.06
341.842	79.06
342.07	76.06
342.298	97.06
342.526	99.06
342.754	65.06
342.981	96.06
343.209	91.06
343.437	90.06
343.665	80.06
343.893	78.06
344.12	83.06
344.348	83.06
344.576	86.06
344.804	79.06
345.031	66.06
345.259	82.06
345.487	78.06
345.714	107.06
345.942	83.06
346.17	90.06
346.397	77.06
346.625	89.06
346.853	95.06
347.08	86.06
347.308	65.06
347.535	79.06
347.763	87.06
347.99	86.06
348.218	87.06
348.445	65.06
348.673	85.06
348.9	102.06
349.128	91.06
349.355	71.06
349.583	84.06
349.81	81.06
350.037	92.06
350.265	86.06
350.492	85.06
350.72	78.06
350.947	82.06
351.174	88.06
351.402	72.06
351.629	80.06
351.856	86.06
352.083	85.06
352.311	75.06
352.538	71.06
352.765	78.06
352.992	77.06
353.22	89.06
353.447	90.06
353.674	88.06
353.901	84.06
354.128	80.06
354.355	75.06
354.583	88.06
354.81	79.06
355.037	82.06
355.264	86.06
355.491	80.06
355.718	77.06
355.945	87.06
356.172	73.06
356.399	82.06
356.626	95.06
356.853	112.06
357.08	116.06
357.307	139.06
357.534	104.06
357.761	97.06
357.988	82.06
358.215	79.06
358.441	83.06
358.668	87.06
358.895	78.06
359.122	86.06
359.349	83.06
359.576	87.06
359.802	91.06
360.029	88.06
360.256	75.06
360.483	80.06
360.709	81.06
360.936	89.06
361.163	91.06
361.39	88.06
361.616	80.06
361.843	73.06
362.07	90.06
362.296	101.06
362.523	66.06
362.749	91.06
362.976	85.06
363.203	89.06
363.429	85.06
363.656	116.06
363.882	171.06
364.109	177.06
364.335	114.06
364.562	85.06
364.788	83.06
365.015	95.06
365.241	76.06
365.468	81.06
365.694	89.06
365.92	88.06
366.147	94.06
366.373	85.06
366.599	99.06
366.826	91.06
367.052	97.06
367.278	116.06
367.505	115.06
367.731	96.06
367.957	121.06
368.184	164.06
368.41	203.06
368.636	171.06
368.862	107.06
369.089	88.06
369.315	89.06
369.541	80.06
369.767	83.06
369.993	75.06
370.219	87.06
370.445	82.06
370.672	75.06
370.898	82.06
371.124	79.06
371.35	95.06
371.576	81.06
371.802	85.06
372.028	79.06
372.254	85.06
372.48	84.06
372.706	88.06
372.932	89.06
373.158	94.06
373.384	99.06
373.61	103.06
373.835	107.06
374.061	128.06
374.287	109.06
374.513	80.06
374.739	78.06
374.965	80.06
375.191	81.06
375.416	88.06
375.642	86.06
375.868	91.06
376.094	80.06
376.319	81.06
376.545	84.06
376.771	80.06
376.997	79.06
377.222	82.06
377.448	86.06
377.674	78.06
377.899	82.06
378.125	86.06
378.35	83.06
378.576	84.06
378.802	71.06
379.027	76.06
379.253	91.06
379.478	89.06
379.704	71.06
379.929	89.06
380.155	76.06
380.38	78.06
380.606	63.06
380.831	74.06
381.057	80.06
381.282	80.06
381.507	83.06
381.733	79.06
381.958	69.06
382.184	78.06
382.409	76.06
382.634	93.06
382.86	84.06
383.085	88.06
383.31	85.06
383.535	85.06
383.761	81.06
383.986	90.06
384.211	73.06
384.436	90.06
384.662	92.06
384.887	90.06
385.112	92.06
385.337	93.06
385.562	94.06
385.787	71.06
386.013	88.06
386.238	89.06
386.463	87.06
386.688	107.06
386.913	70.06
387.138	71.06
387.363	79.06
387.588	79.06
387.813	78.06
388.038	83.06
388.263	96.06
388.488	73.06
388.713	78.06
388.938	85.06
389.163	96.06
389.387	72.06
389.612	91.06
389.837	89.06
390.062	83.06
390.287	71.06
390.512	71.06
390.736	91.06
390.961	79.06
391.186	73.06
391.411	88.06
391.636	66.06
391.86	83.06
392.085	95.06
392.31	76.06
392.534	67.06
392.759	89.06
392.984	73.06
393.208	76.06
393.433	77.06
393.658	63.06
393.882	79.06
394.107	82.06
394.331	79.06
394.556	77.06
394.78	88.06
395.005	91.06
395.229	70.06
395.454	75.06
395.678	82.06
395.903	82.06
396.127	82.06
396.352	88.06
396.576	65.06
396.801	80.06
397.025	75.06
397.249	82.06
397.474	76.06
397.698	95.06
397.922	97.06
398.147	73.06
398.371	79.06
398.595	78.06
398.82	88.06
399.044	81.06
399.268	85.06
399.492	86.06
399.717	86.06
399.941	80.06
400.165	86.06
400.389	73.06
400.613	76.06
400.837	73.06
401.062	72.06
401.286	82.06
401.51	85.06
401.734	83.06
401.958	108.06
402.182	105.06
402.406	95.06
402.63	79.06
402.854	81.06
403.078	80.06
403.302	87.06
403.526	90.06
403.75	83.06
403.974	86.06
404.198	75.06
404.422	81.06
404.645	80.06
404.869	75.06
405.093	104.06
405.317	112.06
405.541	171.06
405.765	292.06
405.988	299.06
406.212	190.06
406.436	128.06
406.66	93.06
406.883	85.06
407.107	84.06
407.331	79.06
407.555	79.06
407.778	91.06
408.002	87.06
408.226	67.06
408.449	73.06
408.673	69.06
408.896	87.06
409.12	86.06
409.344	93.06
409.567	82.06
409.791	83.06
410.014	77.06
410.238	83.06
410.461	63.06
410.685	86.06
410.908	78.06
411.132	76.06
411.355	77.06
411.578	82.06
411.802	83.06
412.025	80.06
412.249	90.06
412.472	78.06
412.695	80.06
412.919	82.06
413.142	81.06
413.365	85.06
413.589	91.06
413.812	78.06
414.035	86.06
414.258	79.06
414.482	75.06
414.705	71.06
414.928	88.06
415.151	83.06
415.374	79.06
415.597	82.06
415.821	89.06
416.044	89.06
416.267	88.06
416.49	84.06
416.713	77.06
416.936	89.06
417.159	93.06
417.382	95.06
417.605	75.06
417.828	91.06
418.051	80.06
418.274	83.06
418.497	87.06
418.72	72.06
418.943	81.06
419.166	91.06
419.389	86.06
419.611	75.06
419.834	94.06
420.057	73.06
420.28	76.06
420.503	78.06
420.726	72.06
420.948	79.06
421.171	84.06
421.394	95.06
421.617	76.06
421.839	86.06
422.062	87.06
422.285	79.06
422.507	84.06
422.73	64.06
422.953	78.06
423.175	76.06
423.398	82.06
423.621	89.06
423.843	79.06
424.066	82.06
424.288	85.06
424.511	79.06
424.733	76.06
424.956	73.06
425.178	75.06
425.401	83.06
425.623	81.06
425.846	87.06
426.068	92.06
426.291	73.06
426.513	81.06
426.735	76.06
426.958	79.06
427.18	81.06
427.402	95.06
427.625	92.06
427.847	72.06
428.069	75.06
428.292	93.06
428.514	80.06
428.736	71.06
428.958	87.06
429.181	66.06
429.403	80.06
429.625	78.06
429.847	93.06
430.069	80.06
430.292	85.06
430.514	81.06
430.736	79.06
430.958	78.06
431.18	67.06
431.402	81.06
431.624	77.06
431.846	76.06
432.068	83.06
432.29	83.06
432.512	86.06
432.734	89.06
432.956	72.06
433.178	82.06
433.4	71.06
433.622	87.06
433.844	102.06
434.066	91.06
434.287	74.06
434.509	83.06
434.731	88.06
434.953	85.06
435.175	88.06
435.397	69.06
435.618	76.06
435.84	66.06
436.062	75.06
436.284	79.06
436.505	89.06
436.727	83.06
436.949	77.06
437.17	92.06
437.392	81.06
437.614	80.06
437.835	93.06
438.057	80.06
438.278	74.06
438.5	81.06
438.721	74.06
438.943	93.06
439.165	73.06
439.386	69.06
439.608	77.06
439.829	92.06
440.05	90.06
440.272	90.06
440.493	86.06
440.715	86.06
440.936	91.06
441.158	78.06
441.379	72.06
441.6	91.06
441.822	81.06
442.043	86.06
442.264	79.06
442.486	92.06
442.707	84.06
442.928	91.06
443.149	85.06
443.371	79.06
443.592	85.06
443.813	80.06
444.034	90.06
444.255	86.06
444.476	81.06
444.698	89.06
444.919	76.06
445.14	149.06
445.361	121.06
445.582	81.06
445.803	77.06
446.024	84.06
446.245	94.06
446.466	86.06
446.687	89.06
446.908	97.06
447.129	77.06
447.35	84.06
447.571	92.06
447.792	92.06
448.013	82.06
448.234	82.06
448.455	74.06
448.675	80.06
448.896	79.06
449.117	79.06
449.338	77.06
449.559	87.06
449.779	81.06
450	96.06
450.221	72.06
450.442	87.06
450.662	83.06
450.883	71.06
451.104	83.06
451.324	96.06
451.545	67.06
451.766	78.06
451.986	87.06
452.207	84.06
452.428	87.06
452.648	84.06
452.869	95.06
453.089	85.06
453.31	99.06
453.53	81.06
453.751	90.06
453.971	83.06
454.192	72.06
454.412	96.06
454.633	75.06
454.853	84.06
455.073	87.06
455.294	86.06
455.514	75.06
455.734	81.06
455.955	77.06
456.175	80.06
456.395	88.06
456.616	66.06
456.836	90.06
457.056	78.06
457.276	72.06
457.497	90.06
457.717	77.06
457.937	86.06
458.157	71.06
458.377	72.06
458.598	76.06
458.818	91.06
459.038	80.06
459.258	80.06
459.478	81.06
459.698	87.06
459.918	82.06
460.138	65.06
460.358	86.06
460.578	87.06
460.798	89.06
461.018	78.06
461.238	87.06
461.458	79.06
461.678	84.06
461.898	72.06
462.118	77.06
462.338	93.06
462.558	88.06
462.777	77.06
462.997	84.06
463.217	97.06
463.437	71.06
463.657	79.06
463.876	95.06
464.096	91.06
464.316	88.06
464.536	77.06
464.755	80.06
464.975	85.06
465.195	88.06
465.414	83.06
465.634	79.06
465.854	67.06
466.073	67.06
466.293	80.06
466.512	72.06
466.732	92.06
466.951	88.06
467.171	88.06
467.391	97.06
467.61	89.06
467.829	72.06
468.049	82.06
468.268	71.06
468.488	93.06
468.707	69.06
468.927	68.06
469.146	85.06
469.365	74.06
469.585	81.06
469.804	88.06
470.023	87.06
470.243	86.06
470.462	77.06
470.681	82.06
470.901	93.06
471.12	74.06
471.339	92.06
471.558	79.06
471.777	77.06
471.997	86.06
472.216	84.06
472.435	82.06
472.654	81.06
472.873	86.06
473.092	81.06
473.311	88.06
473.53	94.06
473.749	104.06
473.968	74.06
474.187	82.06
474.406	77.06
474.625	81.06
474.844	77.06
475.063	75.06
475.282	79.06
475.501	87.06
475.72	88.06
475.939	84.06
476.158	99.06
476.377	78.06
476.596	90.06
476.814	80.06
477.033	92.06
477.252	83.06
477.471	76.06
477.69	79.06
477.908	83.06
478.127	88.06
478.346	84.06
478.564	83.06
478.783	99.06
479.002	85.06
479.22	84.06
479.439	84.06
479.658	80.06
479.876	72.06
480.095	79.06
480.313	86.06
480.532	87.06
480.751	91.06
480.969	90.06
481.188	88.06
481.406	68.06
481.624	64.06
481.843	72.06
482.061	78.06
482.28	90.06
482.498	85.06
482.717	73.06
482.935	72.06
483.153	94.06
483.372	102.06
483.59	87.06
483.808	80.06
484.027	107.06
484.245	87.06
484.463	69.06
484.681	90.06
484.9	88.06
485.118	86.06
485.336	79.06
485.554	79.06
485.772	88.06
485.99	89.06
486.209	81.06
486.427	89.06
486.645	73.06
486.863	81.06
487.081	97.06
487.299	75.06
487.517	87.06
487.735	104.06
487.953	83.06
488.171	94.06
488.389	82.06
488.607	80.06
488.825	77.06
489.043	91.06
489.261	96.06
489.479	81.06
489.696	80.06
489.914	88.06
490.132	85.06
490.35	75.06
490.568	91.06
490.786	77.06
491.003	83.06
491.221	81.06
491.439	83.06
491.657	79.06
491.874	95.06
492.092	104.06
492.31	91.06
492.527	86.06
492.745	96.06
492.963	100.06
493.18	70.06
493.398	81.06
493.615	85.06
493.833	93.06
494.05	91.06
494.268	91.06
494.485	80.06
494.703	79.06
494.92	77.06
495.138	76.06
495.355	71.06
495.573	88.06
495.79	72.06
496.008	92.06
496.225	88.06
496.442	78.06
496.66	84.06
496.877	87.06
497.094	79.06
497.312	59.06
497.529	108.06
497.746	94.06
497.963	73.06
498.181	74.06
498.398	83.06
498.615	76.06
498.832	99.06
499.049	72.06
499.267	79.06
499.484	85.06
499.701	89.06
499.918	78.06
500.135	87.06
500.352	84.06
500.569	112.06
500.786	137.06
501.003	99.06
501.22	80.06
501.437	89.06
501.654	83.06
501.871	71.06
502.088	90.06
502.305	83.06
502.522	91.06
502.739	97.06
502.956	87.06
503.172	84.06
503.389	85.06
503.606	78.06
503.823	81.06
504.04	87.06
504.256	85.06
504.473	87.06
504.69	79.06
504.907	81.06
505.123	63.06
505.34	87.06
505.557	100.06
505.773	87.06
505.99	93.06
506.207	78.06
506.423	90.06
506.64	89.06
506.856	103.06
507.073	85.06
507.289	83.06
507.506	87.06
507.722	96.06
507.939	84.06
508.155	78.06
508.372	90.06
508.588	78.06
508.805	78.06
509.021	90.06
509.238	66.06
509.454	82.06
509.67	99.06
509.887	89.06
510.103	88.06
510.319	78.06
510.536	75.06
510.752	73.06
510.968	94.06
511.184	89.06
511.401	83.06
511.617	88.06
511.833	91.06
512.049	90.06
512.265	77.06
512.481	86.06
512.698	87.06
512.914	78.06
513.13	89.06
513.346	79.06
513.562	73.06
513.778	75.06
513.994	102.06
514.21	87.06
514.426	91.06
514.642	77.06
514.858	101.06
515.074	94.06
515.29	86.06
515.506	91.06
515.721	91.06
515.937	76.06
516.153	75.06
516.369	91.06
516.585	78.06
516.801	77.06
517.016	96.06
517.232	89.06
517.448	79.06
517.664	99.06
517.879	91.06
518.095	86.06
518.311	75.06
518.527	78.06
518.742	82.06
518.958	85.06
519.173	96.06
519.389	95.06
519.605	93.06
519.82	89.06
520.036	71.06
520.251	95.06
520.467	77.06
520.682	83.06
520.898	78.06
521.113	94.06
521.329	78.06
521.544	75.06
521.76	93.06
521.975	75.06
522.19	83.06
522.406	85.06
522.621	76.06
522.836	88.06
523.052	104.06
523.267	71.06
523.482	89.06
523.698	69.06
523.913	78.06
524.128	78.06
524.343	75.06
524.559	95.06
524.774	81.06
524.989	80.06
525.204	79.06
525.419	90.06
525.634	92.06
525.849	82.06
526.064	81.06
526.28	79.06
526.495	79.06
526.71	79.06
526.925	89.06
527.14	99.06
527.355	92.06
527.57	94.06
527.785	88.06
527.999	77.06
528.214	88.06
528.429	95.06
528.644	82.06
528.859	84.06
529.074	79.06
529.289	79.06
529.503	87.06
529.718	75.06
529.933	86.06
530.148	83.06
530.363	84.06
530.577	94.06
530.792	75.06
531.007	69.06
531.221	79.06
531.436	94.06
531.651	75.06
531.865	87.06
532.08	75.06
532.295	87.06
532.509	88.06
532.724	83.06
532.938	93.06
533.153	85.06
533.367	88.06
533.582	72.06
533.796	87.06
534.011	89.06
534.225	88.06
534.44	81.06
534.654	87.06
534.868	79.06
535.083	105.06
535.297	89.06
535.511	72.06
535.726	81.06
535.94	74.06
536.154	78.06
536.369	85.06
536.583	83.06
536.797	93.06
537.011	97.06
537.225	84.06
537.44	85.06
537.654	82.06
537.868	85.06
538.082	94.06
538.296	84.06
538.51	83.06
538.724	90.06
538.938	84.06
539.153	90.06
539.367	76.06
539.581	89.06
539.795	77.06
540.009	90.06
540.222	72.06
540.436	87.06
540.65	91.06
540.864	82.06
541.078	93.06
541.292	90.06
541.506	87.06
541.72	85.06
541.934	86.06
542.147	90.06
542.361	91.06
542.575	89.06
542.789	80.06
543.002	84.06
543.216	87.06
543.43	92.06
543.644	76.06
543.857	87.06
544.071	83.06
544.285	84.06
544.498	74.06
544.712	92.06
544.925	84.06
545.139	90.06
545.352	91.06
545.566	86.06
545.779	79.06
545.993	76.06
546.206	84.06
546.42	81.06
546.633	78.06
546.847	94.06
547.06	99.06
547.274	66.06
547.487	87.06
547.7	80.06
547.914	87.06
548.127	78.06
548.34	83.06
548.554	93.06
548.767	85.06
548.98	88.06
549.193	79.06
549.407	86.06
549.62	83.06
549.833	87.06
550.046	91.06
550.259	96.06
550.473	86.06
550.686	93.06
550.899	93.06
551.112	101.06
551.325	75.06
551.538	93.06
551.751	85.06
551.964	85.06
552.177	97.06
552.39	86.06
552.603	97.06
552.816	86.06
553.029	85.06
553.242	74.06
553.455	88.06
553.667	87.06
553.88	83.06
554.093	90.06
554.306	92.06
554.519	87.06
554.732	92.06
554.944	94.06
555.157	79.06
555.37	93.06
555.583	87.06
555.795	99.06
556.008	90.06
556.221	84.06
556.433	87.06
556.646	79.06
556.859	84.06
557.071	98.06
557.284	95.06
557.496	80.06
557.709	83.06
557.921	96.06
558.134	95.06
558.346	78.06
558.559	91.06
558.771	88.06
558.984	91.06
559.196	90.06
559.409	87.06
559.621	83.06
559.833	94.06
560.046	75.06
560.258	86.06
560.47	96.06
560.683	73.06
560.895	90.06
561.107	95.06
561.32	87.06
561.532	88.06
561.744	79.06
561.956	93.06
562.168	84.06
562.381	84.06
562.593	79.06
562.805	99.06
563.017	92.06
563.229	88.06
563.441	91.06
563.653	89.06
563.865	91.06
564.077	77.06
564.289	94.06
564.501	100.06
564.713	83.06
564.925	95.06
565.137	79.06
565.349	87.06
565.561	83.06
565.773	78.06
565.985	76.06
566.197	80.06
566.408	78.06
566.62	86.06
566.832	84.06
567.044	85.06
567.255	72.06
567.467	79.06
567.679	76.06
567.891	85.06
568.102	80.06
568.314	88.06
568.526	82.06
568.737	96.06
568.949	91.06
569.161	80.06
569.372	86.06
569.584	94.06
569.795	76.06
570.007	78.06
570.218	87.06
570.43	87.06
570.641	76.06
570.853	88.06
571.064	76.06
571.276	79.06
571.487	77.06
571.698	77.06
571.91	82.06
572.121	73.06
572.333	90.06
572.544	86.06
572.755	87.06
572.966	74.06
573.178	75.06
573.389	80.06
573.6	75.06
573.811	67.06
574.023	102.06
574.234	73.06
574.445	100.06
574.656	86.06
574.867	80.06
575.078	93.06
575.289	73.06
575.501	101.06
575.712	97.06
575.923	74.06
576.134	85.06
576.345	102.06
576.556	80.06
576.767	88.06
576.978	90.06
577.188	91.06
577.399	75.06
577.61	92.06
577.821	83.06
578.032	85.06
578.243	94.06
578.454	96.06
578.665	84.06
578.875	85.06
579.086	68.06
579.297	69.06
579.508	84.06
579.718	86.06
579.929	86.06
580.14	81.06
580.35	87.06
580.561	85.06
580.772	93.06
580.982	73.06
581.193	103.06
581.403	88.06
581.614	75.06
581.825	79.06
582.035	76.06
582.246	80.06
582.456	73.06
582.667	83.06
582.877	67.06
583.087	76.06
583.298	77.06
583.508	90.06
583.719	97.06
583.929	75.06
584.139	82.06
584.35	86.06
584.56	85.06
584.77	87.06
584.981	73.06
585.191	85.06
585.401	90.06
585.611	92.06
585.821	83.06
586.032	85.06
586.242	89.06
586.452	87.06
586.662	87.06
586.872	91.06
587.082	95.06
587.292	86.06
587.502	92.06
587.713	85.06
587.923	81.06
588.133	90.06
588.343	90.06
588.553	85.06
588.762	79.06
588.972	91.06
589.182	82.06
589.392	91.06
589.602	101.06
589.812	89.06
590.022	104.06
590.232	97.06
590.441	91.06
590.651	92.06
590.861	84.06
591.071	79.06
591.281	93.06
591.49	85.06
591.7	87.06
591.91	80.06
592.119	71.06
592.329	86.06
592.539	70.06
592.748	81.06
592.958	87.06
593.167	85.06
593.377	87.06
593.587	93.06
593.796	74.06
594.006	84.06
594.215	76.06
594.424	76.06
594.634	79.06
594.843	77.06
595.053	75.06
595.262	87.06
595.472	77.06
595.681	84.06
595.89	73.06
596.1	82.06
596.309	91.06
596.518	82.06
596.727	99.06
596.937	87.06
597.146	77.06
597.355	90.06
597.564	72.06
597.774	80.06
597.983	76.06
598.192	81.06
598.401	83.06
598.61	87.06
598.819	94.06
599.028	87.06
599.237	80.06
599.446	73.06
599.655	87.06
599.864	80.06
600.073	91.06
600.282	90.06
600.491	93.06
600.7	74.06
600.909	65.06
601.118	81.06
601.327	99.06
601.536	83.06
601.745	68.06
601.953	88.06
602.162	80.06
602.371	78.06
602.58	70.06
602.789	92.06
602.997	92.06
603.206	91.06
603.415	75.06
603.623	78.06
603.832	87.06
604.041	83.06
604.249	64.06
604.458	88.06
604.666	80.06
604.875	73.06
605.084	79.06
605.292	106.06
605.501	96.06
605.709	87.06
605.918	106.06
606.126	88.06
606.334	83.06
606.543	87.06
606.751	78.06
606.96	74.06
607.168	88.06
607.376	99.06
607.585	87.06
607.793	92.06
608.001	89.06
608.21	86.06
608.418	92.06
608.626	93.06
608.834	88.06
609.043	87.06
609.251	94.06
609.459	94.06
609.667	84.06
609.875	94.06
610.083	93.06
610.291	81.06
610.499	92.06
610.707	75.06
610.916	85.06
611.124	91.06
611.332	91.06
611.54	81.06
611.748	76.06
611.955	80.06
612.163	80.06
612.371	76.06
612.579	86.06
612.787	100.06
612.995	99.06
613.203	96.06
613.411	80.06
613.618	86.06
613.826	84.06
614.034	76.06
614.242	92.06
614.449	91.06
614.657	81.06
614.865	88.06
615.072	94.06
615.28	78.06
615.488	81.06
615.695	68.06
615.903	88.06
616.111	83.06
616.318	73.06
616.526	75.06
616.733	98.06
616.941	92.06
617.148	71.06
617.356	77.06
617.563	85.06
617.771	87.06
617.978	87.06
618.185	84.06
618.393	85.06
618.6	77.06
618.807	80.06
619.015	79.06
619.222	90.06
619.429	105.06
619.637	80.06
619.844	85.06
620.051	101.06
620.258	77.06
620.466	85.06
620.673	81.06
620.88	90.06
621.087	78.06
621.294	84.06
621.501	73.06
621.708	85.06
621.915	83.06
622.122	86.06
622.329	97.06
622.536	96.06
622.743	82.06
622.95	88.06
623.157	80.06
623.364	96.06
623.571	96.06
623.778	76.06
623.985	89.06
624.192	92.06
624.399	80.06
624.606	78.06
624.812	64.06
625.019	75.06
625.226	77.06
625.433	88.06
625.639	87.06
625.846	86.06
626.053	70.06
626.259	70.06
626.466	63.06
626.673	78.06
626.879	65.06
627.086	83.06
627.293	75.06
627.499	79.06
627.706	88.06
627.912	99.06
628.119	82.06
628.325	63.06
628.532	85.06
628.738	77.06
628.945	69.06
629.151	81.06
629.357	78.06
629.564	67.06
629.77	89.06
629.976	84.06
630.183	87.06
630.389	66.06
630.595	92.06
630.802	77.06
631.008	79.06
631.214	80.06
631.42	79.06
631.627	83.06
631.833	97.06
632.039	86.06
632.245	78.06
632.451	79.06
632.657	77.06
632.863	84.06
633.069	88.06
633.275	75.06
633.481	75.06
633.688	61.06
633.893	74.06
634.099	87.06
634.305	83.06
634.511	82.06
634.717	83.06
634.923	69.06
635.129	92.06
635.335	86.06
635.541	89.06
635.747	88.06
635.952	81.06
636.158	83.06
636.364	83.06
636.57	87.06
636.775	83.06
636.981	87.06
637.187	85.06
637.392	84.06
637.598	84.06
637.804	82.06
638.009	79.06
638.215	85.06
638.421	79.06
638.626	68.06
638.832	94.06
639.037	88.06
639.243	88.06
639.448	88.06
639.654	103.06
639.859	87.06
640.065	77.06
640.27	97.06
640.475	95.06
640.681	93.06
640.886	87.06
641.091	73.06
641.297	79.06
641.502	85.06
641.707	73.06
641.913	92.06
642.118	79.06
642.323	91.06
642.528	95.06
642.733	95.06
642.939	85.06
643.144	89.06
643.349	81.06
643.554	73.06
643.759	77.06
643.964	78.06
644.169	94.06
644.374	77.06
644.579	95.06
644.784	90.06
644.989	86.06
645.194	96.06
645.399	63.06
645.604	74.06
645.809	99.06
646.014	95.06
646.219	73.06
646.423	83.06
646.628	79.06
646.833	89.06
647.038	83.06
647.243	72.06
647.447	85.06
647.652	91.06
647.857	83.06
648.062	81.06
648.266	73.06
648.471	90.06
648.676	92.06
648.88	83.06
649.085	79.06
649.289	63.06
649.494	81.06
649.698	93.06
649.903	77.06
650.107	90.06
650.312	104.06
650.516	71.06
650.721	90.06
650.925	79.06
651.13	83.06
651.334	79.06
651.539	68.06
651.743	83.06
651.947	88.06
652.152	76.06
652.356	79.06
652.56	82.06
652.764	79.06
652.969	78.06
653.173	91.06
653.377	83.06
653.581	71.06
653.785	84.06
653.99	90.06
654.194	85.06
654.398	76.06
654.602	81.06
654.806	87.06
655.01	69.06
655.214	80.06
655.418	76.06
655.622	83.06
655.826	91.06
656.03	95.06
656.234	81.06
656.438	88.06
656.642	84.06
656.846	69.06
657.049	82.06
657.253	77.06
657.457	75.06
657.661	88.06
657.865	75.06
658.068	88.06
658.272	78.06
658.476	75.06
658.68	90.06
658.883	100.06
659.087	80.06
659.291	78.06
659.494	92.06
659.698	82.06
659.901	92.06
660.105	84.06
660.309	89.06
660.512	79.06
660.716	95.06
660.919	87.06
661.123	81.06
661.326	78.06
661.53	71.06
661.733	72.06
661.936	87.06
662.14	73.06
662.343	72.06
662.546	80.06
662.75	89.06
662.953	87.06
663.156	87.06
663.36	102.06
663.563	80.06
663.766	73.06
663.969	67.06
664.173	73.06
664.376	80.06
664.579	71.06
664.782	78.06
664.985	74.06
665.188	80.06
665.391	70.06
665.594	69.06
665.797	73.06
666	97.06
666.203	87.06
666.406	78.06
666.609	77.06
666.812	81.06
667.015	82.06
667.218	81.06
667.421	82.06
667.624	84.06
667.827	79.06
668.03	88.06
668.232	79.06
668.435	84.06
668.638	79.06
668.841	85.06
669.043	80.06
669.246	92.06
669.449	76.06
669.651	81.06
669.854	80.06
670.057	80.06
670.259	75.06
670.462	82.06
670.665	90.06
670.867	71.06
671.07	84.06
671.272	86.06
671.475	72.06
671.677	76.06
671.88	105.06
672.082	89.06
672.284	94.06
672.487	85.06
672.689	81.06
672.892	73.06
