Data from StdB_HRD10591_011.txt Node
Date: Fri May 16 15:24:51 EDT 2025
User: Yrep
Spectrometer: HR+D1059
Trigger mode: 1
Integration Time (sec): 1.000000E-1
Scans to average: 1
Electric dark correction enabled: true
Nonlinearity correction enabled: false
Boxcar width: 0
XAxis mode: Wavelengths
Number of Pixels in Spectrum: 2048
>>>>>Begin Spectral Data<<<<<
223.165	-21.38
223.4	-21.38
223.635	-21.38
223.869	-15.38
224.104	-25.38
224.338	-19.38
224.573	-14.38
224.808	-7.38
225.042	-10.38
225.277	-5.38
225.511	-10.38
225.746	4.62
225.98	18.62
226.215	4.62
226.449	18.62
226.683	18.62
226.918	27.62
227.152	36.62
227.387	37.62
227.621	33.62
227.856	40.62
228.09	45.62
228.324	43.62
228.559	53.62
228.793	58.62
229.027	61.62
229.262	75.62
229.496	69.62
229.73	63.62
229.964	75.62
230.199	75.62
230.433	72.62
230.667	83.62
230.901	79.62
231.136	82.62
231.37	74.62
231.604	100.62
231.838	82.62
232.072	85.62
232.306	85.62
232.541	82.62
232.775	81.62
233.009	84.62
233.243	85.62
233.477	87.62
233.711	82.62
233.945	90.62
234.179	75.62
234.413	90.62
234.647	88.62
234.881	85.62
235.115	90.62
235.349	97.62
235.583	85.62
235.817	75.62
236.051	57.62
236.285	76.62
236.519	86.62
236.753	98.62
236.987	94.62
237.221	92.62
237.455	84.62
237.689	83.62
237.922	92.62
238.156	78.62
238.39	82.62
238.624	92.62
238.858	82.62
239.091	93.62
239.325	98.62
239.559	101.62
239.793	110.62
240.027	108.62
240.26	94.62
240.494	95.62
240.728	95.62
240.961	88.62
241.195	99.62
241.429	90.62
241.662	90.62
241.896	102.62
242.13	103.62
242.363	97.62
242.597	91.62
242.83	93.62
243.064	97.62
243.298	95.62
243.531	89.62
243.765	102.62
243.998	95.62
244.232	101.62
244.465	116.62
244.699	102.62
244.932	111.62
245.166	101.62
245.399	98.62
245.633	94.62
245.866	99.62
246.099	98.62
246.333	83.62
246.566	87.62
246.8	109.62
247.033	112.62
247.266	102.62
247.5	106.62
247.733	110.62
247.966	124.62
248.2	114.62
248.433	103.62
248.666	99.62
248.899	106.62
249.133	101.62
249.366	115.62
249.599	100.62
249.832	98.62
250.066	123.62
250.299	117.62
250.532	101.62
250.765	104.62
250.998	99.62
251.231	119.62
251.465	128.62
251.698	116.62
251.931	129.62
252.164	111.62
252.397	108.62
252.63	121.62
252.863	113.62
253.096	134.62
253.329	132.62
253.562	138.62
253.795	155.62
254.028	145.62
254.261	132.62
254.494	126.62
254.727	127.62
254.96	131.62
255.193	142.62
255.426	126.62
255.659	124.62
255.892	131.62
256.124	131.62
256.357	127.62
256.59	128.62
256.823	142.62
257.056	141.62
257.289	125.62
257.521	147.62
257.754	162.62
257.987	185.62
258.22	165.62
258.452	154.62
258.685	146.62
258.918	135.62
259.151	135.62
259.383	126.62
259.616	166.62
259.849	156.62
260.081	146.62
260.314	152.62
260.547	151.62
260.779	181.62
261.012	218.62
261.244	264.62
261.477	339.62
261.71	345.62
261.942	233.62
262.175	193.62
262.407	182.62
262.64	142.62
262.872	139.62
263.105	150.62
263.337	142.62
263.57	155.62
263.802	151.62
264.035	134.62
264.267	151.62
264.499	161.62
264.732	156.62
264.964	156.62
265.197	186.62
265.429	165.62
265.661	160.62
265.894	161.62
266.126	184.62
266.358	220.62
266.591	246.62
266.823	202.62
267.055	170.62
267.287	162.62
267.52	137.62
267.752	144.62
267.984	131.62
268.216	129.62
268.448	131.62
268.681	126.62
268.913	134.62
269.145	117.62
269.377	128.62
269.609	146.62
269.841	146.62
270.073	139.62
270.306	126.62
270.538	138.62
270.77	141.62
271.002	130.62
271.234	131.62
271.466	142.62
271.698	132.62
271.93	139.62
272.162	135.62
272.394	138.62
272.626	135.62
272.858	120.62
273.09	133.62
273.322	140.62
273.553	149.62
273.785	133.62
274.017	129.62
274.249	146.62
274.481	138.62
274.713	140.62
274.945	124.62
275.176	139.62
275.408	119.62
275.64	129.62
275.872	139.62
276.104	146.62
276.335	141.62
276.567	146.62
276.799	140.62
277.031	137.62
277.262	152.62
277.494	156.62
277.726	161.62
277.957	163.62
278.189	147.62
278.421	177.62
278.652	167.62
278.884	183.62
279.115	197.62
279.347	228.62
279.579	251.62
279.81	340.62
280.042	439.62
280.273	525.62
280.505	468.62
280.736	286.62
280.968	235.62
281.199	209.62
281.431	199.62
281.662	201.62
281.894	221.62
282.125	232.62
282.356	267.62
282.588	282.62
282.819	244.62
283.051	272.62
283.282	345.62
283.513	408.62
283.745	315.62
283.976	233.62
284.207	191.62
284.439	200.62
284.67	158.62
284.901	163.62
285.132	167.62
285.364	175.62
285.595	181.62
285.826	162.62
286.057	173.62
286.288	162.62
286.52	170.62
286.751	181.62
286.982	229.62
287.213	284.62
287.444	303.62
287.675	269.62
287.906	197.62
288.138	168.62
288.369	153.62
288.6	153.62
288.831	151.62
289.062	165.62
289.293	143.62
289.524	139.62
289.755	166.62
289.986	142.62
290.217	141.62
290.448	176.62
290.679	151.62
290.91	148.62
291.141	158.62
291.371	142.62
291.602	152.62
291.833	153.62
292.064	141.62
292.295	166.62
292.526	159.62
292.757	153.62
292.987	150.62
293.218	160.62
293.449	147.62
293.68	149.62
293.91	151.62
294.141	158.62
294.372	172.62
294.603	179.62
294.833	169.62
295.064	167.62
295.295	167.62
295.525	173.62
295.756	158.62
295.987	157.62
296.217	159.62
296.448	169.62
296.679	170.62
296.909	163.62
297.14	160.62
297.37	182.62
297.601	147.62
297.831	181.62
298.062	168.62
298.292	168.62
298.523	158.62
298.753	173.62
298.984	169.62
299.214	165.62
299.445	181.62
299.675	166.62
299.905	154.62
300.136	154.62
300.366	148.62
300.597	163.62
300.827	165.62
301.057	162.62
301.288	154.62
301.518	161.62
301.748	177.62
301.979	188.62
302.209	181.62
302.439	167.62
302.669	165.62
302.9	183.62
303.13	174.62
303.36	163.62
303.59	177.62
303.82	166.62
304.051	190.62
304.281	188.62
304.511	169.62
304.741	184.62
304.971	171.62
305.201	172.62
305.431	165.62
305.661	169.62
305.891	190.62
306.121	183.62
306.352	157.62
306.582	173.62
306.812	180.62
307.042	177.62
307.272	161.62
307.502	155.62
307.731	166.62
307.961	164.62
308.191	165.62
308.421	171.62
308.651	185.62
308.881	155.62
309.111	191.62
309.341	175.62
309.571	179.62
309.8	166.62
310.03	165.62
310.26	145.62
310.49	174.62
310.72	177.62
310.949	181.62
311.179	178.62
311.409	165.62
311.639	171.62
311.868	165.62
312.098	190.62
312.328	180.62
312.557	203.62
312.787	195.62
313.017	190.62
313.246	199.62
313.476	190.62
313.706	209.62
313.935	225.62
314.165	182.62
314.394	202.62
314.624	208.62
314.853	233.62
315.083	211.62
315.312	195.62
315.542	222.62
315.771	213.62
316.001	219.62
316.23	220.62
316.46	205.62
316.689	190.62
316.919	207.62
317.148	207.62
317.377	190.62
317.607	196.62
317.836	205.62
318.065	213.62
318.295	202.62
318.524	182.62
318.753	191.62
318.983	173.62
319.212	185.62
319.441	194.62
319.67	201.62
319.9	179.62
320.129	182.62
320.358	212.62
320.587	179.62
320.816	201.62
321.046	185.62
321.275	182.62
321.504	184.62
321.733	186.62
321.962	177.62
322.191	185.62
322.42	189.62
322.649	184.62
322.878	182.62
323.108	174.62
323.337	189.62
323.566	172.62
323.795	185.62
324.024	184.62
324.253	177.62
324.482	194.62
324.71	170.62
324.939	184.62
325.168	195.62
325.397	195.62
325.626	198.62
325.855	205.62
326.084	183.62
326.313	197.62
326.542	188.62
326.77	192.62
326.999	187.62
327.228	188.62
327.457	193.62
327.686	179.62
327.914	198.62
328.143	195.62
328.372	196.62
328.6	198.62
328.829	191.62
329.058	180.62
329.287	187.62
329.515	179.62
329.744	179.62
329.972	189.62
330.201	192.62
330.43	182.62
330.658	191.62
330.887	170.62
331.115	180.62
331.344	193.62
331.572	199.62
331.801	183.62
332.03	199.62
332.258	191.62
332.486	198.62
332.715	194.62
332.943	186.62
333.172	200.62
333.4	191.62
333.629	193.62
333.857	200.62
334.085	197.62
334.314	207.62
334.542	183.62
334.771	202.62
334.999	183.62
335.227	187.62
335.455	191.62
335.684	195.62
335.912	186.62
336.14	176.62
336.369	192.62
336.597	185.62
336.825	195.62
337.053	179.62
337.281	180.62
337.51	186.62
337.738	193.62
337.966	203.62
338.194	192.62
338.422	197.62
338.65	188.62
338.878	191.62
339.106	181.62
339.334	199.62
339.562	196.62
339.79	194.62
340.018	178.62
340.246	176.62
340.474	184.62
340.702	188.62
340.93	180.62
341.158	188.62
341.386	179.62
341.614	181.62
341.842	170.62
342.07	197.62
342.298	201.62
342.526	190.62
342.754	165.62
342.981	185.62
343.209	198.62
343.437	194.62
343.665	192.62
343.893	191.62
344.12	216.62
344.348	188.62
344.576	193.62
344.804	203.62
345.031	195.62
345.259	193.62
345.487	181.62
345.714	198.62
345.942	189.62
346.17	191.62
346.397	195.62
346.625	182.62
346.853	182.62
347.08	189.62
347.308	197.62
347.535	189.62
347.763	183.62
347.99	166.62
348.218	182.62
348.445	198.62
348.673	175.62
348.9	179.62
349.128	178.62
349.355	195.62
349.583	189.62
349.81	179.62
350.037	179.62
350.265	188.62
350.492	184.62
350.72	178.62
350.947	170.62
351.174	191.62
351.402	179.62
351.629	186.62
351.856	175.62
352.083	178.62
352.311	179.62
352.538	179.62
352.765	182.62
352.992	189.62
353.22	169.62
353.447	163.62
353.674	190.62
353.901	201.62
354.128	198.62
354.355	179.62
354.583	193.62
354.81	185.62
355.037	199.62
355.264	211.62
355.491	210.62
355.718	212.62
355.945	212.62
356.172	204.62
356.399	229.62
356.626	257.62
356.853	318.62
357.08	430.62
357.307	563.62
357.534	563.62
357.761	402.62
357.988	300.62
358.215	283.62
358.441	248.62
358.668	234.62
358.895	220.62
359.122	229.62
359.349	212.62
359.576	216.62
359.802	201.62
360.029	200.62
360.256	214.62
360.483	204.62
360.709	206.62
360.936	206.62
361.163	210.62
361.39	209.62
361.616	220.62
361.843	213.62
362.07	209.62
362.296	210.62
362.523	208.62
362.749	195.62
362.976	230.62
363.203	246.62
363.429	291.62
363.656	433.62
363.882	634.62
364.109	739.62
364.335	498.62
364.562	358.62
364.788	294.62
365.015	259.62
365.241	223.62
365.468	229.62
365.694	222.62
365.92	221.62
366.147	226.62
366.373	219.62
366.599	247.62
366.826	268.62
367.052	303.62
367.278	357.62
367.505	343.62
367.731	365.62
367.957	472.62
368.184	748.62
368.41	979.62
368.636	860.62
368.862	526.62
369.089	375.62
369.315	284.62
369.541	280.62
369.767	258.62
369.993	251.62
370.219	229.62
370.445	248.62
370.672	229.62
370.898	222.62
371.124	214.62
371.35	230.62
371.576	219.62
371.802	215.62
372.028	219.62
372.254	227.62
372.48	217.62
372.706	225.62
372.932	237.62
373.158	241.62
373.384	247.62
373.61	329.62
373.835	485.62
374.061	625.62
374.287	553.62
374.513	370.62
374.739	299.62
374.965	259.62
375.191	233.62
375.416	221.62
375.642	215.62
375.868	240.62
376.094	231.62
376.319	217.62
376.545	212.62
376.771	206.62
376.997	207.62
377.222	197.62
377.448	207.62
377.674	216.62
377.899	194.62
378.125	210.62
378.35	215.62
378.576	223.62
378.802	205.62
379.027	232.62
379.253	213.62
379.478	209.62
379.704	188.62
379.929	212.62
380.155	215.62
380.38	216.62
380.606	185.62
380.831	210.62
381.057	203.62
381.282	213.62
381.507	185.62
381.733	223.62
381.958	191.62
382.184	196.62
382.409	201.62
382.634	220.62
382.86	219.62
383.085	203.62
383.31	188.62
383.535	198.62
383.761	217.62
383.986	211.62
384.211	215.62
384.436	212.62
384.662	237.62
384.887	223.62
385.112	221.62
385.337	219.62
385.562	219.62
385.787	210.62
386.013	216.62
386.238	200.62
386.463	227.62
386.688	233.62
386.913	214.62
387.138	205.62
387.363	214.62
387.588	197.62
387.813	218.62
388.038	215.62
388.263	207.62
388.488	203.62
388.713	212.62
388.938	204.62
389.163	197.62
389.387	212.62
389.612	197.62
389.837	210.62
390.062	208.62
390.287	211.62
390.512	212.62
390.736	206.62
390.961	220.62
391.186	193.62
391.411	196.62
391.636	205.62
391.86	223.62
392.085	228.62
392.31	222.62
392.534	209.62
392.759	207.62
392.984	222.62
393.208	225.62
393.433	227.62
393.658	207.62
393.882	208.62
394.107	205.62
394.331	201.62
394.556	217.62
394.78	236.62
395.005	209.62
395.229	195.62
395.454	205.62
395.678	212.62
395.903	217.62
396.127	188.62
396.352	231.62
396.576	219.62
396.801	229.62
397.025	211.62
397.249	233.62
397.474	238.62
397.698	232.62
397.922	232.62
398.147	226.62
398.371	226.62
398.595	231.62
398.82	222.62
399.044	230.62
399.268	235.62
399.492	255.62
399.717	245.62
399.941	256.62
400.165	249.62
400.389	231.62
400.613	231.62
400.837	236.62
401.062	240.62
401.286	259.62
401.51	241.62
401.734	271.62
401.958	303.62
402.182	287.62
402.406	264.62
402.63	244.62
402.854	238.62
403.078	251.62
403.302	245.62
403.526	222.62
403.75	267.62
403.974	258.62
404.198	268.62
404.422	282.62
404.645	282.62
404.869	314.62
405.093	366.62
405.317	494.62
405.541	840.62
405.765	1378.62
405.988	1589.62
406.212	1021.62
406.436	679.62
406.66	462.62
406.883	402.62
407.107	363.62
407.331	309.62
407.555	302.62
407.778	304.62
408.002	308.62
408.226	274.62
408.449	266.62
408.673	252.62
408.896	258.62
409.12	257.62
409.344	279.62
409.567	258.62
409.791	261.62
410.014	229.62
410.238	234.62
410.461	264.62
410.685	242.62
410.908	239.62
411.132	238.62
411.355	230.62
411.578	250.62
411.802	237.62
412.025	240.62
412.249	244.62
412.472	244.62
412.695	234.62
412.919	228.62
413.142	240.62
413.365	237.62
413.589	243.62
413.812	216.62
414.035	232.62
414.258	232.62
414.482	228.62
414.705	219.62
414.928	237.62
415.151	237.62
415.374	221.62
415.597	246.62
415.821	229.62
416.044	222.62
416.267	244.62
416.49	235.62
416.713	249.62
416.936	250.62
417.159	256.62
417.382	226.62
417.605	234.62
417.828	241.62
418.051	233.62
418.274	225.62
418.497	261.62
418.72	220.62
418.943	220.62
419.166	247.62
419.389	250.62
419.611	237.62
419.834	246.62
420.057	219.62
420.28	245.62
420.503	237.62
420.726	253.62
420.948	245.62
421.171	233.62
421.394	255.62
421.617	257.62
421.839	261.62
422.062	264.62
422.285	262.62
422.507	274.62
422.73	269.62
422.953	270.62
423.175	289.62
423.398	301.62
423.621	333.62
423.843	367.62
424.066	407.62
424.288	517.62
424.511	629.62
424.733	700.62
424.956	585.62
425.178	502.62
425.401	443.62
425.623	398.62
425.846	366.62
426.068	356.62
426.291	335.62
426.513	313.62
426.735	299.62
426.958	286.62
427.18	267.62
427.402	282.62
427.625	273.62
427.847	262.62
428.069	253.62
428.292	281.62
428.514	260.62
428.736	271.62
428.958	253.62
429.181	261.62
429.403	262.62
429.625	245.62
429.847	239.62
430.069	237.62
430.292	226.62
430.514	242.62
430.736	239.62
430.958	249.62
431.18	221.62
431.402	241.62
431.624	238.62
431.846	249.62
432.068	226.62
432.29	233.62
432.512	219.62
432.734	224.62
432.956	231.62
433.178	250.62
433.4	230.62
433.622	251.62
433.844	247.62
434.066	264.62
434.287	282.62
434.509	275.62
434.731	252.62
434.953	231.62
435.175	246.62
435.397	252.62
435.618	247.62
435.84	272.62
436.062	258.62
436.284	255.62
436.505	259.62
436.727	263.62
436.949	276.62
437.17	267.62
437.392	272.62
437.614	298.62
437.835	322.62
438.057	319.62
438.278	371.62
438.5	466.62
438.721	563.62
438.943	648.62
439.165	534.62
439.386	451.62
439.608	428.62
439.829	406.62
440.05	381.62
440.272	379.62
440.493	373.62
440.715	403.62
440.936	433.62
441.158	433.62
441.379	372.62
441.6	356.62
441.822	315.62
442.043	305.62
442.264	295.62
442.486	287.62
442.707	283.62
442.928	263.62
443.149	265.62
443.371	268.62
443.592	267.62
443.813	265.62
444.034	252.62
444.255	259.62
444.476	236.62
444.698	251.62
444.919	237.62
445.14	329.62
445.361	290.62
445.582	242.62
445.803	235.62
446.024	239.62
446.245	245.62
446.466	232.62
446.687	229.62
446.908	214.62
447.129	229.62
447.35	231.62
447.571	216.62
447.792	235.62
448.013	217.62
448.234	233.62
448.455	223.62
448.675	219.62
448.896	206.62
449.117	216.62
449.338	221.62
449.559	233.62
449.779	225.62
450	229.62
450.221	218.62
450.442	211.62
450.662	203.62
450.883	205.62
451.104	197.62
451.324	212.62
451.545	183.62
451.766	194.62
451.986	203.62
452.207	210.62
452.428	202.62
452.648	205.62
452.869	203.62
453.089	201.62
453.31	209.62
453.53	190.62
453.751	198.62
453.971	201.62
454.192	211.62
454.412	197.62
454.633	201.62
454.853	201.62
455.073	213.62
455.294	173.62
455.514	205.62
455.734	203.62
455.955	204.62
456.175	193.62
456.395	203.62
456.616	197.62
456.836	186.62
457.056	203.62
457.276	195.62
457.497	193.62
457.717	215.62
457.937	205.62
458.157	177.62
458.377	193.62
458.598	177.62
458.818	185.62
459.038	202.62
459.258	199.62
459.478	190.62
459.698	222.62
459.918	191.62
460.138	219.62
460.358	233.62
460.578	205.62
460.798	197.62
461.018	216.62
461.238	213.62
461.458	229.62
461.678	214.62
461.898	213.62
462.118	207.62
462.338	207.62
462.558	229.62
462.777	206.62
462.997	237.62
463.217	238.62
463.437	236.62
463.657	228.62
463.876	246.62
464.096	225.62
464.316	229.62
464.536	236.62
464.755	229.62
464.975	198.62
465.195	203.62
465.414	199.62
465.634	209.62
465.854	206.62
466.073	210.62
466.293	215.62
466.512	193.62
466.732	217.62
466.951	197.62
467.171	220.62
467.391	203.62
467.61	215.62
467.829	217.62
468.049	185.62
468.268	206.62
468.488	187.62
468.707	193.62
468.927	195.62
469.146	197.62
469.365	181.62
469.585	207.62
469.804	204.62
470.023	230.62
470.243	214.62
470.462	205.62
470.681	207.62
470.901	203.62
471.12	204.62
471.339	213.62
471.558	198.62
471.777	193.62
471.997	204.62
472.216	197.62
472.435	205.62
472.654	216.62
472.873	210.62
473.092	205.62
473.311	217.62
473.53	199.62
473.749	204.62
473.968	206.62
474.187	205.62
474.406	201.62
474.625	210.62
474.844	227.62
475.063	213.62
475.282	206.62
475.501	232.62
475.72	216.62
475.939	213.62
476.158	210.62
476.377	219.62
476.596	205.62
476.814	223.62
477.033	211.62
477.252	224.62
477.471	227.62
477.69	229.62
477.908	215.62
478.127	250.62
478.346	245.62
478.564	219.62
478.783	244.62
479.002	255.62
479.22	253.62
479.439	244.62
479.658	243.62
479.876	237.62
480.095	236.62
480.313	244.62
480.532	252.62
480.751	258.62
480.969	255.62
481.188	250.62
481.406	237.62
481.624	247.62
481.843	223.62
482.061	225.62
482.28	241.62
482.498	265.62
482.717	235.62
482.935	245.62
483.153	218.62
483.372	245.62
483.59	225.62
483.808	223.62
484.027	228.62
484.245	243.62
484.463	217.62
484.681	251.62
484.9	242.62
485.118	245.62
485.336	226.62
485.554	234.62
485.772	240.62
485.99	222.62
486.209	232.62
486.427	220.62
486.645	246.62
486.863	252.62
487.081	242.62
487.299	241.62
487.517	228.62
487.735	235.62
487.953	233.62
488.171	238.62
488.389	216.62
488.607	241.62
488.825	254.62
489.043	242.62
489.261	256.62
489.479	237.62
489.696	253.62
489.914	223.62
490.132	233.62
490.35	235.62
490.568	241.62
490.786	247.62
491.003	264.62
491.221	259.62
491.439	263.62
491.657	245.62
491.874	242.62
492.092	254.62
492.31	245.62
492.527	249.62
492.745	226.62
492.963	253.62
493.18	243.62
493.398	241.62
493.615	242.62
493.833	240.62
494.05	265.62
494.268	234.62
494.485	249.62
494.703	267.62
494.92	261.62
495.138	268.62
495.355	278.62
495.573	276.62
495.79	279.62
496.008	281.62
496.225	256.62
496.442	274.62
496.66	279.62
496.877	253.62
497.094	261.62
497.312	270.62
497.529	275.62
497.746	269.62
497.963	259.62
498.181	274.62
498.398	294.62
498.615	292.62
498.832	285.62
499.049	293.62
499.267	303.62
499.484	329.62
499.701	312.62
499.918	353.62
500.135	357.62
500.352	387.62
500.569	472.62
500.786	551.62
501.003	428.62
501.22	379.62
501.437	344.62
501.654	341.62
501.871	334.62
502.088	327.62
502.305	326.62
502.522	309.62
502.739	327.62
502.956	320.62
503.172	305.62
503.389	309.62
503.606	304.62
503.823	323.62
504.04	343.62
504.256	344.62
504.473	362.62
504.69	372.62
504.907	342.62
505.123	342.62
505.34	327.62
505.557	323.62
505.773	305.62
505.99	294.62
506.207	295.62
506.423	299.62
506.64	311.62
506.856	282.62
507.073	277.62
507.289	285.62
507.506	267.62
507.722	263.62
507.939	258.62
508.155	254.62
508.372	265.62
508.588	264.62
508.805	251.62
509.021	272.62
509.238	266.62
509.454	237.62
509.67	238.62
509.887	236.62
510.103	241.62
510.319	233.62
510.536	250.62
510.752	234.62
510.968	229.62
511.184	249.62
511.401	240.62
511.617	245.62
511.833	245.62
512.049	244.62
512.265	259.62
512.481	239.62
512.698	240.62
512.914	241.62
513.13	230.62
513.346	229.62
513.562	235.62
513.778	248.62
513.994	229.62
514.21	220.62
514.426	242.62
514.642	239.62
514.858	243.62
515.074	231.62
515.29	227.62
515.506	255.62
515.721	260.62
515.937	256.62
516.153	235.62
516.369	269.62
516.585	262.62
516.801	251.62
517.016	265.62
517.232	246.62
517.448	253.62
517.664	267.62
517.879	259.62
518.095	253.62
518.311	244.62
518.527	229.62
518.742	246.62
518.958	241.62
519.173	252.62
519.389	247.62
519.605	235.62
519.82	227.62
520.036	230.62
520.251	261.62
520.467	281.62
520.682	239.62
520.898	251.62
521.113	257.62
521.329	225.62
521.544	245.62
521.76	233.62
521.975	235.62
522.19	237.62
522.406	243.62
522.621	275.62
522.836	307.62
523.052	338.62
523.267	281.62
523.482	251.62
523.698	250.62
523.913	226.62
524.128	232.62
524.343	232.62
524.559	239.62
524.774	218.62
524.989	230.62
525.204	220.62
525.419	219.62
525.634	231.62
525.849	229.62
526.064	226.62
526.28	225.62
526.495	211.62
526.71	236.62
526.925	214.62
527.14	201.62
527.355	223.62
527.57	224.62
527.785	229.62
527.999	218.62
528.214	206.62
528.429	217.62
528.644	201.62
528.859	207.62
529.074	218.62
529.289	222.62
529.503	227.62
529.718	233.62
529.933	229.62
530.148	219.62
530.363	222.62
530.577	244.62
530.792	217.62
531.007	234.62
531.221	217.62
531.436	227.62
531.651	224.62
531.865	225.62
532.08	215.62
532.295	244.62
532.509	229.62
532.724	248.62
532.938	278.62
533.153	247.62
533.367	253.62
533.582	235.62
533.796	227.62
534.011	227.62
534.225	236.62
534.44	229.62
534.654	242.62
534.868	235.62
535.083	258.62
535.297	259.62
535.511	240.62
535.726	248.62
535.94	248.62
536.154	266.62
536.369	259.62
536.583	270.62
536.797	297.62
537.011	327.62
537.225	390.62
537.44	471.62
537.654	443.62
537.868	406.62
538.082	360.62
538.296	343.62
538.51	303.62
538.724	321.62
538.938	318.62
539.153	297.62
539.367	275.62
539.581	271.62
539.795	266.62
540.009	250.62
540.222	247.62
540.436	243.62
540.65	229.62
540.864	242.62
541.078	253.62
541.292	234.62
541.506	229.62
541.72	229.62
541.934	225.62
542.147	227.62
542.361	242.62
542.575	229.62
542.789	229.62
543.002	216.62
543.216	237.62
543.43	216.62
543.644	222.62
543.857	230.62
544.071	229.62
544.285	210.62
544.498	223.62
544.712	226.62
544.925	229.62
545.139	235.62
545.352	215.62
545.566	222.62
545.779	213.62
545.993	212.62
546.206	229.62
546.42	234.62
546.633	214.62
546.847	229.62
547.06	213.62
547.274	217.62
547.487	231.62
547.7	217.62
547.914	225.62
548.127	227.62
548.34	215.62
548.554	215.62
548.767	217.62
548.98	221.62
549.193	221.62
549.407	227.62
549.62	238.62
549.833	223.62
550.046	221.62
550.259	230.62
550.473	225.62
550.686	205.62
550.899	227.62
551.112	229.62
551.325	210.62
551.538	226.62
551.751	219.62
551.964	215.62
552.177	229.62
552.39	233.62
552.603	241.62
552.816	235.62
553.029	242.62
553.242	249.62
553.455	227.62
553.667	249.62
553.88	245.62
554.093	255.62
554.306	270.62
554.519	296.62
554.732	295.62
554.944	313.62
555.157	304.62
555.37	293.62
555.583	269.62
555.795	267.62
556.008	259.62
556.221	254.62
556.433	257.62
556.646	285.62
556.859	272.62
557.071	266.62
557.284	251.62
557.496	246.62
557.709	273.62
557.921	274.62
558.134	274.62
558.346	295.62
558.559	274.62
558.771	280.62
558.984	312.62
559.196	309.62
559.409	320.62
559.621	340.62
559.833	365.62
560.046	397.62
560.258	456.62
560.47	570.62
560.683	707.62
560.895	927.62
561.107	1105.62
561.32	761.62
561.532	548.62
561.744	421.62
561.956	385.62
562.168	349.62
562.381	314.62
562.593	284.62
562.805	301.62
563.017	273.62
563.229	265.62
563.441	265.62
563.653	247.62
563.865	242.62
564.077	262.62
564.289	225.62
564.501	250.62
564.713	238.62
564.925	249.62
565.137	234.62
565.349	225.62
565.561	234.62
565.773	247.62
565.985	217.62
566.197	223.62
566.408	218.62
566.62	221.62
566.832	257.62
567.044	258.62
567.255	229.62
567.467	219.62
567.679	224.62
567.891	233.62
568.102	223.62
568.314	217.62
568.526	214.62
568.737	213.62
568.949	203.62
569.161	195.62
569.372	200.62
569.584	192.62
569.795	216.62
570.007	181.62
570.218	180.62
570.43	178.62
570.641	185.62
570.853	197.62
571.064	195.62
571.276	194.62
571.487	181.62
571.698	185.62
571.91	183.62
572.121	177.62
572.333	178.62
572.544	169.62
572.755	167.62
572.966	187.62
573.178	167.62
573.389	172.62
573.6	181.62
573.811	163.62
574.023	164.62
574.234	158.62
574.445	180.62
574.656	187.62
574.867	209.62
575.078	182.62
575.289	161.62
575.501	164.62
575.712	166.62
575.923	174.62
576.134	164.62
576.345	161.62
576.556	159.62
576.767	175.62
576.978	170.62
577.188	165.62
577.399	157.62
577.61	160.62
577.821	164.62
578.032	157.62
578.243	155.62
578.454	170.62
578.665	170.62
578.875	169.62
579.086	151.62
579.297	154.62
579.508	158.62
579.718	153.62
579.929	153.62
580.14	156.62
580.35	149.62
580.561	154.62
580.772	128.62
580.982	151.62
581.193	159.62
581.403	152.62
581.614	155.62
581.825	153.62
582.035	146.62
582.246	155.62
582.456	154.62
582.667	145.62
582.877	146.62
583.087	143.62
583.298	139.62
583.508	144.62
583.719	146.62
583.929	155.62
584.139	149.62
584.35	143.62
584.56	157.62
584.77	145.62
584.981	153.62
585.191	161.62
585.401	144.62
585.611	140.62
585.821	155.62
586.032	161.62
586.242	160.62
586.452	142.62
586.662	144.62
586.872	158.62
587.082	151.62
587.292	166.62
587.502	150.62
587.713	139.62
587.923	149.62
588.133	155.62
588.343	156.62
588.553	150.62
588.762	148.62
588.972	162.62
589.182	165.62
589.392	164.62
589.602	146.62
589.812	173.62
590.022	143.62
590.232	158.62
590.441	148.62
590.651	162.62
590.861	137.62
591.071	152.62
591.281	146.62
591.49	145.62
591.7	149.62
591.91	159.62
592.119	159.62
592.329	140.62
592.539	155.62
592.748	143.62
592.958	153.62
593.167	145.62
593.377	133.62
593.587	147.62
593.796	154.62
594.006	161.62
594.215	154.62
594.424	139.62
594.634	162.62
594.843	162.62
595.053	157.62
595.262	153.62
595.472	136.62
595.681	137.62
595.89	156.62
596.1	149.62
596.309	133.62
596.518	141.62
596.727	145.62
596.937	136.62
597.146	152.62
597.355	141.62
597.564	137.62
597.774	135.62
597.983	139.62
598.192	139.62
598.401	133.62
598.61	134.62
598.819	130.62
599.028	131.62
599.237	142.62
599.446	133.62
599.655	130.62
599.864	124.62
600.073	144.62
600.282	141.62
600.491	153.62
600.7	154.62
600.909	133.62
601.118	136.62
601.327	155.62
601.536	142.62
601.745	135.62
601.953	140.62
602.162	136.62
602.371	130.62
602.58	144.62
602.789	139.62
602.997	135.62
603.206	132.62
603.415	137.62
603.623	132.62
603.832	142.62
604.041	139.62
604.249	125.62
604.458	121.62
604.666	131.62
604.875	125.62
605.084	123.62
605.292	148.62
605.501	137.62
605.709	129.62
605.918	138.62
606.126	132.62
606.334	136.62
606.543	133.62
606.751	138.62
606.96	126.62
607.168	122.62
607.376	136.62
607.585	143.62
607.793	130.62
608.001	122.62
608.21	126.62
608.418	124.62
608.626	128.62
608.834	128.62
609.043	122.62
609.251	124.62
609.459	108.62
609.667	129.62
609.875	132.62
610.083	132.62
610.291	134.62
610.499	129.62
610.707	119.62
610.916	129.62
611.124	123.62
611.332	132.62
611.54	144.62
611.748	140.62
611.955	123.62
612.163	143.62
612.371	123.62
612.579	122.62
612.787	111.62
612.995	146.62
613.203	126.62
613.411	138.62
613.618	141.62
613.826	129.62
614.034	146.62
614.242	124.62
614.449	113.62
614.657	136.62
614.865	123.62
615.072	135.62
615.28	128.62
615.488	123.62
615.695	131.62
615.903	129.62
616.111	116.62
616.318	122.62
616.526	137.62
616.733	123.62
616.941	128.62
617.148	124.62
617.356	128.62
617.563	107.62
617.771	130.62
617.978	118.62
618.185	117.62
618.393	121.62
618.6	122.62
618.807	117.62
619.015	121.62
619.222	118.62
619.429	121.62
619.637	120.62
619.844	138.62
620.051	123.62
620.258	120.62
620.466	126.62
620.673	126.62
620.88	114.62
621.087	138.62
621.294	116.62
621.501	120.62
621.708	135.62
621.915	120.62
622.122	122.62
622.329	114.62
622.536	120.62
622.743	122.62
622.95	113.62
623.157	117.62
623.364	118.62
623.571	112.62
623.778	122.62
623.985	130.62
624.192	120.62
624.399	115.62
624.606	122.62
624.812	126.62
625.019	122.62
625.226	109.62
625.433	122.62
625.639	109.62
625.846	121.62
626.053	119.62
626.259	107.62
626.466	117.62
626.673	104.62
626.879	116.62
627.086	126.62
627.293	117.62
627.499	123.62
627.706	119.62
627.912	90.62
628.119	109.62
628.325	116.62
628.532	124.62
628.738	117.62
628.945	101.62
629.151	104.62
629.357	101.62
629.564	116.62
629.77	118.62
629.976	121.62
630.183	111.62
630.389	119.62
630.595	113.62
630.802	115.62
631.008	106.62
631.214	113.62
631.42	115.62
631.627	112.62
631.833	109.62
632.039	112.62
632.245	115.62
632.451	115.62
632.657	122.62
632.863	110.62
633.069	121.62
633.275	103.62
633.481	101.62
633.688	104.62
633.893	112.62
634.099	106.62
634.305	98.62
634.511	113.62
634.717	129.62
634.923	106.62
635.129	104.62
635.335	108.62
635.541	111.62
635.747	112.62
635.952	107.62
636.158	96.62
636.364	115.62
636.57	100.62
636.775	104.62
636.981	108.62
637.187	105.62
637.392	95.62
637.598	105.62
637.804	118.62
638.009	99.62
638.215	105.62
638.421	108.62
638.626	103.62
638.832	110.62
639.037	110.62
639.243	120.62
639.448	115.62
639.654	116.62
639.859	110.62
640.065	110.62
640.27	97.62
640.475	100.62
640.681	102.62
640.886	111.62
641.091	101.62
641.297	102.62
641.502	106.62
641.707	95.62
641.913	107.62
642.118	94.62
642.323	92.62
642.528	91.62
642.733	113.62
642.939	98.62
643.144	102.62
643.349	113.62
643.554	114.62
643.759	103.62
643.964	98.62
644.169	107.62
644.374	97.62
644.579	109.62
644.784	102.62
644.989	113.62
645.194	106.62
645.399	99.62
645.604	103.62
645.809	99.62
646.014	99.62
646.219	111.62
646.423	118.62
646.628	103.62
646.833	106.62
647.038	109.62
647.243	98.62
647.447	102.62
647.652	106.62
647.857	103.62
648.062	111.62
648.266	104.62
648.471	107.62
648.676	113.62
648.88	91.62
649.085	94.62
649.289	103.62
649.494	104.62
649.698	108.62
649.903	102.62
650.107	106.62
650.312	97.62
650.516	111.62
650.721	106.62
650.925	105.62
651.13	94.62
651.334	97.62
651.539	99.62
651.743	91.62
651.947	92.62
652.152	119.62
652.356	107.62
652.56	111.62
652.764	100.62
652.969	97.62
653.173	94.62
653.377	110.62
653.581	92.62
653.785	102.62
653.99	89.62
654.194	98.62
654.398	97.62
654.602	89.62
654.806	85.62
655.01	93.62
655.214	95.62
655.418	93.62
655.622	90.62
655.826	92.62
656.03	109.62
656.234	99.62
656.438	101.62
656.642	104.62
656.846	101.62
657.049	109.62
657.253	97.62
657.457	100.62
657.661	93.62
657.865	97.62
658.068	85.62
658.272	88.62
658.476	97.62
658.68	93.62
658.883	83.62
659.087	84.62
659.291	92.62
659.494	102.62
659.698	82.62
659.901	90.62
660.105	88.62
660.309	96.62
660.512	84.62
660.716	75.62
660.919	78.62
661.123	93.62
661.326	87.62
661.53	83.62
661.733	78.62
661.936	103.62
662.14	73.62
662.343	83.62
662.546	74.62
662.75	86.62
662.953	74.62
663.156	69.62
663.36	89.62
663.563	74.62
663.766	86.62
663.969	71.62
664.173	70.62
664.376	83.62
664.579	82.62
664.782	73.62
664.985	69.62
665.188	75.62
665.391	83.62
665.594	86.62
665.797	68.62
666	78.62
666.203	83.62
666.406	73.62
666.609	72.62
666.812	79.62
667.015	67.62
667.218	79.62
667.421	86.62
667.624	72.62
667.827	89.62
668.03	88.62
668.232	85.62
668.435	80.62
668.638	89.62
668.841	88.62
669.043	74.62
669.246	83.62
669.449	87.62
669.651	87.62
669.854	77.62
670.057	66.62
670.259	62.62
670.462	65.62
670.665	88.62
670.867	93.62
671.07	90.62
671.272	86.62
671.475	84.62
671.677	74.62
671.88	89.62
672.082	87.62
672.284	69.62
672.487	76.62
672.689	82.62
672.892	87.62
