Data from StdB_HRD10591_083.txt Node
Date: Fri May 16 15:25:27 EDT 2025
User: Yrep
Spectrometer: HR+D1059
Trigger mode: 1
Integration Time (sec): 1.000000E-1
Scans to average: 1
Electric dark correction enabled: true
Nonlinearity correction enabled: false
Boxcar width: 0
XAxis mode: Wavelengths
Number of Pixels in Spectrum: 2048
>>>>>Begin Spectral Data<<<<<
223.165	-8.12
223.4	-8.12
223.635	-8.12
223.869	-17.12
224.104	-16.12
224.338	-10.12
224.573	-24.12
224.808	-17.12
225.042	-0.12
225.277	-11.12
225.511	-14.12
225.746	8.88
225.98	9.88
226.215	6.88
226.449	-1.12
226.683	18.88
226.918	25.88
227.152	48.88
227.387	40.88
227.621	45.88
227.856	54.88
228.09	31.88
228.324	34.88
228.559	69.88
228.793	66.88
229.027	60.88
229.262	73.88
229.496	64.88
229.73	77.88
229.964	80.88
230.199	72.88
230.433	82.88
230.667	79.88
230.901	69.88
231.136	80.88
231.37	71.88
231.604	77.88
231.838	79.88
232.072	79.88
232.306	91.88
232.541	78.88
232.775	74.88
233.009	87.88
233.243	70.88
233.477	80.88
233.711	98.88
233.945	88.88
234.179	64.88
234.413	76.88
234.647	73.88
234.881	92.88
235.115	69.88
235.349	83.88
235.583	81.88
235.817	80.88
236.051	71.88
236.285	80.88
236.519	75.88
236.753	76.88
236.987	67.88
237.221	84.88
237.455	80.88
237.689	74.88
237.922	90.88
238.156	85.88
238.39	88.88
238.624	74.88
238.858	78.88
239.091	74.88
239.325	82.88
239.559	82.88
239.793	88.88
240.027	77.88
240.26	72.88
240.494	78.88
240.728	74.88
240.961	65.88
241.195	65.88
241.429	65.88
241.662	66.88
241.896	60.88
242.13	71.88
242.363	79.88
242.597	87.88
242.83	82.88
243.064	84.88
243.298	74.88
243.531	78.88
243.765	72.88
243.998	83.88
244.232	70.88
244.465	79.88
244.699	75.88
244.932	72.88
245.166	70.88
245.399	78.88
245.633	77.88
245.866	78.88
246.099	63.88
246.333	64.88
246.566	78.88
246.8	73.88
247.033	80.88
247.266	79.88
247.5	83.88
247.733	66.88
247.966	68.88
248.2	82.88
248.433	83.88
248.666	81.88
248.899	94.88
249.133	75.88
249.366	84.88
249.599	88.88
249.832	80.88
250.066	79.88
250.299	81.88
250.532	84.88
250.765	97.88
250.998	80.88
251.231	85.88
251.465	80.88
251.698	86.88
251.931	87.88
252.164	79.88
252.397	82.88
252.63	78.88
252.863	81.88
253.096	77.88
253.329	90.88
253.562	92.88
253.795	90.88
254.028	68.88
254.261	86.88
254.494	76.88
254.727	75.88
254.96	81.88
255.193	95.88
255.426	89.88
255.659	73.88
255.892	76.88
256.124	71.88
256.357	85.88
256.59	72.88
256.823	78.88
257.056	92.88
257.289	83.88
257.521	77.88
257.754	90.88
257.987	70.88
258.22	82.88
258.452	78.88
258.685	91.88
258.918	72.88
259.151	76.88
259.383	85.88
259.616	77.88
259.849	90.88
260.081	83.88
260.314	73.88
260.547	78.88
260.779	87.88
261.012	76.88
261.244	92.88
261.477	102.88
261.71	91.88
261.942	91.88
262.175	94.88
262.407	84.88
262.64	76.88
262.872	84.88
263.105	87.88
263.337	74.88
263.57	90.88
263.802	88.88
264.035	87.88
264.267	68.88
264.499	90.88
264.732	78.88
264.964	86.88
265.197	89.88
265.429	80.88
265.661	95.88
265.894	81.88
266.126	82.88
266.358	79.88
266.591	86.88
266.823	92.88
267.055	84.88
267.287	73.88
267.52	81.88
267.752	96.88
267.984	69.88
268.216	75.88
268.448	86.88
268.681	81.88
268.913	73.88
269.145	84.88
269.377	81.88
269.609	90.88
269.841	92.88
270.073	88.88
270.306	87.88
270.538	78.88
270.77	74.88
271.002	89.88
271.234	85.88
271.466	95.88
271.698	79.88
271.93	81.88
272.162	64.88
272.394	96.88
272.626	85.88
272.858	78.88
273.09	73.88
273.322	86.88
273.553	72.88
273.785	72.88
274.017	76.88
274.249	86.88
274.481	89.88
274.713	86.88
274.945	93.88
275.176	87.88
275.408	82.88
275.64	79.88
275.872	56.88
276.104	89.88
276.335	85.88
276.567	76.88
276.799	87.88
277.031	77.88
277.262	84.88
277.494	85.88
277.726	77.88
277.957	74.88
278.189	92.88
278.421	90.88
278.652	92.88
278.884	64.88
279.115	65.88
279.347	93.88
279.579	107.88
279.81	91.88
280.042	101.88
280.273	106.88
280.505	100.88
280.736	86.88
280.968	98.88
281.199	89.88
281.431	92.88
281.662	101.88
281.894	91.88
282.125	90.88
282.356	86.88
282.588	96.88
282.819	84.88
283.051	108.88
283.282	98.88
283.513	112.88
283.745	88.88
283.976	86.88
284.207	88.88
284.439	77.88
284.67	90.88
284.901	86.88
285.132	73.88
285.364	79.88
285.595	71.88
285.826	90.88
286.057	89.88
286.288	77.88
286.52	85.88
286.751	74.88
286.982	91.88
287.213	92.88
287.444	102.88
287.675	88.88
287.906	90.88
288.138	77.88
288.369	66.88
288.6	81.88
288.831	78.88
289.062	87.88
289.293	86.88
289.524	75.88
289.755	74.88
289.986	95.88
290.217	91.88
290.448	72.88
290.679	98.88
290.91	89.88
291.141	81.88
291.371	71.88
291.602	81.88
291.833	73.88
292.064	79.88
292.295	74.88
292.526	76.88
292.757	83.88
292.987	81.88
293.218	82.88
293.449	93.88
293.68	81.88
293.91	85.88
294.141	89.88
294.372	82.88
294.603	80.88
294.833	89.88
295.064	90.88
295.295	82.88
295.525	89.88
295.756	89.88
295.987	79.88
296.217	80.88
296.448	93.88
296.679	86.88
296.909	87.88
297.14	88.88
297.37	67.88
297.601	88.88
297.831	77.88
298.062	83.88
298.292	104.88
298.523	90.88
298.753	96.88
298.984	82.88
299.214	66.88
299.445	83.88
299.675	81.88
299.905	89.88
300.136	76.88
300.366	80.88
300.597	89.88
300.827	89.88
301.057	79.88
301.288	79.88
301.518	86.88
301.748	89.88
301.979	93.88
302.209	99.88
302.439	77.88
302.669	89.88
302.9	84.88
303.13	75.88
303.36	92.88
303.59	80.88
303.82	101.88
304.051	87.88
304.281	78.88
304.511	86.88
304.741	88.88
304.971	87.88
305.201	91.88
305.431	90.88
305.661	86.88
305.891	88.88
306.121	79.88
306.352	90.88
306.582	85.88
306.812	92.88
307.042	74.88
307.272	84.88
307.502	79.88
307.731	66.88
307.961	66.88
308.191	84.88
308.421	72.88
308.651	82.88
308.881	88.88
309.111	78.88
309.341	73.88
309.571	87.88
309.8	83.88
310.03	89.88
310.26	81.88
310.49	77.88
310.72	101.88
310.949	94.88
311.179	84.88
311.409	86.88
311.639	71.88
311.868	72.88
312.098	72.88
312.328	88.88
312.557	92.88
312.787	102.88
313.017	99.88
313.246	86.88
313.476	90.88
313.706	88.88
313.935	86.88
314.165	83.88
314.394	66.88
314.624	90.88
314.853	79.88
315.083	90.88
315.312	92.88
315.542	87.88
315.771	88.88
316.001	82.88
316.23	82.88
316.46	76.88
316.689	88.88
316.919	84.88
317.148	83.88
317.377	98.88
317.607	90.88
317.836	86.88
318.065	85.88
318.295	84.88
318.524	82.88
318.753	90.88
318.983	72.88
319.212	81.88
319.441	88.88
319.67	82.88
319.9	87.88
320.129	85.88
320.358	83.88
320.587	88.88
320.816	91.88
321.046	81.88
321.275	93.88
321.504	73.88
321.733	88.88
321.962	94.88
322.191	80.88
322.42	100.88
322.649	94.88
322.878	88.88
323.108	83.88
323.337	78.88
323.566	85.88
323.795	82.88
324.024	87.88
324.253	78.88
324.482	93.88
324.71	88.88
324.939	83.88
325.168	80.88
325.397	93.88
325.626	70.88
325.855	82.88
326.084	89.88
326.313	102.88
326.542	100.88
326.77	82.88
326.999	82.88
327.228	82.88
327.457	85.88
327.686	97.88
327.914	77.88
328.143	73.88
328.372	91.88
328.6	70.88
328.829	79.88
329.058	78.88
329.287	87.88
329.515	88.88
329.744	72.88
329.972	73.88
330.201	94.88
330.43	69.88
330.658	80.88
330.887	76.88
331.115	96.88
331.344	76.88
331.572	76.88
331.801	91.88
332.03	88.88
332.258	82.88
332.486	89.88
332.715	82.88
332.943	86.88
333.172	96.88
333.4	91.88
333.629	85.88
333.857	95.88
334.085	78.88
334.314	80.88
334.542	86.88
334.771	88.88
334.999	102.88
335.227	93.88
335.455	78.88
335.684	84.88
335.912	88.88
336.14	95.88
336.369	95.88
336.597	82.88
336.825	97.88
337.053	79.88
337.281	93.88
337.51	89.88
337.738	81.88
337.966	75.88
338.194	76.88
338.422	86.88
338.65	79.88
338.878	89.88
339.106	84.88
339.334	89.88
339.562	80.88
339.79	74.88
340.018	84.88
340.246	81.88
340.474	76.88
340.702	76.88
340.93	86.88
341.158	83.88
341.386	82.88
341.614	86.88
341.842	90.88
342.07	89.88
342.298	68.88
342.526	76.88
342.754	88.88
342.981	86.88
343.209	61.88
343.437	83.88
343.665	67.88
343.893	90.88
344.12	97.88
344.348	90.88
344.576	78.88
344.804	81.88
345.031	74.88
345.259	98.88
345.487	81.88
345.714	86.88
345.942	79.88
346.17	89.88
346.397	82.88
346.625	81.88
346.853	74.88
347.08	94.88
347.308	82.88
347.535	84.88
347.763	86.88
347.99	94.88
348.218	85.88
348.445	77.88
348.673	102.88
348.9	90.88
349.128	78.88
349.355	84.88
349.583	89.88
349.81	95.88
350.037	103.88
350.265	80.88
350.492	67.88
350.72	83.88
350.947	100.88
351.174	85.88
351.402	80.88
351.629	87.88
351.856	98.88
352.083	79.88
352.311	84.88
352.538	73.88
352.765	84.88
352.992	87.88
353.22	81.88
353.447	79.88
353.674	93.88
353.901	74.88
354.128	98.88
354.355	92.88
354.583	91.88
354.81	91.88
355.037	84.88
355.264	86.88
355.491	75.88
355.718	74.88
355.945	89.88
356.172	80.88
356.399	90.88
356.626	100.88
356.853	108.88
357.08	113.88
357.307	137.88
357.534	119.88
357.761	104.88
357.988	78.88
358.215	84.88
358.441	85.88
358.668	68.88
358.895	81.88
359.122	87.88
359.349	76.88
359.576	75.88
359.802	91.88
360.029	80.88
360.256	76.88
360.483	88.88
360.709	70.88
360.936	94.88
361.163	89.88
361.39	88.88
361.616	98.88
361.843	84.88
362.07	96.88
362.296	83.88
362.523	78.88
362.749	88.88
362.976	66.88
363.203	96.88
363.429	88.88
363.656	111.88
363.882	151.88
364.109	181.88
364.335	119.88
364.562	87.88
364.788	95.88
365.015	91.88
365.241	72.88
365.468	89.88
365.694	62.88
365.92	89.88
366.147	72.88
366.373	86.88
366.599	93.88
366.826	103.88
367.052	110.88
367.278	124.88
367.505	108.88
367.731	95.88
367.957	135.88
368.184	183.88
368.41	222.88
368.636	170.88
368.862	109.88
369.089	105.88
369.315	85.88
369.541	85.88
369.767	80.88
369.993	78.88
370.219	78.88
370.445	96.88
370.672	82.88
370.898	82.88
371.124	78.88
371.35	80.88
371.576	81.88
371.802	90.88
372.028	82.88
372.254	79.88
372.48	86.88
372.706	82.88
372.932	77.88
373.158	99.88
373.384	80.88
373.61	86.88
373.835	127.88
374.061	132.88
374.287	115.88
374.513	92.88
374.739	93.88
374.965	80.88
375.191	91.88
375.416	89.88
375.642	96.88
375.868	86.88
376.094	79.88
376.319	99.88
376.545	84.88
376.771	79.88
376.997	76.88
377.222	82.88
377.448	85.88
377.674	79.88
377.899	86.88
378.125	84.88
378.35	85.88
378.576	83.88
378.802	72.88
379.027	82.88
379.253	78.88
379.478	87.88
379.704	95.88
379.929	100.88
380.155	85.88
380.38	82.88
380.606	84.88
380.831	97.88
381.057	89.88
381.282	86.88
381.507	90.88
381.733	86.88
381.958	85.88
382.184	91.88
382.409	62.88
382.634	71.88
382.86	100.88
383.085	79.88
383.31	88.88
383.535	104.88
383.761	95.88
383.986	89.88
384.211	74.88
384.436	98.88
384.662	79.88
384.887	82.88
385.112	81.88
385.337	92.88
385.562	88.88
385.787	79.88
386.013	77.88
386.238	84.88
386.463	98.88
386.688	98.88
386.913	90.88
387.138	86.88
387.363	86.88
387.588	79.88
387.813	76.88
388.038	76.88
388.263	78.88
388.488	89.88
388.713	81.88
388.938	77.88
389.163	69.88
389.387	95.88
389.612	79.88
389.837	86.88
390.062	91.88
390.287	85.88
390.512	83.88
390.736	85.88
390.961	91.88
391.186	73.88
391.411	72.88
391.636	76.88
391.86	86.88
392.085	90.88
392.31	88.88
392.534	78.88
392.759	70.88
392.984	90.88
393.208	80.88
393.433	72.88
393.658	87.88
393.882	85.88
394.107	87.88
394.331	94.88
394.556	63.88
394.78	88.88
395.005	81.88
395.229	87.88
395.454	72.88
395.678	74.88
395.903	79.88
396.127	88.88
396.352	79.88
396.576	91.88
396.801	61.88
397.025	83.88
397.249	96.88
397.474	92.88
397.698	91.88
397.922	81.88
398.147	84.88
398.371	85.88
398.595	84.88
398.82	67.88
399.044	76.88
399.268	75.88
399.492	90.88
399.717	77.88
399.941	71.88
400.165	84.88
400.389	91.88
400.613	73.88
400.837	62.88
401.062	84.88
401.286	90.88
401.51	78.88
401.734	92.88
401.958	108.88
402.182	106.88
402.406	73.88
402.63	83.88
402.854	82.88
403.078	70.88
403.302	77.88
403.526	96.88
403.75	65.88
403.974	93.88
404.198	81.88
404.422	83.88
404.645	81.88
404.869	88.88
405.093	94.88
405.317	118.88
405.541	184.88
405.765	326.88
405.988	317.88
406.212	178.88
406.436	136.88
406.66	87.88
406.883	83.88
407.107	89.88
407.331	79.88
407.555	87.88
407.778	69.88
408.002	85.88
408.226	88.88
408.449	77.88
408.673	88.88
408.896	75.88
409.12	76.88
409.344	87.88
409.567	97.88
409.791	83.88
410.014	85.88
410.238	83.88
410.461	72.88
410.685	91.88
410.908	78.88
411.132	87.88
411.355	90.88
411.578	88.88
411.802	80.88
412.025	75.88
412.249	94.88
412.472	80.88
412.695	78.88
412.919	87.88
413.142	82.88
413.365	97.88
413.589	87.88
413.812	82.88
414.035	85.88
414.258	82.88
414.482	97.88
414.705	84.88
414.928	76.88
415.151	80.88
415.374	84.88
415.597	82.88
415.821	82.88
416.044	81.88
416.267	96.88
416.49	67.88
416.713	91.88
416.936	103.88
417.159	94.88
417.382	72.88
417.605	99.88
417.828	114.88
418.051	78.88
418.274	82.88
418.497	86.88
418.72	82.88
418.943	68.88
419.166	101.88
419.389	100.88
419.611	74.88
419.834	67.88
420.057	89.88
420.28	88.88
420.503	93.88
420.726	86.88
420.948	78.88
421.171	82.88
421.394	89.88
421.617	86.88
421.839	89.88
422.062	80.88
422.285	74.88
422.507	67.88
422.73	83.88
422.953	77.88
423.175	85.88
423.398	86.88
423.621	80.88
423.843	86.88
424.066	75.88
424.288	87.88
424.511	86.88
424.733	66.88
424.956	81.88
425.178	87.88
425.401	78.88
425.623	66.88
425.846	89.88
426.068	85.88
426.291	92.88
426.513	86.88
426.735	87.88
426.958	64.88
427.18	89.88
427.402	80.88
427.625	91.88
427.847	80.88
428.069	81.88
428.292	95.88
428.514	88.88
428.736	81.88
428.958	78.88
429.181	90.88
429.403	74.88
429.625	86.88
429.847	82.88
430.069	71.88
430.292	76.88
430.514	76.88
430.736	78.88
430.958	72.88
431.18	80.88
431.402	82.88
431.624	78.88
431.846	82.88
432.068	76.88
432.29	84.88
432.512	86.88
432.734	81.88
432.956	73.88
433.178	74.88
433.4	80.88
433.622	80.88
433.844	90.88
434.066	86.88
434.287	77.88
434.509	83.88
434.731	96.88
434.953	86.88
435.175	91.88
435.397	80.88
435.618	82.88
435.84	82.88
436.062	85.88
436.284	89.88
436.505	76.88
436.727	75.88
436.949	100.88
437.17	92.88
437.392	84.88
437.614	80.88
437.835	76.88
438.057	81.88
438.278	71.88
438.5	86.88
438.721	67.88
438.943	73.88
439.165	95.88
439.386	88.88
439.608	78.88
439.829	97.88
440.05	96.88
440.272	81.88
440.493	93.88
440.715	72.88
440.936	89.88
441.158	83.88
441.379	77.88
441.6	67.88
441.822	88.88
442.043	91.88
442.264	80.88
442.486	64.88
442.707	88.88
442.928	88.88
443.149	93.88
443.371	89.88
443.592	81.88
443.813	88.88
444.034	68.88
444.255	92.88
444.476	81.88
444.698	81.88
444.919	89.88
445.14	156.88
445.361	119.88
445.582	82.88
445.803	78.88
446.024	76.88
446.245	83.88
446.466	81.88
446.687	88.88
446.908	79.88
447.129	73.88
447.35	80.88
447.571	76.88
447.792	80.88
448.013	79.88
448.234	71.88
448.455	82.88
448.675	71.88
448.896	93.88
449.117	90.88
449.338	80.88
449.559	80.88
449.779	89.88
450	86.88
450.221	81.88
450.442	72.88
450.662	72.88
450.883	76.88
451.104	97.88
451.324	79.88
451.545	88.88
451.766	80.88
451.986	81.88
452.207	86.88
452.428	85.88
452.648	79.88
452.869	64.88
453.089	79.88
453.31	82.88
453.53	91.88
453.751	99.88
453.971	88.88
454.192	84.88
454.412	80.88
454.633	80.88
454.853	97.88
455.073	85.88
455.294	88.88
455.514	66.88
455.734	76.88
455.955	64.88
456.175	82.88
456.395	82.88
456.616	88.88
456.836	91.88
457.056	71.88
457.276	70.88
457.497	77.88
457.717	90.88
457.937	74.88
458.157	70.88
458.377	78.88
458.598	77.88
458.818	79.88
459.038	78.88
459.258	73.88
459.478	84.88
459.698	80.88
459.918	69.88
460.138	85.88
460.358	78.88
460.578	92.88
460.798	82.88
461.018	77.88
461.238	73.88
461.458	81.88
461.678	75.88
461.898	72.88
462.118	87.88
462.338	78.88
462.558	82.88
462.777	77.88
462.997	85.88
463.217	81.88
463.437	87.88
463.657	91.88
463.876	82.88
464.096	68.88
464.316	81.88
464.536	74.88
464.755	81.88
464.975	74.88
465.195	91.88
465.414	89.88
465.634	91.88
465.854	89.88
466.073	93.88
466.293	85.88
466.512	76.88
466.732	81.88
466.951	72.88
467.171	87.88
467.391	85.88
467.61	79.88
467.829	67.88
468.049	84.88
468.268	104.88
468.488	76.88
468.707	85.88
468.927	87.88
469.146	86.88
469.365	85.88
469.585	81.88
469.804	80.88
470.023	76.88
470.243	84.88
470.462	91.88
470.681	67.88
470.901	77.88
471.12	89.88
471.339	80.88
471.558	71.88
471.777	86.88
471.997	80.88
472.216	85.88
472.435	89.88
472.654	90.88
472.873	89.88
473.092	89.88
473.311	93.88
473.53	87.88
473.749	80.88
473.968	84.88
474.187	84.88
474.406	84.88
474.625	100.88
474.844	82.88
475.063	72.88
475.282	80.88
475.501	80.88
475.72	66.88
475.939	87.88
476.158	77.88
476.377	86.88
476.596	86.88
476.814	87.88
477.033	84.88
477.252	75.88
477.471	76.88
477.69	74.88
477.908	81.88
478.127	73.88
478.346	102.88
478.564	82.88
478.783	81.88
479.002	92.88
479.22	84.88
479.439	101.88
479.658	73.88
479.876	85.88
480.095	89.88
480.313	93.88
480.532	85.88
480.751	82.88
480.969	76.88
481.188	87.88
481.406	84.88
481.624	82.88
481.843	92.88
482.061	86.88
482.28	90.88
482.498	80.88
482.717	74.88
482.935	91.88
483.153	78.88
483.372	87.88
483.59	70.88
483.808	89.88
484.027	92.88
484.245	90.88
484.463	88.88
484.681	74.88
484.9	84.88
485.118	65.88
485.336	76.88
485.554	77.88
485.772	85.88
485.99	77.88
486.209	74.88
486.427	73.88
486.645	82.88
486.863	80.88
487.081	77.88
487.299	91.88
487.517	73.88
487.735	89.88
487.953	93.88
488.171	87.88
488.389	76.88
488.607	74.88
488.825	74.88
489.043	93.88
489.261	93.88
489.479	85.88
489.696	89.88
489.914	85.88
490.132	89.88
490.35	87.88
490.568	82.88
490.786	95.88
491.003	85.88
491.221	83.88
491.439	79.88
491.657	86.88
491.874	78.88
492.092	89.88
492.31	81.88
492.527	96.88
492.745	92.88
492.963	78.88
493.18	84.88
493.398	82.88
493.615	91.88
493.833	83.88
494.05	89.88
494.268	84.88
494.485	100.88
494.703	101.88
494.92	72.88
495.138	89.88
495.355	94.88
495.573	93.88
495.79	89.88
496.008	86.88
496.225	90.88
496.442	104.88
496.66	85.88
496.877	79.88
497.094	92.88
497.312	75.88
497.529	86.88
497.746	79.88
497.963	76.88
498.181	87.88
498.398	85.88
498.615	89.88
498.832	94.88
499.049	96.88
499.267	84.88
499.484	86.88
499.701	85.88
499.918	92.88
500.135	88.88
500.352	84.88
500.569	117.88
500.786	122.88
501.003	105.88
501.22	102.88
501.437	99.88
501.654	81.88
501.871	78.88
502.088	86.88
502.305	72.88
502.522	73.88
502.739	92.88
502.956	85.88
503.172	86.88
503.389	91.88
503.606	86.88
503.823	89.88
504.04	89.88
504.256	88.88
504.473	88.88
504.69	89.88
504.907	81.88
505.123	86.88
505.34	96.88
505.557	76.88
505.773	86.88
505.99	87.88
506.207	90.88
506.423	85.88
506.64	83.88
506.856	90.88
507.073	90.88
507.289	85.88
507.506	82.88
507.722	79.88
507.939	80.88
508.155	87.88
508.372	91.88
508.588	82.88
508.805	88.88
509.021	86.88
509.238	74.88
509.454	86.88
509.67	84.88
509.887	69.88
510.103	85.88
510.319	85.88
510.536	89.88
510.752	77.88
510.968	70.88
511.184	87.88
511.401	78.88
511.617	86.88
511.833	83.88
512.049	77.88
512.265	90.88
512.481	87.88
512.698	88.88
512.914	89.88
513.13	82.88
513.346	87.88
513.562	102.88
513.778	85.88
513.994	81.88
514.21	90.88
514.426	98.88
514.642	95.88
514.858	91.88
515.074	82.88
515.29	95.88
515.506	88.88
515.721	84.88
515.937	79.88
516.153	98.88
516.369	81.88
516.585	76.88
516.801	80.88
517.016	89.88
517.232	94.88
517.448	94.88
517.664	89.88
517.879	90.88
518.095	94.88
518.311	81.88
518.527	88.88
518.742	86.88
518.958	82.88
519.173	89.88
519.389	72.88
519.605	80.88
519.82	69.88
520.036	106.88
520.251	91.88
520.467	104.88
520.682	85.88
520.898	86.88
521.113	94.88
521.329	81.88
521.544	87.88
521.76	86.88
521.975	82.88
522.19	86.88
522.406	79.88
522.621	98.88
522.836	87.88
523.052	100.88
523.267	92.88
523.482	87.88
523.698	86.88
523.913	81.88
524.128	78.88
524.343	84.88
524.559	74.88
524.774	76.88
524.989	88.88
525.204	81.88
525.419	90.88
525.634	88.88
525.849	94.88
526.064	77.88
526.28	81.88
526.495	78.88
526.71	96.88
526.925	97.88
527.14	85.88
527.355	94.88
527.57	85.88
527.785	63.88
527.999	93.88
528.214	84.88
528.429	96.88
528.644	91.88
528.859	82.88
529.074	90.88
529.289	82.88
529.503	88.88
529.718	73.88
529.933	88.88
530.148	89.88
530.363	93.88
530.577	83.88
530.792	92.88
531.007	77.88
531.221	92.88
531.436	67.88
531.651	88.88
531.865	82.88
532.08	89.88
532.295	90.88
532.509	90.88
532.724	81.88
532.938	87.88
533.153	82.88
533.367	92.88
533.582	83.88
533.796	89.88
534.011	87.88
534.225	79.88
534.44	77.88
534.654	71.88
534.868	90.88
535.083	81.88
535.297	87.88
535.511	89.88
535.726	73.88
535.94	69.88
536.154	78.88
536.369	70.88
536.583	84.88
536.797	89.88
537.011	84.88
537.225	88.88
537.44	78.88
537.654	84.88
537.868	81.88
538.082	90.88
538.296	84.88
538.51	91.88
538.724	87.88
538.938	86.88
539.153	100.88
539.367	81.88
539.581	62.88
539.795	78.88
540.009	96.88
540.222	88.88
540.436	88.88
540.65	93.88
540.864	110.88
541.078	92.88
541.292	85.88
541.506	84.88
541.72	90.88
541.934	80.88
542.147	72.88
542.361	81.88
542.575	84.88
542.789	88.88
543.002	75.88
543.216	96.88
543.43	84.88
543.644	96.88
543.857	85.88
544.071	78.88
544.285	95.88
544.498	84.88
544.712	88.88
544.925	93.88
545.139	83.88
545.352	92.88
545.566	90.88
545.779	89.88
545.993	88.88
546.206	86.88
546.42	83.88
546.633	95.88
546.847	85.88
547.06	83.88
547.274	83.88
547.487	93.88
547.7	74.88
547.914	96.88
548.127	82.88
548.34	106.88
548.554	78.88
548.767	97.88
548.98	93.88
549.193	89.88
549.407	88.88
549.62	94.88
549.833	95.88
550.046	86.88
550.259	81.88
550.473	98.88
550.686	79.88
550.899	87.88
551.112	76.88
551.325	90.88
551.538	82.88
551.751	82.88
551.964	86.88
552.177	94.88
552.39	89.88
552.603	97.88
552.816	80.88
553.029	87.88
553.242	87.88
553.455	92.88
553.667	93.88
553.88	83.88
554.093	84.88
554.306	90.88
554.519	96.88
554.732	88.88
554.944	86.88
555.157	83.88
555.37	75.88
555.583	82.88
555.795	85.88
556.008	84.88
556.221	80.88
556.433	102.88
556.646	88.88
556.859	88.88
557.071	79.88
557.284	95.88
557.496	80.88
557.709	96.88
557.921	92.88
558.134	95.88
558.346	87.88
558.559	78.88
558.771	81.88
558.984	88.88
559.196	81.88
559.409	96.88
559.621	86.88
559.833	94.88
560.046	94.88
560.258	107.88
560.47	89.88
560.683	90.88
560.895	87.88
561.107	102.88
561.32	89.88
561.532	84.88
561.744	92.88
561.956	82.88
562.168	87.88
562.381	80.88
562.593	82.88
562.805	93.88
563.017	86.88
563.229	75.88
563.441	96.88
563.653	93.88
563.865	80.88
564.077	93.88
564.289	84.88
564.501	76.88
564.713	93.88
564.925	89.88
565.137	79.88
565.349	95.88
565.561	87.88
565.773	93.88
565.985	78.88
566.197	81.88
566.408	87.88
566.62	88.88
566.832	93.88
567.044	96.88
567.255	70.88
567.467	84.88
567.679	75.88
567.891	82.88
568.102	87.88
568.314	73.88
568.526	90.88
568.737	87.88
568.949	86.88
569.161	77.88
569.372	75.88
569.584	78.88
569.795	86.88
570.007	64.88
570.218	83.88
570.43	88.88
570.641	89.88
570.853	84.88
571.064	85.88
571.276	100.88
571.487	79.88
571.698	75.88
571.91	86.88
572.121	85.88
572.333	88.88
572.544	82.88
572.755	83.88
572.966	76.88
573.178	91.88
573.389	94.88
573.6	78.88
573.811	84.88
574.023	89.88
574.234	89.88
574.445	87.88
574.656	72.88
574.867	85.88
575.078	87.88
575.289	88.88
575.501	75.88
575.712	86.88
575.923	93.88
576.134	84.88
576.345	108.88
576.556	93.88
576.767	88.88
576.978	93.88
577.188	88.88
577.399	84.88
577.61	80.88
577.821	97.88
578.032	83.88
578.243	89.88
578.454	98.88
578.665	80.88
578.875	91.88
579.086	91.88
579.297	69.88
579.508	85.88
579.718	85.88
579.929	79.88
580.14	97.88
580.35	83.88
580.561	78.88
580.772	90.88
580.982	88.88
581.193	70.88
581.403	86.88
581.614	87.88
581.825	80.88
582.035	84.88
582.246	84.88
582.456	96.88
582.667	94.88
582.877	82.88
583.087	82.88
583.298	71.88
583.508	84.88
583.719	88.88
583.929	90.88
584.139	82.88
584.35	94.88
584.56	83.88
584.77	97.88
584.981	78.88
585.191	79.88
585.401	94.88
585.611	88.88
585.821	78.88
586.032	89.88
586.242	86.88
586.452	88.88
586.662	98.88
586.872	77.88
587.082	80.88
587.292	65.88
587.502	80.88
587.713	78.88
587.923	85.88
588.133	79.88
588.343	84.88
588.553	83.88
588.762	95.88
588.972	85.88
589.182	93.88
589.392	93.88
589.602	85.88
589.812	83.88
590.022	81.88
590.232	82.88
590.441	73.88
590.651	101.88
590.861	88.88
591.071	83.88
591.281	92.88
591.49	97.88
591.7	93.88
591.91	84.88
592.119	82.88
592.329	94.88
592.539	84.88
592.748	84.88
592.958	85.88
593.167	98.88
593.377	81.88
593.587	103.88
593.796	87.88
594.006	65.88
594.215	86.88
594.424	86.88
594.634	85.88
594.843	90.88
595.053	82.88
595.262	94.88
595.472	77.88
595.681	74.88
595.89	84.88
596.1	77.88
596.309	91.88
596.518	79.88
596.727	86.88
596.937	88.88
597.146	81.88
597.355	86.88
597.564	79.88
597.774	88.88
597.983	94.88
598.192	89.88
598.401	89.88
598.61	91.88
598.819	94.88
599.028	90.88
599.237	77.88
599.446	78.88
599.655	79.88
599.864	91.88
600.073	89.88
600.282	92.88
600.491	84.88
600.7	83.88
600.909	92.88
601.118	76.88
601.327	97.88
601.536	81.88
601.745	102.88
601.953	95.88
602.162	90.88
602.371	98.88
602.58	96.88
602.789	107.88
602.997	85.88
603.206	88.88
603.415	100.88
603.623	89.88
603.832	100.88
604.041	90.88
604.249	90.88
604.458	81.88
604.666	87.88
604.875	76.88
605.084	86.88
605.292	82.88
605.501	93.88
605.709	82.88
605.918	91.88
606.126	104.88
606.334	87.88
606.543	87.88
606.751	98.88
606.96	87.88
607.168	71.88
607.376	93.88
607.585	82.88
607.793	78.88
608.001	98.88
608.21	94.88
608.418	78.88
608.626	71.88
608.834	80.88
609.043	89.88
609.251	97.88
609.459	66.88
609.667	92.88
609.875	82.88
610.083	99.88
610.291	94.88
610.499	92.88
610.707	70.88
610.916	86.88
611.124	89.88
611.332	85.88
611.54	91.88
611.748	73.88
611.955	83.88
612.163	84.88
612.371	89.88
612.579	75.88
612.787	91.88
612.995	95.88
613.203	101.88
613.411	100.88
613.618	87.88
613.826	100.88
614.034	84.88
614.242	90.88
614.449	97.88
614.657	76.88
614.865	92.88
615.072	75.88
615.28	66.88
615.488	91.88
615.695	88.88
615.903	96.88
616.111	81.88
616.318	97.88
616.526	82.88
616.733	101.88
616.941	82.88
617.148	75.88
617.356	69.88
617.563	82.88
617.771	79.88
617.978	92.88
618.185	89.88
618.393	81.88
618.6	83.88
618.807	91.88
619.015	91.88
619.222	96.88
619.429	89.88
619.637	78.88
619.844	78.88
620.051	82.88
620.258	81.88
620.466	93.88
620.673	86.88
620.88	78.88
621.087	104.88
621.294	104.88
621.501	90.88
621.708	91.88
621.915	90.88
622.122	66.88
622.329	85.88
622.536	93.88
622.743	89.88
622.95	95.88
623.157	95.88
623.364	88.88
623.571	75.88
623.778	90.88
623.985	78.88
624.192	87.88
624.399	94.88
624.606	94.88
624.812	83.88
625.019	88.88
625.226	87.88
625.433	88.88
625.639	85.88
625.846	80.88
626.053	85.88
626.259	95.88
626.466	93.88
626.673	77.88
626.879	77.88
627.086	79.88
627.293	106.88
627.499	82.88
627.706	82.88
627.912	84.88
628.119	82.88
628.325	104.88
628.532	80.88
628.738	90.88
628.945	96.88
629.151	92.88
629.357	79.88
629.564	85.88
629.77	90.88
629.976	102.88
630.183	76.88
630.389	95.88
630.595	88.88
630.802	78.88
631.008	90.88
631.214	78.88
631.42	80.88
631.627	85.88
631.833	86.88
632.039	67.88
632.245	84.88
632.451	86.88
632.657	92.88
632.863	77.88
633.069	87.88
633.275	104.88
633.481	81.88
633.688	80.88
633.893	80.88
634.099	93.88
634.305	83.88
634.511	81.88
634.717	76.88
634.923	88.88
635.129	76.88
635.335	95.88
635.541	100.88
635.747	92.88
635.952	91.88
636.158	88.88
636.364	90.88
636.57	76.88
636.775	89.88
636.981	77.88
637.187	86.88
637.392	76.88
637.598	93.88
637.804	95.88
638.009	88.88
638.215	84.88
638.421	83.88
638.626	83.88
638.832	84.88
639.037	88.88
639.243	76.88
639.448	88.88
639.654	85.88
639.859	91.88
640.065	90.88
640.27	97.88
640.475	90.88
640.681	90.88
640.886	86.88
641.091	93.88
641.297	85.88
641.502	82.88
641.707	78.88
641.913	80.88
642.118	86.88
642.323	92.88
642.528	78.88
642.733	79.88
642.939	84.88
643.144	77.88
643.349	75.88
643.554	90.88
643.759	96.88
643.964	72.88
644.169	90.88
644.374	88.88
644.579	84.88
644.784	88.88
644.989	89.88
645.194	75.88
645.399	98.88
645.604	81.88
645.809	76.88
646.014	79.88
646.219	89.88
646.423	85.88
646.628	90.88
646.833	93.88
647.038	80.88
647.243	85.88
647.447	87.88
647.652	88.88
647.857	66.88
648.062	100.88
648.266	68.88
648.471	82.88
648.676	93.88
648.88	87.88
649.085	80.88
649.289	76.88
649.494	81.88
649.698	76.88
649.903	62.88
650.107	73.88
650.312	90.88
650.516	90.88
650.721	94.88
650.925	102.88
651.13	90.88
651.334	94.88
651.539	90.88
651.743	90.88
651.947	92.88
652.152	97.88
652.356	90.88
652.56	75.88
652.764	85.88
652.969	90.88
653.173	78.88
653.377	78.88
653.581	95.88
653.785	78.88
653.99	82.88
654.194	84.88
654.398	68.88
654.602	79.88
654.806	77.88
655.01	90.88
655.214	82.88
655.418	83.88
655.622	74.88
655.826	70.88
656.03	90.88
656.234	87.88
656.438	82.88
656.642	80.88
656.846	78.88
657.049	82.88
657.253	82.88
657.457	80.88
657.661	82.88
657.865	71.88
658.068	88.88
658.272	82.88
658.476	94.88
658.68	81.88
658.883	81.88
659.087	69.88
659.291	90.88
659.494	79.88
659.698	91.88
659.901	76.88
660.105	89.88
660.309	69.88
660.512	67.88
660.716	81.88
660.919	72.88
661.123	84.88
661.326	87.88
661.53	76.88
661.733	79.88
661.936	84.88
662.14	83.88
662.343	74.88
662.546	82.88
662.75	80.88
662.953	81.88
663.156	73.88
663.36	81.88
663.563	89.88
663.766	84.88
663.969	69.88
664.173	73.88
664.376	65.88
664.579	82.88
664.782	80.88
664.985	76.88
665.188	85.88
665.391	93.88
665.594	80.88
665.797	85.88
666	84.88
666.203	71.88
666.406	79.88
666.609	85.88
666.812	84.88
667.015	82.88
667.218	79.88
667.421	82.88
667.624	79.88
667.827	90.88
668.03	91.88
668.232	72.88
668.435	85.88
668.638	65.88
668.841	85.88
669.043	88.88
669.246	81.88
669.449	91.88
669.651	72.88
669.854	68.88
670.057	83.88
670.259	91.88
670.462	82.88
670.665	72.88
670.867	80.88
671.07	76.88
671.272	93.88
671.475	96.88
671.677	78.88
671.88	92.88
672.082	78.88
672.284	92.88
672.487	73.88
672.689	74.88
672.892	89.88
