Data from StdB_HRD10591_037.txt Node
Date: Fri May 16 15:25:04 EDT 2025
User: Yrep
Spectrometer: HR+D1059
Trigger mode: 1
Integration Time (sec): 1.000000E-1
Scans to average: 1
Electric dark correction enabled: true
Nonlinearity correction enabled: false
Boxcar width: 0
XAxis mode: Wavelengths
Number of Pixels in Spectrum: 2048
>>>>>Begin Spectral Data<<<<<
223.165	-33.62
223.4	-33.62
223.635	-33.62
223.869	-33.62
224.104	-16.62
224.338	-8.62
224.573	-9.62
224.808	-10.62
225.042	-2.62
225.277	-12.62
225.511	-8.62
225.746	-0.62
225.98	9.38
226.215	17.38
226.449	26.38
226.683	20.38
226.918	28.38
227.152	35.38
227.387	37.38
227.621	40.38
227.856	46.38
228.09	56.38
228.324	55.38
228.559	54.38
228.793	69.38
229.027	78.38
229.262	61.38
229.496	79.38
229.73	83.38
229.964	84.38
230.199	70.38
230.433	84.38
230.667	89.38
230.901	76.38
231.136	87.38
231.37	84.38
231.604	94.38
231.838	111.38
232.072	83.38
232.306	99.38
232.541	100.38
232.775	88.38
233.009	90.38
233.243	89.38
233.477	89.38
233.711	112.38
233.945	89.38
234.179	90.38
234.413	89.38
234.647	85.38
234.881	91.38
235.115	101.38
235.349	94.38
235.583	107.38
235.817	77.38
236.051	89.38
236.285	87.38
236.519	92.38
236.753	92.38
236.987	73.38
237.221	88.38
237.455	77.38
237.689	94.38
237.922	83.38
238.156	84.38
238.39	88.38
238.624	88.38
238.858	102.38
239.091	91.38
239.325	99.38
239.559	107.38
239.793	107.38
240.027	91.38
240.26	103.38
240.494	102.38
240.728	104.38
240.961	103.38
241.195	100.38
241.429	98.38
241.662	111.38
241.896	105.38
242.13	95.38
242.363	95.38
242.597	79.38
242.83	84.38
243.064	87.38
243.298	90.38
243.531	87.38
243.765	110.38
243.998	99.38
244.232	109.38
244.465	103.38
244.699	106.38
244.932	116.38
245.166	100.38
245.399	101.38
245.633	108.38
245.866	116.38
246.099	102.38
246.333	111.38
246.566	101.38
246.8	101.38
247.033	112.38
247.266	108.38
247.5	103.38
247.733	109.38
247.966	121.38
248.2	122.38
248.433	116.38
248.666	110.38
248.899	112.38
249.133	105.38
249.366	125.38
249.599	112.38
249.832	113.38
250.066	110.38
250.299	109.38
250.532	113.38
250.765	116.38
250.998	100.38
251.231	115.38
251.465	120.38
251.698	129.38
251.931	116.38
252.164	133.38
252.397	131.38
252.63	144.38
252.863	138.38
253.096	143.38
253.329	151.38
253.562	156.38
253.795	143.38
254.028	147.38
254.261	139.38
254.494	138.38
254.727	113.38
254.96	134.38
255.193	141.38
255.426	130.38
255.659	127.38
255.892	139.38
256.124	145.38
256.357	149.38
256.59	145.38
256.823	141.38
257.056	126.38
257.289	140.38
257.521	144.38
257.754	146.38
257.987	183.38
258.22	177.38
258.452	160.38
258.685	158.38
258.918	129.38
259.151	131.38
259.383	134.38
259.616	157.38
259.849	136.38
260.081	150.38
260.314	152.38
260.547	157.38
260.779	179.38
261.012	192.38
261.244	250.38
261.477	317.38
261.71	323.38
261.942	259.38
262.175	187.38
262.407	155.38
262.64	145.38
262.872	158.38
263.105	138.38
263.337	167.38
263.57	156.38
263.802	151.38
264.035	140.38
264.267	161.38
264.499	158.38
264.732	161.38
264.964	182.38
265.197	207.38
265.429	172.38
265.661	154.38
265.894	159.38
266.126	179.38
266.358	215.38
266.591	237.38
266.823	209.38
267.055	160.38
267.287	132.38
267.52	134.38
267.752	134.38
267.984	143.38
268.216	141.38
268.448	149.38
268.681	134.38
268.913	142.38
269.145	130.38
269.377	122.38
269.609	159.38
269.841	150.38
270.073	135.38
270.306	156.38
270.538	142.38
270.77	142.38
271.002	151.38
271.234	136.38
271.466	134.38
271.698	144.38
271.93	144.38
272.162	133.38
272.394	134.38
272.626	155.38
272.858	138.38
273.09	128.38
273.322	140.38
273.553	130.38
273.785	146.38
274.017	161.38
274.249	134.38
274.481	143.38
274.713	135.38
274.945	141.38
275.176	140.38
275.408	140.38
275.64	139.38
275.872	147.38
276.104	122.38
276.335	146.38
276.567	158.38
276.799	156.38
277.031	155.38
277.262	137.38
277.494	168.38
277.726	149.38
277.957	152.38
278.189	158.38
278.421	176.38
278.652	185.38
278.884	202.38
279.115	212.38
279.347	225.38
279.579	272.38
279.81	313.38
280.042	433.38
280.273	497.38
280.505	440.38
280.736	315.38
280.968	260.38
281.199	219.38
281.431	206.38
281.662	199.38
281.894	212.38
282.125	241.38
282.356	276.38
282.588	281.38
282.819	237.38
283.051	279.38
283.282	357.38
283.513	396.38
283.745	303.38
283.976	225.38
284.207	195.38
284.439	190.38
284.67	174.38
284.901	178.38
285.132	171.38
285.364	154.38
285.595	163.38
285.826	183.38
286.057	172.38
286.288	185.38
286.52	184.38
286.751	205.38
286.982	234.38
287.213	286.38
287.444	316.38
287.675	261.38
287.906	208.38
288.138	184.38
288.369	199.38
288.6	169.38
288.831	167.38
289.062	170.38
289.293	175.38
289.524	167.38
289.755	165.38
289.986	147.38
290.217	140.38
290.448	157.38
290.679	161.38
290.91	160.38
291.141	159.38
291.371	166.38
291.602	152.38
291.833	173.38
292.064	157.38
292.295	154.38
292.526	168.38
292.757	173.38
292.987	151.38
293.218	177.38
293.449	158.38
293.68	161.38
293.91	138.38
294.141	159.38
294.372	165.38
294.603	176.38
294.833	161.38
295.064	169.38
295.295	181.38
295.525	167.38
295.756	167.38
295.987	168.38
296.217	144.38
296.448	150.38
296.679	177.38
296.909	193.38
297.14	164.38
297.37	159.38
297.601	173.38
297.831	169.38
298.062	152.38
298.292	147.38
298.523	178.38
298.753	179.38
298.984	183.38
299.214	171.38
299.445	154.38
299.675	160.38
299.905	167.38
300.136	183.38
300.366	183.38
300.597	167.38
300.827	171.38
301.057	180.38
301.288	169.38
301.518	172.38
301.748	177.38
301.979	202.38
302.209	171.38
302.439	181.38
302.669	171.38
302.9	184.38
303.13	177.38
303.36	175.38
303.59	178.38
303.82	191.38
304.051	183.38
304.281	181.38
304.511	195.38
304.741	184.38
304.971	172.38
305.201	168.38
305.431	188.38
305.661	167.38
305.891	163.38
306.121	184.38
306.352	165.38
306.582	179.38
306.812	173.38
307.042	166.38
307.272	171.38
307.502	180.38
307.731	175.38
307.961	185.38
308.191	180.38
308.421	185.38
308.651	195.38
308.881	175.38
309.111	166.38
309.341	180.38
309.571	188.38
309.8	199.38
310.03	157.38
310.26	166.38
310.49	175.38
310.72	170.38
310.949	189.38
311.179	183.38
311.409	181.38
311.639	190.38
311.868	193.38
312.098	186.38
312.328	192.38
312.557	183.38
312.787	195.38
313.017	189.38
313.246	205.38
313.476	185.38
313.706	210.38
313.935	219.38
314.165	208.38
314.394	224.38
314.624	217.38
314.853	232.38
315.083	204.38
315.312	210.38
315.542	208.38
315.771	211.38
316.001	215.38
316.23	195.38
316.46	203.38
316.689	201.38
316.919	209.38
317.148	212.38
317.377	231.38
317.607	209.38
317.836	221.38
318.065	215.38
318.295	220.38
318.524	190.38
318.753	189.38
318.983	184.38
319.212	205.38
319.441	183.38
319.67	199.38
319.9	189.38
320.129	193.38
320.358	177.38
320.587	186.38
320.816	197.38
321.046	184.38
321.275	189.38
321.504	184.38
321.733	193.38
321.962	203.38
322.191	198.38
322.42	198.38
322.649	184.38
322.878	184.38
323.108	205.38
323.337	197.38
323.566	187.38
323.795	189.38
324.024	191.38
324.253	195.38
324.482	184.38
324.71	194.38
324.939	187.38
325.168	196.38
325.397	207.38
325.626	201.38
325.855	200.38
326.084	204.38
326.313	193.38
326.542	204.38
326.77	196.38
326.999	200.38
327.228	196.38
327.457	194.38
327.686	196.38
327.914	207.38
328.143	208.38
328.372	187.38
328.6	191.38
328.829	178.38
329.058	215.38
329.287	183.38
329.515	198.38
329.744	198.38
329.972	174.38
330.201	207.38
330.43	204.38
330.658	199.38
330.887	195.38
331.115	199.38
331.344	185.38
331.572	193.38
331.801	202.38
332.03	222.38
332.258	184.38
332.486	192.38
332.715	188.38
332.943	214.38
333.172	180.38
333.4	205.38
333.629	207.38
333.857	187.38
334.085	205.38
334.314	207.38
334.542	189.38
334.771	209.38
334.999	199.38
335.227	189.38
335.455	184.38
335.684	185.38
335.912	193.38
336.14	188.38
336.369	201.38
336.597	195.38
336.825	184.38
337.053	191.38
337.281	192.38
337.51	206.38
337.738	219.38
337.966	205.38
338.194	200.38
338.422	193.38
338.65	182.38
338.878	193.38
339.106	198.38
339.334	198.38
339.562	193.38
339.79	203.38
340.018	211.38
340.246	201.38
340.474	204.38
340.702	195.38
340.93	200.38
341.158	190.38
341.386	160.38
341.614	174.38
341.842	195.38
342.07	193.38
342.298	183.38
342.526	177.38
342.754	197.38
342.981	202.38
343.209	218.38
343.437	231.38
343.665	188.38
343.893	211.38
344.12	205.38
344.348	197.38
344.576	185.38
344.804	208.38
345.031	192.38
345.259	194.38
345.487	201.38
345.714	207.38
345.942	199.38
346.17	196.38
346.397	196.38
346.625	187.38
346.853	199.38
347.08	190.38
347.308	191.38
347.535	199.38
347.763	190.38
347.99	193.38
348.218	192.38
348.445	180.38
348.673	187.38
348.9	179.38
349.128	198.38
349.355	189.38
349.583	177.38
349.81	187.38
350.037	187.38
350.265	179.38
350.492	163.38
350.72	183.38
350.947	199.38
351.174	189.38
351.402	184.38
351.629	191.38
351.856	191.38
352.083	197.38
352.311	191.38
352.538	195.38
352.765	196.38
352.992	191.38
353.22	169.38
353.447	193.38
353.674	197.38
353.901	191.38
354.128	198.38
354.355	203.38
354.583	205.38
354.81	192.38
355.037	192.38
355.264	201.38
355.491	207.38
355.718	203.38
355.945	220.38
356.172	221.38
356.399	227.38
356.626	245.38
356.853	308.38
357.08	443.38
357.307	578.38
357.534	559.38
357.761	410.38
357.988	337.38
358.215	297.38
358.441	269.38
358.668	241.38
358.895	239.38
359.122	229.38
359.349	218.38
359.576	219.38
359.802	203.38
360.029	212.38
360.256	208.38
360.483	209.38
360.709	216.38
360.936	241.38
361.163	213.38
361.39	191.38
361.616	220.38
361.843	225.38
362.07	220.38
362.296	224.38
362.523	219.38
362.749	214.38
362.976	240.38
363.203	253.38
363.429	319.38
363.656	445.38
363.882	653.38
364.109	709.38
364.335	538.38
364.562	374.38
364.788	289.38
365.015	261.38
365.241	248.38
365.468	220.38
365.694	234.38
365.92	227.38
366.147	223.38
366.373	235.38
366.599	275.38
366.826	288.38
367.052	310.38
367.278	368.38
367.505	346.38
367.731	361.38
367.957	468.38
368.184	729.38
368.41	979.38
368.636	856.38
368.862	513.38
369.089	371.38
369.315	307.38
369.541	272.38
369.767	252.38
369.993	264.38
370.219	246.38
370.445	224.38
370.672	239.38
370.898	227.38
371.124	238.38
371.35	234.38
371.576	240.38
371.802	241.38
372.028	245.38
372.254	240.38
372.48	225.38
372.706	232.38
372.932	260.38
373.158	236.38
373.384	281.38
373.61	350.38
373.835	489.38
374.061	633.38
374.287	565.38
374.513	376.38
374.739	277.38
374.965	268.38
375.191	240.38
375.416	237.38
375.642	222.38
375.868	219.38
376.094	223.38
376.319	200.38
376.545	214.38
376.771	227.38
376.997	205.38
377.222	219.38
377.448	217.38
377.674	207.38
377.899	207.38
378.125	195.38
378.35	229.38
378.576	227.38
378.802	236.38
379.027	220.38
379.253	222.38
379.478	206.38
379.704	216.38
379.929	213.38
380.155	219.38
380.38	202.38
380.606	204.38
380.831	233.38
381.057	214.38
381.282	203.38
381.507	208.38
381.733	223.38
381.958	206.38
382.184	202.38
382.409	204.38
382.634	216.38
382.86	227.38
383.085	221.38
383.31	207.38
383.535	216.38
383.761	215.38
383.986	205.38
384.211	211.38
384.436	239.38
384.662	219.38
384.887	232.38
385.112	232.38
385.337	230.38
385.562	225.38
385.787	203.38
386.013	222.38
386.238	217.38
386.463	211.38
386.688	233.38
386.913	217.38
387.138	219.38
387.363	226.38
387.588	210.38
387.813	208.38
388.038	220.38
388.263	222.38
388.488	220.38
388.713	212.38
388.938	214.38
389.163	215.38
389.387	204.38
389.612	225.38
389.837	229.38
390.062	224.38
390.287	227.38
390.512	217.38
390.736	223.38
390.961	215.38
391.186	216.38
391.411	201.38
391.636	216.38
391.86	212.38
392.085	221.38
392.31	215.38
392.534	216.38
392.759	215.38
392.984	216.38
393.208	217.38
393.433	222.38
393.658	216.38
393.882	228.38
394.107	219.38
394.331	220.38
394.556	229.38
394.78	227.38
395.005	221.38
395.229	219.38
395.454	193.38
395.678	202.38
395.903	221.38
396.127	212.38
396.352	218.38
396.576	232.38
396.801	221.38
397.025	235.38
397.249	224.38
397.474	230.38
397.698	233.38
397.922	236.38
398.147	245.38
398.371	222.38
398.595	210.38
398.82	240.38
399.044	240.38
399.268	251.38
399.492	226.38
399.717	265.38
399.941	247.38
400.165	260.38
400.389	261.38
400.613	243.38
400.837	233.38
401.062	254.38
401.286	267.38
401.51	255.38
401.734	291.38
401.958	310.38
402.182	302.38
402.406	240.38
402.63	235.38
402.854	240.38
403.078	257.38
403.302	256.38
403.526	267.38
403.75	272.38
403.974	258.38
404.198	275.38
404.422	291.38
404.645	312.38
404.869	326.38
405.093	365.38
405.317	490.38
405.541	807.38
405.765	1326.38
405.988	1553.38
406.212	989.38
406.436	672.38
406.66	474.38
406.883	399.38
407.107	337.38
407.331	332.38
407.555	311.38
407.778	296.38
408.002	300.38
408.226	281.38
408.449	271.38
408.673	272.38
408.896	257.38
409.12	255.38
409.344	250.38
409.567	257.38
409.791	268.38
410.014	256.38
410.238	245.38
410.461	248.38
410.685	247.38
410.908	243.38
411.132	250.38
411.355	253.38
411.578	250.38
411.802	255.38
412.025	245.38
412.249	252.38
412.472	223.38
412.695	256.38
412.919	238.38
413.142	224.38
413.365	259.38
413.589	249.38
413.812	251.38
414.035	243.38
414.258	249.38
414.482	241.38
414.705	240.38
414.928	234.38
415.151	231.38
415.374	238.38
415.597	239.38
415.821	247.38
416.044	240.38
416.267	244.38
416.49	241.38
416.713	260.38
416.936	268.38
417.159	250.38
417.382	226.38
417.605	223.38
417.828	256.38
418.051	246.38
418.274	235.38
418.497	236.38
418.72	227.38
418.943	221.38
419.166	255.38
419.389	245.38
419.611	230.38
419.834	251.38
420.057	244.38
420.28	248.38
420.503	241.38
420.726	257.38
420.948	243.38
421.171	244.38
421.394	227.38
421.617	254.38
421.839	265.38
422.062	276.38
422.285	265.38
422.507	285.38
422.73	301.38
422.953	299.38
423.175	289.38
423.398	303.38
423.621	316.38
423.843	348.38
424.066	417.38
424.288	500.38
424.511	627.38
424.733	671.38
424.956	606.38
425.178	485.38
425.401	437.38
425.623	392.38
425.846	377.38
426.068	349.38
426.291	324.38
426.513	329.38
426.735	304.38
426.958	319.38
427.18	286.38
427.402	278.38
427.625	270.38
427.847	276.38
428.069	283.38
428.292	255.38
428.514	265.38
428.736	266.38
428.958	271.38
429.181	255.38
429.403	262.38
429.625	241.38
429.847	237.38
430.069	254.38
430.292	256.38
430.514	259.38
430.736	252.38
430.958	231.38
431.18	244.38
431.402	238.38
431.624	242.38
431.846	232.38
432.068	250.38
432.29	254.38
432.512	248.38
432.734	233.38
432.956	227.38
433.178	239.38
433.4	234.38
433.622	252.38
433.844	250.38
434.066	263.38
434.287	259.38
434.509	258.38
434.731	249.38
434.953	250.38
435.175	266.38
435.397	251.38
435.618	244.38
435.84	245.38
436.062	248.38
436.284	268.38
436.505	261.38
436.727	257.38
436.949	272.38
437.17	268.38
437.392	295.38
437.614	298.38
437.835	321.38
438.057	333.38
438.278	374.38
438.5	459.38
438.721	574.38
438.943	613.38
439.165	542.38
439.386	461.38
439.608	438.38
439.829	395.38
440.05	392.38
440.272	371.38
440.493	383.38
440.715	399.38
440.936	421.38
441.158	403.38
441.379	381.38
441.6	357.38
441.822	318.38
442.043	307.38
442.264	305.38
442.486	289.38
442.707	271.38
442.928	272.38
443.149	279.38
443.371	287.38
443.592	268.38
443.813	270.38
444.034	255.38
444.255	255.38
444.476	263.38
444.698	278.38
444.919	245.38
445.14	301.38
445.361	280.38
445.582	266.38
445.803	241.38
446.024	241.38
446.245	252.38
446.466	229.38
446.687	232.38
446.908	243.38
447.129	222.38
447.35	218.38
447.571	209.38
447.792	230.38
448.013	233.38
448.234	231.38
448.455	214.38
448.675	241.38
448.896	227.38
449.117	220.38
449.338	216.38
449.559	212.38
449.779	230.38
450	196.38
450.221	211.38
450.442	225.38
450.662	212.38
450.883	222.38
451.104	214.38
451.324	224.38
451.545	230.38
451.766	214.38
451.986	223.38
452.207	225.38
452.428	200.38
452.648	213.38
452.869	218.38
453.089	213.38
453.31	218.38
453.53	212.38
453.751	202.38
453.971	211.38
454.192	204.38
454.412	200.38
454.633	192.38
454.853	212.38
455.073	197.38
455.294	203.38
455.514	202.38
455.734	192.38
455.955	207.38
456.175	216.38
456.395	203.38
456.616	213.38
456.836	217.38
457.056	207.38
457.276	183.38
457.497	227.38
457.717	190.38
457.937	200.38
458.157	210.38
458.377	197.38
458.598	213.38
458.818	207.38
459.038	214.38
459.258	197.38
459.478	196.38
459.698	211.38
459.918	217.38
460.138	212.38
460.358	225.38
460.578	221.38
460.798	216.38
461.018	229.38
461.238	203.38
461.458	230.38
461.678	212.38
461.898	227.38
462.118	240.38
462.338	245.38
462.558	221.38
462.777	231.38
462.997	247.38
463.217	240.38
463.437	239.38
463.657	239.38
463.876	212.38
464.096	214.38
464.316	216.38
464.536	216.38
464.755	232.38
464.975	223.38
465.195	217.38
465.414	210.38
465.634	212.38
465.854	219.38
466.073	207.38
466.293	214.38
466.512	207.38
466.732	214.38
466.951	211.38
467.171	211.38
467.391	220.38
467.61	214.38
467.829	216.38
468.049	219.38
468.268	204.38
468.488	197.38
468.707	199.38
468.927	211.38
469.146	213.38
469.365	211.38
469.585	201.38
469.804	222.38
470.023	208.38
470.243	214.38
470.462	225.38
470.681	213.38
470.901	221.38
471.12	203.38
471.339	227.38
471.558	212.38
471.777	207.38
471.997	215.38
472.216	232.38
472.435	206.38
472.654	209.38
472.873	195.38
473.092	191.38
473.311	206.38
473.53	215.38
473.749	219.38
473.968	223.38
474.187	227.38
474.406	217.38
474.625	227.38
474.844	201.38
475.063	197.38
475.282	208.38
475.501	221.38
475.72	221.38
475.939	220.38
476.158	214.38
476.377	219.38
476.596	228.38
476.814	224.38
477.033	218.38
477.252	239.38
477.471	235.38
477.69	247.38
477.908	241.38
478.127	239.38
478.346	231.38
478.564	241.38
478.783	248.38
479.002	271.38
479.22	247.38
479.439	236.38
479.658	243.38
479.876	252.38
480.095	253.38
480.313	264.38
480.532	235.38
480.751	262.38
480.969	242.38
481.188	247.38
481.406	240.38
481.624	243.38
481.843	232.38
482.061	236.38
482.28	246.38
482.498	224.38
482.717	237.38
482.935	243.38
483.153	248.38
483.372	255.38
483.59	245.38
483.808	226.38
484.027	251.38
484.245	243.38
484.463	239.38
484.681	257.38
484.9	238.38
485.118	243.38
485.336	240.38
485.554	222.38
485.772	247.38
485.99	251.38
486.209	245.38
486.427	240.38
486.645	233.38
486.863	245.38
487.081	238.38
487.299	240.38
487.517	246.38
487.735	243.38
487.953	234.38
488.171	245.38
488.389	239.38
488.607	247.38
488.825	247.38
489.043	254.38
489.261	253.38
489.479	237.38
489.696	276.38
489.914	236.38
490.132	253.38
490.35	254.38
490.568	236.38
490.786	247.38
491.003	241.38
491.221	260.38
491.439	245.38
491.657	244.38
491.874	248.38
492.092	266.38
492.31	257.38
492.527	255.38
492.745	258.38
492.963	255.38
493.18	275.38
493.398	265.38
493.615	255.38
493.833	259.38
494.05	256.38
494.268	264.38
494.485	245.38
494.703	256.38
494.92	268.38
495.138	270.38
495.355	271.38
495.573	286.38
495.79	278.38
496.008	258.38
496.225	270.38
496.442	249.38
496.66	275.38
496.877	257.38
497.094	257.38
497.312	260.38
497.529	277.38
497.746	276.38
497.963	292.38
498.181	294.38
498.398	293.38
498.615	298.38
498.832	307.38
499.049	311.38
499.267	336.38
499.484	328.38
499.701	349.38
499.918	343.38
500.135	393.38
500.352	395.38
500.569	463.38
500.786	539.38
501.003	431.38
501.22	411.38
501.437	361.38
501.654	342.38
501.871	359.38
502.088	321.38
502.305	333.38
502.522	325.38
502.739	331.38
502.956	322.38
503.172	312.38
503.389	319.38
503.606	323.38
503.823	327.38
504.04	333.38
504.256	339.38
504.473	347.38
504.69	349.38
504.907	355.38
505.123	321.38
505.34	317.38
505.557	306.38
505.773	298.38
505.99	317.38
506.207	290.38
506.423	299.38
506.64	299.38
506.856	277.38
507.073	271.38
507.289	298.38
507.506	278.38
507.722	263.38
507.939	278.38
508.155	277.38
508.372	296.38
508.588	266.38
508.805	264.38
509.021	256.38
509.238	261.38
509.454	250.38
509.67	246.38
509.887	249.38
510.103	248.38
510.319	266.38
510.536	260.38
510.752	229.38
510.968	241.38
511.184	257.38
511.401	248.38
511.617	253.38
511.833	231.38
512.049	263.38
512.265	257.38
512.481	238.38
512.698	249.38
512.914	236.38
513.13	247.38
513.346	239.38
513.562	231.38
513.778	259.38
513.994	252.38
514.21	240.38
514.426	232.38
514.642	249.38
514.858	238.38
515.074	239.38
515.29	251.38
515.506	251.38
515.721	271.38
515.937	272.38
516.153	275.38
516.369	263.38
516.585	262.38
516.801	272.38
517.016	259.38
517.232	252.38
517.448	267.38
517.664	270.38
517.879	275.38
518.095	272.38
518.311	276.38
518.527	266.38
518.742	229.38
518.958	250.38
519.173	257.38
519.389	222.38
519.605	253.38
519.82	245.38
520.036	239.38
520.251	271.38
520.467	263.38
520.682	257.38
520.898	240.38
521.113	240.38
521.329	252.38
521.544	231.38
521.76	255.38
521.975	238.38
522.19	259.38
522.406	261.38
522.621	277.38
522.836	277.38
523.052	316.38
523.267	279.38
523.482	259.38
523.698	244.38
523.913	242.38
524.128	229.38
524.343	229.38
524.559	242.38
524.774	237.38
524.989	248.38
525.204	237.38
525.419	223.38
525.634	238.38
525.849	233.38
526.064	235.38
526.28	240.38
526.495	220.38
526.71	215.38
526.925	243.38
527.14	216.38
527.355	222.38
527.57	216.38
527.785	234.38
527.999	214.38
528.214	226.38
528.429	224.38
528.644	243.38
528.859	220.38
529.074	253.38
529.289	228.38
529.503	230.38
529.718	221.38
529.933	242.38
530.148	247.38
530.363	248.38
530.577	220.38
530.792	220.38
531.007	235.38
531.221	224.38
531.436	237.38
531.651	217.38
531.865	231.38
532.08	218.38
532.295	231.38
532.509	233.38
532.724	249.38
532.938	275.38
533.153	244.38
533.367	236.38
533.582	223.38
533.796	252.38
534.011	235.38
534.225	232.38
534.44	241.38
534.654	233.38
534.868	243.38
535.083	252.38
535.297	256.38
535.511	267.38
535.726	253.38
535.94	253.38
536.154	279.38
536.369	266.38
536.583	300.38
536.797	313.38
537.011	334.38
537.225	365.38
537.44	462.38
537.654	460.38
537.868	407.38
538.082	369.38
538.296	331.38
538.51	324.38
538.724	305.38
538.938	293.38
539.153	285.38
539.367	271.38
539.581	261.38
539.795	241.38
540.009	267.38
540.222	245.38
540.436	248.38
540.65	247.38
540.864	246.38
541.078	247.38
541.292	237.38
541.506	252.38
541.72	237.38
541.934	222.38
542.147	242.38
542.361	231.38
542.575	245.38
542.789	226.38
543.002	235.38
543.216	241.38
543.43	224.38
543.644	229.38
543.857	225.38
544.071	215.38
544.285	234.38
544.498	229.38
544.712	227.38
544.925	243.38
545.139	229.38
545.352	227.38
545.566	218.38
545.779	216.38
545.993	240.38
546.206	236.38
546.42	228.38
546.633	225.38
546.847	235.38
547.06	216.38
547.274	219.38
547.487	231.38
547.7	235.38
547.914	221.38
548.127	220.38
548.34	223.38
548.554	220.38
548.767	241.38
548.98	218.38
549.193	207.38
549.407	232.38
549.62	218.38
549.833	213.38
550.046	235.38
550.259	232.38
550.473	231.38
550.686	225.38
550.899	231.38
551.112	220.38
551.325	229.38
551.538	229.38
551.751	220.38
551.964	215.38
552.177	243.38
552.39	238.38
552.603	239.38
552.816	258.38
553.029	270.38
553.242	251.38
553.455	257.38
553.667	266.38
553.88	257.38
554.093	276.38
554.306	275.38
554.519	314.38
554.732	320.38
554.944	303.38
555.157	296.38
555.37	303.38
555.583	274.38
555.795	279.38
556.008	284.38
556.221	264.38
556.433	259.38
556.646	262.38
556.859	253.38
557.071	257.38
557.284	268.38
557.496	269.38
557.709	248.38
557.921	272.38
558.134	274.38
558.346	286.38
558.559	288.38
558.771	285.38
558.984	295.38
559.196	305.38
559.409	333.38
559.621	333.38
559.833	353.38
560.046	407.38
560.258	459.38
560.47	538.38
560.683	655.38
560.895	896.38
561.107	1073.38
561.32	752.38
561.532	542.38
561.744	447.38
561.956	399.38
562.168	355.38
562.381	329.38
562.593	309.38
562.805	272.38
563.017	258.38
563.229	258.38
563.441	248.38
563.653	259.38
563.865	245.38
564.077	246.38
564.289	245.38
564.501	229.38
564.713	243.38
564.925	246.38
565.137	231.38
565.349	225.38
565.561	235.38
565.773	224.38
565.985	220.38
566.197	225.38
566.408	218.38
566.62	236.38
566.832	253.38
567.044	252.38
567.255	239.38
567.467	246.38
567.679	258.38
567.891	240.38
568.102	235.38
568.314	222.38
568.526	245.38
568.737	217.38
568.949	208.38
569.161	191.38
569.372	204.38
569.584	191.38
569.795	175.38
570.007	202.38
570.218	186.38
570.43	183.38
570.641	184.38
570.853	187.38
571.064	211.38
571.276	190.38
571.487	176.38
571.698	190.38
571.91	189.38
572.121	177.38
572.333	163.38
572.544	179.38
572.755	182.38
572.966	167.38
573.178	181.38
573.389	196.38
573.6	168.38
573.811	177.38
574.023	187.38
574.234	158.38
574.445	169.38
574.656	183.38
574.867	186.38
575.078	182.38
575.289	165.38
575.501	167.38
575.712	179.38
575.923	175.38
576.134	168.38
576.345	166.38
576.556	165.38
576.767	171.38
576.978	167.38
577.188	158.38
577.399	165.38
577.61	171.38
577.821	157.38
578.032	143.38
578.243	161.38
578.454	179.38
578.665	162.38
578.875	165.38
579.086	158.38
579.297	150.38
579.508	153.38
579.718	159.38
579.929	142.38
580.14	137.38
580.35	157.38
580.561	151.38
580.772	166.38
580.982	146.38
581.193	152.38
581.403	163.38
581.614	153.38
581.825	141.38
582.035	151.38
582.246	139.38
582.456	149.38
582.667	152.38
582.877	158.38
583.087	160.38
583.298	151.38
583.508	148.38
583.719	163.38
583.929	160.38
584.139	163.38
584.35	148.38
584.56	157.38
584.77	147.38
584.981	147.38
585.191	151.38
585.401	173.38
585.611	143.38
585.821	160.38
586.032	157.38
586.242	141.38
586.452	155.38
586.662	161.38
586.872	135.38
587.082	154.38
587.292	175.38
587.502	158.38
587.713	148.38
587.923	167.38
588.133	167.38
588.343	137.38
588.553	146.38
588.762	167.38
588.972	157.38
589.182	179.38
589.392	153.38
589.602	157.38
589.812	171.38
590.022	168.38
590.232	154.38
590.441	163.38
590.651	141.38
590.861	153.38
591.071	156.38
591.281	151.38
591.49	140.38
591.7	144.38
591.91	143.38
592.119	157.38
592.329	156.38
592.539	166.38
592.748	154.38
592.958	171.38
593.167	135.38
593.377	152.38
593.587	149.38
593.796	162.38
594.006	146.38
594.215	167.38
594.424	175.38
594.634	157.38
594.843	180.38
595.053	136.38
595.262	147.38
595.472	145.38
595.681	143.38
595.89	142.38
596.1	149.38
596.309	156.38
596.518	143.38
596.727	143.38
596.937	150.38
597.146	144.38
597.355	149.38
597.564	139.38
597.774	141.38
597.983	148.38
598.192	131.38
598.401	149.38
598.61	154.38
598.819	134.38
599.028	139.38
599.237	139.38
599.446	136.38
599.655	124.38
599.864	142.38
600.073	137.38
600.282	157.38
600.491	144.38
600.7	151.38
600.909	135.38
601.118	140.38
601.327	134.38
601.536	139.38
601.745	133.38
601.953	136.38
602.162	159.38
602.371	130.38
602.58	135.38
602.789	133.38
602.997	145.38
603.206	131.38
603.415	127.38
603.623	133.38
603.832	139.38
604.041	131.38
604.249	149.38
604.458	149.38
604.666	141.38
604.875	135.38
605.084	143.38
605.292	128.38
605.501	140.38
605.709	138.38
605.918	136.38
606.126	137.38
606.334	128.38
606.543	141.38
606.751	128.38
606.96	123.38
607.168	140.38
607.376	127.38
607.585	152.38
607.793	127.38
608.001	141.38
608.21	137.38
608.418	138.38
608.626	139.38
608.834	138.38
609.043	133.38
609.251	133.38
609.459	128.38
609.667	137.38
609.875	141.38
610.083	138.38
610.291	149.38
610.499	128.38
610.707	137.38
610.916	131.38
611.124	140.38
611.332	137.38
611.54	134.38
611.748	132.38
611.955	127.38
612.163	128.38
612.371	136.38
612.579	131.38
612.787	123.38
612.995	137.38
613.203	135.38
613.411	111.38
613.618	132.38
613.826	119.38
614.034	124.38
614.242	147.38
614.449	113.38
614.657	121.38
614.865	136.38
615.072	134.38
615.28	127.38
615.488	132.38
615.695	130.38
615.903	142.38
616.111	140.38
616.318	132.38
616.526	129.38
616.733	135.38
616.941	130.38
617.148	118.38
617.356	134.38
617.563	129.38
617.771	121.38
617.978	127.38
618.185	135.38
618.393	136.38
618.6	127.38
618.807	130.38
619.015	128.38
619.222	123.38
619.429	128.38
619.637	124.38
619.844	127.38
620.051	129.38
620.258	145.38
620.466	107.38
620.673	123.38
620.88	120.38
621.087	131.38
621.294	104.38
621.501	105.38
621.708	124.38
621.915	124.38
622.122	132.38
622.329	132.38
622.536	123.38
622.743	107.38
622.95	117.38
623.157	120.38
623.364	109.38
623.571	129.38
623.778	136.38
623.985	131.38
624.192	124.38
624.399	130.38
624.606	106.38
624.812	137.38
625.019	119.38
625.226	119.38
625.433	114.38
625.639	104.38
625.846	116.38
626.053	118.38
626.259	107.38
626.466	112.38
626.673	113.38
626.879	121.38
627.086	109.38
627.293	88.38
627.499	93.38
627.706	123.38
627.912	116.38
628.119	119.38
628.325	127.38
628.532	115.38
628.738	122.38
628.945	117.38
629.151	128.38
629.357	118.38
629.564	107.38
629.77	125.38
629.976	110.38
630.183	113.38
630.389	125.38
630.595	115.38
630.802	122.38
631.008	103.38
631.214	110.38
631.42	108.38
631.627	119.38
631.833	110.38
632.039	112.38
632.245	121.38
632.451	121.38
632.657	104.38
632.863	107.38
633.069	113.38
633.275	115.38
633.481	103.38
633.688	119.38
633.893	112.38
634.099	115.38
634.305	99.38
634.511	100.38
634.717	86.38
634.923	113.38
635.129	118.38
635.335	103.38
635.541	99.38
635.747	109.38
635.952	100.38
636.158	92.38
636.364	99.38
636.57	116.38
636.775	98.38
636.981	104.38
637.187	106.38
637.392	103.38
637.598	102.38
637.804	118.38
638.009	119.38
638.215	118.38
638.421	100.38
638.626	103.38
638.832	111.38
639.037	99.38
639.243	108.38
639.448	108.38
639.654	115.38
639.859	107.38
640.065	117.38
640.27	115.38
640.475	111.38
640.681	109.38
640.886	113.38
641.091	103.38
641.297	117.38
641.502	111.38
641.707	108.38
641.913	113.38
642.118	110.38
642.323	102.38
642.528	110.38
642.733	107.38
642.939	97.38
643.144	105.38
643.349	104.38
643.554	121.38
643.759	120.38
643.964	103.38
644.169	104.38
644.374	84.38
644.579	111.38
644.784	103.38
644.989	106.38
645.194	103.38
645.399	116.38
645.604	115.38
645.809	99.38
646.014	106.38
646.219	105.38
646.423	108.38
646.628	117.38
646.833	105.38
647.038	99.38
647.243	125.38
647.447	115.38
647.652	105.38
647.857	120.38
648.062	103.38
648.266	104.38
648.471	112.38
648.676	108.38
648.88	117.38
649.085	122.38
649.289	115.38
649.494	107.38
649.698	117.38
649.903	107.38
650.107	102.38
650.312	94.38
650.516	105.38
650.721	107.38
650.925	105.38
651.13	96.38
651.334	109.38
651.539	102.38
651.743	105.38
651.947	105.38
652.152	117.38
652.356	99.38
652.56	105.38
652.764	115.38
652.969	102.38
653.173	102.38
653.377	89.38
653.581	100.38
653.785	110.38
653.99	113.38
654.194	118.38
654.398	111.38
654.602	94.38
654.806	114.38
655.01	105.38
655.214	106.38
655.418	103.38
655.622	105.38
655.826	97.38
656.03	97.38
656.234	92.38
656.438	101.38
656.642	84.38
656.846	95.38
657.049	100.38
657.253	98.38
657.457	90.38
657.661	96.38
657.865	77.38
658.068	91.38
658.272	79.38
658.476	109.38
658.68	95.38
658.883	79.38
659.087	86.38
659.291	92.38
659.494	91.38
659.698	87.38
659.901	86.38
660.105	89.38
660.309	98.38
660.512	77.38
660.716	79.38
660.919	101.38
661.123	85.38
661.326	84.38
661.53	88.38
661.733	79.38
661.936	85.38
662.14	80.38
662.343	99.38
662.546	88.38
662.75	95.38
662.953	94.38
663.156	76.38
663.36	79.38
663.563	77.38
663.766	93.38
663.969	93.38
664.173	75.38
664.376	93.38
664.579	86.38
664.782	83.38
664.985	89.38
665.188	87.38
665.391	82.38
665.594	88.38
665.797	85.38
666	84.38
666.203	92.38
666.406	75.38
666.609	81.38
666.812	75.38
667.015	99.38
667.218	95.38
667.421	95.38
667.624	79.38
667.827	88.38
668.03	76.38
668.232	79.38
668.435	73.38
668.638	81.38
668.841	85.38
669.043	85.38
669.246	80.38
669.449	91.38
669.651	84.38
669.854	68.38
670.057	72.38
670.259	75.38
670.462	73.38
670.665	63.38
670.867	75.38
671.07	77.38
671.272	92.38
671.475	96.38
671.677	85.38
671.88	86.38
672.082	73.38
672.284	72.38
672.487	79.38
672.689	83.38
672.892	68.38
