Data from StdB_HRD10591_098.txt Node
Date: Fri May 16 15:25:35 EDT 2025
User: Yrep
Spectrometer: HR+D1059
Trigger mode: 1
Integration Time (sec): 1.000000E-1
Scans to average: 1
Electric dark correction enabled: true
Nonlinearity correction enabled: false
Boxcar width: 0
XAxis mode: Wavelengths
Number of Pixels in Spectrum: 2048
>>>>>Begin Spectral Data<<<<<
223.165	-28.88
223.4	-28.88
223.635	-28.88
223.869	-12.88
224.104	-13.88
224.338	-0.88
224.573	-23.88
224.808	-15.88
225.042	-7.88
225.277	2.12
225.511	-16.88
225.746	7.12
225.98	5.12
226.215	13.12
226.449	19.12
226.683	22.12
226.918	21.12
227.152	31.12
227.387	37.12
227.621	33.12
227.856	44.12
228.09	51.12
228.324	60.12
228.559	56.12
228.793	61.12
229.027	78.12
229.262	77.12
229.496	82.12
229.73	78.12
229.964	92.12
230.199	72.12
230.433	83.12
230.667	99.12
230.901	89.12
231.136	84.12
231.37	87.12
231.604	105.12
231.838	92.12
232.072	81.12
232.306	71.12
232.541	89.12
232.775	87.12
233.009	84.12
233.243	90.12
233.477	99.12
233.711	83.12
233.945	97.12
234.179	105.12
234.413	92.12
234.647	77.12
234.881	90.12
235.115	85.12
235.349	83.12
235.583	105.12
235.817	93.12
236.051	81.12
236.285	94.12
236.519	85.12
236.753	94.12
236.987	96.12
237.221	103.12
237.455	101.12
237.689	112.12
237.922	100.12
238.156	103.12
238.39	94.12
238.624	87.12
238.858	110.12
239.091	103.12
239.325	105.12
239.559	110.12
239.793	110.12
240.027	111.12
240.26	93.12
240.494	113.12
240.728	106.12
240.961	101.12
241.195	97.12
241.429	107.12
241.662	106.12
241.896	105.12
242.13	101.12
242.363	90.12
242.597	105.12
242.83	98.12
243.064	105.12
243.298	94.12
243.531	97.12
243.765	112.12
243.998	104.12
244.232	114.12
244.465	101.12
244.699	113.12
244.932	106.12
245.166	115.12
245.399	109.12
245.633	102.12
245.866	98.12
246.099	96.12
246.333	102.12
246.566	103.12
246.8	106.12
247.033	110.12
247.266	99.12
247.5	116.12
247.733	115.12
247.966	138.12
248.2	131.12
248.433	114.12
248.666	112.12
248.899	107.12
249.133	106.12
249.366	114.12
249.599	112.12
249.832	103.12
250.066	101.12
250.299	100.12
250.532	106.12
250.765	106.12
250.998	109.12
251.231	120.12
251.465	126.12
251.698	131.12
251.931	117.12
252.164	114.12
252.397	114.12
252.63	124.12
252.863	124.12
253.096	133.12
253.329	126.12
253.562	137.12
253.795	132.12
254.028	122.12
254.261	127.12
254.494	134.12
254.727	135.12
254.96	131.12
255.193	138.12
255.426	133.12
255.659	125.12
255.892	130.12
256.124	152.12
256.357	148.12
256.59	141.12
256.823	141.12
257.056	144.12
257.289	147.12
257.521	154.12
257.754	158.12
257.987	180.12
258.22	168.12
258.452	145.12
258.685	159.12
258.918	155.12
259.151	154.12
259.383	144.12
259.616	152.12
259.849	139.12
260.081	157.12
260.314	154.12
260.547	163.12
260.779	168.12
261.012	226.12
261.244	237.12
261.477	298.12
261.71	299.12
261.942	237.12
262.175	197.12
262.407	169.12
262.64	142.12
262.872	140.12
263.105	151.12
263.337	151.12
263.57	166.12
263.802	166.12
264.035	150.12
264.267	140.12
264.499	164.12
264.732	160.12
264.964	187.12
265.197	183.12
265.429	171.12
265.661	145.12
265.894	157.12
266.126	172.12
266.358	207.12
266.591	231.12
266.823	194.12
267.055	153.12
267.287	169.12
267.52	140.12
267.752	159.12
267.984	161.12
268.216	138.12
268.448	146.12
268.681	135.12
268.913	125.12
269.145	145.12
269.377	145.12
269.609	137.12
269.841	148.12
270.073	148.12
270.306	154.12
270.538	130.12
270.77	138.12
271.002	146.12
271.234	147.12
271.466	137.12
271.698	152.12
271.93	153.12
272.162	143.12
272.394	150.12
272.626	143.12
272.858	137.12
273.09	139.12
273.322	146.12
273.553	145.12
273.785	129.12
274.017	170.12
274.249	151.12
274.481	153.12
274.713	141.12
274.945	142.12
275.176	150.12
275.408	150.12
275.64	149.12
275.872	147.12
276.104	150.12
276.335	126.12
276.567	154.12
276.799	157.12
277.031	158.12
277.262	152.12
277.494	170.12
277.726	161.12
277.957	171.12
278.189	163.12
278.421	166.12
278.652	189.12
278.884	204.12
279.115	186.12
279.347	235.12
279.579	256.12
279.81	321.12
280.042	415.12
280.273	479.12
280.505	438.12
280.736	298.12
280.968	231.12
281.199	202.12
281.431	198.12
281.662	215.12
281.894	218.12
282.125	221.12
282.356	258.12
282.588	258.12
282.819	242.12
283.051	265.12
283.282	311.12
283.513	371.12
283.745	297.12
283.976	243.12
284.207	205.12
284.439	187.12
284.67	180.12
284.901	161.12
285.132	196.12
285.364	186.12
285.595	169.12
285.826	153.12
286.057	190.12
286.288	181.12
286.52	211.12
286.751	211.12
286.982	234.12
287.213	283.12
287.444	291.12
287.675	259.12
287.906	214.12
288.138	183.12
288.369	181.12
288.6	158.12
288.831	174.12
289.062	164.12
289.293	173.12
289.524	157.12
289.755	152.12
289.986	169.12
290.217	161.12
290.448	158.12
290.679	187.12
290.91	170.12
291.141	159.12
291.371	158.12
291.602	182.12
291.833	168.12
292.064	149.12
292.295	170.12
292.526	171.12
292.757	165.12
292.987	181.12
293.218	169.12
293.449	178.12
293.68	172.12
293.91	187.12
294.141	173.12
294.372	177.12
294.603	187.12
294.833	168.12
295.064	193.12
295.295	171.12
295.525	158.12
295.756	159.12
295.987	170.12
296.217	163.12
296.448	163.12
296.679	169.12
296.909	166.12
297.14	185.12
297.37	181.12
297.601	158.12
297.831	166.12
298.062	168.12
298.292	171.12
298.523	175.12
298.753	165.12
298.984	170.12
299.214	170.12
299.445	175.12
299.675	187.12
299.905	183.12
300.136	169.12
300.366	193.12
300.597	169.12
300.827	188.12
301.057	175.12
301.288	177.12
301.518	198.12
301.748	193.12
301.979	199.12
302.209	187.12
302.439	189.12
302.669	182.12
302.9	192.12
303.13	185.12
303.36	178.12
303.59	176.12
303.82	185.12
304.051	178.12
304.281	190.12
304.511	185.12
304.741	191.12
304.971	199.12
305.201	185.12
305.431	179.12
305.661	188.12
305.891	169.12
306.121	181.12
306.352	172.12
306.582	170.12
306.812	189.12
307.042	178.12
307.272	183.12
307.502	174.12
307.731	178.12
307.961	195.12
308.191	173.12
308.421	176.12
308.651	176.12
308.881	167.12
309.111	183.12
309.341	183.12
309.571	169.12
309.8	181.12
310.03	180.12
310.26	182.12
310.49	182.12
310.72	185.12
310.949	190.12
311.179	181.12
311.409	195.12
311.639	195.12
311.868	202.12
312.098	191.12
312.328	207.12
312.557	192.12
312.787	195.12
313.017	205.12
313.246	209.12
313.476	214.12
313.706	206.12
313.935	218.12
314.165	224.12
314.394	222.12
314.624	205.12
314.853	237.12
315.083	223.12
315.312	207.12
315.542	210.12
315.771	236.12
316.001	225.12
316.23	210.12
316.46	222.12
316.689	205.12
316.919	217.12
317.148	213.12
317.377	201.12
317.607	201.12
317.836	222.12
318.065	210.12
318.295	207.12
318.524	202.12
318.753	229.12
318.983	209.12
319.212	208.12
319.441	201.12
319.67	195.12
319.9	186.12
320.129	207.12
320.358	174.12
320.587	187.12
320.816	184.12
321.046	191.12
321.275	214.12
321.504	204.12
321.733	200.12
321.962	209.12
322.191	194.12
322.42	204.12
322.649	205.12
322.878	189.12
323.108	189.12
323.337	201.12
323.566	201.12
323.795	198.12
324.024	202.12
324.253	195.12
324.482	199.12
324.71	217.12
324.939	209.12
325.168	202.12
325.397	200.12
325.626	198.12
325.855	184.12
326.084	187.12
326.313	211.12
326.542	211.12
326.77	195.12
326.999	180.12
327.228	191.12
327.457	211.12
327.686	194.12
327.914	181.12
328.143	199.12
328.372	213.12
328.6	182.12
328.829	190.12
329.058	195.12
329.287	189.12
329.515	188.12
329.744	216.12
329.972	190.12
330.201	201.12
330.43	210.12
330.658	191.12
330.887	185.12
331.115	192.12
331.344	206.12
331.572	199.12
331.801	200.12
332.03	186.12
332.258	207.12
332.486	188.12
332.715	204.12
332.943	216.12
333.172	196.12
333.4	201.12
333.629	209.12
333.857	214.12
334.085	210.12
334.314	199.12
334.542	202.12
334.771	198.12
334.999	197.12
335.227	208.12
335.455	207.12
335.684	204.12
335.912	239.12
336.14	201.12
336.369	199.12
336.597	196.12
336.825	201.12
337.053	204.12
337.281	193.12
337.51	189.12
337.738	198.12
337.966	202.12
338.194	191.12
338.422	191.12
338.65	203.12
338.878	199.12
339.106	196.12
339.334	191.12
339.562	200.12
339.79	195.12
340.018	207.12
340.246	198.12
340.474	192.12
340.702	194.12
340.93	199.12
341.158	202.12
341.386	194.12
341.614	183.12
341.842	193.12
342.07	205.12
342.298	189.12
342.526	200.12
342.754	197.12
342.981	191.12
343.209	194.12
343.437	201.12
343.665	193.12
343.893	195.12
344.12	222.12
344.348	221.12
344.576	205.12
344.804	220.12
345.031	214.12
345.259	217.12
345.487	204.12
345.714	210.12
345.942	208.12
346.17	208.12
346.397	201.12
346.625	189.12
346.853	189.12
347.08	205.12
347.308	183.12
347.535	188.12
347.763	187.12
347.99	205.12
348.218	207.12
348.445	186.12
348.673	189.12
348.9	203.12
349.128	188.12
349.355	191.12
349.583	211.12
349.81	212.12
350.037	187.12
350.265	202.12
350.492	190.12
350.72	205.12
350.947	191.12
351.174	198.12
351.402	197.12
351.629	201.12
351.856	182.12
352.083	189.12
352.311	198.12
352.538	191.12
352.765	183.12
352.992	200.12
353.22	198.12
353.447	198.12
353.674	195.12
353.901	206.12
354.128	201.12
354.355	194.12
354.583	199.12
354.81	214.12
355.037	206.12
355.264	198.12
355.491	213.12
355.718	213.12
355.945	230.12
356.172	233.12
356.399	225.12
356.626	257.12
356.853	306.12
357.08	419.12
357.307	532.12
357.534	525.12
357.761	399.12
357.988	338.12
358.215	303.12
358.441	266.12
358.668	227.12
358.895	247.12
359.122	242.12
359.349	225.12
359.576	227.12
359.802	223.12
360.029	219.12
360.256	208.12
360.483	207.12
360.709	215.12
360.936	207.12
361.163	206.12
361.39	213.12
361.616	224.12
361.843	231.12
362.07	225.12
362.296	219.12
362.523	214.12
362.749	233.12
362.976	233.12
363.203	271.12
363.429	291.12
363.656	418.12
363.882	576.12
364.109	673.12
364.335	474.12
364.562	329.12
364.788	306.12
365.015	258.12
365.241	264.12
365.468	223.12
365.694	248.12
365.92	239.12
366.147	239.12
366.373	242.12
366.599	244.12
366.826	286.12
367.052	315.12
367.278	351.12
367.505	344.12
367.731	349.12
367.957	436.12
368.184	646.12
368.41	871.12
368.636	745.12
368.862	493.12
369.089	367.12
369.315	327.12
369.541	300.12
369.767	286.12
369.993	265.12
370.219	247.12
370.445	236.12
370.672	247.12
370.898	232.12
371.124	229.12
371.35	227.12
371.576	233.12
371.802	248.12
372.028	245.12
372.254	227.12
372.48	231.12
372.706	229.12
372.932	246.12
373.158	258.12
373.384	279.12
373.61	314.12
373.835	459.12
374.061	557.12
374.287	526.12
374.513	383.12
374.739	300.12
374.965	279.12
375.191	270.12
375.416	243.12
375.642	230.12
375.868	253.12
376.094	229.12
376.319	215.12
376.545	216.12
376.771	221.12
376.997	222.12
377.222	207.12
377.448	219.12
377.674	211.12
377.899	222.12
378.125	219.12
378.35	223.12
378.576	239.12
378.802	228.12
379.027	233.12
379.253	230.12
379.478	215.12
379.704	223.12
379.929	207.12
380.155	209.12
380.38	234.12
380.606	210.12
380.831	208.12
381.057	218.12
381.282	205.12
381.507	201.12
381.733	227.12
381.958	243.12
382.184	230.12
382.409	231.12
382.634	225.12
382.86	202.12
383.085	219.12
383.31	213.12
383.535	223.12
383.761	220.12
383.986	208.12
384.211	218.12
384.436	235.12
384.662	217.12
384.887	229.12
385.112	231.12
385.337	225.12
385.562	216.12
385.787	220.12
386.013	238.12
386.238	216.12
386.463	246.12
386.688	240.12
386.913	203.12
387.138	221.12
387.363	215.12
387.588	229.12
387.813	224.12
388.038	209.12
388.263	213.12
388.488	221.12
388.713	218.12
388.938	217.12
389.163	221.12
389.387	215.12
389.612	221.12
389.837	217.12
390.062	219.12
390.287	213.12
390.512	210.12
390.736	224.12
390.961	214.12
391.186	215.12
391.411	226.12
391.636	209.12
391.86	225.12
392.085	215.12
392.31	223.12
392.534	223.12
392.759	226.12
392.984	216.12
393.208	211.12
393.433	237.12
393.658	226.12
393.882	220.12
394.107	217.12
394.331	222.12
394.556	233.12
394.78	217.12
395.005	235.12
395.229	218.12
395.454	217.12
395.678	236.12
395.903	226.12
396.127	239.12
396.352	222.12
396.576	224.12
396.801	224.12
397.025	244.12
397.249	219.12
397.474	243.12
397.698	230.12
397.922	231.12
398.147	233.12
398.371	232.12
398.595	252.12
398.82	243.12
399.044	229.12
399.268	244.12
399.492	261.12
399.717	254.12
399.941	268.12
400.165	251.12
400.389	251.12
400.613	256.12
400.837	234.12
401.062	237.12
401.286	249.12
401.51	264.12
401.734	271.12
401.958	294.12
402.182	286.12
402.406	285.12
402.63	256.12
402.854	264.12
403.078	263.12
403.302	272.12
403.526	261.12
403.75	254.12
403.974	269.12
404.198	270.12
404.422	308.12
404.645	322.12
404.869	332.12
405.093	380.12
405.317	462.12
405.541	718.12
405.765	1131.12
405.988	1331.12
406.212	938.12
406.436	650.12
406.66	472.12
406.883	411.12
407.107	370.12
407.331	352.12
407.555	322.12
407.778	318.12
408.002	307.12
408.226	289.12
408.449	309.12
408.673	267.12
408.896	257.12
409.12	249.12
409.344	254.12
409.567	248.12
409.791	241.12
410.014	239.12
410.238	260.12
410.461	251.12
410.685	266.12
410.908	265.12
411.132	241.12
411.355	271.12
411.578	236.12
411.802	245.12
412.025	240.12
412.249	254.12
412.472	250.12
412.695	233.12
412.919	244.12
413.142	254.12
413.365	248.12
413.589	235.12
413.812	234.12
414.035	258.12
414.258	237.12
414.482	233.12
414.705	254.12
414.928	245.12
415.151	256.12
415.374	242.12
415.597	229.12
415.821	235.12
416.044	230.12
416.267	241.12
416.49	233.12
416.713	260.12
416.936	265.12
417.159	247.12
417.382	246.12
417.605	239.12
417.828	242.12
418.051	243.12
418.274	256.12
418.497	249.12
418.72	242.12
418.943	246.12
419.166	232.12
419.389	239.12
419.611	257.12
419.834	267.12
420.057	257.12
420.28	262.12
420.503	226.12
420.726	257.12
420.948	256.12
421.171	233.12
421.394	250.12
421.617	248.12
421.839	239.12
422.062	265.12
422.285	282.12
422.507	284.12
422.73	284.12
422.953	305.12
423.175	287.12
423.398	309.12
423.621	321.12
423.843	362.12
424.066	397.12
424.288	474.12
424.511	575.12
424.733	635.12
424.956	573.12
425.178	477.12
425.401	441.12
425.623	390.12
425.846	363.12
426.068	350.12
426.291	347.12
426.513	325.12
426.735	331.12
426.958	300.12
427.18	288.12
427.402	272.12
427.625	275.12
427.847	283.12
428.069	280.12
428.292	272.12
428.514	260.12
428.736	238.12
428.958	244.12
429.181	241.12
429.403	251.12
429.625	265.12
429.847	263.12
430.069	245.12
430.292	248.12
430.514	234.12
430.736	241.12
430.958	253.12
431.18	256.12
431.402	239.12
431.624	254.12
431.846	234.12
432.068	241.12
432.29	254.12
432.512	248.12
432.734	240.12
432.956	229.12
433.178	249.12
433.4	253.12
433.622	261.12
433.844	284.12
434.066	256.12
434.287	271.12
434.509	250.12
434.731	251.12
434.953	256.12
435.175	250.12
435.397	250.12
435.618	268.12
435.84	249.12
436.062	258.12
436.284	264.12
436.505	271.12
436.727	275.12
436.949	281.12
437.17	297.12
437.392	283.12
437.614	314.12
437.835	314.12
438.057	347.12
438.278	377.12
438.5	448.12
438.721	545.12
438.943	569.12
439.165	519.12
439.386	443.12
439.608	412.12
439.829	406.12
440.05	384.12
440.272	383.12
440.493	364.12
440.715	403.12
440.936	421.12
441.158	410.12
441.379	365.12
441.6	344.12
441.822	336.12
442.043	316.12
442.264	306.12
442.486	299.12
442.707	297.12
442.928	275.12
443.149	275.12
443.371	273.12
443.592	253.12
443.813	258.12
444.034	280.12
444.255	280.12
444.476	258.12
444.698	266.12
444.919	275.12
445.14	313.12
445.361	285.12
445.582	269.12
445.803	240.12
446.024	249.12
446.245	238.12
446.466	245.12
446.687	253.12
446.908	251.12
447.129	234.12
447.35	224.12
447.571	245.12
447.792	240.12
448.013	232.12
448.234	232.12
448.455	231.12
448.675	211.12
448.896	217.12
449.117	204.12
449.338	226.12
449.559	235.12
449.779	221.12
450	226.12
450.221	236.12
450.442	225.12
450.662	225.12
450.883	218.12
451.104	217.12
451.324	219.12
451.545	202.12
451.766	225.12
451.986	215.12
452.207	221.12
452.428	216.12
452.648	221.12
452.869	212.12
453.089	214.12
453.31	220.12
453.53	210.12
453.751	209.12
453.971	213.12
454.192	210.12
454.412	208.12
454.633	202.12
454.853	223.12
455.073	218.12
455.294	207.12
455.514	193.12
455.734	209.12
455.955	209.12
456.175	223.12
456.395	225.12
456.616	211.12
456.836	206.12
457.056	201.12
457.276	210.12
457.497	224.12
457.717	213.12
457.937	209.12
458.157	235.12
458.377	194.12
458.598	199.12
458.818	202.12
459.038	202.12
459.258	205.12
459.478	218.12
459.698	223.12
459.918	218.12
460.138	225.12
460.358	217.12
460.578	231.12
460.798	224.12
461.018	233.12
461.238	233.12
461.458	229.12
461.678	245.12
461.898	237.12
462.118	204.12
462.338	243.12
462.558	229.12
462.777	238.12
462.997	239.12
463.217	230.12
463.437	245.12
463.657	238.12
463.876	231.12
464.096	242.12
464.316	234.12
464.536	225.12
464.755	237.12
464.975	217.12
465.195	233.12
465.414	222.12
465.634	208.12
465.854	205.12
466.073	213.12
466.293	212.12
466.512	215.12
466.732	226.12
466.951	225.12
467.171	215.12
467.391	226.12
467.61	205.12
467.829	206.12
468.049	229.12
468.268	206.12
468.488	208.12
468.707	218.12
468.927	215.12
469.146	203.12
469.365	208.12
469.585	213.12
469.804	207.12
470.023	235.12
470.243	222.12
470.462	233.12
470.681	219.12
470.901	224.12
471.12	215.12
471.339	207.12
471.558	211.12
471.777	220.12
471.997	214.12
472.216	217.12
472.435	207.12
472.654	221.12
472.873	218.12
473.092	215.12
473.311	211.12
473.53	216.12
473.749	212.12
473.968	223.12
474.187	201.12
474.406	209.12
474.625	212.12
474.844	208.12
475.063	230.12
475.282	217.12
475.501	218.12
475.72	215.12
475.939	221.12
476.158	234.12
476.377	233.12
476.596	208.12
476.814	229.12
477.033	244.12
477.252	247.12
477.471	234.12
477.69	239.12
477.908	234.12
478.127	261.12
478.346	233.12
478.564	265.12
478.783	256.12
479.002	256.12
479.22	240.12
479.439	253.12
479.658	252.12
479.876	259.12
480.095	259.12
480.313	255.12
480.532	248.12
480.751	265.12
480.969	250.12
481.188	255.12
481.406	250.12
481.624	235.12
481.843	254.12
482.061	231.12
482.28	242.12
482.498	243.12
482.717	256.12
482.935	259.12
483.153	237.12
483.372	249.12
483.59	235.12
483.808	238.12
484.027	238.12
484.245	246.12
484.463	246.12
484.681	242.12
484.9	256.12
485.118	239.12
485.336	233.12
485.554	238.12
485.772	237.12
485.99	250.12
486.209	242.12
486.427	245.12
486.645	260.12
486.863	246.12
487.081	231.12
487.299	234.12
487.517	237.12
487.735	247.12
487.953	253.12
488.171	258.12
488.389	248.12
488.607	241.12
488.825	244.12
489.043	251.12
489.261	256.12
489.479	266.12
489.696	261.12
489.914	270.12
490.132	251.12
490.35	258.12
490.568	256.12
490.786	259.12
491.003	267.12
491.221	264.12
491.439	246.12
491.657	237.12
491.874	256.12
492.092	274.12
492.31	259.12
492.527	249.12
492.745	263.12
492.963	251.12
493.18	256.12
493.398	263.12
493.615	249.12
493.833	280.12
494.05	252.12
494.268	270.12
494.485	269.12
494.703	263.12
494.92	268.12
495.138	270.12
495.355	266.12
495.573	297.12
495.79	285.12
496.008	286.12
496.225	277.12
496.442	272.12
496.66	291.12
496.877	279.12
497.094	267.12
497.312	267.12
497.529	289.12
497.746	277.12
497.963	288.12
498.181	286.12
498.398	305.12
498.615	293.12
498.832	298.12
499.049	322.12
499.267	339.12
499.484	353.12
499.701	360.12
499.918	379.12
500.135	382.12
500.352	403.12
500.569	439.12
500.786	515.12
501.003	427.12
501.22	393.12
501.437	373.12
501.654	345.12
501.871	347.12
502.088	363.12
502.305	333.12
502.522	322.12
502.739	329.12
502.956	321.12
503.172	321.12
503.389	318.12
503.606	313.12
503.823	318.12
504.04	327.12
504.256	362.12
504.473	359.12
504.69	361.12
504.907	349.12
505.123	340.12
505.34	334.12
505.557	336.12
505.773	322.12
505.99	304.12
506.207	288.12
506.423	298.12
506.64	280.12
506.856	295.12
507.073	295.12
507.289	278.12
507.506	289.12
507.722	276.12
507.939	268.12
508.155	249.12
508.372	265.12
508.588	257.12
508.805	253.12
509.021	264.12
509.238	266.12
509.454	274.12
509.67	262.12
509.887	247.12
510.103	249.12
510.319	239.12
510.536	241.12
510.752	257.12
510.968	273.12
511.184	253.12
511.401	256.12
511.617	259.12
511.833	238.12
512.049	240.12
512.265	257.12
512.481	254.12
512.698	245.12
512.914	239.12
513.13	237.12
513.346	255.12
513.562	232.12
513.778	260.12
513.994	251.12
514.21	274.12
514.426	234.12
514.642	242.12
514.858	244.12
515.074	254.12
515.29	278.12
515.506	249.12
515.721	249.12
515.937	264.12
516.153	265.12
516.369	278.12
516.585	274.12
516.801	265.12
517.016	266.12
517.232	260.12
517.448	269.12
517.664	258.12
517.879	278.12
518.095	267.12
518.311	275.12
518.527	261.12
518.742	264.12
518.958	252.12
519.173	257.12
519.389	243.12
519.605	266.12
519.82	229.12
520.036	250.12
520.251	296.12
520.467	279.12
520.682	263.12
520.898	258.12
521.113	245.12
521.329	236.12
521.544	249.12
521.76	254.12
521.975	270.12
522.19	247.12
522.406	254.12
522.621	285.12
522.836	287.12
523.052	299.12
523.267	286.12
523.482	261.12
523.698	253.12
523.913	245.12
524.128	226.12
524.343	242.12
524.559	245.12
524.774	227.12
524.989	249.12
525.204	230.12
525.419	242.12
525.634	235.12
525.849	236.12
526.064	234.12
526.28	249.12
526.495	230.12
526.71	224.12
526.925	239.12
527.14	221.12
527.355	232.12
527.57	231.12
527.785	249.12
527.999	234.12
528.214	206.12
528.429	246.12
528.644	223.12
528.859	241.12
529.074	249.12
529.289	254.12
529.503	232.12
529.718	237.12
529.933	246.12
530.148	247.12
530.363	230.12
530.577	242.12
530.792	240.12
531.007	238.12
531.221	222.12
531.436	220.12
531.651	233.12
531.865	221.12
532.08	228.12
532.295	254.12
532.509	253.12
532.724	253.12
532.938	262.12
533.153	271.12
533.367	245.12
533.582	251.12
533.796	257.12
534.011	249.12
534.225	238.12
534.44	255.12
534.654	254.12
534.868	233.12
535.083	249.12
535.297	271.12
535.511	254.12
535.726	247.12
535.94	256.12
536.154	274.12
536.369	299.12
536.583	288.12
536.797	306.12
537.011	353.12
537.225	385.12
537.44	437.12
537.654	433.12
537.868	393.12
538.082	353.12
538.296	331.12
538.51	338.12
538.724	315.12
538.938	299.12
539.153	286.12
539.367	288.12
539.581	275.12
539.795	279.12
540.009	262.12
540.222	272.12
540.436	250.12
540.65	269.12
540.864	257.12
541.078	258.12
541.292	236.12
541.506	246.12
541.72	237.12
541.934	258.12
542.147	242.12
542.361	237.12
542.575	243.12
542.789	246.12
543.002	243.12
543.216	240.12
543.43	251.12
543.644	234.12
543.857	238.12
544.071	233.12
544.285	240.12
544.498	239.12
544.712	223.12
544.925	232.12
545.139	231.12
545.352	238.12
545.566	239.12
545.779	229.12
545.993	221.12
546.206	223.12
546.42	234.12
546.633	219.12
546.847	229.12
547.06	213.12
547.274	214.12
547.487	216.12
547.7	237.12
547.914	233.12
548.127	221.12
548.34	237.12
548.554	229.12
548.767	223.12
548.98	225.12
549.193	225.12
549.407	227.12
549.62	233.12
549.833	222.12
550.046	231.12
550.259	222.12
550.473	229.12
550.686	226.12
550.899	231.12
551.112	227.12
551.325	225.12
551.538	213.12
551.751	231.12
551.964	236.12
552.177	224.12
552.39	232.12
552.603	236.12
552.816	238.12
553.029	246.12
553.242	254.12
553.455	236.12
553.667	264.12
553.88	272.12
554.093	279.12
554.306	302.12
554.519	285.12
554.732	288.12
554.944	294.12
555.157	283.12
555.37	273.12
555.583	283.12
555.795	269.12
556.008	266.12
556.221	267.12
556.433	264.12
556.646	259.12
556.859	274.12
557.071	260.12
557.284	278.12
557.496	284.12
557.709	281.12
557.921	265.12
558.134	264.12
558.346	283.12
558.559	259.12
558.771	280.12
558.984	283.12
559.196	319.12
559.409	311.12
559.621	339.12
559.833	369.12
560.046	407.12
560.258	449.12
560.47	525.12
560.683	617.12
560.895	824.12
561.107	917.12
561.32	701.12
561.532	538.12
561.744	427.12
561.956	376.12
562.168	334.12
562.381	323.12
562.593	317.12
562.805	286.12
563.017	287.12
563.229	269.12
563.441	273.12
563.653	258.12
563.865	248.12
564.077	258.12
564.289	237.12
564.501	245.12
564.713	238.12
564.925	233.12
565.137	241.12
565.349	227.12
565.561	225.12
565.773	230.12
565.985	231.12
566.197	225.12
566.408	229.12
566.62	254.12
566.832	263.12
567.044	256.12
567.255	257.12
567.467	231.12
567.679	259.12
567.891	238.12
568.102	253.12
568.314	221.12
568.526	220.12
568.737	223.12
568.949	203.12
569.161	213.12
569.372	200.12
569.584	206.12
569.795	199.12
570.007	203.12
570.218	193.12
570.43	201.12
570.641	178.12
570.853	199.12
571.064	192.12
571.276	186.12
571.487	188.12
571.698	183.12
571.91	201.12
572.121	185.12
572.333	174.12
572.544	189.12
572.755	197.12
572.966	180.12
573.178	161.12
573.389	206.12
573.6	191.12
573.811	179.12
574.023	169.12
574.234	174.12
574.445	174.12
574.656	190.12
574.867	194.12
575.078	197.12
575.289	183.12
575.501	167.12
575.712	179.12
575.923	177.12
576.134	170.12
576.345	157.12
576.556	171.12
576.767	177.12
576.978	173.12
577.188	175.12
577.399	169.12
577.61	147.12
577.821	158.12
578.032	153.12
578.243	171.12
578.454	162.12
578.665	169.12
578.875	154.12
579.086	175.12
579.297	159.12
579.508	176.12
579.718	159.12
579.929	157.12
580.14	154.12
580.35	161.12
580.561	170.12
580.772	165.12
580.982	167.12
581.193	161.12
581.403	143.12
581.614	151.12
581.825	159.12
582.035	160.12
582.246	171.12
582.456	147.12
582.667	155.12
582.877	151.12
583.087	175.12
583.298	161.12
583.508	160.12
583.719	156.12
583.929	151.12
584.139	144.12
584.35	159.12
584.56	157.12
584.77	158.12
584.981	161.12
585.191	134.12
585.401	135.12
585.611	161.12
585.821	151.12
586.032	167.12
586.242	169.12
586.452	169.12
586.662	149.12
586.872	149.12
587.082	147.12
587.292	160.12
587.502	150.12
587.713	161.12
587.923	143.12
588.133	159.12
588.343	167.12
588.553	155.12
588.762	152.12
588.972	142.12
589.182	176.12
589.392	155.12
589.602	155.12
589.812	171.12
590.022	148.12
590.232	151.12
590.441	147.12
590.651	160.12
590.861	158.12
591.071	154.12
591.281	149.12
591.49	149.12
591.7	156.12
591.91	154.12
592.119	146.12
592.329	155.12
592.539	174.12
592.748	158.12
592.958	138.12
593.167	150.12
593.377	160.12
593.587	169.12
593.796	156.12
594.006	147.12
594.215	152.12
594.424	157.12
594.634	145.12
594.843	173.12
595.053	140.12
595.262	139.12
595.472	154.12
595.681	158.12
595.89	154.12
596.1	138.12
596.309	130.12
596.518	142.12
596.727	143.12
596.937	131.12
597.146	121.12
597.355	129.12
597.564	149.12
597.774	146.12
597.983	146.12
598.192	148.12
598.401	143.12
598.61	146.12
598.819	135.12
599.028	144.12
599.237	165.12
599.446	156.12
599.655	149.12
599.864	140.12
600.073	136.12
600.282	152.12
600.491	141.12
600.7	144.12
600.909	142.12
601.118	146.12
601.327	154.12
601.536	128.12
601.745	144.12
601.953	139.12
602.162	161.12
602.371	135.12
602.58	137.12
602.789	139.12
602.997	139.12
603.206	138.12
603.415	150.12
603.623	150.12
603.832	142.12
604.041	130.12
604.249	137.12
604.458	144.12
604.666	142.12
604.875	129.12
605.084	131.12
605.292	146.12
605.501	131.12
605.709	129.12
605.918	128.12
606.126	134.12
606.334	138.12
606.543	132.12
606.751	135.12
606.96	142.12
607.168	139.12
607.376	135.12
607.585	131.12
607.793	137.12
608.001	131.12
608.21	155.12
608.418	128.12
608.626	139.12
608.834	136.12
609.043	138.12
609.251	134.12
609.459	128.12
609.667	138.12
609.875	127.12
610.083	122.12
610.291	137.12
610.499	131.12
610.707	145.12
610.916	134.12
611.124	121.12
611.332	128.12
611.54	133.12
611.748	118.12
611.955	149.12
612.163	146.12
612.371	137.12
612.579	127.12
612.787	142.12
612.995	132.12
613.203	129.12
613.411	140.12
613.618	139.12
613.826	125.12
614.034	123.12
614.242	130.12
614.449	138.12
614.657	119.12
614.865	131.12
615.072	135.12
615.28	129.12
615.488	130.12
615.695	132.12
615.903	136.12
616.111	134.12
616.318	135.12
616.526	143.12
616.733	132.12
616.941	132.12
617.148	129.12
617.356	129.12
617.563	135.12
617.771	111.12
617.978	126.12
618.185	144.12
618.393	135.12
618.6	117.12
618.807	121.12
619.015	125.12
619.222	116.12
619.429	115.12
619.637	137.12
619.844	129.12
620.051	135.12
620.258	128.12
620.466	122.12
620.673	133.12
620.88	111.12
621.087	123.12
621.294	126.12
621.501	124.12
621.708	123.12
621.915	130.12
622.122	121.12
622.329	133.12
622.536	134.12
622.743	120.12
622.95	135.12
623.157	122.12
623.364	137.12
623.571	125.12
623.778	134.12
623.985	122.12
624.192	105.12
624.399	112.12
624.606	119.12
624.812	125.12
625.019	127.12
625.226	128.12
625.433	122.12
625.639	123.12
625.846	127.12
626.053	101.12
626.259	120.12
626.466	125.12
626.673	134.12
626.879	120.12
627.086	110.12
627.293	122.12
627.499	125.12
627.706	122.12
627.912	124.12
628.119	118.12
628.325	115.12
628.532	123.12
628.738	133.12
628.945	118.12
629.151	118.12
629.357	130.12
629.564	124.12
629.77	125.12
629.976	122.12
630.183	120.12
630.389	118.12
630.595	121.12
630.802	102.12
631.008	117.12
631.214	118.12
631.42	118.12
631.627	107.12
631.833	112.12
632.039	113.12
632.245	119.12
632.451	112.12
632.657	113.12
632.863	116.12
633.069	102.12
633.275	109.12
633.481	110.12
633.688	115.12
633.893	132.12
634.099	107.12
634.305	114.12
634.511	96.12
634.717	118.12
634.923	109.12
635.129	118.12
635.335	105.12
635.541	119.12
635.747	105.12
635.952	112.12
636.158	113.12
636.364	125.12
636.57	107.12
636.775	115.12
636.981	105.12
637.187	113.12
637.392	119.12
637.598	127.12
637.804	123.12
638.009	98.12
638.215	131.12
638.421	111.12
638.626	104.12
638.832	124.12
639.037	122.12
639.243	111.12
639.448	119.12
639.654	125.12
639.859	114.12
640.065	103.12
640.27	106.12
640.475	108.12
640.681	112.12
640.886	103.12
641.091	100.12
641.297	106.12
641.502	114.12
641.707	116.12
641.913	124.12
642.118	106.12
642.323	109.12
642.528	126.12
642.733	118.12
642.939	111.12
643.144	91.12
643.349	103.12
643.554	111.12
643.759	110.12
643.964	113.12
644.169	117.12
644.374	106.12
644.579	116.12
644.784	113.12
644.989	99.12
645.194	104.12
645.399	124.12
645.604	108.12
645.809	106.12
646.014	102.12
646.219	123.12
646.423	107.12
646.628	106.12
646.833	125.12
647.038	117.12
647.243	112.12
647.447	117.12
647.652	102.12
647.857	115.12
648.062	112.12
648.266	107.12
648.471	105.12
648.676	106.12
648.88	105.12
649.085	127.12
649.289	119.12
649.494	105.12
649.698	110.12
649.903	120.12
650.107	111.12
650.312	112.12
650.516	106.12
650.721	95.12
650.925	105.12
651.13	116.12
651.334	100.12
651.539	98.12
651.743	89.12
651.947	94.12
652.152	111.12
652.356	116.12
652.56	106.12
652.764	117.12
652.969	106.12
653.173	95.12
653.377	101.12
653.581	94.12
653.785	112.12
653.99	103.12
654.194	109.12
654.398	111.12
654.602	108.12
654.806	104.12
655.01	116.12
655.214	98.12
655.418	99.12
655.622	94.12
655.826	100.12
656.03	105.12
656.234	110.12
656.438	111.12
656.642	103.12
656.846	99.12
657.049	87.12
657.253	110.12
657.457	107.12
657.661	99.12
657.865	92.12
658.068	85.12
658.272	88.12
658.476	93.12
658.68	87.12
658.883	73.12
659.087	109.12
659.291	92.12
659.494	90.12
659.698	94.12
659.901	98.12
660.105	78.12
660.309	91.12
660.512	83.12
660.716	90.12
660.919	101.12
661.123	86.12
661.326	91.12
661.53	107.12
661.733	87.12
661.936	93.12
662.14	90.12
662.343	79.12
662.546	74.12
662.75	82.12
662.953	89.12
663.156	93.12
663.36	84.12
663.563	82.12
663.766	83.12
663.969	92.12
664.173	80.12
664.376	75.12
664.579	85.12
664.782	83.12
664.985	74.12
665.188	85.12
665.391	86.12
665.594	90.12
665.797	80.12
666	88.12
666.203	89.12
666.406	86.12
666.609	87.12
666.812	78.12
667.015	86.12
667.218	79.12
667.421	79.12
667.624	74.12
667.827	84.12
668.03	77.12
668.232	85.12
668.435	88.12
668.638	79.12
668.841	99.12
669.043	81.12
669.246	81.12
669.449	67.12
669.651	70.12
669.854	71.12
670.057	80.12
670.259	93.12
670.462	73.12
670.665	77.12
670.867	86.12
671.07	82.12
671.272	83.12
671.475	93.12
671.677	65.12
671.88	89.12
672.082	77.12
672.284	79.12
672.487	82.12
672.689	69.12
672.892	85.12
