Data from StdB_HRD10591_006.txt Node
Date: Fri May 16 15:24:49 EDT 2025
User: Yrep
Spectrometer: HR+D1059
Trigger mode: 1
Integration Time (sec): 1.000000E-1
Scans to average: 1
Electric dark correction enabled: true
Nonlinearity correction enabled: false
Boxcar width: 0
XAxis mode: Wavelengths
Number of Pixels in Spectrum: 2048
>>>>>Begin Spectral Data<<<<<
223.165	-24.69
223.4	-24.69
223.635	-24.69
223.869	-17.69
224.104	-17.69
224.338	-3.69
224.573	-15.69
224.808	-6.69
225.042	-4.69
225.277	-15.69
225.511	2.31
225.746	9.31
225.98	12.31
226.215	2.31
226.449	13.31
226.683	17.31
226.918	26.31
227.152	23.31
227.387	47.31
227.621	66.31
227.856	34.31
228.09	57.31
228.324	58.31
228.559	59.31
228.793	58.31
229.027	63.31
229.262	81.31
229.496	80.31
229.73	74.31
229.964	92.31
230.199	85.31
230.433	76.31
230.667	92.31
230.901	91.31
231.136	100.31
231.37	82.31
231.604	84.31
231.838	70.31
232.072	82.31
232.306	87.31
232.541	95.31
232.775	85.31
233.009	82.31
233.243	82.31
233.477	90.31
233.711	82.31
233.945	98.31
234.179	90.31
234.413	90.31
234.647	96.31
234.881	93.31
235.115	95.31
235.349	103.31
235.583	90.31
235.817	104.31
236.051	97.31
236.285	106.31
236.519	99.31
236.753	91.31
236.987	86.31
237.221	76.31
237.455	89.31
237.689	97.31
237.922	87.31
238.156	91.31
238.39	86.31
238.624	93.31
238.858	96.31
239.091	94.31
239.325	103.31
239.559	115.31
239.793	101.31
240.027	118.31
240.26	117.31
240.494	97.31
240.728	108.31
240.961	95.31
241.195	108.31
241.429	92.31
241.662	104.31
241.896	86.31
242.13	93.31
242.363	109.31
242.597	96.31
242.83	103.31
243.064	96.31
243.298	99.31
243.531	98.31
243.765	95.31
243.998	96.31
244.232	103.31
244.465	102.31
244.699	111.31
244.932	110.31
245.166	122.31
245.399	100.31
245.633	100.31
245.866	106.31
246.099	104.31
246.333	105.31
246.566	119.31
246.8	109.31
247.033	104.31
247.266	100.31
247.5	128.31
247.733	119.31
247.966	129.31
248.2	122.31
248.433	115.31
248.666	98.31
248.899	116.31
249.133	105.31
249.366	108.31
249.599	110.31
249.832	118.31
250.066	120.31
250.299	100.31
250.532	127.31
250.765	112.31
250.998	119.31
251.231	105.31
251.465	121.31
251.698	111.31
251.931	114.31
252.164	116.31
252.397	136.31
252.63	124.31
252.863	154.31
253.096	144.31
253.329	129.31
253.562	150.31
253.795	140.31
254.028	138.31
254.261	151.31
254.494	144.31
254.727	118.31
254.96	129.31
255.193	129.31
255.426	132.31
255.659	132.31
255.892	145.31
256.124	144.31
256.357	140.31
256.59	148.31
256.823	136.31
257.056	135.31
257.289	151.31
257.521	159.31
257.754	183.31
257.987	187.31
258.22	184.31
258.452	143.31
258.685	144.31
258.918	144.31
259.151	139.31
259.383	148.31
259.616	140.31
259.849	147.31
260.081	159.31
260.314	158.31
260.547	166.31
260.779	177.31
261.012	216.31
261.244	259.31
261.477	326.31
261.71	330.31
261.942	250.31
262.175	187.31
262.407	164.31
262.64	173.31
262.872	156.31
263.105	166.31
263.337	162.31
263.57	160.31
263.802	170.31
264.035	161.31
264.267	159.31
264.499	150.31
264.732	177.31
264.964	179.31
265.197	188.31
265.429	175.31
265.661	190.31
265.894	166.31
266.126	189.31
266.358	218.31
266.591	236.31
266.823	210.31
267.055	167.31
267.287	154.31
267.52	157.31
267.752	156.31
267.984	132.31
268.216	136.31
268.448	120.31
268.681	150.31
268.913	138.31
269.145	131.31
269.377	143.31
269.609	143.31
269.841	137.31
270.073	142.31
270.306	151.31
270.538	141.31
270.77	134.31
271.002	129.31
271.234	131.31
271.466	138.31
271.698	123.31
271.93	135.31
272.162	140.31
272.394	137.31
272.626	138.31
272.858	151.31
273.09	144.31
273.322	168.31
273.553	147.31
273.785	135.31
274.017	139.31
274.249	141.31
274.481	140.31
274.713	129.31
274.945	162.31
275.176	144.31
275.408	153.31
275.64	163.31
275.872	146.31
276.104	145.31
276.335	133.31
276.567	144.31
276.799	159.31
277.031	175.31
277.262	153.31
277.494	163.31
277.726	167.31
277.957	179.31
278.189	170.31
278.421	188.31
278.652	174.31
278.884	197.31
279.115	202.31
279.347	226.31
279.579	255.31
279.81	332.31
280.042	418.31
280.273	521.31
280.505	464.31
280.736	312.31
280.968	257.31
281.199	233.31
281.431	190.31
281.662	204.31
281.894	223.31
282.125	243.31
282.356	283.31
282.588	275.31
282.819	233.31
283.051	264.31
283.282	339.31
283.513	394.31
283.745	314.31
283.976	226.31
284.207	201.31
284.439	193.31
284.67	184.31
284.901	193.31
285.132	194.31
285.364	188.31
285.595	175.31
285.826	180.31
286.057	174.31
286.288	186.31
286.52	204.31
286.751	202.31
286.982	243.31
287.213	281.31
287.444	310.31
287.675	281.31
287.906	207.31
288.138	190.31
288.369	175.31
288.6	167.31
288.831	158.31
289.062	176.31
289.293	174.31
289.524	156.31
289.755	157.31
289.986	149.31
290.217	178.31
290.448	148.31
290.679	151.31
290.91	169.31
291.141	151.31
291.371	160.31
291.602	150.31
291.833	173.31
292.064	158.31
292.295	170.31
292.526	163.31
292.757	155.31
292.987	144.31
293.218	161.31
293.449	164.31
293.68	158.31
293.91	168.31
294.141	172.31
294.372	157.31
294.603	170.31
294.833	154.31
295.064	167.31
295.295	189.31
295.525	177.31
295.756	173.31
295.987	162.31
296.217	176.31
296.448	175.31
296.679	162.31
296.909	166.31
297.14	147.31
297.37	168.31
297.601	180.31
297.831	174.31
298.062	184.31
298.292	160.31
298.523	186.31
298.753	168.31
298.984	177.31
299.214	175.31
299.445	168.31
299.675	175.31
299.905	183.31
300.136	180.31
300.366	186.31
300.597	172.31
300.827	162.31
301.057	159.31
301.288	157.31
301.518	179.31
301.748	184.31
301.979	202.31
302.209	185.31
302.439	188.31
302.669	191.31
302.9	196.31
303.13	172.31
303.36	180.31
303.59	173.31
303.82	164.31
304.051	191.31
304.281	186.31
304.511	199.31
304.741	176.31
304.971	174.31
305.201	171.31
305.431	171.31
305.661	195.31
305.891	197.31
306.121	179.31
306.352	177.31
306.582	170.31
306.812	178.31
307.042	168.31
307.272	189.31
307.502	189.31
307.731	174.31
307.961	172.31
308.191	172.31
308.421	191.31
308.651	169.31
308.881	183.31
309.111	170.31
309.341	173.31
309.571	167.31
309.8	191.31
310.03	182.31
310.26	185.31
310.49	194.31
310.72	175.31
310.949	180.31
311.179	199.31
311.409	192.31
311.639	186.31
311.868	188.31
312.098	172.31
312.328	194.31
312.557	187.31
312.787	194.31
313.017	188.31
313.246	209.31
313.476	214.31
313.706	200.31
313.935	214.31
314.165	208.31
314.394	222.31
314.624	220.31
314.853	213.31
315.083	228.31
315.312	217.31
315.542	218.31
315.771	220.31
316.001	210.31
316.23	208.31
316.46	197.31
316.689	198.31
316.919	205.31
317.148	217.31
317.377	210.31
317.607	207.31
317.836	209.31
318.065	208.31
318.295	214.31
318.524	210.31
318.753	201.31
318.983	194.31
319.212	177.31
319.441	175.31
319.67	184.31
319.9	182.31
320.129	188.31
320.358	192.31
320.587	176.31
320.816	196.31
321.046	190.31
321.275	185.31
321.504	206.31
321.733	183.31
321.962	206.31
322.191	193.31
322.42	195.31
322.649	201.31
322.878	207.31
323.108	198.31
323.337	195.31
323.566	182.31
323.795	192.31
324.024	179.31
324.253	182.31
324.482	184.31
324.71	194.31
324.939	212.31
325.168	187.31
325.397	187.31
325.626	199.31
325.855	193.31
326.084	211.31
326.313	196.31
326.542	193.31
326.77	204.31
326.999	202.31
327.228	172.31
327.457	192.31
327.686	188.31
327.914	204.31
328.143	192.31
328.372	195.31
328.6	200.31
328.829	179.31
329.058	190.31
329.287	188.31
329.515	192.31
329.744	193.31
329.972	192.31
330.201	187.31
330.43	196.31
330.658	203.31
330.887	189.31
331.115	207.31
331.344	192.31
331.572	195.31
331.801	201.31
332.03	204.31
332.258	208.31
332.486	186.31
332.715	189.31
332.943	210.31
333.172	201.31
333.4	207.31
333.629	210.31
333.857	200.31
334.085	203.31
334.314	211.31
334.542	199.31
334.771	217.31
334.999	201.31
335.227	193.31
335.455	192.31
335.684	212.31
335.912	204.31
336.14	175.31
336.369	207.31
336.597	199.31
336.825	187.31
337.053	190.31
337.281	204.31
337.51	191.31
337.738	202.31
337.966	188.31
338.194	193.31
338.422	209.31
338.65	192.31
338.878	194.31
339.106	194.31
339.334	205.31
339.562	187.31
339.79	192.31
340.018	185.31
340.246	198.31
340.474	187.31
340.702	197.31
340.93	217.31
341.158	204.31
341.386	190.31
341.614	194.31
341.842	186.31
342.07	182.31
342.298	196.31
342.526	194.31
342.754	192.31
342.981	171.31
343.209	196.31
343.437	208.31
343.665	200.31
343.893	210.31
344.12	204.31
344.348	194.31
344.576	207.31
344.804	193.31
345.031	205.31
345.259	203.31
345.487	200.31
345.714	198.31
345.942	194.31
346.17	212.31
346.397	209.31
346.625	175.31
346.853	193.31
347.08	204.31
347.308	188.31
347.535	184.31
347.763	194.31
347.99	202.31
348.218	191.31
348.445	198.31
348.673	174.31
348.9	192.31
349.128	200.31
349.355	195.31
349.583	202.31
349.81	184.31
350.037	202.31
350.265	186.31
350.492	196.31
350.72	191.31
350.947	194.31
351.174	204.31
351.402	199.31
351.629	179.31
351.856	192.31
352.083	186.31
352.311	195.31
352.538	181.31
352.765	198.31
352.992	207.31
353.22	194.31
353.447	214.31
353.674	202.31
353.901	182.31
354.128	220.31
354.355	207.31
354.583	200.31
354.81	186.31
355.037	201.31
355.264	209.31
355.491	208.31
355.718	218.31
355.945	212.31
356.172	232.31
356.399	230.31
356.626	244.31
356.853	316.31
357.08	419.31
357.307	574.31
357.534	598.31
357.761	397.31
357.988	324.31
358.215	296.31
358.441	267.31
358.668	234.31
358.895	237.31
359.122	244.31
359.349	220.31
359.576	234.31
359.802	220.31
360.029	223.31
360.256	220.31
360.483	222.31
360.709	214.31
360.936	220.31
361.163	227.31
361.39	206.31
361.616	206.31
361.843	218.31
362.07	216.31
362.296	219.31
362.523	233.31
362.749	226.31
362.976	250.31
363.203	265.31
363.429	298.31
363.656	474.31
363.882	642.31
364.109	757.31
364.335	521.31
364.562	362.31
364.788	287.31
365.015	274.31
365.241	259.31
365.468	245.31
365.694	218.31
365.92	234.31
366.147	238.31
366.373	251.31
366.599	250.31
366.826	281.31
367.052	315.31
367.278	381.31
367.505	348.31
367.731	361.31
367.957	492.31
368.184	724.31
368.41	995.31
368.636	883.31
368.862	514.31
369.089	408.31
369.315	333.31
369.541	278.31
369.767	274.31
369.993	245.31
370.219	238.31
370.445	235.31
370.672	241.31
370.898	241.31
371.124	238.31
371.35	221.31
371.576	223.31
371.802	225.31
372.028	226.31
372.254	233.31
372.48	235.31
372.706	242.31
372.932	234.31
373.158	252.31
373.384	260.31
373.61	358.31
373.835	486.31
374.061	632.31
374.287	569.31
374.513	383.31
374.739	310.31
374.965	265.31
375.191	230.31
375.416	240.31
375.642	239.31
375.868	227.31
376.094	204.31
376.319	232.31
376.545	216.31
376.771	226.31
376.997	213.31
377.222	209.31
377.448	210.31
377.674	217.31
377.899	216.31
378.125	213.31
378.35	227.31
378.576	234.31
378.802	224.31
379.027	237.31
379.253	234.31
379.478	215.31
379.704	220.31
379.929	226.31
380.155	228.31
380.38	207.31
380.606	205.31
380.831	222.31
381.057	214.31
381.282	201.31
381.507	201.31
381.733	214.31
381.958	206.31
382.184	218.31
382.409	214.31
382.634	216.31
382.86	217.31
383.085	224.31
383.31	210.31
383.535	209.31
383.761	225.31
383.986	218.31
384.211	217.31
384.436	233.31
384.662	225.31
384.887	234.31
385.112	230.31
385.337	242.31
385.562	224.31
385.787	215.31
386.013	211.31
386.238	211.31
386.463	220.31
386.688	235.31
386.913	210.31
387.138	207.31
387.363	208.31
387.588	224.31
387.813	235.31
388.038	224.31
388.263	218.31
388.488	214.31
388.713	211.31
388.938	224.31
389.163	222.31
389.387	215.31
389.612	219.31
389.837	202.31
390.062	217.31
390.287	215.31
390.512	199.31
390.736	224.31
390.961	207.31
391.186	224.31
391.411	219.31
391.636	239.31
391.86	223.31
392.085	225.31
392.31	217.31
392.534	227.31
392.759	232.31
392.984	236.31
393.208	243.31
393.433	239.31
393.658	240.31
393.882	212.31
394.107	232.31
394.331	234.31
394.556	219.31
394.78	220.31
395.005	219.31
395.229	232.31
395.454	217.31
395.678	222.31
395.903	225.31
396.127	234.31
396.352	233.31
396.576	220.31
396.801	223.31
397.025	235.31
397.249	223.31
397.474	230.31
397.698	227.31
397.922	244.31
398.147	237.31
398.371	233.31
398.595	248.31
398.82	257.31
399.044	255.31
399.268	238.31
399.492	259.31
399.717	267.31
399.941	267.31
400.165	265.31
400.389	235.31
400.613	270.31
400.837	246.31
401.062	259.31
401.286	257.31
401.51	268.31
401.734	286.31
401.958	294.31
402.182	312.31
402.406	278.31
402.63	273.31
402.854	263.31
403.078	257.31
403.302	272.31
403.526	260.31
403.75	270.31
403.974	286.31
404.198	272.31
404.422	284.31
404.645	315.31
404.869	339.31
405.093	382.31
405.317	508.31
405.541	824.31
405.765	1347.31
405.988	1559.31
406.212	1036.31
406.436	696.31
406.66	496.31
406.883	400.31
407.107	372.31
407.331	350.31
407.555	322.31
407.778	313.31
408.002	319.31
408.226	289.31
408.449	289.31
408.673	275.31
408.896	260.31
409.12	269.31
409.344	271.31
409.567	258.31
409.791	244.31
410.014	257.31
410.238	264.31
410.461	254.31
410.685	256.31
410.908	244.31
411.132	270.31
411.355	264.31
411.578	259.31
411.802	244.31
412.025	241.31
412.249	266.31
412.472	237.31
412.695	236.31
412.919	250.31
413.142	238.31
413.365	242.31
413.589	247.31
413.812	232.31
414.035	256.31
414.258	243.31
414.482	231.31
414.705	236.31
414.928	243.31
415.151	234.31
415.374	250.31
415.597	235.31
415.821	233.31
416.044	238.31
416.267	249.31
416.49	252.31
416.713	246.31
416.936	281.31
417.159	247.31
417.382	241.31
417.605	240.31
417.828	234.31
418.051	242.31
418.274	257.31
418.497	216.31
418.72	248.31
418.943	251.31
419.166	253.31
419.389	266.31
419.611	250.31
419.834	250.31
420.057	248.31
420.28	262.31
420.503	246.31
420.726	258.31
420.948	246.31
421.171	237.31
421.394	259.31
421.617	254.31
421.839	264.31
422.062	283.31
422.285	275.31
422.507	295.31
422.73	280.31
422.953	301.31
423.175	292.31
423.398	304.31
423.621	333.31
423.843	365.31
424.066	440.31
424.288	524.31
424.511	635.31
424.733	694.31
424.956	592.31
425.178	509.31
425.401	467.31
425.623	416.31
425.846	385.31
426.068	353.31
426.291	338.31
426.513	333.31
426.735	334.31
426.958	323.31
427.18	309.31
427.402	293.31
427.625	279.31
427.847	266.31
428.069	276.31
428.292	278.31
428.514	268.31
428.736	266.31
428.958	249.31
429.181	261.31
429.403	242.31
429.625	250.31
429.847	238.31
430.069	248.31
430.292	252.31
430.514	263.31
430.736	252.31
430.958	248.31
431.18	249.31
431.402	253.31
431.624	235.31
431.846	229.31
432.068	240.31
432.29	236.31
432.512	248.31
432.734	263.31
432.956	248.31
433.178	258.31
433.4	275.31
433.622	253.31
433.844	271.31
434.066	279.31
434.287	271.31
434.509	268.31
434.731	264.31
434.953	267.31
435.175	266.31
435.397	256.31
435.618	266.31
435.84	243.31
436.062	257.31
436.284	249.31
436.505	273.31
436.727	255.31
436.949	278.31
437.17	292.31
437.392	304.31
437.614	311.31
437.835	327.31
438.057	340.31
438.278	391.31
438.5	475.31
438.721	558.31
438.943	622.31
439.165	554.31
439.386	480.31
439.608	427.31
439.829	399.31
440.05	392.31
440.272	373.31
440.493	398.31
440.715	426.31
440.936	459.31
441.158	450.31
441.379	374.31
441.6	366.31
441.822	339.31
442.043	316.31
442.264	311.31
442.486	310.31
442.707	299.31
442.928	268.31
443.149	269.31
443.371	273.31
443.592	282.31
443.813	271.31
444.034	267.31
444.255	274.31
444.476	271.31
444.698	261.31
444.919	263.31
445.14	335.31
445.361	297.31
445.582	264.31
445.803	249.31
446.024	243.31
446.245	244.31
446.466	255.31
446.687	243.31
446.908	232.31
447.129	233.31
447.35	226.31
447.571	238.31
447.792	248.31
448.013	231.31
448.234	225.31
448.455	248.31
448.675	214.31
448.896	236.31
449.117	214.31
449.338	236.31
449.559	243.31
449.779	224.31
450	221.31
450.221	222.31
450.442	227.31
450.662	240.31
450.883	223.31
451.104	216.31
451.324	221.31
451.545	226.31
451.766	220.31
451.986	231.31
452.207	189.31
452.428	213.31
452.648	230.31
452.869	222.31
453.089	204.31
453.31	230.31
453.53	202.31
453.751	212.31
453.971	204.31
454.192	204.31
454.412	204.31
454.633	224.31
454.853	198.31
455.073	199.31
455.294	194.31
455.514	207.31
455.734	206.31
455.955	202.31
456.175	205.31
456.395	195.31
456.616	208.31
456.836	208.31
457.056	195.31
457.276	199.31
457.497	211.31
457.717	198.31
457.937	212.31
458.157	193.31
458.377	205.31
458.598	202.31
458.818	202.31
459.038	217.31
459.258	222.31
459.478	202.31
459.698	212.31
459.918	205.31
460.138	230.31
460.358	232.31
460.578	236.31
460.798	233.31
461.018	224.31
461.238	217.31
461.458	238.31
461.678	232.31
461.898	250.31
462.118	238.31
462.338	252.31
462.558	247.31
462.777	241.31
462.997	261.31
463.217	244.31
463.437	232.31
463.657	237.31
463.876	225.31
464.096	247.31
464.316	233.31
464.536	225.31
464.755	240.31
464.975	230.31
465.195	231.31
465.414	246.31
465.634	229.31
465.854	206.31
466.073	216.31
466.293	223.31
466.512	215.31
466.732	231.31
466.951	217.31
467.171	216.31
467.391	225.31
467.61	204.31
467.829	217.31
468.049	216.31
468.268	226.31
468.488	209.31
468.707	196.31
468.927	214.31
469.146	210.31
469.365	202.31
469.585	209.31
469.804	242.31
470.023	225.31
470.243	212.31
470.462	206.31
470.681	212.31
470.901	222.31
471.12	201.31
471.339	216.31
471.558	215.31
471.777	211.31
471.997	239.31
472.216	212.31
472.435	217.31
472.654	219.31
472.873	208.31
473.092	207.31
473.311	214.31
473.53	207.31
473.749	204.31
473.968	221.31
474.187	226.31
474.406	212.31
474.625	236.31
474.844	236.31
475.063	216.31
475.282	228.31
475.501	228.31
475.72	209.31
475.939	226.31
476.158	235.31
476.377	213.31
476.596	213.31
476.814	232.31
477.033	219.31
477.252	225.31
477.471	236.31
477.69	245.31
477.908	233.31
478.127	257.31
478.346	252.31
478.564	241.31
478.783	258.31
479.002	268.31
479.22	268.31
479.439	254.31
479.658	244.31
479.876	249.31
480.095	232.31
480.313	252.31
480.532	273.31
480.751	287.31
480.969	252.31
481.188	246.31
481.406	251.31
481.624	256.31
481.843	243.31
482.061	238.31
482.28	243.31
482.498	248.31
482.717	246.31
482.935	261.31
483.153	253.31
483.372	252.31
483.59	232.31
483.808	247.31
484.027	251.31
484.245	254.31
484.463	253.31
484.681	236.31
484.9	238.31
485.118	251.31
485.336	258.31
485.554	239.31
485.772	255.31
485.99	264.31
486.209	240.31
486.427	251.31
486.645	258.31
486.863	263.31
487.081	259.31
487.299	250.31
487.517	249.31
487.735	244.31
487.953	255.31
488.171	251.31
488.389	244.31
488.607	241.31
488.825	240.31
489.043	254.31
489.261	257.31
489.479	266.31
489.696	269.31
489.914	256.31
490.132	261.31
490.35	240.31
490.568	256.31
490.786	255.31
491.003	257.31
491.221	254.31
491.439	235.31
491.657	256.31
491.874	240.31
492.092	254.31
492.31	264.31
492.527	279.31
492.745	260.31
492.963	256.31
493.18	257.31
493.398	263.31
493.615	276.31
493.833	256.31
494.05	267.31
494.268	252.31
494.485	267.31
494.703	266.31
494.92	257.31
495.138	269.31
495.355	272.31
495.573	297.31
495.79	281.31
496.008	279.31
496.225	272.31
496.442	267.31
496.66	279.31
496.877	269.31
497.094	278.31
497.312	264.31
497.529	282.31
497.746	290.31
497.963	279.31
498.181	300.31
498.398	296.31
498.615	296.31
498.832	316.31
499.049	340.31
499.267	347.31
499.484	330.31
499.701	349.31
499.918	385.31
500.135	401.31
500.352	410.31
500.569	462.31
500.786	544.31
501.003	452.31
501.22	399.31
501.437	369.31
501.654	354.31
501.871	352.31
502.088	333.31
502.305	339.31
502.522	319.31
502.739	328.31
502.956	312.31
503.172	319.31
503.389	312.31
503.606	309.31
503.823	336.31
504.04	328.31
504.256	354.31
504.473	371.31
504.69	362.31
504.907	372.31
505.123	355.31
505.34	355.31
505.557	328.31
505.773	323.31
505.99	307.31
506.207	296.31
506.423	286.31
506.64	310.31
506.856	297.31
507.073	300.31
507.289	295.31
507.506	299.31
507.722	279.31
507.939	294.31
508.155	260.31
508.372	263.31
508.588	266.31
508.805	269.31
509.021	280.31
509.238	256.31
509.454	269.31
509.67	265.31
509.887	249.31
510.103	246.31
510.319	243.31
510.536	242.31
510.752	261.31
510.968	245.31
511.184	242.31
511.401	258.31
511.617	243.31
511.833	246.31
512.049	236.31
512.265	255.31
512.481	242.31
512.698	257.31
512.914	248.31
513.13	244.31
513.346	255.31
513.562	246.31
513.778	248.31
513.994	266.31
514.21	239.31
514.426	237.31
514.642	239.31
514.858	251.31
515.074	259.31
515.29	273.31
515.506	261.31
515.721	271.31
515.937	278.31
516.153	264.31
516.369	268.31
516.585	268.31
516.801	266.31
517.016	267.31
517.232	272.31
517.448	279.31
517.664	250.31
517.879	280.31
518.095	273.31
518.311	259.31
518.527	261.31
518.742	262.31
518.958	251.31
519.173	260.31
519.389	245.31
519.605	261.31
519.82	248.31
520.036	248.31
520.251	278.31
520.467	283.31
520.682	255.31
520.898	256.31
521.113	252.31
521.329	251.31
521.544	252.31
521.76	268.31
521.975	257.31
522.19	259.31
522.406	267.31
522.621	286.31
522.836	304.31
523.052	330.31
523.267	307.31
523.482	265.31
523.698	260.31
523.913	243.31
524.128	247.31
524.343	238.31
524.559	241.31
524.774	237.31
524.989	227.31
525.204	239.31
525.419	230.31
525.634	259.31
525.849	231.31
526.064	248.31
526.28	240.31
526.495	237.31
526.71	232.31
526.925	235.31
527.14	235.31
527.355	226.31
527.57	225.31
527.785	230.31
527.999	249.31
528.214	230.31
528.429	242.31
528.644	240.31
528.859	226.31
529.074	236.31
529.289	237.31
529.503	243.31
529.718	237.31
529.933	257.31
530.148	246.31
530.363	257.31
530.577	250.31
530.792	231.31
531.007	249.31
531.221	236.31
531.436	233.31
531.651	232.31
531.865	242.31
532.08	226.31
532.295	230.31
532.509	240.31
532.724	257.31
532.938	286.31
533.153	265.31
533.367	250.31
533.582	257.31
533.796	244.31
534.011	237.31
534.225	241.31
534.44	241.31
534.654	257.31
534.868	255.31
535.083	262.31
535.297	264.31
535.511	271.31
535.726	245.31
535.94	259.31
536.154	285.31
536.369	302.31
536.583	310.31
536.797	300.31
537.011	343.31
537.225	410.31
537.44	466.31
537.654	475.31
537.868	422.31
538.082	378.31
538.296	360.31
538.51	342.31
538.724	305.31
538.938	309.31
539.153	304.31
539.367	277.31
539.581	271.31
539.795	276.31
540.009	261.31
540.222	264.31
540.436	262.31
540.65	267.31
540.864	242.31
541.078	243.31
541.292	258.31
541.506	235.31
541.72	231.31
541.934	254.31
542.147	252.31
542.361	224.31
542.575	236.31
542.789	243.31
543.002	236.31
543.216	248.31
543.43	247.31
543.644	248.31
543.857	239.31
544.071	232.31
544.285	233.31
544.498	234.31
544.712	223.31
544.925	246.31
545.139	238.31
545.352	241.31
545.566	234.31
545.779	234.31
545.993	232.31
546.206	251.31
546.42	229.31
546.633	241.31
546.847	223.31
547.06	226.31
547.274	224.31
547.487	225.31
547.7	231.31
547.914	247.31
548.127	241.31
548.34	230.31
548.554	223.31
548.767	235.31
548.98	227.31
549.193	236.31
549.407	232.31
549.62	240.31
549.833	226.31
550.046	213.31
550.259	242.31
550.473	219.31
550.686	225.31
550.899	243.31
551.112	223.31
551.325	251.31
551.538	249.31
551.751	228.31
551.964	248.31
552.177	260.31
552.39	238.31
552.603	247.31
552.816	241.31
553.029	240.31
553.242	248.31
553.455	250.31
553.667	265.31
553.88	254.31
554.093	265.31
554.306	282.31
554.519	288.31
554.732	317.31
554.944	322.31
555.157	315.31
555.37	295.31
555.583	285.31
555.795	279.31
556.008	265.31
556.221	271.31
556.433	265.31
556.646	282.31
556.859	273.31
557.071	267.31
557.284	263.31
557.496	280.31
557.709	275.31
557.921	273.31
558.134	292.31
558.346	288.31
558.559	299.31
558.771	306.31
558.984	315.31
559.196	312.31
559.409	342.31
559.621	361.31
559.833	374.31
560.046	403.31
560.258	480.31
560.47	579.31
560.683	707.31
560.895	939.31
561.107	1092.31
561.32	767.31
561.532	522.31
561.744	456.31
561.956	394.31
562.168	358.31
562.381	327.31
562.593	320.31
562.805	291.31
563.017	281.31
563.229	267.31
563.441	268.31
563.653	244.31
563.865	267.31
564.077	242.31
564.289	256.31
564.501	256.31
564.713	256.31
564.925	240.31
565.137	249.31
565.349	237.31
565.561	226.31
565.773	219.31
565.985	243.31
566.197	238.31
566.408	240.31
566.62	248.31
566.832	263.31
567.044	250.31
567.255	241.31
567.467	256.31
567.679	248.31
567.891	242.31
568.102	230.31
568.314	233.31
568.526	226.31
568.737	227.31
568.949	238.31
569.161	220.31
569.372	211.31
569.584	203.31
569.795	203.31
570.007	214.31
570.218	199.31
570.43	198.31
570.641	197.31
570.853	200.31
571.064	204.31
571.276	222.31
571.487	173.31
571.698	199.31
571.91	202.31
572.121	190.31
572.333	178.31
572.544	189.31
572.755	176.31
572.966	191.31
573.178	193.31
573.389	176.31
573.6	180.31
573.811	181.31
574.023	182.31
574.234	156.31
574.445	178.31
574.656	178.31
574.867	193.31
575.078	189.31
575.289	191.31
575.501	180.31
575.712	182.31
575.923	164.31
576.134	163.31
576.345	155.31
576.556	161.31
576.767	175.31
576.978	174.31
577.188	172.31
577.399	178.31
577.61	171.31
577.821	180.31
578.032	171.31
578.243	156.31
578.454	155.31
578.665	184.31
578.875	164.31
579.086	158.31
579.297	166.31
579.508	146.31
579.718	167.31
579.929	172.31
580.14	167.31
580.35	159.31
580.561	155.31
580.772	164.31
580.982	181.31
581.193	152.31
581.403	158.31
581.614	149.31
581.825	164.31
582.035	165.31
582.246	161.31
582.456	153.31
582.667	154.31
582.877	149.31
583.087	148.31
583.298	159.31
583.508	145.31
583.719	142.31
583.929	154.31
584.139	164.31
584.35	160.31
584.56	157.31
584.77	153.31
584.981	167.31
585.191	162.31
585.401	156.31
585.611	156.31
585.821	158.31
586.032	179.31
586.242	161.31
586.452	164.31
586.662	158.31
586.872	158.31
587.082	162.31
587.292	156.31
587.502	163.31
587.713	152.31
587.923	166.31
588.133	166.31
588.343	153.31
588.553	139.31
588.762	170.31
588.972	162.31
589.182	189.31
589.392	166.31
589.602	155.31
589.812	172.31
590.022	159.31
590.232	166.31
590.441	166.31
590.651	162.31
590.861	160.31
591.071	163.31
591.281	140.31
591.49	156.31
591.7	174.31
591.91	158.31
592.119	155.31
592.329	184.31
592.539	170.31
592.748	161.31
592.958	154.31
593.167	161.31
593.377	166.31
593.587	161.31
593.796	162.31
594.006	161.31
594.215	158.31
594.424	165.31
594.634	155.31
594.843	149.31
595.053	166.31
595.262	147.31
595.472	166.31
595.681	158.31
595.89	162.31
596.1	149.31
596.309	139.31
596.518	159.31
596.727	146.31
596.937	144.31
597.146	130.31
597.355	135.31
597.564	156.31
597.774	147.31
597.983	148.31
598.192	156.31
598.401	143.31
598.61	142.31
598.819	139.31
599.028	143.31
599.237	140.31
599.446	137.31
599.655	140.31
599.864	140.31
600.073	150.31
600.282	158.31
600.491	166.31
600.7	154.31
600.909	134.31
601.118	157.31
601.327	144.31
601.536	145.31
601.745	130.31
601.953	156.31
602.162	134.31
602.371	135.31
602.58	156.31
602.789	132.31
602.997	145.31
603.206	137.31
603.415	144.31
603.623	140.31
603.832	145.31
604.041	138.31
604.249	143.31
604.458	129.31
604.666	128.31
604.875	131.31
605.084	136.31
605.292	130.31
605.501	149.31
605.709	136.31
605.918	145.31
606.126	136.31
606.334	135.31
606.543	124.31
606.751	130.31
606.96	143.31
607.168	140.31
607.376	135.31
607.585	137.31
607.793	138.31
608.001	138.31
608.21	136.31
608.418	129.31
608.626	139.31
608.834	143.31
609.043	127.31
609.251	136.31
609.459	128.31
609.667	143.31
609.875	123.31
610.083	131.31
610.291	143.31
610.499	140.31
610.707	129.31
610.916	127.31
611.124	126.31
611.332	137.31
611.54	122.31
611.748	126.31
611.955	130.31
612.163	131.31
612.371	122.31
612.579	125.31
612.787	131.31
612.995	143.31
613.203	144.31
613.411	119.31
613.618	128.31
613.826	132.31
614.034	114.31
614.242	137.31
614.449	126.31
614.657	140.31
614.865	136.31
615.072	130.31
615.28	133.31
615.488	129.31
615.695	140.31
615.903	143.31
616.111	118.31
616.318	138.31
616.526	132.31
616.733	136.31
616.941	114.31
617.148	127.31
617.356	131.31
617.563	132.31
617.771	136.31
617.978	124.31
618.185	122.31
618.393	127.31
618.6	119.31
618.807	125.31
619.015	137.31
619.222	124.31
619.429	135.31
619.637	119.31
619.844	118.31
620.051	124.31
620.258	123.31
620.466	141.31
620.673	114.31
620.88	129.31
621.087	121.31
621.294	119.31
621.501	126.31
621.708	119.31
621.915	130.31
622.122	118.31
622.329	128.31
622.536	115.31
622.743	120.31
622.95	136.31
623.157	125.31
623.364	124.31
623.571	110.31
623.778	120.31
623.985	120.31
624.192	114.31
624.399	126.31
624.606	116.31
624.812	121.31
625.019	114.31
625.226	122.31
625.433	136.31
625.639	122.31
625.846	110.31
626.053	116.31
626.259	131.31
626.466	121.31
626.673	113.31
626.879	119.31
627.086	126.31
627.293	132.31
627.499	121.31
627.706	120.31
627.912	131.31
628.119	135.31
628.325	121.31
628.532	127.31
628.738	118.31
628.945	110.31
629.151	115.31
629.357	119.31
629.564	111.31
629.77	121.31
629.976	118.31
630.183	110.31
630.389	125.31
630.595	119.31
630.802	124.31
631.008	109.31
631.214	118.31
631.42	114.31
631.627	122.31
631.833	123.31
632.039	123.31
632.245	104.31
632.451	120.31
632.657	104.31
632.863	107.31
633.069	122.31
633.275	119.31
633.481	107.31
633.688	111.31
633.893	117.31
634.099	114.31
634.305	121.31
634.511	104.31
634.717	114.31
634.923	108.31
635.129	102.31
635.335	124.31
635.541	116.31
635.747	106.31
635.952	107.31
636.158	129.31
636.364	120.31
636.57	120.31
636.775	110.31
636.981	115.31
637.187	119.31
637.392	120.31
637.598	107.31
637.804	118.31
638.009	129.31
638.215	118.31
638.421	107.31
638.626	108.31
638.832	102.31
639.037	120.31
639.243	109.31
639.448	112.31
639.654	106.31
639.859	123.31
640.065	105.31
640.27	113.31
640.475	116.31
640.681	107.31
640.886	103.31
641.091	107.31
641.297	111.31
641.502	119.31
641.707	124.31
641.913	110.31
642.118	109.31
642.323	111.31
642.528	114.31
642.733	118.31
642.939	119.31
643.144	119.31
643.349	104.31
643.554	106.31
643.759	111.31
643.964	114.31
644.169	121.31
644.374	106.31
644.579	104.31
644.784	104.31
644.989	101.31
645.194	100.31
645.399	110.31
645.604	108.31
645.809	122.31
646.014	104.31
646.219	110.31
646.423	120.31
646.628	106.31
646.833	104.31
647.038	110.31
647.243	98.31
647.447	119.31
647.652	118.31
647.857	100.31
648.062	111.31
648.266	96.31
648.471	97.31
648.676	120.31
648.88	106.31
649.085	113.31
649.289	102.31
649.494	105.31
649.698	121.31
649.903	107.31
650.107	108.31
650.312	99.31
650.516	102.31
650.721	92.31
650.925	102.31
651.13	91.31
651.334	107.31
651.539	113.31
651.743	122.31
651.947	97.31
652.152	95.31
652.356	87.31
652.56	99.31
652.764	111.31
652.969	112.31
653.173	78.31
653.377	97.31
653.581	98.31
653.785	112.31
653.99	104.31
654.194	93.31
654.398	104.31
654.602	99.31
654.806	108.31
655.01	107.31
655.214	91.31
655.418	85.31
655.622	92.31
655.826	103.31
656.03	104.31
656.234	107.31
656.438	103.31
656.642	111.31
656.846	106.31
657.049	104.31
657.253	96.31
657.457	90.31
657.661	92.31
657.865	110.31
658.068	104.31
658.272	88.31
658.476	115.31
658.68	99.31
658.883	91.31
659.087	104.31
659.291	92.31
659.494	99.31
659.698	95.31
659.901	86.31
660.105	78.31
660.309	98.31
660.512	81.31
660.716	93.31
660.919	90.31
661.123	94.31
661.326	86.31
661.53	92.31
661.733	73.31
661.936	104.31
662.14	90.31
662.343	93.31
662.546	82.31
662.75	81.31
662.953	89.31
663.156	90.31
663.36	96.31
663.563	99.31
663.766	86.31
663.969	82.31
664.173	86.31
664.376	83.31
664.579	83.31
664.782	87.31
664.985	82.31
665.188	84.31
665.391	83.31
665.594	75.31
665.797	77.31
666	79.31
666.203	79.31
666.406	71.31
666.609	90.31
666.812	77.31
667.015	79.31
667.218	86.31
667.421	79.31
667.624	67.31
667.827	86.31
668.03	78.31
668.232	102.31
668.435	89.31
668.638	89.31
668.841	103.31
669.043	78.31
669.246	100.31
669.449	95.31
669.651	71.31
669.854	90.31
670.057	87.31
670.259	75.31
670.462	79.31
670.665	83.31
670.867	82.31
671.07	81.31
671.272	82.31
671.475	88.31
671.677	76.31
671.88	67.31
672.082	78.31
672.284	92.31
672.487	96.31
672.689	72.31
672.892	78.31
