Data from Uncirc_1997_H10_HRD10591_00094.txt Node
Date: Wed Jan 03 11:28:49 EST 2024
User: Yrep
Spectrometer: HR+D1059
Trigger mode: 1
Integration Time (sec): 1.000000E-1
Scans to average: 1
Electric dark correction enabled: true
Nonlinearity correction enabled: false
Boxcar width: 0
XAxis mode: Wavelengths
Number of Pixels in Spectrum: 2048
>>>>>Begin Spectral Data<<<<<
223.165	-9.56
223.4	-9.56
223.635	-9.56
223.869	-25.56
224.104	-20.56
224.338	-12.56
224.573	-10.56
224.808	-21.56
225.042	-18.56
225.277	-0.56
225.511	-2.56
225.746	8.44
225.98	6.44
226.215	12.44
226.449	14.44
226.683	16.44
226.918	21.44
227.152	42.44
227.387	27.44
227.621	47.44
227.856	52.44
228.09	56.44
228.324	43.44
228.559	69.44
228.793	72.44
229.027	71.44
229.262	64.44
229.496	71.44
229.73	68.44
229.964	80.44
230.199	76.44
230.433	86.44
230.667	74.44
230.901	88.44
231.136	88.44
231.37	86.44
231.604	75.44
231.838	99.44
232.072	98.44
232.306	79.44
232.541	71.44
232.775	89.44
233.009	79.44
233.243	79.44
233.477	87.44
233.711	83.44
233.945	84.44
234.179	79.44
234.413	79.44
234.647	92.44
234.881	86.44
235.115	78.44
235.349	75.44
235.583	93.44
235.817	84.44
236.051	86.44
236.285	96.44
236.519	85.44
236.753	80.44
236.987	86.44
237.221	96.44
237.455	74.44
237.689	87.44
237.922	76.44
238.156	83.44
238.39	74.44
238.624	63.44
238.858	83.44
239.091	65.44
239.325	65.44
239.559	88.44
239.793	81.44
240.027	88.44
240.26	88.44
240.494	75.44
240.728	86.44
240.961	77.44
241.195	58.44
241.429	74.44
241.662	87.44
241.896	85.44
242.13	87.44
242.363	78.44
242.597	90.44
242.83	75.44
243.064	83.44
243.298	82.44
243.531	76.44
243.765	78.44
243.998	82.44
244.232	85.44
244.465	91.44
244.699	79.44
244.932	100.44
245.166	89.44
245.399	91.44
245.633	85.44
245.866	71.44
246.099	82.44
246.333	84.44
246.566	96.44
246.8	84.44
247.033	75.44
247.266	75.44
247.5	86.44
247.733	80.44
247.966	90.44
248.2	61.44
248.433	80.44
248.666	94.44
248.899	77.44
249.133	86.44
249.366	96.44
249.599	101.44
249.832	85.44
250.066	82.44
250.299	75.44
250.532	71.44
250.765	82.44
250.998	71.44
251.231	84.44
251.465	83.44
251.698	62.44
251.931	82.44
252.164	78.44
252.397	83.44
252.63	97.44
252.863	89.44
253.096	76.44
253.329	89.44
253.562	59.44
253.795	82.44
254.028	78.44
254.261	79.44
254.494	78.44
254.727	85.44
254.96	81.44
255.193	82.44
255.426	78.44
255.659	88.44
255.892	90.44
256.124	81.44
256.357	90.44
256.59	83.44
256.823	66.44
257.056	75.44
257.289	74.44
257.521	91.44
257.754	87.44
257.987	81.44
258.22	88.44
258.452	91.44
258.685	80.44
258.918	75.44
259.151	85.44
259.383	88.44
259.616	83.44
259.849	89.44
260.081	90.44
260.314	83.44
260.547	85.44
260.779	83.44
261.012	86.44
261.244	80.44
261.477	91.44
261.71	89.44
261.942	105.44
262.175	110.44
262.407	92.44
262.64	86.44
262.872	77.44
263.105	89.44
263.337	82.44
263.57	85.44
263.802	78.44
264.035	77.44
264.267	67.44
264.499	92.44
264.732	96.44
264.964	89.44
265.197	84.44
265.429	96.44
265.661	83.44
265.894	68.44
266.126	81.44
266.358	63.44
266.591	84.44
266.823	76.44
267.055	88.44
267.287	91.44
267.52	71.44
267.752	83.44
267.984	79.44
268.216	69.44
268.448	83.44
268.681	86.44
268.913	81.44
269.145	88.44
269.377	96.44
269.609	87.44
269.841	84.44
270.073	81.44
270.306	81.44
270.538	92.44
270.77	82.44
271.002	88.44
271.234	82.44
271.466	90.44
271.698	92.44
271.93	103.44
272.162	97.44
272.394	90.44
272.626	91.44
272.858	79.44
273.09	93.44
273.322	90.44
273.553	86.44
273.785	62.44
274.017	79.44
274.249	90.44
274.481	105.44
274.713	83.44
274.945	87.44
275.176	90.44
275.408	81.44
275.64	87.44
275.872	86.44
276.104	96.44
276.335	87.44
276.567	92.44
276.799	97.44
277.031	93.44
277.262	95.44
277.494	80.44
277.726	83.44
277.957	73.44
278.189	65.44
278.421	92.44
278.652	94.44
278.884	88.44
279.115	106.44
279.347	85.44
279.579	81.44
279.81	80.44
280.042	85.44
280.273	87.44
280.505	82.44
280.736	85.44
280.968	92.44
281.199	96.44
281.431	91.44
281.662	88.44
281.894	90.44
282.125	100.44
282.356	114.44
282.588	136.44
282.819	110.44
283.051	95.44
283.282	82.44
283.513	81.44
283.745	103.44
283.976	89.44
284.207	89.44
284.439	85.44
284.67	86.44
284.901	83.44
285.132	84.44
285.364	84.44
285.595	90.44
285.826	89.44
286.057	96.44
286.288	82.44
286.52	91.44
286.751	76.44
286.982	87.44
287.213	96.44
287.444	87.44
287.675	94.44
287.906	80.44
288.138	87.44
288.369	96.44
288.6	86.44
288.831	92.44
289.062	95.44
289.293	77.44
289.524	84.44
289.755	106.44
289.986	74.44
290.217	92.44
290.448	87.44
290.679	80.44
290.91	94.44
291.141	86.44
291.371	96.44
291.602	77.44
291.833	94.44
292.064	90.44
292.295	80.44
292.526	98.44
292.757	91.44
292.987	93.44
293.218	94.44
293.449	86.44
293.68	98.44
293.91	87.44
294.141	95.44
294.372	84.44
294.603	102.44
294.833	103.44
295.064	88.44
295.295	98.44
295.525	99.44
295.756	79.44
295.987	107.44
296.217	130.44
296.448	122.44
296.679	88.44
296.909	77.44
297.14	99.44
297.37	81.44
297.601	78.44
297.831	82.44
298.062	86.44
298.292	80.44
298.523	90.44
298.753	105.44
298.984	88.44
299.214	98.44
299.445	99.44
299.675	102.44
299.905	96.44
300.136	86.44
300.366	92.44
300.597	90.44
300.827	102.44
301.057	96.44
301.288	100.44
301.518	96.44
301.748	83.44
301.979	100.44
302.209	94.44
302.439	99.44
302.669	91.44
302.9	93.44
303.13	86.44
303.36	104.44
303.59	104.44
303.82	95.44
304.051	88.44
304.281	94.44
304.511	82.44
304.741	83.44
304.971	87.44
305.201	94.44
305.431	91.44
305.661	105.44
305.891	103.44
306.121	84.44
306.352	93.44
306.582	96.44
306.812	95.44
307.042	91.44
307.272	86.44
307.502	93.44
307.731	84.44
307.961	92.44
308.191	76.44
308.421	105.44
308.651	79.44
308.881	98.44
309.111	86.44
309.341	100.44
309.571	95.44
309.8	88.44
310.03	100.44
310.26	99.44
310.49	101.44
310.72	98.44
310.949	105.44
311.179	100.44
311.409	97.44
311.639	96.44
311.868	102.44
312.098	90.44
312.328	86.44
312.557	96.44
312.787	87.44
313.017	93.44
313.246	80.44
313.476	81.44
313.706	88.44
313.935	86.44
314.165	106.44
314.394	112.44
314.624	103.44
314.853	96.44
315.083	98.44
315.312	104.44
315.542	104.44
315.771	85.44
316.001	83.44
316.23	80.44
316.46	95.44
316.689	93.44
316.919	83.44
317.148	89.44
317.377	96.44
317.607	92.44
317.836	104.44
318.065	92.44
318.295	96.44
318.524	96.44
318.753	88.44
318.983	97.44
319.212	98.44
319.441	111.44
319.67	99.44
319.9	86.44
320.129	91.44
320.358	106.44
320.587	100.44
320.816	107.44
321.046	104.44
321.275	97.44
321.504	84.44
321.733	90.44
321.962	97.44
322.191	111.44
322.42	104.44
322.649	119.44
322.878	117.44
323.108	121.44
323.337	118.44
323.566	134.44
323.795	142.44
324.024	186.44
324.253	369.44
324.482	723.44
324.71	1482.44
324.939	1918.44
325.168	715.44
325.397	221.44
325.626	142.44
325.855	117.44
326.084	125.44
326.313	121.44
326.542	153.44
326.77	210.44
326.999	405.44
327.228	847.44
327.457	1526.44
327.686	1174.44
327.914	326.44
328.143	177.44
328.372	127.44
328.6	113.44
328.829	110.44
329.058	114.44
329.287	116.44
329.515	108.44
329.744	95.44
329.972	91.44
330.201	101.44
330.43	109.44
330.658	118.44
330.887	134.44
331.115	115.44
331.344	100.44
331.572	113.44
331.801	106.44
332.03	104.44
332.258	106.44
332.486	101.44
332.715	100.44
332.943	104.44
333.172	99.44
333.4	103.44
333.629	105.44
333.857	104.44
334.085	98.44
334.314	100.44
334.542	92.44
334.771	94.44
334.999	95.44
335.227	97.44
335.455	103.44
335.684	90.44
335.912	91.44
336.14	106.44
336.369	105.44
336.597	109.44
336.825	95.44
337.053	87.44
337.281	108.44
337.51	97.44
337.738	90.44
337.966	99.44
338.194	82.44
338.422	87.44
338.65	98.44
338.878	92.44
339.106	94.44
339.334	92.44
339.562	87.44
339.79	116.44
340.018	82.44
340.246	88.44
340.474	99.44
340.702	106.44
340.93	97.44
341.158	88.44
341.386	104.44
341.614	104.44
341.842	87.44
342.07	110.44
342.298	84.44
342.526	82.44
342.754	87.44
342.981	82.44
343.209	79.44
343.437	103.44
343.665	95.44
343.893	92.44
344.12	108.44
344.348	88.44
344.576	83.44
344.804	89.44
345.031	95.44
345.259	103.44
345.487	97.44
345.714	89.44
345.942	89.44
346.17	100.44
346.397	92.44
346.625	87.44
346.853	112.44
347.08	85.44
347.308	92.44
347.535	96.44
347.763	119.44
347.99	75.44
348.218	100.44
348.445	94.44
348.673	95.44
348.9	99.44
349.128	85.44
349.355	95.44
349.583	87.44
349.81	98.44
350.037	84.44
350.265	94.44
350.492	103.44
350.72	87.44
350.947	104.44
351.174	116.44
351.402	101.44
351.629	108.44
351.856	96.44
352.083	86.44
352.311	89.44
352.538	108.44
352.765	105.44
352.992	105.44
353.22	107.44
353.447	97.44
353.674	99.44
353.901	103.44
354.128	88.44
354.355	93.44
354.583	97.44
354.81	93.44
355.037	98.44
355.264	94.44
355.491	103.44
355.718	96.44
355.945	83.44
356.172	94.44
356.399	108.44
356.626	80.44
356.853	98.44
357.08	91.44
357.307	79.44
357.534	89.44
357.761	99.44
357.988	87.44
358.215	106.44
358.441	92.44
358.668	86.44
358.895	83.44
359.122	82.44
359.349	87.44
359.576	83.44
359.802	99.44
360.029	103.44
360.256	99.44
360.483	105.44
360.709	97.44
360.936	92.44
361.163	92.44
361.39	89.44
361.616	94.44
361.843	89.44
362.07	101.44
362.296	87.44
362.523	87.44
362.749	90.44
362.976	83.44
363.203	85.44
363.429	80.44
363.656	92.44
363.882	91.44
364.109	93.44
364.335	86.44
364.562	76.44
364.788	93.44
365.015	94.44
365.241	83.44
365.468	105.44
365.694	105.44
365.92	86.44
366.147	98.44
366.373	97.44
366.599	81.44
366.826	107.44
367.052	86.44
367.278	84.44
367.505	91.44
367.731	89.44
367.957	88.44
368.184	94.44
368.41	95.44
368.636	108.44
368.862	118.44
369.089	114.44
369.315	99.44
369.541	93.44
369.767	86.44
369.993	77.44
370.219	90.44
370.445	94.44
370.672	80.44
370.898	84.44
371.124	76.44
371.35	81.44
371.576	92.44
371.802	87.44
372.028	74.44
372.254	96.44
372.48	82.44
372.706	81.44
372.932	83.44
373.158	87.44
373.384	82.44
373.61	86.44
373.835	73.44
374.061	93.44
374.287	100.44
374.513	85.44
374.739	79.44
374.965	97.44
375.191	97.44
375.416	71.44
375.642	83.44
375.868	80.44
376.094	90.44
376.319	93.44
376.545	94.44
376.771	93.44
376.997	98.44
377.222	69.44
377.448	97.44
377.674	93.44
377.899	92.44
378.125	91.44
378.35	94.44
378.576	75.44
378.802	89.44
379.027	103.44
379.253	115.44
379.478	86.44
379.704	91.44
379.929	88.44
380.155	83.44
380.38	90.44
380.606	94.44
380.831	92.44
381.057	95.44
381.282	92.44
381.507	88.44
381.733	92.44
381.958	97.44
382.184	90.44
382.409	82.44
382.634	97.44
382.86	94.44
383.085	104.44
383.31	100.44
383.535	106.44
383.761	86.44
383.986	96.44
384.211	89.44
384.436	88.44
384.662	104.44
384.887	106.44
385.112	84.44
385.337	102.44
385.562	104.44
385.787	95.44
386.013	96.44
386.238	109.44
386.463	100.44
386.688	105.44
386.913	115.44
387.138	116.44
387.363	96.44
387.588	98.44
387.813	95.44
388.038	97.44
388.263	107.44
388.488	105.44
388.713	98.44
388.938	101.44
389.163	99.44
389.387	89.44
389.612	106.44
389.837	106.44
390.062	91.44
390.287	84.44
390.512	98.44
390.736	89.44
390.961	99.44
391.186	93.44
391.411	91.44
391.636	77.44
391.86	85.44
392.085	86.44
392.31	84.44
392.534	83.44
392.759	100.44
392.984	92.44
393.208	79.44
393.433	95.44
393.658	86.44
393.882	107.44
394.107	86.44
394.331	95.44
394.556	89.44
394.78	100.44
395.005	84.44
395.229	72.44
395.454	90.44
395.678	98.44
395.903	87.44
396.127	76.44
396.352	94.44
396.576	81.44
396.801	90.44
397.025	95.44
397.249	92.44
397.474	76.44
397.698	89.44
397.922	79.44
398.147	89.44
398.371	97.44
398.595	91.44
398.82	88.44
399.044	82.44
399.268	83.44
399.492	66.44
399.717	79.44
399.941	94.44
400.165	89.44
400.389	74.44
400.613	102.44
400.837	107.44
401.062	69.44
401.286	90.44
401.51	81.44
401.734	95.44
401.958	107.44
402.182	135.44
402.406	155.44
402.63	120.44
402.854	104.44
403.078	94.44
403.302	111.44
403.526	93.44
403.75	103.44
403.974	86.44
404.198	84.44
404.422	95.44
404.645	110.44
404.869	86.44
405.093	97.44
405.317	101.44
405.541	101.44
405.765	107.44
405.988	116.44
406.212	162.44
406.436	210.44
406.66	143.44
406.883	106.44
407.107	104.44
407.331	105.44
407.555	95.44
407.778	97.44
408.002	84.44
408.226	82.44
408.449	67.44
408.673	95.44
408.896	81.44
409.12	81.44
409.344	95.44
409.567	71.44
409.791	97.44
410.014	79.44
410.238	84.44
410.461	99.44
410.685	90.44
410.908	90.44
411.132	93.44
411.355	93.44
411.578	84.44
411.802	93.44
412.025	85.44
412.249	82.44
412.472	76.44
412.695	97.44
412.919	91.44
413.142	70.44
413.365	90.44
413.589	92.44
413.812	89.44
414.035	95.44
414.258	92.44
414.482	90.44
414.705	93.44
414.928	91.44
415.151	96.44
415.374	108.44
415.597	74.44
415.821	98.44
416.044	88.44
416.267	95.44
416.49	78.44
416.713	85.44
416.936	88.44
417.159	95.44
417.382	94.44
417.605	89.44
417.828	99.44
418.051	91.44
418.274	103.44
418.497	88.44
418.72	79.44
418.943	96.44
419.166	91.44
419.389	90.44
419.611	87.44
419.834	87.44
420.057	83.44
420.28	105.44
420.503	87.44
420.726	92.44
420.948	92.44
421.171	87.44
421.394	90.44
421.617	79.44
421.839	74.44
422.062	86.44
422.285	91.44
422.507	97.44
422.73	106.44
422.953	90.44
423.175	81.44
423.398	91.44
423.621	76.44
423.843	90.44
424.066	98.44
424.288	87.44
424.511	83.44
424.733	90.44
424.956	98.44
425.178	91.44
425.401	105.44
425.623	92.44
425.846	86.44
426.068	102.44
426.291	107.44
426.513	86.44
426.735	94.44
426.958	92.44
427.18	97.44
427.402	134.44
427.625	152.44
427.847	108.44
428.069	94.44
428.292	78.44
428.514	91.44
428.736	85.44
428.958	80.44
429.181	93.44
429.403	76.44
429.625	110.44
429.847	100.44
430.069	99.44
430.292	102.44
430.514	87.44
430.736	93.44
430.958	85.44
431.18	90.44
431.402	77.44
431.624	91.44
431.846	80.44
432.068	98.44
432.29	91.44
432.512	95.44
432.734	75.44
432.956	98.44
433.178	88.44
433.4	94.44
433.622	94.44
433.844	88.44
434.066	84.44
434.287	88.44
434.509	86.44
434.731	84.44
434.953	95.44
435.175	81.44
435.397	84.44
435.618	76.44
435.84	95.44
436.062	111.44
436.284	106.44
436.505	102.44
436.727	96.44
436.949	84.44
437.17	83.44
437.392	87.44
437.614	104.44
437.835	103.44
438.057	103.44
438.278	116.44
438.5	105.44
438.721	119.44
438.943	102.44
439.165	95.44
439.386	98.44
439.608	98.44
439.829	99.44
440.05	120.44
440.272	145.44
440.493	98.44
440.715	70.44
440.936	76.44
441.158	103.44
441.379	88.44
441.6	90.44
441.822	97.44
442.043	95.44
442.264	100.44
442.486	94.44
442.707	97.44
442.928	94.44
443.149	132.44
443.371	126.44
443.592	105.44
443.813	108.44
444.034	99.44
444.255	109.44
444.476	91.44
444.698	101.44
444.919	92.44
445.14	125.44
445.361	120.44
445.582	106.44
445.803	119.44
446.024	115.44
446.245	118.44
446.466	109.44
446.687	87.44
446.908	93.44
447.129	98.44
447.35	94.44
447.571	86.44
447.792	85.44
448.013	103.44
448.234	98.44
448.455	90.44
448.675	121.44
448.896	114.44
449.117	96.44
449.338	113.44
449.559	117.44
449.779	107.44
450	90.44
450.221	73.44
450.442	82.44
450.662	94.44
450.883	93.44
451.104	116.44
451.324	102.44
451.545	78.44
451.766	82.44
451.986	99.44
452.207	87.44
452.428	91.44
452.648	99.44
452.869	100.44
453.089	116.44
453.31	120.44
453.53	94.44
453.751	97.44
453.971	104.44
454.192	110.44
454.412	88.44
454.633	98.44
454.853	77.44
455.073	96.44
455.294	87.44
455.514	99.44
455.734	84.44
455.955	90.44
456.175	81.44
456.395	97.44
456.616	92.44
456.836	89.44
457.056	93.44
457.276	88.44
457.497	86.44
457.717	80.44
457.937	83.44
458.157	78.44
458.377	86.44
458.598	101.44
458.818	134.44
459.038	147.44
459.258	117.44
459.478	90.44
459.698	88.44
459.918	98.44
460.138	89.44
460.358	90.44
460.578	87.44
460.798	95.44
461.018	92.44
461.238	77.44
461.458	100.44
461.678	84.44
461.898	87.44
462.118	88.44
462.338	93.44
462.558	90.44
462.777	82.44
462.997	98.44
463.217	97.44
463.437	78.44
463.657	85.44
463.876	94.44
464.096	77.44
464.316	89.44
464.536	92.44
464.755	106.44
464.975	97.44
465.195	151.44
465.414	138.44
465.634	94.44
465.854	84.44
466.073	83.44
466.293	94.44
466.512	85.44
466.732	106.44
466.951	81.44
467.171	88.44
467.391	87.44
467.61	109.44
467.829	96.44
468.049	100.44
468.268	91.44
468.488	86.44
468.707	87.44
468.927	91.44
469.146	90.44
469.365	97.44
469.585	79.44
469.804	101.44
470.023	107.44
470.243	89.44
470.462	94.44
470.681	98.44
470.901	86.44
471.12	86.44
471.339	94.44
471.558	79.44
471.777	85.44
471.997	94.44
472.216	91.44
472.435	100.44
472.654	88.44
472.873	80.44
473.092	90.44
473.311	77.44
473.53	96.44
473.749	102.44
473.968	96.44
474.187	110.44
474.406	93.44
474.625	94.44
474.844	92.44
475.063	88.44
475.282	95.44
475.501	89.44
475.72	89.44
475.939	87.44
476.158	80.44
476.377	90.44
476.596	91.44
476.814	74.44
477.033	78.44
477.252	95.44
477.471	92.44
477.69	87.44
477.908	92.44
478.127	98.44
478.346	96.44
478.564	88.44
478.783	94.44
479.002	86.44
479.22	83.44
479.439	104.44
479.658	108.44
479.876	99.44
480.095	93.44
480.313	100.44
480.532	90.44
480.751	87.44
480.969	91.44
481.188	110.44
481.406	101.44
481.624	100.44
481.843	91.44
482.061	95.44
482.28	105.44
482.498	94.44
482.717	95.44
482.935	95.44
483.153	94.44
483.372	95.44
483.59	94.44
483.808	82.44
484.027	92.44
484.245	104.44
484.463	87.44
484.681	99.44
484.9	89.44
485.118	86.44
485.336	82.44
485.554	102.44
485.772	99.44
485.99	109.44
486.209	100.44
486.427	90.44
486.645	117.44
486.863	92.44
487.081	91.44
487.299	95.44
487.517	93.44
487.735	92.44
487.953	91.44
488.171	91.44
488.389	92.44
488.607	87.44
488.825	101.44
489.043	91.44
489.261	110.44
489.479	90.44
489.696	95.44
489.914	89.44
490.132	102.44
490.35	69.44
490.568	78.44
490.786	84.44
491.003	90.44
491.221	93.44
491.439	86.44
491.657	98.44
491.874	84.44
492.092	93.44
492.31	88.44
492.527	92.44
492.745	77.44
492.963	100.44
493.18	95.44
493.398	94.44
493.615	89.44
493.833	114.44
494.05	88.44
494.268	86.44
494.485	74.44
494.703	95.44
494.92	93.44
495.138	74.44
495.355	89.44
495.573	91.44
495.79	98.44
496.008	88.44
496.225	94.44
496.442	105.44
496.66	87.44
496.877	82.44
497.094	96.44
497.312	91.44
497.529	88.44
497.746	98.44
497.963	96.44
498.181	97.44
498.398	89.44
498.615	93.44
498.832	83.44
499.049	92.44
499.267	111.44
499.484	91.44
499.701	80.44
499.918	99.44
500.135	91.44
500.352	87.44
500.569	84.44
500.786	98.44
501.003	89.44
501.22	83.44
501.437	92.44
501.654	81.44
501.871	106.44
502.088	86.44
502.305	80.44
502.522	114.44
502.739	93.44
502.956	83.44
503.172	83.44
503.389	100.44
503.606	107.44
503.823	107.44
504.04	102.44
504.256	93.44
504.473	95.44
504.69	88.44
504.907	92.44
505.123	89.44
505.34	100.44
505.557	88.44
505.773	87.44
505.99	88.44
506.207	97.44
506.423	90.44
506.64	89.44
506.856	81.44
507.073	84.44
507.289	94.44
507.506	82.44
507.722	103.44
507.939	112.44
508.155	88.44
508.372	98.44
508.588	90.44
508.805	89.44
509.021	90.44
509.238	97.44
509.454	89.44
509.67	94.44
509.887	115.44
510.103	117.44
510.319	201.44
510.536	706.44
510.752	2250.44
510.968	659.44
511.184	159.44
511.401	108.44
511.617	100.44
511.833	95.44
512.049	83.44
512.265	98.44
512.481	90.44
512.698	94.44
512.914	91.44
513.13	104.44
513.346	88.44
513.562	88.44
513.778	107.44
513.994	101.44
514.21	97.44
514.426	97.44
514.642	136.44
514.858	118.44
515.074	153.44
515.29	446.44
515.506	1386.44
515.721	542.44
515.937	158.44
516.153	107.44
516.369	79.44
516.585	107.44
516.801	92.44
517.016	90.44
517.232	97.44
517.448	109.44
517.664	94.44
517.879	103.44
518.095	95.44
518.311	99.44
518.527	90.44
518.742	92.44
518.958	99.44
519.173	88.44
519.389	88.44
519.605	89.44
519.82	100.44
520.036	100.44
520.251	97.44
520.467	109.44
520.682	97.44
520.898	111.44
521.113	128.44
521.329	139.44
521.544	200.44
521.76	578.44
521.975	2256.44
522.19	1389.44
522.406	302.44
522.621	110.44
522.836	105.44
523.052	95.44
523.267	93.44
523.482	89.44
523.698	88.44
523.913	108.44
524.128	107.44
524.343	92.44
524.559	83.44
524.774	89.44
524.989	97.44
525.204	103.44
525.419	89.44
525.634	96.44
525.849	88.44
526.064	105.44
526.28	104.44
526.495	88.44
526.71	82.44
526.925	80.44
527.14	80.44
527.355	93.44
527.57	120.44
527.785	86.44
527.999	87.44
528.214	94.44
528.429	89.44
528.644	102.44
528.859	103.44
529.074	96.44
529.289	115.44
529.503	158.44
529.718	109.44
529.933	96.44
530.148	91.44
530.363	81.44
530.577	90.44
530.792	94.44
531.007	77.44
531.221	82.44
531.436	90.44
531.651	87.44
531.865	89.44
532.08	103.44
532.295	102.44
532.509	89.44
532.724	96.44
532.938	97.44
533.153	106.44
533.367	102.44
533.582	103.44
533.796	86.44
534.011	95.44
534.225	76.44
534.44	91.44
534.654	87.44
534.868	101.44
535.083	91.44
535.297	93.44
535.511	94.44
535.726	97.44
535.94	99.44
536.154	81.44
536.369	94.44
536.583	89.44
536.797	92.44
537.011	94.44
537.225	94.44
537.44	85.44
537.654	77.44
537.868	84.44
538.082	85.44
538.296	98.44
538.51	105.44
538.724	85.44
538.938	101.44
539.153	103.44
539.367	106.44
539.581	99.44
539.795	90.44
540.009	86.44
540.222	99.44
540.436	95.44
540.65	80.44
540.864	93.44
541.078	98.44
541.292	100.44
541.506	77.44
541.72	108.44
541.934	95.44
542.147	106.44
542.361	86.44
542.575	92.44
542.789	83.44
543.002	91.44
543.216	87.44
543.43	99.44
543.644	98.44
543.857	92.44
544.071	89.44
544.285	84.44
544.498	86.44
544.712	92.44
544.925	84.44
545.139	94.44
545.352	88.44
545.566	87.44
545.779	98.44
545.993	93.44
546.206	94.44
546.42	84.44
546.633	98.44
546.847	95.44
547.06	86.44
547.274	91.44
547.487	84.44
547.7	86.44
547.914	76.44
548.127	92.44
548.34	70.44
548.554	90.44
548.767	87.44
548.98	86.44
549.193	88.44
549.407	109.44
549.62	81.44
549.833	93.44
550.046	91.44
550.259	89.44
550.473	89.44
550.686	90.44
550.899	85.44
551.112	108.44
551.325	96.44
551.538	81.44
551.751	83.44
551.964	87.44
552.177	81.44
552.39	83.44
552.603	97.44
552.816	81.44
553.029	99.44
553.242	98.44
553.455	104.44
553.667	98.44
553.88	104.44
554.093	81.44
554.306	98.44
554.519	86.44
554.732	99.44
554.944	102.44
555.157	85.44
555.37	87.44
555.583	82.44
555.795	90.44
556.008	95.44
556.221	97.44
556.433	88.44
556.646	82.44
556.859	94.44
557.071	97.44
557.284	87.44
557.496	94.44
557.709	106.44
557.921	90.44
558.134	96.44
558.346	87.44
558.559	96.44
558.771	108.44
558.984	100.44
559.196	96.44
559.409	95.44
559.621	99.44
559.833	92.44
560.046	98.44
560.258	95.44
560.47	86.44
560.683	89.44
560.895	97.44
561.107	86.44
561.32	94.44
561.532	90.44
561.744	98.44
561.956	82.44
562.168	96.44
562.381	99.44
562.593	107.44
562.805	102.44
563.017	97.44
563.229	101.44
563.441	92.44
563.653	82.44
563.865	100.44
564.077	81.44
564.289	93.44
564.501	103.44
564.713	78.44
564.925	100.44
565.137	108.44
565.349	91.44
565.561	86.44
565.773	91.44
565.985	88.44
566.197	75.44
566.408	97.44
566.62	96.44
566.832	99.44
567.044	95.44
567.255	86.44
567.467	81.44
567.679	90.44
567.891	78.44
568.102	96.44
568.314	97.44
568.526	86.44
568.737	99.44
568.949	87.44
569.161	90.44
569.372	91.44
569.584	88.44
569.795	95.44
570.007	100.44
570.218	245.44
570.43	150.44
570.641	95.44
570.853	99.44
571.064	91.44
571.276	87.44
571.487	93.44
571.698	99.44
571.91	90.44
572.121	93.44
572.333	93.44
572.544	66.44
572.755	94.44
572.966	90.44
573.178	87.44
573.389	90.44
573.6	77.44
573.811	107.44
574.023	99.44
574.234	84.44
574.445	105.44
574.656	83.44
574.867	67.44
575.078	108.44
575.289	97.44
575.501	97.44
575.712	91.44
575.923	84.44
576.134	86.44
576.345	89.44
576.556	94.44
576.767	78.44
576.978	88.44
577.188	93.44
577.399	95.44
577.61	104.44
577.821	106.44
578.032	121.44
578.243	279.44
578.454	753.44
578.665	214.44
578.875	97.44
579.086	90.44
579.297	98.44
579.508	82.44
579.718	93.44
579.929	81.44
580.14	90.44
580.35	78.44
580.561	96.44
580.772	82.44
580.982	78.44
581.193	84.44
581.403	80.44
581.614	88.44
581.825	76.44
582.035	89.44
582.246	88.44
582.456	90.44
582.667	91.44
582.877	83.44
583.087	86.44
583.298	88.44
583.508	74.44
583.719	97.44
583.929	89.44
584.139	84.44
584.35	91.44
584.56	83.44
584.77	89.44
584.981	86.44
585.191	79.44
585.401	92.44
585.611	89.44
585.821	94.44
586.032	87.44
586.242	94.44
586.452	88.44
586.662	87.44
586.872	97.44
587.082	86.44
587.292	87.44
587.502	97.44
587.713	89.44
587.923	95.44
588.133	104.44
588.343	80.44
588.553	78.44
588.762	92.44
588.972	94.44
589.182	89.44
589.392	88.44
589.602	95.44
589.812	83.44
590.022	88.44
590.232	82.44
590.441	80.44
590.651	78.44
590.861	93.44
591.071	90.44
591.281	83.44
591.49	91.44
591.7	75.44
591.91	87.44
592.119	81.44
592.329	95.44
592.539	88.44
592.748	98.44
592.958	84.44
593.167	74.44
593.377	91.44
593.587	91.44
593.796	91.44
594.006	90.44
594.215	87.44
594.424	93.44
594.634	94.44
594.843	85.44
595.053	78.44
595.262	84.44
595.472	79.44
595.681	82.44
595.89	83.44
596.1	84.44
596.309	87.44
596.518	84.44
596.727	91.44
596.937	85.44
597.146	86.44
597.355	88.44
597.564	92.44
597.774	78.44
597.983	98.44
598.192	97.44
598.401	78.44
598.61	104.44
598.819	82.44
599.028	105.44
599.237	88.44
599.446	96.44
599.655	98.44
599.864	106.44
600.073	70.44
600.282	76.44
600.491	91.44
600.7	81.44
600.909	90.44
601.118	90.44
601.327	88.44
601.536	94.44
601.745	92.44
601.953	89.44
602.162	95.44
602.371	94.44
602.58	86.44
602.789	91.44
602.997	82.44
603.206	94.44
603.415	90.44
603.623	80.44
603.832	81.44
604.041	99.44
604.249	78.44
604.458	98.44
604.666	83.44
604.875	93.44
605.084	89.44
605.292	96.44
605.501	83.44
605.709	92.44
605.918	71.44
606.126	99.44
606.334	86.44
606.543	84.44
606.751	72.44
606.96	87.44
607.168	90.44
607.376	93.44
607.585	92.44
607.793	78.44
608.001	90.44
608.21	79.44
608.418	76.44
608.626	93.44
608.834	89.44
609.043	77.44
609.251	83.44
609.459	75.44
609.667	81.44
609.875	81.44
610.083	80.44
610.291	93.44
610.499	83.44
610.707	89.44
610.916	93.44
611.124	104.44
611.332	92.44
611.54	92.44
611.748	89.44
611.955	85.44
612.163	88.44
612.371	92.44
612.579	83.44
612.787	89.44
612.995	83.44
613.203	89.44
613.411	77.44
613.618	91.44
613.826	85.44
614.034	95.44
614.242	80.44
614.449	88.44
614.657	82.44
614.865	90.44
615.072	83.44
615.28	84.44
615.488	81.44
615.695	87.44
615.903	86.44
616.111	86.44
616.318	92.44
616.526	96.44
616.733	100.44
616.941	80.44
617.148	83.44
617.356	88.44
617.563	98.44
617.771	82.44
617.978	88.44
618.185	66.44
618.393	85.44
618.6	84.44
618.807	90.44
619.015	75.44
619.222	91.44
619.429	71.44
619.637	78.44
619.844	89.44
620.051	96.44
620.258	80.44
620.466	81.44
620.673	78.44
620.88	73.44
621.087	82.44
621.294	91.44
621.501	96.44
621.708	98.44
621.915	89.44
622.122	86.44
622.329	86.44
622.536	86.44
622.743	82.44
622.95	86.44
623.157	71.44
623.364	82.44
623.571	76.44
623.778	73.44
623.985	88.44
624.192	98.44
624.399	93.44
624.606	84.44
624.812	80.44
625.019	81.44
625.226	90.44
625.433	76.44
625.639	88.44
625.846	90.44
626.053	84.44
626.259	84.44
626.466	99.44
626.673	90.44
626.879	82.44
627.086	89.44
627.293	81.44
627.499	83.44
627.706	88.44
627.912	67.44
628.119	76.44
628.325	75.44
628.532	87.44
628.738	85.44
628.945	83.44
629.151	87.44
629.357	74.44
629.564	99.44
629.77	90.44
629.976	82.44
630.183	88.44
630.389	90.44
630.595	65.44
630.802	82.44
631.008	79.44
631.214	80.44
631.42	95.44
631.627	103.44
631.833	88.44
632.039	87.44
632.245	92.44
632.451	77.44
632.657	94.44
632.863	95.44
633.069	96.44
633.275	89.44
633.481	82.44
633.688	86.44
633.893	85.44
634.099	93.44
634.305	91.44
634.511	94.44
634.717	90.44
634.923	71.44
635.129	81.44
635.335	89.44
635.541	88.44
635.747	87.44
635.952	75.44
636.158	77.44
636.364	92.44
636.57	96.44
636.775	94.44
636.981	79.44
637.187	69.44
637.392	76.44
637.598	79.44
637.804	97.44
638.009	92.44
638.215	93.44
638.421	76.44
638.626	83.44
638.832	66.44
639.037	93.44
639.243	84.44
639.448	86.44
639.654	95.44
639.859	79.44
640.065	82.44
640.27	94.44
640.475	87.44
640.681	73.44
640.886	94.44
641.091	84.44
641.297	85.44
641.502	81.44
641.707	74.44
641.913	72.44
642.118	68.44
642.323	88.44
642.528	97.44
642.733	82.44
642.939	98.44
643.144	87.44
643.349	90.44
643.554	67.44
643.759	86.44
643.964	86.44
644.169	89.44
644.374	95.44
644.579	75.44
644.784	86.44
644.989	73.44
645.194	91.44
645.399	82.44
645.604	77.44
645.809	88.44
646.014	102.44
646.219	67.44
646.423	81.44
646.628	97.44
646.833	88.44
647.038	98.44
647.243	84.44
647.447	79.44
647.652	75.44
647.857	81.44
648.062	84.44
648.266	89.44
648.471	78.44
648.676	94.44
648.88	83.44
649.085	88.44
649.289	92.44
649.494	103.44
649.698	107.44
649.903	108.44
650.107	89.44
650.312	84.44
650.516	76.44
650.721	84.44
650.925	92.44
651.13	75.44
651.334	78.44
651.539	62.44
651.743	83.44
651.947	79.44
652.152	84.44
652.356	84.44
652.56	83.44
652.764	67.44
652.969	86.44
653.173	92.44
653.377	81.44
653.581	94.44
653.785	96.44
653.99	87.44
654.194	91.44
654.398	88.44
654.602	92.44
654.806	84.44
655.01	113.44
655.214	94.44
655.418	92.44
655.622	86.44
655.826	89.44
656.03	81.44
656.234	87.44
656.438	89.44
656.642	100.44
656.846	90.44
657.049	79.44
657.253	75.44
657.457	94.44
657.661	80.44
657.865	83.44
658.068	79.44
658.272	91.44
658.476	87.44
658.68	75.44
658.883	72.44
659.087	89.44
659.291	95.44
659.494	77.44
659.698	76.44
659.901	76.44
660.105	97.44
660.309	78.44
660.512	83.44
660.716	100.44
660.919	73.44
661.123	86.44
661.326	89.44
661.53	87.44
661.733	83.44
661.936	96.44
662.14	92.44
662.343	78.44
662.546	81.44
662.75	91.44
662.953	79.44
663.156	82.44
663.36	72.44
663.563	62.44
663.766	72.44
663.969	74.44
664.173	83.44
664.376	88.44
664.579	72.44
664.782	84.44
664.985	97.44
665.188	79.44
665.391	70.44
665.594	81.44
665.797	79.44
666	90.44
666.203	78.44
666.406	72.44
666.609	89.44
666.812	89.44
667.015	91.44
667.218	82.44
667.421	70.44
667.624	88.44
667.827	81.44
668.03	80.44
668.232	78.44
668.435	80.44
668.638	88.44
668.841	98.44
669.043	92.44
669.246	86.44
669.449	89.44
669.651	86.44
669.854	89.44
670.057	74.44
670.259	78.44
670.462	89.44
670.665	84.44
670.867	81.44
671.07	78.44
671.272	90.44
671.475	84.44
671.677	82.44
671.88	86.44
672.082	89.44
672.284	91.44
672.487	84.44
672.689	79.44
672.892	84.44
