Data from Uncirc_1997_H10_HRD10591_00034.txt Node
Date: Wed Jan 03 11:28:37 EST 2024
User: Yrep
Spectrometer: HR+D1059
Trigger mode: 1
Integration Time (sec): 1.000000E-1
Scans to average: 1
Electric dark correction enabled: true
Nonlinearity correction enabled: false
Boxcar width: 0
XAxis mode: Wavelengths
Number of Pixels in Spectrum: 2048
>>>>>Begin Spectral Data<<<<<
223.165	-16.06
223.4	-16.06
223.635	-16.06
223.869	-22.06
224.104	-4.06
224.338	-14.06
224.573	-14.06
224.808	-6.06
225.042	-1.06
225.277	-2.06
225.511	-3.06
225.746	-0.06
225.98	3.94
226.215	7.94
226.449	-8.06
226.683	17.94
226.918	27.94
227.152	32.94
227.387	45.94
227.621	37.94
227.856	41.94
228.09	30.94
228.324	45.94
228.559	68.94
228.793	53.94
229.027	63.94
229.262	65.94
229.496	65.94
229.73	89.94
229.964	84.94
230.199	82.94
230.433	77.94
230.667	83.94
230.901	72.94
231.136	88.94
231.37	92.94
231.604	66.94
231.838	77.94
232.072	79.94
232.306	100.94
232.541	71.94
232.775	83.94
233.009	73.94
233.243	91.94
233.477	94.94
233.711	79.94
233.945	70.94
234.179	79.94
234.413	82.94
234.647	75.94
234.881	66.94
235.115	79.94
235.349	74.94
235.583	80.94
235.817	81.94
236.051	72.94
236.285	79.94
236.519	63.94
236.753	60.94
236.987	72.94
237.221	87.94
237.455	73.94
237.689	72.94
237.922	79.94
238.156	85.94
238.39	82.94
238.624	85.94
238.858	69.94
239.091	95.94
239.325	80.94
239.559	74.94
239.793	82.94
240.027	87.94
240.26	72.94
240.494	73.94
240.728	85.94
240.961	82.94
241.195	81.94
241.429	59.94
241.662	58.94
241.896	82.94
242.13	70.94
242.363	86.94
242.597	74.94
242.83	82.94
243.064	75.94
243.298	78.94
243.531	71.94
243.765	82.94
243.998	76.94
244.232	83.94
244.465	81.94
244.699	84.94
244.932	72.94
245.166	83.94
245.399	69.94
245.633	69.94
245.866	71.94
246.099	86.94
246.333	74.94
246.566	74.94
246.8	88.94
247.033	85.94
247.266	76.94
247.5	68.94
247.733	79.94
247.966	76.94
248.2	74.94
248.433	86.94
248.666	79.94
248.899	66.94
249.133	82.94
249.366	95.94
249.599	87.94
249.832	87.94
250.066	81.94
250.299	71.94
250.532	85.94
250.765	78.94
250.998	92.94
251.231	76.94
251.465	76.94
251.698	79.94
251.931	78.94
252.164	61.94
252.397	86.94
252.63	87.94
252.863	71.94
253.096	83.94
253.329	86.94
253.562	82.94
253.795	80.94
254.028	98.94
254.261	79.94
254.494	90.94
254.727	87.94
254.96	90.94
255.193	101.94
255.426	81.94
255.659	72.94
255.892	71.94
256.124	82.94
256.357	82.94
256.59	79.94
256.823	86.94
257.056	86.94
257.289	82.94
257.521	71.94
257.754	88.94
257.987	88.94
258.22	73.94
258.452	74.94
258.685	82.94
258.918	86.94
259.151	78.94
259.383	69.94
259.616	82.94
259.849	89.94
260.081	78.94
260.314	75.94
260.547	78.94
260.779	78.94
261.012	81.94
261.244	78.94
261.477	89.94
261.71	88.94
261.942	106.94
262.175	107.94
262.407	84.94
262.64	73.94
262.872	88.94
263.105	75.94
263.337	66.94
263.57	70.94
263.802	85.94
264.035	89.94
264.267	65.94
264.499	97.94
264.732	76.94
264.964	87.94
265.197	95.94
265.429	84.94
265.661	78.94
265.894	90.94
266.126	79.94
266.358	71.94
266.591	81.94
266.823	94.94
267.055	90.94
267.287	83.94
267.52	76.94
267.752	89.94
267.984	83.94
268.216	85.94
268.448	84.94
268.681	72.94
268.913	87.94
269.145	88.94
269.377	90.94
269.609	83.94
269.841	85.94
270.073	77.94
270.306	91.94
270.538	89.94
270.77	77.94
271.002	72.94
271.234	82.94
271.466	87.94
271.698	96.94
271.93	75.94
272.162	82.94
272.394	96.94
272.626	86.94
272.858	84.94
273.09	90.94
273.322	70.94
273.553	68.94
273.785	79.94
274.017	78.94
274.249	71.94
274.481	77.94
274.713	81.94
274.945	93.94
275.176	93.94
275.408	95.94
275.64	94.94
275.872	86.94
276.104	69.94
276.335	75.94
276.567	90.94
276.799	119.94
277.031	97.94
277.262	85.94
277.494	95.94
277.726	82.94
277.957	85.94
278.189	83.94
278.421	79.94
278.652	79.94
278.884	76.94
279.115	88.94
279.347	84.94
279.579	83.94
279.81	85.94
280.042	91.94
280.273	81.94
280.505	95.94
280.736	103.94
280.968	77.94
281.199	89.94
281.431	86.94
281.662	89.94
281.894	76.94
282.125	100.94
282.356	118.94
282.588	123.94
282.819	101.94
283.051	90.94
283.282	88.94
283.513	95.94
283.745	94.94
283.976	78.94
284.207	96.94
284.439	89.94
284.67	79.94
284.901	90.94
285.132	77.94
285.364	82.94
285.595	71.94
285.826	104.94
286.057	76.94
286.288	86.94
286.52	78.94
286.751	90.94
286.982	97.94
287.213	86.94
287.444	86.94
287.675	80.94
287.906	85.94
288.138	86.94
288.369	83.94
288.6	92.94
288.831	96.94
289.062	92.94
289.293	93.94
289.524	94.94
289.755	102.94
289.986	92.94
290.217	78.94
290.448	91.94
290.679	96.94
290.91	83.94
291.141	79.94
291.371	92.94
291.602	91.94
291.833	94.94
292.064	80.94
292.295	85.94
292.526	84.94
292.757	85.94
292.987	79.94
293.218	83.94
293.449	93.94
293.68	94.94
293.91	80.94
294.141	88.94
294.372	87.94
294.603	96.94
294.833	91.94
295.064	80.94
295.295	94.94
295.525	86.94
295.756	101.94
295.987	109.94
296.217	137.94
296.448	116.94
296.679	91.94
296.909	87.94
297.14	108.94
297.37	94.94
297.601	86.94
297.831	86.94
298.062	69.94
298.292	83.94
298.523	88.94
298.753	75.94
298.984	82.94
299.214	88.94
299.445	90.94
299.675	83.94
299.905	98.94
300.136	101.94
300.366	85.94
300.597	95.94
300.827	86.94
301.057	89.94
301.288	97.94
301.518	101.94
301.748	92.94
301.979	109.94
302.209	85.94
302.439	91.94
302.669	78.94
302.9	81.94
303.13	98.94
303.36	93.94
303.59	88.94
303.82	93.94
304.051	90.94
304.281	91.94
304.511	83.94
304.741	86.94
304.971	85.94
305.201	88.94
305.431	82.94
305.661	91.94
305.891	81.94
306.121	88.94
306.352	98.94
306.582	101.94
306.812	82.94
307.042	99.94
307.272	89.94
307.502	101.94
307.731	85.94
307.961	85.94
308.191	81.94
308.421	86.94
308.651	90.94
308.881	98.94
309.111	98.94
309.341	85.94
309.571	85.94
309.8	106.94
310.03	90.94
310.26	97.94
310.49	104.94
310.72	93.94
310.949	105.94
311.179	92.94
311.409	111.94
311.639	106.94
311.868	98.94
312.098	80.94
312.328	99.94
312.557	105.94
312.787	96.94
313.017	100.94
313.246	86.94
313.476	93.94
313.706	80.94
313.935	101.94
314.165	97.94
314.394	93.94
314.624	99.94
314.853	91.94
315.083	93.94
315.312	99.94
315.542	107.94
315.771	89.94
316.001	78.94
316.23	97.94
316.46	95.94
316.689	74.94
316.919	98.94
317.148	88.94
317.377	94.94
317.607	93.94
317.836	89.94
318.065	94.94
318.295	105.94
318.524	94.94
318.753	105.94
318.983	99.94
319.212	90.94
319.441	103.94
319.67	109.94
319.9	101.94
320.129	94.94
320.358	94.94
320.587	83.94
320.816	92.94
321.046	90.94
321.275	95.94
321.504	94.94
321.733	102.94
321.962	91.94
322.191	96.94
322.42	101.94
322.649	108.94
322.878	105.94
323.108	107.94
323.337	104.94
323.566	121.94
323.795	147.94
324.024	214.94
324.253	392.94
324.482	807.94
324.71	1648.94
324.939	2185.94
325.168	780.94
325.397	246.94
325.626	153.94
325.855	134.94
326.084	131.94
326.313	134.94
326.542	145.94
326.77	224.94
326.999	435.94
327.228	951.94
327.457	1733.94
327.686	1353.94
327.914	355.94
328.143	190.94
328.372	141.94
328.6	120.94
328.829	105.94
329.058	130.94
329.287	123.94
329.515	101.94
329.744	90.94
329.972	113.94
330.201	98.94
330.43	111.94
330.658	122.94
330.887	116.94
331.115	128.94
331.344	94.94
331.572	96.94
331.801	98.94
332.03	104.94
332.258	92.94
332.486	104.94
332.715	95.94
332.943	84.94
333.172	99.94
333.4	86.94
333.629	108.94
333.857	95.94
334.085	102.94
334.314	96.94
334.542	89.94
334.771	96.94
334.999	112.94
335.227	102.94
335.455	81.94
335.684	98.94
335.912	102.94
336.14	101.94
336.369	92.94
336.597	101.94
336.825	98.94
337.053	105.94
337.281	105.94
337.51	99.94
337.738	81.94
337.966	91.94
338.194	97.94
338.422	88.94
338.65	83.94
338.878	95.94
339.106	106.94
339.334	73.94
339.562	92.94
339.79	95.94
340.018	82.94
340.246	104.94
340.474	101.94
340.702	100.94
340.93	95.94
341.158	91.94
341.386	94.94
341.614	83.94
341.842	99.94
342.07	89.94
342.298	97.94
342.526	88.94
342.754	83.94
342.981	84.94
343.209	103.94
343.437	105.94
343.665	103.94
343.893	85.94
344.12	103.94
344.348	84.94
344.576	89.94
344.804	107.94
345.031	98.94
345.259	105.94
345.487	94.94
345.714	96.94
345.942	95.94
346.17	91.94
346.397	82.94
346.625	99.94
346.853	83.94
347.08	77.94
347.308	95.94
347.535	81.94
347.763	106.94
347.99	95.94
348.218	103.94
348.445	101.94
348.673	106.94
348.9	89.94
349.128	92.94
349.355	97.94
349.583	104.94
349.81	113.94
350.037	86.94
350.265	95.94
350.492	98.94
350.72	92.94
350.947	99.94
351.174	97.94
351.402	107.94
351.629	98.94
351.856	98.94
352.083	103.94
352.311	107.94
352.538	100.94
352.765	115.94
352.992	103.94
353.22	111.94
353.447	116.94
353.674	105.94
353.901	95.94
354.128	99.94
354.355	99.94
354.583	101.94
354.81	109.94
355.037	91.94
355.264	81.94
355.491	89.94
355.718	80.94
355.945	103.94
356.172	85.94
356.399	79.94
356.626	90.94
356.853	82.94
357.08	81.94
357.307	81.94
357.534	91.94
357.761	80.94
357.988	93.94
358.215	81.94
358.441	88.94
358.668	83.94
358.895	90.94
359.122	83.94
359.349	106.94
359.576	84.94
359.802	83.94
360.029	107.94
360.256	105.94
360.483	89.94
360.709	91.94
360.936	88.94
361.163	100.94
361.39	95.94
361.616	90.94
361.843	99.94
362.07	99.94
362.296	89.94
362.523	87.94
362.749	89.94
362.976	87.94
363.203	96.94
363.429	92.94
363.656	100.94
363.882	88.94
364.109	90.94
364.335	83.94
364.562	75.94
364.788	91.94
365.015	98.94
365.241	92.94
365.468	101.94
365.694	96.94
365.92	92.94
366.147	88.94
366.373	73.94
366.599	86.94
366.826	91.94
367.052	90.94
367.278	93.94
367.505	88.94
367.731	74.94
367.957	87.94
368.184	86.94
368.41	93.94
368.636	95.94
368.862	107.94
369.089	109.94
369.315	88.94
369.541	93.94
369.767	99.94
369.993	88.94
370.219	99.94
370.445	87.94
370.672	77.94
370.898	88.94
371.124	101.94
371.35	89.94
371.576	88.94
371.802	83.94
372.028	85.94
372.254	91.94
372.48	65.94
372.706	84.94
372.932	89.94
373.158	85.94
373.384	80.94
373.61	98.94
373.835	104.94
374.061	95.94
374.287	95.94
374.513	86.94
374.739	97.94
374.965	88.94
375.191	84.94
375.416	97.94
375.642	77.94
375.868	86.94
376.094	90.94
376.319	78.94
376.545	72.94
376.771	97.94
376.997	89.94
377.222	87.94
377.448	91.94
377.674	96.94
377.899	95.94
378.125	86.94
378.35	90.94
378.576	77.94
378.802	87.94
379.027	87.94
379.253	98.94
379.478	94.94
379.704	93.94
379.929	83.94
380.155	72.94
380.38	88.94
380.606	80.94
380.831	88.94
381.057	99.94
381.282	87.94
381.507	87.94
381.733	99.94
381.958	103.94
382.184	86.94
382.409	84.94
382.634	102.94
382.86	97.94
383.085	92.94
383.31	104.94
383.535	105.94
383.761	96.94
383.986	98.94
384.211	94.94
384.436	76.94
384.662	82.94
384.887	87.94
385.112	97.94
385.337	85.94
385.562	88.94
385.787	103.94
386.013	101.94
386.238	89.94
386.463	108.94
386.688	97.94
386.913	107.94
387.138	97.94
387.363	102.94
387.588	105.94
387.813	83.94
388.038	97.94
388.263	99.94
388.488	98.94
388.713	108.94
388.938	98.94
389.163	89.94
389.387	97.94
389.612	94.94
389.837	90.94
390.062	101.94
390.287	80.94
390.512	98.94
390.736	88.94
390.961	79.94
391.186	90.94
391.411	101.94
391.636	87.94
391.86	74.94
392.085	84.94
392.31	75.94
392.534	79.94
392.759	99.94
392.984	86.94
393.208	89.94
393.433	91.94
393.658	99.94
393.882	88.94
394.107	96.94
394.331	98.94
394.556	93.94
394.78	90.94
395.005	77.94
395.229	72.94
395.454	94.94
395.678	85.94
395.903	92.94
396.127	93.94
396.352	88.94
396.576	83.94
396.801	84.94
397.025	85.94
397.249	83.94
397.474	71.94
397.698	81.94
397.922	80.94
398.147	80.94
398.371	87.94
398.595	85.94
398.82	88.94
399.044	73.94
399.268	88.94
399.492	82.94
399.717	93.94
399.941	97.94
400.165	81.94
400.389	91.94
400.613	90.94
400.837	91.94
401.062	91.94
401.286	85.94
401.51	83.94
401.734	82.94
401.958	109.94
402.182	125.94
402.406	155.94
402.63	110.94
402.854	85.94
403.078	102.94
403.302	89.94
403.526	89.94
403.75	80.94
403.974	84.94
404.198	106.94
404.422	94.94
404.645	94.94
404.869	84.94
405.093	88.94
405.317	87.94
405.541	98.94
405.765	101.94
405.988	107.94
406.212	151.94
406.436	208.94
406.66	140.94
406.883	110.94
407.107	94.94
407.331	96.94
407.555	94.94
407.778	101.94
408.002	92.94
408.226	94.94
408.449	89.94
408.673	92.94
408.896	88.94
409.12	103.94
409.344	81.94
409.567	92.94
409.791	92.94
410.014	103.94
410.238	91.94
410.461	86.94
410.685	87.94
410.908	90.94
411.132	101.94
411.355	100.94
411.578	94.94
411.802	92.94
412.025	94.94
412.249	74.94
412.472	94.94
412.695	90.94
412.919	80.94
413.142	78.94
413.365	81.94
413.589	90.94
413.812	94.94
414.035	93.94
414.258	93.94
414.482	85.94
414.705	90.94
414.928	89.94
415.151	89.94
415.374	96.94
415.597	79.94
415.821	90.94
416.044	85.94
416.267	87.94
416.49	84.94
416.713	78.94
416.936	84.94
417.159	90.94
417.382	91.94
417.605	97.94
417.828	94.94
418.051	92.94
418.274	90.94
418.497	90.94
418.72	92.94
418.943	89.94
419.166	85.94
419.389	102.94
419.611	89.94
419.834	74.94
420.057	91.94
420.28	82.94
420.503	89.94
420.726	81.94
420.948	93.94
421.171	84.94
421.394	99.94
421.617	98.94
421.839	88.94
422.062	92.94
422.285	85.94
422.507	97.94
422.73	93.94
422.953	90.94
423.175	87.94
423.398	90.94
423.621	87.94
423.843	78.94
424.066	90.94
424.288	79.94
424.511	89.94
424.733	100.94
424.956	111.94
425.178	89.94
425.401	91.94
425.623	109.94
425.846	102.94
426.068	97.94
426.291	96.94
426.513	79.94
426.735	110.94
426.958	86.94
427.18	88.94
427.402	139.94
427.625	150.94
427.847	112.94
428.069	89.94
428.292	91.94
428.514	94.94
428.736	105.94
428.958	76.94
429.181	80.94
429.403	88.94
429.625	98.94
429.847	91.94
430.069	99.94
430.292	85.94
430.514	75.94
430.736	78.94
430.958	75.94
431.18	74.94
431.402	71.94
431.624	81.94
431.846	73.94
432.068	76.94
432.29	83.94
432.512	94.94
432.734	85.94
432.956	86.94
433.178	96.94
433.4	107.94
433.622	82.94
433.844	89.94
434.066	88.94
434.287	91.94
434.509	93.94
434.731	87.94
434.953	79.94
435.175	85.94
435.397	93.94
435.618	98.94
435.84	110.94
436.062	106.94
436.284	102.94
436.505	101.94
436.727	92.94
436.949	78.94
437.17	81.94
437.392	99.94
437.614	86.94
437.835	106.94
438.057	105.94
438.278	111.94
438.5	114.94
438.721	114.94
438.943	99.94
439.165	98.94
439.386	89.94
439.608	80.94
439.829	109.94
440.05	108.94
440.272	128.94
440.493	81.94
440.715	98.94
440.936	84.94
441.158	77.94
441.379	92.94
441.6	86.94
441.822	100.94
442.043	117.94
442.264	100.94
442.486	88.94
442.707	84.94
442.928	98.94
443.149	115.94
443.371	120.94
443.592	98.94
443.813	107.94
444.034	97.94
444.255	93.94
444.476	75.94
444.698	86.94
444.919	93.94
445.14	115.94
445.361	124.94
445.582	104.94
445.803	139.94
446.024	138.94
446.245	124.94
446.466	114.94
446.687	89.94
446.908	87.94
447.129	99.94
447.35	91.94
447.571	90.94
447.792	107.94
448.013	107.94
448.234	81.94
448.455	88.94
448.675	103.94
448.896	107.94
449.117	96.94
449.338	88.94
449.559	120.94
449.779	136.94
450	99.94
450.221	101.94
450.442	99.94
450.662	97.94
450.883	108.94
451.104	105.94
451.324	91.94
451.545	92.94
451.766	77.94
451.986	81.94
452.207	77.94
452.428	89.94
452.648	110.94
452.869	113.94
453.089	121.94
453.31	113.94
453.53	93.94
453.751	101.94
453.971	117.94
454.192	104.94
454.412	99.94
454.633	81.94
454.853	93.94
455.073	85.94
455.294	86.94
455.514	95.94
455.734	89.94
455.955	93.94
456.175	74.94
456.395	90.94
456.616	73.94
456.836	92.94
457.056	82.94
457.276	79.94
457.497	79.94
457.717	98.94
457.937	91.94
458.157	94.94
458.377	96.94
458.598	103.94
458.818	149.94
459.038	133.94
459.258	92.94
459.478	89.94
459.698	81.94
459.918	78.94
460.138	91.94
460.358	72.94
460.578	83.94
460.798	96.94
461.018	91.94
461.238	78.94
461.458	87.94
461.678	96.94
461.898	70.94
462.118	88.94
462.338	88.94
462.558	84.94
462.777	85.94
462.997	63.94
463.217	84.94
463.437	81.94
463.657	79.94
463.876	80.94
464.096	93.94
464.316	90.94
464.536	108.94
464.755	98.94
464.975	100.94
465.195	165.94
465.414	158.94
465.634	94.94
465.854	97.94
466.073	88.94
466.293	81.94
466.512	90.94
466.732	90.94
466.951	84.94
467.171	91.94
467.391	89.94
467.61	95.94
467.829	73.94
468.049	87.94
468.268	98.94
468.488	77.94
468.707	77.94
468.927	90.94
469.146	76.94
469.365	89.94
469.585	89.94
469.804	91.94
470.023	97.94
470.243	87.94
470.462	97.94
470.681	106.94
470.901	82.94
471.12	86.94
471.339	85.94
471.558	86.94
471.777	83.94
471.997	76.94
472.216	85.94
472.435	93.94
472.654	96.94
472.873	71.94
473.092	76.94
473.311	86.94
473.53	93.94
473.749	84.94
473.968	96.94
474.187	107.94
474.406	99.94
474.625	97.94
474.844	73.94
475.063	85.94
475.282	80.94
475.501	77.94
475.72	91.94
475.939	86.94
476.158	98.94
476.377	77.94
476.596	92.94
476.814	96.94
477.033	80.94
477.252	95.94
477.471	86.94
477.69	84.94
477.908	91.94
478.127	96.94
478.346	95.94
478.564	98.94
478.783	93.94
479.002	99.94
479.22	102.94
479.439	98.94
479.658	100.94
479.876	94.94
480.095	74.94
480.313	93.94
480.532	89.94
480.751	100.94
480.969	102.94
481.188	109.94
481.406	118.94
481.624	91.94
481.843	94.94
482.061	84.94
482.28	85.94
482.498	97.94
482.717	88.94
482.935	90.94
483.153	88.94
483.372	93.94
483.59	93.94
483.808	90.94
484.027	97.94
484.245	91.94
484.463	95.94
484.681	107.94
484.9	92.94
485.118	90.94
485.336	91.94
485.554	105.94
485.772	90.94
485.99	91.94
486.209	86.94
486.427	92.94
486.645	121.94
486.863	105.94
487.081	106.94
487.299	92.94
487.517	90.94
487.735	98.94
487.953	85.94
488.171	101.94
488.389	102.94
488.607	92.94
488.825	83.94
489.043	87.94
489.261	96.94
489.479	83.94
489.696	89.94
489.914	79.94
490.132	78.94
490.35	91.94
490.568	86.94
490.786	90.94
491.003	80.94
491.221	85.94
491.439	75.94
491.657	80.94
491.874	87.94
492.092	88.94
492.31	93.94
492.527	94.94
492.745	82.94
492.963	93.94
493.18	86.94
493.398	96.94
493.615	95.94
493.833	87.94
494.05	95.94
494.268	96.94
494.485	88.94
494.703	83.94
494.92	81.94
495.138	87.94
495.355	104.94
495.573	94.94
495.79	79.94
496.008	83.94
496.225	72.94
496.442	98.94
496.66	87.94
496.877	87.94
497.094	89.94
497.312	83.94
497.529	93.94
497.746	91.94
497.963	92.94
498.181	86.94
498.398	105.94
498.615	94.94
498.832	85.94
499.049	81.94
499.267	72.94
499.484	107.94
499.701	83.94
499.918	83.94
500.135	87.94
500.352	85.94
500.569	79.94
500.786	86.94
501.003	89.94
501.22	93.94
501.437	87.94
501.654	94.94
501.871	96.94
502.088	87.94
502.305	97.94
502.522	92.94
502.739	99.94
502.956	105.94
503.172	83.94
503.389	107.94
503.606	110.94
503.823	98.94
504.04	83.94
504.256	87.94
504.473	95.94
504.69	104.94
504.907	101.94
505.123	85.94
505.34	89.94
505.557	93.94
505.773	82.94
505.99	93.94
506.207	80.94
506.423	90.94
506.64	88.94
506.856	86.94
507.073	83.94
507.289	96.94
507.506	81.94
507.722	96.94
507.939	107.94
508.155	89.94
508.372	94.94
508.588	92.94
508.805	97.94
509.021	118.94
509.238	99.94
509.454	86.94
509.67	110.94
509.887	99.94
510.103	134.94
510.319	206.94
510.536	723.94
510.752	2162.94
510.968	615.94
511.184	151.94
511.401	117.94
511.617	98.94
511.833	97.94
512.049	85.94
512.265	97.94
512.481	81.94
512.698	91.94
512.914	87.94
513.13	97.94
513.346	99.94
513.562	87.94
513.778	99.94
513.994	103.94
514.21	97.94
514.426	123.94
514.642	123.94
514.858	117.94
515.074	168.94
515.29	435.94
515.506	1368.94
515.721	490.94
515.937	155.94
516.153	112.94
516.369	99.94
516.585	80.94
516.801	83.94
517.016	97.94
517.232	86.94
517.448	95.94
517.664	96.94
517.879	94.94
518.095	91.94
518.311	112.94
518.527	85.94
518.742	85.94
518.958	89.94
519.173	88.94
519.389	88.94
519.605	87.94
519.82	90.94
520.036	101.94
520.251	123.94
520.467	106.94
520.682	95.94
520.898	108.94
521.113	104.94
521.329	123.94
521.544	195.94
521.76	515.94
521.975	2189.94
522.19	1337.94
522.406	281.94
522.621	111.94
522.836	91.94
523.052	101.94
523.267	89.94
523.482	99.94
523.698	106.94
523.913	111.94
524.128	104.94
524.343	86.94
524.559	92.94
524.774	98.94
524.989	105.94
525.204	100.94
525.419	104.94
525.634	95.94
525.849	96.94
526.064	79.94
526.28	90.94
526.495	80.94
526.71	87.94
526.925	77.94
527.14	88.94
527.355	86.94
527.57	92.94
527.785	88.94
527.999	85.94
528.214	95.94
528.429	106.94
528.644	89.94
528.859	73.94
529.074	91.94
529.289	120.94
529.503	168.94
529.718	113.94
529.933	94.94
530.148	89.94
530.363	88.94
530.577	92.94
530.792	82.94
531.007	89.94
531.221	92.94
531.436	100.94
531.651	93.94
531.865	85.94
532.08	80.94
532.295	85.94
532.509	95.94
532.724	92.94
532.938	115.94
533.153	89.94
533.367	95.94
533.582	84.94
533.796	85.94
534.011	82.94
534.225	99.94
534.44	81.94
534.654	100.94
534.868	98.94
535.083	107.94
535.297	101.94
535.511	105.94
535.726	101.94
535.94	96.94
536.154	95.94
536.369	102.94
536.583	97.94
536.797	90.94
537.011	79.94
537.225	93.94
537.44	86.94
537.654	94.94
537.868	88.94
538.082	87.94
538.296	90.94
538.51	93.94
538.724	83.94
538.938	78.94
539.153	102.94
539.367	103.94
539.581	96.94
539.795	82.94
540.009	82.94
540.222	87.94
540.436	84.94
540.65	95.94
540.864	98.94
541.078	81.94
541.292	94.94
541.506	86.94
541.72	98.94
541.934	93.94
542.147	90.94
542.361	79.94
542.575	92.94
542.789	87.94
543.002	85.94
543.216	89.94
543.43	95.94
543.644	89.94
543.857	87.94
544.071	80.94
544.285	89.94
544.498	77.94
544.712	93.94
544.925	90.94
545.139	93.94
545.352	89.94
545.566	88.94
545.779	90.94
545.993	100.94
546.206	94.94
546.42	100.94
546.633	105.94
546.847	90.94
547.06	74.94
547.274	86.94
547.487	92.94
547.7	93.94
547.914	99.94
548.127	86.94
548.34	85.94
548.554	89.94
548.767	90.94
548.98	90.94
549.193	79.94
549.407	95.94
549.62	78.94
549.833	95.94
550.046	75.94
550.259	91.94
550.473	87.94
550.686	78.94
550.899	87.94
551.112	85.94
551.325	80.94
551.538	89.94
551.751	89.94
551.964	90.94
552.177	86.94
552.39	90.94
552.603	77.94
552.816	97.94
553.029	89.94
553.242	79.94
553.455	105.94
553.667	104.94
553.88	106.94
554.093	106.94
554.306	85.94
554.519	94.94
554.732	92.94
554.944	95.94
555.157	86.94
555.37	89.94
555.583	86.94
555.795	83.94
556.008	75.94
556.221	92.94
556.433	90.94
556.646	89.94
556.859	99.94
557.071	98.94
557.284	87.94
557.496	87.94
557.709	81.94
557.921	95.94
558.134	98.94
558.346	84.94
558.559	79.94
558.771	92.94
558.984	94.94
559.196	95.94
559.409	83.94
559.621	78.94
559.833	86.94
560.046	89.94
560.258	86.94
560.47	94.94
560.683	90.94
560.895	86.94
561.107	75.94
561.32	106.94
561.532	94.94
561.744	78.94
561.956	90.94
562.168	96.94
562.381	92.94
562.593	98.94
562.805	98.94
563.017	89.94
563.229	94.94
563.441	83.94
563.653	94.94
563.865	107.94
564.077	95.94
564.289	82.94
564.501	93.94
564.713	96.94
564.925	104.94
565.137	104.94
565.349	90.94
565.561	88.94
565.773	82.94
565.985	78.94
566.197	88.94
566.408	82.94
566.62	103.94
566.832	85.94
567.044	86.94
567.255	83.94
567.467	98.94
567.679	80.94
567.891	85.94
568.102	94.94
568.314	86.94
568.526	79.94
568.737	84.94
568.949	83.94
569.161	89.94
569.372	78.94
569.584	99.94
569.795	80.94
570.007	121.94
570.218	243.94
570.43	125.94
570.641	93.94
570.853	82.94
571.064	86.94
571.276	93.94
571.487	89.94
571.698	74.94
571.91	83.94
572.121	96.94
572.333	92.94
572.544	70.94
572.755	76.94
572.966	95.94
573.178	86.94
573.389	89.94
573.6	77.94
573.811	94.94
574.023	96.94
574.234	87.94
574.445	93.94
574.656	72.94
574.867	79.94
575.078	78.94
575.289	91.94
575.501	78.94
575.712	86.94
575.923	87.94
576.134	98.94
576.345	93.94
576.556	80.94
576.767	90.94
576.978	90.94
577.188	79.94
577.399	104.94
577.61	96.94
577.821	110.94
578.032	117.94
578.243	276.94
578.454	716.94
578.665	200.94
578.875	111.94
579.086	99.94
579.297	104.94
579.508	93.94
579.718	99.94
579.929	97.94
580.14	98.94
580.35	89.94
580.561	84.94
580.772	79.94
580.982	80.94
581.193	75.94
581.403	89.94
581.614	89.94
581.825	87.94
582.035	78.94
582.246	104.94
582.456	84.94
582.667	87.94
582.877	87.94
583.087	86.94
583.298	85.94
583.508	100.94
583.719	86.94
583.929	87.94
584.139	87.94
584.35	67.94
584.56	97.94
584.77	90.94
584.981	93.94
585.191	87.94
585.401	95.94
585.611	89.94
585.821	89.94
586.032	94.94
586.242	93.94
586.452	85.94
586.662	80.94
586.872	73.94
587.082	71.94
587.292	82.94
587.502	82.94
587.713	83.94
587.923	81.94
588.133	94.94
588.343	73.94
588.553	82.94
588.762	91.94
588.972	83.94
589.182	87.94
589.392	75.94
589.602	80.94
589.812	92.94
590.022	95.94
590.232	95.94
590.441	97.94
590.651	79.94
590.861	87.94
591.071	81.94
591.281	85.94
591.49	82.94
591.7	82.94
591.91	89.94
592.119	92.94
592.329	97.94
592.539	95.94
592.748	87.94
592.958	94.94
593.167	97.94
593.377	89.94
593.587	103.94
593.796	88.94
594.006	82.94
594.215	88.94
594.424	82.94
594.634	82.94
594.843	89.94
595.053	81.94
595.262	85.94
595.472	84.94
595.681	85.94
595.89	76.94
596.1	80.94
596.309	94.94
596.518	87.94
596.727	77.94
596.937	86.94
597.146	86.94
597.355	94.94
597.564	82.94
597.774	85.94
597.983	94.94
598.192	81.94
598.401	85.94
598.61	87.94
598.819	92.94
599.028	101.94
599.237	66.94
599.446	78.94
599.655	82.94
599.864	86.94
600.073	76.94
600.282	91.94
600.491	96.94
600.7	81.94
600.909	82.94
601.118	97.94
601.327	94.94
601.536	74.94
601.745	90.94
601.953	95.94
602.162	84.94
602.371	91.94
602.58	83.94
602.789	80.94
602.997	98.94
603.206	87.94
603.415	80.94
603.623	100.94
603.832	73.94
604.041	74.94
604.249	77.94
604.458	90.94
604.666	81.94
604.875	99.94
605.084	95.94
605.292	89.94
605.501	89.94
605.709	82.94
605.918	90.94
606.126	82.94
606.334	90.94
606.543	87.94
606.751	101.94
606.96	82.94
607.168	84.94
607.376	81.94
607.585	73.94
607.793	89.94
608.001	82.94
608.21	85.94
608.418	85.94
608.626	83.94
608.834	89.94
609.043	83.94
609.251	74.94
609.459	80.94
609.667	86.94
609.875	77.94
610.083	85.94
610.291	80.94
610.499	84.94
610.707	86.94
610.916	80.94
611.124	84.94
611.332	82.94
611.54	62.94
611.748	82.94
611.955	85.94
612.163	88.94
612.371	77.94
612.579	85.94
612.787	81.94
612.995	77.94
613.203	80.94
613.411	73.94
613.618	86.94
613.826	86.94
614.034	93.94
614.242	77.94
614.449	96.94
614.657	86.94
614.865	83.94
615.072	95.94
615.28	87.94
615.488	81.94
615.695	83.94
615.903	101.94
616.111	104.94
616.318	99.94
616.526	81.94
616.733	91.94
616.941	87.94
617.148	91.94
617.356	87.94
617.563	85.94
617.771	86.94
617.978	77.94
618.185	91.94
618.393	87.94
618.6	98.94
618.807	101.94
619.015	77.94
619.222	77.94
619.429	70.94
619.637	98.94
619.844	100.94
620.051	88.94
620.258	88.94
620.466	82.94
620.673	93.94
620.88	84.94
621.087	78.94
621.294	82.94
621.501	84.94
621.708	91.94
621.915	82.94
622.122	85.94
622.329	89.94
622.536	92.94
622.743	90.94
622.95	81.94
623.157	89.94
623.364	70.94
623.571	86.94
623.778	93.94
623.985	92.94
624.192	86.94
624.399	83.94
624.606	95.94
624.812	82.94
625.019	78.94
625.226	76.94
625.433	90.94
625.639	88.94
625.846	87.94
626.053	72.94
626.259	89.94
626.466	84.94
626.673	83.94
626.879	75.94
627.086	79.94
627.293	83.94
627.499	73.94
627.706	84.94
627.912	89.94
628.119	90.94
628.325	89.94
628.532	97.94
628.738	95.94
628.945	94.94
629.151	77.94
629.357	78.94
629.564	79.94
629.77	88.94
629.976	79.94
630.183	75.94
630.389	83.94
630.595	88.94
630.802	78.94
631.008	93.94
631.214	82.94
631.42	79.94
631.627	90.94
631.833	92.94
632.039	82.94
632.245	85.94
632.451	77.94
632.657	94.94
632.863	76.94
633.069	73.94
633.275	79.94
633.481	82.94
633.688	94.94
633.893	89.94
634.099	96.94
634.305	73.94
634.511	88.94
634.717	88.94
634.923	86.94
635.129	72.94
635.335	88.94
635.541	67.94
635.747	78.94
635.952	80.94
636.158	98.94
636.364	81.94
636.57	93.94
636.775	94.94
636.981	77.94
637.187	89.94
637.392	94.94
637.598	72.94
637.804	86.94
638.009	75.94
638.215	87.94
638.421	75.94
638.626	91.94
638.832	102.94
639.037	81.94
639.243	84.94
639.448	86.94
639.654	81.94
639.859	68.94
640.065	85.94
640.27	83.94
640.475	83.94
640.681	86.94
640.886	75.94
641.091	98.94
641.297	78.94
641.502	94.94
641.707	79.94
641.913	79.94
642.118	77.94
642.323	85.94
642.528	97.94
642.733	89.94
642.939	79.94
643.144	92.94
643.349	87.94
643.554	93.94
643.759	99.94
643.964	93.94
644.169	97.94
644.374	80.94
644.579	89.94
644.784	85.94
644.989	77.94
645.194	98.94
645.399	95.94
645.604	65.94
645.809	77.94
646.014	79.94
646.219	96.94
646.423	82.94
646.628	84.94
646.833	82.94
647.038	73.94
647.243	74.94
647.447	100.94
647.652	86.94
647.857	83.94
648.062	75.94
648.266	95.94
648.471	87.94
648.676	90.94
648.88	91.94
649.085	90.94
649.289	87.94
649.494	106.94
649.698	143.94
649.903	108.94
650.107	92.94
650.312	89.94
650.516	87.94
650.721	91.94
650.925	81.94
651.13	74.94
651.334	71.94
651.539	75.94
651.743	85.94
651.947	85.94
652.152	79.94
652.356	92.94
652.56	95.94
652.764	76.94
652.969	72.94
653.173	78.94
653.377	84.94
653.581	91.94
653.785	83.94
653.99	86.94
654.194	85.94
654.398	85.94
654.602	89.94
654.806	86.94
655.01	89.94
655.214	77.94
655.418	75.94
655.622	88.94
655.826	86.94
656.03	79.94
656.234	97.94
656.438	95.94
656.642	94.94
656.846	83.94
657.049	93.94
657.253	87.94
657.457	85.94
657.661	80.94
657.865	106.94
658.068	82.94
658.272	75.94
658.476	87.94
658.68	91.94
658.883	96.94
659.087	75.94
659.291	75.94
659.494	72.94
659.698	65.94
659.901	84.94
660.105	81.94
660.309	87.94
660.512	81.94
660.716	85.94
660.919	83.94
661.123	71.94
661.326	73.94
661.53	82.94
661.733	78.94
661.936	76.94
662.14	83.94
662.343	82.94
662.546	73.94
662.75	79.94
662.953	89.94
663.156	61.94
663.36	90.94
663.563	82.94
663.766	85.94
663.969	82.94
664.173	82.94
664.376	69.94
664.579	84.94
664.782	92.94
664.985	87.94
665.188	76.94
665.391	78.94
665.594	61.94
665.797	75.94
666	93.94
666.203	82.94
666.406	79.94
666.609	89.94
666.812	68.94
667.015	86.94
667.218	80.94
667.421	65.94
667.624	85.94
667.827	86.94
668.03	84.94
668.232	82.94
668.435	76.94
668.638	81.94
668.841	96.94
669.043	80.94
669.246	90.94
669.449	81.94
669.651	75.94
669.854	87.94
670.057	90.94
670.259	84.94
670.462	68.94
670.665	84.94
670.867	92.94
671.07	71.94
671.272	84.94
671.475	93.94
671.677	97.94
671.88	80.94
672.082	76.94
672.284	91.94
672.487	76.94
672.689	87.94
672.892	64.94
