Data from Uncirc_1997_H10_HRD10591_00066.txt Node
Date: Wed Jan 03 11:28:43 EST 2024
User: Yrep
Spectrometer: HR+D1059
Trigger mode: 1
Integration Time (sec): 1.000000E-1
Scans to average: 1
Electric dark correction enabled: true
Nonlinearity correction enabled: false
Boxcar width: 0
XAxis mode: Wavelengths
Number of Pixels in Spectrum: 2048
>>>>>Begin Spectral Data<<<<<
223.165	-15.06
223.4	-15.06
223.635	-15.06
223.869	-14.06
224.104	-25.06
224.338	-14.06
224.573	-26.06
224.808	-14.06
225.042	-5.06
225.277	-3.06
225.511	8.94
225.746	3.94
225.98	10.94
226.215	15.94
226.449	18.94
226.683	10.94
226.918	23.94
227.152	22.94
227.387	33.94
227.621	25.94
227.856	43.94
228.09	46.94
228.324	39.94
228.559	51.94
228.793	50.94
229.027	61.94
229.262	51.94
229.496	74.94
229.73	68.94
229.964	68.94
230.199	61.94
230.433	69.94
230.667	74.94
230.901	77.94
231.136	65.94
231.37	72.94
231.604	82.94
231.838	70.94
232.072	58.94
232.306	73.94
232.541	73.94
232.775	89.94
233.009	84.94
233.243	74.94
233.477	63.94
233.711	70.94
233.945	87.94
234.179	79.94
234.413	79.94
234.647	82.94
234.881	65.94
235.115	67.94
235.349	73.94
235.583	77.94
235.817	72.94
236.051	70.94
236.285	81.94
236.519	76.94
236.753	72.94
236.987	73.94
237.221	75.94
237.455	90.94
237.689	66.94
237.922	80.94
238.156	66.94
238.39	56.94
238.624	71.94
238.858	73.94
239.091	73.94
239.325	67.94
239.559	78.94
239.793	72.94
240.027	77.94
240.26	67.94
240.494	76.94
240.728	75.94
240.961	61.94
241.195	77.94
241.429	74.94
241.662	78.94
241.896	70.94
242.13	70.94
242.363	86.94
242.597	70.94
242.83	66.94
243.064	83.94
243.298	77.94
243.531	71.94
243.765	77.94
243.998	71.94
244.232	74.94
244.465	74.94
244.699	76.94
244.932	67.94
245.166	62.94
245.399	66.94
245.633	60.94
245.866	70.94
246.099	69.94
246.333	65.94
246.566	69.94
246.8	68.94
247.033	74.94
247.266	57.94
247.5	77.94
247.733	78.94
247.966	67.94
248.2	68.94
248.433	69.94
248.666	71.94
248.899	73.94
249.133	73.94
249.366	73.94
249.599	88.94
249.832	56.94
250.066	84.94
250.299	73.94
250.532	66.94
250.765	76.94
250.998	71.94
251.231	59.94
251.465	84.94
251.698	73.94
251.931	67.94
252.164	74.94
252.397	75.94
252.63	68.94
252.863	70.94
253.096	73.94
253.329	78.94
253.562	85.94
253.795	70.94
254.028	75.94
254.261	78.94
254.494	78.94
254.727	82.94
254.96	66.94
255.193	78.94
255.426	89.94
255.659	70.94
255.892	79.94
256.124	83.94
256.357	75.94
256.59	69.94
256.823	67.94
257.056	88.94
257.289	81.94
257.521	81.94
257.754	83.94
257.987	72.94
258.22	83.94
258.452	65.94
258.685	81.94
258.918	70.94
259.151	78.94
259.383	69.94
259.616	72.94
259.849	74.94
260.081	75.94
260.314	76.94
260.547	73.94
260.779	86.94
261.012	77.94
261.244	66.94
261.477	78.94
261.71	80.94
261.942	89.94
262.175	106.94
262.407	86.94
262.64	75.94
262.872	69.94
263.105	74.94
263.337	83.94
263.57	60.94
263.802	84.94
264.035	79.94
264.267	78.94
264.499	74.94
264.732	78.94
264.964	71.94
265.197	84.94
265.429	85.94
265.661	73.94
265.894	67.94
266.126	85.94
266.358	73.94
266.591	83.94
266.823	89.94
267.055	75.94
267.287	87.94
267.52	88.94
267.752	62.94
267.984	73.94
268.216	87.94
268.448	80.94
268.681	94.94
268.913	83.94
269.145	74.94
269.377	74.94
269.609	74.94
269.841	85.94
270.073	73.94
270.306	77.94
270.538	85.94
270.77	77.94
271.002	86.94
271.234	92.94
271.466	98.94
271.698	76.94
271.93	61.94
272.162	82.94
272.394	71.94
272.626	86.94
272.858	68.94
273.09	71.94
273.322	82.94
273.553	73.94
273.785	79.94
274.017	72.94
274.249	80.94
274.481	84.94
274.713	88.94
274.945	74.94
275.176	77.94
275.408	71.94
275.64	91.94
275.872	86.94
276.104	91.94
276.335	93.94
276.567	84.94
276.799	99.94
277.031	92.94
277.262	92.94
277.494	86.94
277.726	94.94
277.957	75.94
278.189	69.94
278.421	77.94
278.652	91.94
278.884	78.94
279.115	77.94
279.347	84.94
279.579	87.94
279.81	76.94
280.042	84.94
280.273	88.94
280.505	73.94
280.736	69.94
280.968	79.94
281.199	83.94
281.431	94.94
281.662	78.94
281.894	75.94
282.125	91.94
282.356	112.94
282.588	120.94
282.819	103.94
283.051	77.94
283.282	61.94
283.513	71.94
283.745	81.94
283.976	89.94
284.207	85.94
284.439	69.94
284.67	78.94
284.901	78.94
285.132	82.94
285.364	77.94
285.595	91.94
285.826	81.94
286.057	85.94
286.288	80.94
286.52	71.94
286.751	92.94
286.982	76.94
287.213	86.94
287.444	86.94
287.675	82.94
287.906	75.94
288.138	85.94
288.369	87.94
288.6	79.94
288.831	88.94
289.062	98.94
289.293	86.94
289.524	81.94
289.755	88.94
289.986	83.94
290.217	83.94
290.448	76.94
290.679	76.94
290.91	84.94
291.141	74.94
291.371	86.94
291.602	73.94
291.833	85.94
292.064	75.94
292.295	83.94
292.526	74.94
292.757	90.94
292.987	87.94
293.218	84.94
293.449	81.94
293.68	82.94
293.91	84.94
294.141	93.94
294.372	80.94
294.603	79.94
294.833	86.94
295.064	78.94
295.295	83.94
295.525	74.94
295.756	91.94
295.987	105.94
296.217	121.94
296.448	104.94
296.679	69.94
296.909	95.94
297.14	79.94
297.37	59.94
297.601	89.94
297.831	81.94
298.062	73.94
298.292	96.94
298.523	95.94
298.753	81.94
298.984	75.94
299.214	85.94
299.445	79.94
299.675	101.94
299.905	91.94
300.136	90.94
300.366	71.94
300.597	87.94
300.827	98.94
301.057	90.94
301.288	101.94
301.518	75.94
301.748	82.94
301.979	107.94
302.209	85.94
302.439	73.94
302.669	78.94
302.9	67.94
303.13	89.94
303.36	89.94
303.59	90.94
303.82	83.94
304.051	99.94
304.281	77.94
304.511	90.94
304.741	94.94
304.971	83.94
305.201	87.94
305.431	88.94
305.661	77.94
305.891	97.94
306.121	97.94
306.352	92.94
306.582	105.94
306.812	93.94
307.042	82.94
307.272	74.94
307.502	65.94
307.731	91.94
307.961	83.94
308.191	83.94
308.421	84.94
308.651	82.94
308.881	75.94
309.111	89.94
309.341	83.94
309.571	101.94
309.8	85.94
310.03	86.94
310.26	90.94
310.49	98.94
310.72	91.94
310.949	101.94
311.179	84.94
311.409	74.94
311.639	75.94
311.868	86.94
312.098	93.94
312.328	88.94
312.557	81.94
312.787	101.94
313.017	86.94
313.246	83.94
313.476	82.94
313.706	78.94
313.935	74.94
314.165	94.94
314.394	80.94
314.624	98.94
314.853	84.94
315.083	96.94
315.312	87.94
315.542	69.94
315.771	88.94
316.001	85.94
316.23	76.94
316.46	89.94
316.689	101.94
316.919	80.94
317.148	83.94
317.377	109.94
317.607	93.94
317.836	81.94
318.065	84.94
318.295	73.94
318.524	84.94
318.753	98.94
318.983	77.94
319.212	83.94
319.441	102.94
319.67	90.94
319.9	84.94
320.129	90.94
320.358	86.94
320.587	89.94
320.816	81.94
321.046	101.94
321.275	86.94
321.504	104.94
321.733	81.94
321.962	91.94
322.191	97.94
322.42	108.94
322.649	108.94
322.878	108.94
323.108	108.94
323.337	108.94
323.566	133.94
323.795	137.94
324.024	178.94
324.253	376.94
324.482	739.94
324.71	1534.94
324.939	2058.94
325.168	732.94
325.397	225.94
325.626	129.94
325.855	107.94
326.084	115.94
326.313	122.94
326.542	144.94
326.77	212.94
326.999	426.94
327.228	878.94
327.457	1576.94
327.686	1277.94
327.914	332.94
328.143	175.94
328.372	139.94
328.6	109.94
328.829	94.94
329.058	112.94
329.287	108.94
329.515	83.94
329.744	99.94
329.972	93.94
330.201	103.94
330.43	94.94
330.658	113.94
330.887	106.94
331.115	103.94
331.344	92.94
331.572	95.94
331.801	110.94
332.03	90.94
332.258	101.94
332.486	102.94
332.715	96.94
332.943	93.94
333.172	86.94
333.4	90.94
333.629	88.94
333.857	102.94
334.085	102.94
334.314	94.94
334.542	95.94
334.771	102.94
334.999	95.94
335.227	84.94
335.455	90.94
335.684	86.94
335.912	93.94
336.14	91.94
336.369	93.94
336.597	95.94
336.825	102.94
337.053	92.94
337.281	80.94
337.51	100.94
337.738	89.94
337.966	70.94
338.194	95.94
338.422	87.94
338.65	101.94
338.878	79.94
339.106	67.94
339.334	68.94
339.562	101.94
339.79	102.94
340.018	96.94
340.246	73.94
340.474	86.94
340.702	77.94
340.93	88.94
341.158	97.94
341.386	89.94
341.614	90.94
341.842	94.94
342.07	100.94
342.298	81.94
342.526	96.94
342.754	78.94
342.981	73.94
343.209	85.94
343.437	87.94
343.665	92.94
343.893	77.94
344.12	97.94
344.348	99.94
344.576	80.94
344.804	91.94
345.031	95.94
345.259	88.94
345.487	89.94
345.714	90.94
345.942	90.94
346.17	81.94
346.397	84.94
346.625	82.94
346.853	78.94
347.08	92.94
347.308	87.94
347.535	88.94
347.763	96.94
347.99	90.94
348.218	100.94
348.445	98.94
348.673	100.94
348.9	76.94
349.128	93.94
349.355	79.94
349.583	94.94
349.81	94.94
350.037	78.94
350.265	86.94
350.492	84.94
350.72	83.94
350.947	111.94
351.174	108.94
351.402	96.94
351.629	94.94
351.856	106.94
352.083	101.94
352.311	109.94
352.538	110.94
352.765	102.94
352.992	109.94
353.22	92.94
353.447	99.94
353.674	94.94
353.901	95.94
354.128	92.94
354.355	98.94
354.583	83.94
354.81	80.94
355.037	89.94
355.264	87.94
355.491	91.94
355.718	87.94
355.945	90.94
356.172	95.94
356.399	96.94
356.626	84.94
356.853	85.94
357.08	85.94
357.307	71.94
357.534	105.94
357.761	95.94
357.988	89.94
358.215	78.94
358.441	88.94
358.668	79.94
358.895	90.94
359.122	78.94
359.349	84.94
359.576	97.94
359.802	97.94
360.029	90.94
360.256	106.94
360.483	86.94
360.709	86.94
360.936	87.94
361.163	90.94
361.39	84.94
361.616	79.94
361.843	75.94
362.07	83.94
362.296	91.94
362.523	85.94
362.749	85.94
362.976	80.94
363.203	81.94
363.429	77.94
363.656	86.94
363.882	91.94
364.109	90.94
364.335	96.94
364.562	106.94
364.788	89.94
365.015	94.94
365.241	89.94
365.468	97.94
365.694	96.94
365.92	89.94
366.147	76.94
366.373	81.94
366.599	95.94
366.826	92.94
367.052	76.94
367.278	93.94
367.505	84.94
367.731	86.94
367.957	99.94
368.184	90.94
368.41	88.94
368.636	104.94
368.862	106.94
369.089	95.94
369.315	79.94
369.541	83.94
369.767	80.94
369.993	109.94
370.219	94.94
370.445	83.94
370.672	85.94
370.898	73.94
371.124	92.94
371.35	75.94
371.576	76.94
371.802	89.94
372.028	91.94
372.254	79.94
372.48	85.94
372.706	73.94
372.932	79.94
373.158	78.94
373.384	75.94
373.61	88.94
373.835	92.94
374.061	93.94
374.287	79.94
374.513	85.94
374.739	86.94
374.965	83.94
375.191	63.94
375.416	84.94
375.642	67.94
375.868	88.94
376.094	94.94
376.319	81.94
376.545	78.94
376.771	73.94
376.997	84.94
377.222	79.94
377.448	81.94
377.674	86.94
377.899	88.94
378.125	91.94
378.35	77.94
378.576	89.94
378.802	82.94
379.027	81.94
379.253	103.94
379.478	77.94
379.704	97.94
379.929	83.94
380.155	91.94
380.38	86.94
380.606	91.94
380.831	73.94
381.057	91.94
381.282	94.94
381.507	87.94
381.733	78.94
381.958	93.94
382.184	85.94
382.409	101.94
382.634	101.94
382.86	91.94
383.085	81.94
383.31	91.94
383.535	90.94
383.761	97.94
383.986	95.94
384.211	92.94
384.436	81.94
384.662	84.94
384.887	105.94
385.112	88.94
385.337	89.94
385.562	98.94
385.787	94.94
386.013	91.94
386.238	94.94
386.463	82.94
386.688	111.94
386.913	83.94
387.138	95.94
387.363	92.94
387.588	105.94
387.813	86.94
388.038	93.94
388.263	100.94
388.488	103.94
388.713	100.94
388.938	82.94
389.163	94.94
389.387	94.94
389.612	95.94
389.837	73.94
390.062	82.94
390.287	69.94
390.512	91.94
390.736	82.94
390.961	83.94
391.186	87.94
391.411	87.94
391.636	81.94
391.86	69.94
392.085	75.94
392.31	89.94
392.534	73.94
392.759	89.94
392.984	85.94
393.208	80.94
393.433	85.94
393.658	90.94
393.882	91.94
394.107	70.94
394.331	76.94
394.556	82.94
394.78	84.94
395.005	85.94
395.229	77.94
395.454	94.94
395.678	87.94
395.903	88.94
396.127	89.94
396.352	74.94
396.576	75.94
396.801	83.94
397.025	82.94
397.249	90.94
397.474	90.94
397.698	81.94
397.922	74.94
398.147	78.94
398.371	81.94
398.595	87.94
398.82	70.94
399.044	65.94
399.268	89.94
399.492	78.94
399.717	72.94
399.941	71.94
400.165	79.94
400.389	75.94
400.613	78.94
400.837	78.94
401.062	71.94
401.286	86.94
401.51	77.94
401.734	81.94
401.958	97.94
402.182	131.94
402.406	148.94
402.63	105.94
402.854	83.94
403.078	87.94
403.302	77.94
403.526	73.94
403.75	77.94
403.974	87.94
404.198	81.94
404.422	77.94
404.645	87.94
404.869	77.94
405.093	90.94
405.317	91.94
405.541	97.94
405.765	93.94
405.988	91.94
406.212	155.94
406.436	206.94
406.66	132.94
406.883	85.94
407.107	71.94
407.331	85.94
407.555	84.94
407.778	91.94
408.002	96.94
408.226	89.94
408.449	85.94
408.673	90.94
408.896	87.94
409.12	93.94
409.344	72.94
409.567	86.94
409.791	78.94
410.014	86.94
410.238	81.94
410.461	81.94
410.685	93.94
410.908	92.94
411.132	98.94
411.355	101.94
411.578	89.94
411.802	69.94
412.025	79.94
412.249	76.94
412.472	83.94
412.695	79.94
412.919	84.94
413.142	84.94
413.365	80.94
413.589	65.94
413.812	75.94
414.035	105.94
414.258	79.94
414.482	76.94
414.705	88.94
414.928	84.94
415.151	85.94
415.374	92.94
415.597	81.94
415.821	82.94
416.044	81.94
416.267	79.94
416.49	81.94
416.713	79.94
416.936	83.94
417.159	73.94
417.382	92.94
417.605	77.94
417.828	91.94
418.051	87.94
418.274	70.94
418.497	91.94
418.72	83.94
418.943	87.94
419.166	77.94
419.389	90.94
419.611	79.94
419.834	89.94
420.057	83.94
420.28	79.94
420.503	68.94
420.726	89.94
420.948	81.94
421.171	83.94
421.394	81.94
421.617	78.94
421.839	82.94
422.062	74.94
422.285	88.94
422.507	72.94
422.73	99.94
422.953	76.94
423.175	89.94
423.398	88.94
423.621	91.94
423.843	67.94
424.066	85.94
424.288	67.94
424.511	82.94
424.733	99.94
424.956	91.94
425.178	91.94
425.401	90.94
425.623	95.94
425.846	87.94
426.068	80.94
426.291	79.94
426.513	87.94
426.735	89.94
426.958	87.94
427.18	101.94
427.402	125.94
427.625	139.94
427.847	128.94
428.069	99.94
428.292	93.94
428.514	76.94
428.736	90.94
428.958	77.94
429.181	75.94
429.403	88.94
429.625	74.94
429.847	81.94
430.069	68.94
430.292	95.94
430.514	84.94
430.736	66.94
430.958	74.94
431.18	89.94
431.402	80.94
431.624	88.94
431.846	82.94
432.068	84.94
432.29	86.94
432.512	87.94
432.734	77.94
432.956	101.94
433.178	97.94
433.4	97.94
433.622	86.94
433.844	91.94
434.066	78.94
434.287	93.94
434.509	89.94
434.731	88.94
434.953	87.94
435.175	79.94
435.397	87.94
435.618	77.94
435.84	91.94
436.062	108.94
436.284	109.94
436.505	94.94
436.727	90.94
436.949	100.94
437.17	85.94
437.392	82.94
437.614	91.94
437.835	92.94
438.057	107.94
438.278	110.94
438.5	95.94
438.721	113.94
438.943	94.94
439.165	91.94
439.386	72.94
439.608	103.94
439.829	93.94
440.05	122.94
440.272	128.94
440.493	87.94
440.715	69.94
440.936	75.94
441.158	85.94
441.379	83.94
441.6	86.94
441.822	90.94
442.043	91.94
442.264	104.94
442.486	95.94
442.707	81.94
442.928	92.94
443.149	104.94
443.371	91.94
443.592	103.94
443.813	102.94
444.034	88.94
444.255	87.94
444.476	91.94
444.698	95.94
444.919	88.94
445.14	113.94
445.361	114.94
445.582	110.94
445.803	109.94
446.024	116.94
446.245	121.94
446.466	110.94
446.687	76.94
446.908	82.94
447.129	73.94
447.35	68.94
447.571	83.94
447.792	89.94
448.013	95.94
448.234	91.94
448.455	107.94
448.675	102.94
448.896	101.94
449.117	90.94
449.338	94.94
449.559	99.94
449.779	122.94
450	85.94
450.221	97.94
450.442	97.94
450.662	85.94
450.883	94.94
451.104	104.94
451.324	75.94
451.545	82.94
451.766	88.94
451.986	85.94
452.207	74.94
452.428	84.94
452.648	85.94
452.869	94.94
453.089	105.94
453.31	106.94
453.53	103.94
453.751	92.94
453.971	97.94
454.192	85.94
454.412	85.94
454.633	84.94
454.853	81.94
455.073	89.94
455.294	86.94
455.514	84.94
455.734	83.94
455.955	78.94
456.175	79.94
456.395	88.94
456.616	78.94
456.836	65.94
457.056	90.94
457.276	87.94
457.497	89.94
457.717	68.94
457.937	73.94
458.157	81.94
458.377	87.94
458.598	114.94
458.818	119.94
459.038	130.94
459.258	105.94
459.478	80.94
459.698	71.94
459.918	83.94
460.138	76.94
460.358	71.94
460.578	87.94
460.798	86.94
461.018	85.94
461.238	80.94
461.458	84.94
461.678	69.94
461.898	81.94
462.118	84.94
462.338	81.94
462.558	74.94
462.777	88.94
462.997	86.94
463.217	78.94
463.437	70.94
463.657	76.94
463.876	77.94
464.096	90.94
464.316	88.94
464.536	90.94
464.755	77.94
464.975	101.94
465.195	134.94
465.414	143.94
465.634	77.94
465.854	90.94
466.073	70.94
466.293	77.94
466.512	80.94
466.732	81.94
466.951	88.94
467.171	87.94
467.391	90.94
467.61	99.94
467.829	94.94
468.049	81.94
468.268	75.94
468.488	79.94
468.707	102.94
468.927	79.94
469.146	75.94
469.365	76.94
469.585	81.94
469.804	87.94
470.023	100.94
470.243	87.94
470.462	76.94
470.681	96.94
470.901	68.94
471.12	89.94
471.339	86.94
471.558	79.94
471.777	85.94
471.997	76.94
472.216	89.94
472.435	88.94
472.654	70.94
472.873	72.94
473.092	101.94
473.311	86.94
473.53	94.94
473.749	89.94
473.968	87.94
474.187	90.94
474.406	89.94
474.625	67.94
474.844	83.94
475.063	79.94
475.282	71.94
475.501	86.94
475.72	98.94
475.939	72.94
476.158	75.94
476.377	86.94
476.596	89.94
476.814	82.94
477.033	83.94
477.252	67.94
477.471	77.94
477.69	74.94
477.908	87.94
478.127	96.94
478.346	79.94
478.564	69.94
478.783	90.94
479.002	73.94
479.22	83.94
479.439	84.94
479.658	101.94
479.876	81.94
480.095	76.94
480.313	74.94
480.532	81.94
480.751	70.94
480.969	77.94
481.188	97.94
481.406	92.94
481.624	86.94
481.843	91.94
482.061	77.94
482.28	83.94
482.498	87.94
482.717	88.94
482.935	85.94
483.153	79.94
483.372	92.94
483.59	82.94
483.808	77.94
484.027	72.94
484.245	73.94
484.463	91.94
484.681	86.94
484.9	81.94
485.118	73.94
485.336	94.94
485.554	94.94
485.772	89.94
485.99	91.94
486.209	103.94
486.427	97.94
486.645	110.94
486.863	98.94
487.081	96.94
487.299	87.94
487.517	65.94
487.735	89.94
487.953	63.94
488.171	93.94
488.389	83.94
488.607	97.94
488.825	71.94
489.043	92.94
489.261	83.94
489.479	77.94
489.696	94.94
489.914	71.94
490.132	70.94
490.35	70.94
490.568	82.94
490.786	93.94
491.003	71.94
491.221	85.94
491.439	77.94
491.657	65.94
491.874	83.94
492.092	86.94
492.31	81.94
492.527	84.94
492.745	77.94
492.963	79.94
493.18	83.94
493.398	77.94
493.615	94.94
493.833	99.94
494.05	81.94
494.268	85.94
494.485	92.94
494.703	72.94
494.92	91.94
495.138	74.94
495.355	69.94
495.573	85.94
495.79	82.94
496.008	81.94
496.225	98.94
496.442	86.94
496.66	101.94
496.877	91.94
497.094	96.94
497.312	66.94
497.529	80.94
497.746	83.94
497.963	80.94
498.181	93.94
498.398	82.94
498.615	83.94
498.832	107.94
499.049	95.94
499.267	80.94
499.484	90.94
499.701	85.94
499.918	73.94
500.135	80.94
500.352	90.94
500.569	85.94
500.786	83.94
501.003	78.94
501.22	83.94
501.437	69.94
501.654	101.94
501.871	91.94
502.088	92.94
502.305	87.94
502.522	83.94
502.739	90.94
502.956	86.94
503.172	84.94
503.389	95.94
503.606	90.94
503.823	97.94
504.04	97.94
504.256	74.94
504.473	98.94
504.69	83.94
504.907	91.94
505.123	73.94
505.34	86.94
505.557	86.94
505.773	86.94
505.99	84.94
506.207	78.94
506.423	99.94
506.64	94.94
506.856	91.94
507.073	93.94
507.289	101.94
507.506	82.94
507.722	114.94
507.939	92.94
508.155	89.94
508.372	77.94
508.588	83.94
508.805	84.94
509.021	90.94
509.238	92.94
509.454	87.94
509.67	96.94
509.887	109.94
510.103	129.94
510.319	197.94
510.536	669.94
510.752	2077.94
510.968	575.94
511.184	133.94
511.401	99.94
511.617	100.94
511.833	90.94
512.049	93.94
512.265	86.94
512.481	64.94
512.698	87.94
512.914	88.94
513.13	89.94
513.346	93.94
513.562	90.94
513.778	90.94
513.994	84.94
514.21	87.94
514.426	102.94
514.642	111.94
514.858	101.94
515.074	152.94
515.29	393.94
515.506	1291.94
515.721	495.94
515.937	127.94
516.153	105.94
516.369	104.94
516.585	94.94
516.801	93.94
517.016	82.94
517.232	89.94
517.448	90.94
517.664	75.94
517.879	79.94
518.095	75.94
518.311	79.94
518.527	78.94
518.742	89.94
518.958	83.94
519.173	98.94
519.389	89.94
519.605	73.94
519.82	92.94
520.036	88.94
520.251	102.94
520.467	96.94
520.682	95.94
520.898	109.94
521.113	93.94
521.329	126.94
521.544	182.94
521.76	494.94
521.975	2137.94
522.19	1264.94
522.406	269.94
522.621	113.94
522.836	88.94
523.052	91.94
523.267	91.94
523.482	91.94
523.698	93.94
523.913	103.94
524.128	91.94
524.343	94.94
524.559	79.94
524.774	81.94
524.989	101.94
525.204	97.94
525.419	103.94
525.634	84.94
525.849	85.94
526.064	84.94
526.28	79.94
526.495	64.94
526.71	88.94
526.925	87.94
527.14	91.94
527.355	93.94
527.57	70.94
527.785	88.94
527.999	90.94
528.214	90.94
528.429	93.94
528.644	93.94
528.859	78.94
529.074	84.94
529.289	118.94
529.503	153.94
529.718	98.94
529.933	96.94
530.148	77.94
530.363	83.94
530.577	82.94
530.792	88.94
531.007	87.94
531.221	87.94
531.436	73.94
531.651	87.94
531.865	73.94
532.08	88.94
532.295	75.94
532.509	88.94
532.724	90.94
532.938	83.94
533.153	82.94
533.367	90.94
533.582	95.94
533.796	78.94
534.011	75.94
534.225	84.94
534.44	81.94
534.654	91.94
534.868	81.94
535.083	94.94
535.297	94.94
535.511	105.94
535.726	95.94
535.94	78.94
536.154	91.94
536.369	84.94
536.583	88.94
536.797	79.94
537.011	87.94
537.225	90.94
537.44	72.94
537.654	88.94
537.868	87.94
538.082	83.94
538.296	83.94
538.51	86.94
538.724	77.94
538.938	85.94
539.153	85.94
539.367	100.94
539.581	95.94
539.795	80.94
540.009	74.94
540.222	73.94
540.436	85.94
540.65	76.94
540.864	83.94
541.078	87.94
541.292	89.94
541.506	83.94
541.72	62.94
541.934	92.94
542.147	85.94
542.361	89.94
542.575	81.94
542.789	83.94
543.002	77.94
543.216	99.94
543.43	104.94
543.644	75.94
543.857	81.94
544.071	83.94
544.285	82.94
544.498	100.94
544.712	79.94
544.925	81.94
545.139	70.94
545.352	89.94
545.566	86.94
545.779	84.94
545.993	73.94
546.206	78.94
546.42	85.94
546.633	91.94
546.847	92.94
547.06	97.94
547.274	87.94
547.487	77.94
547.7	73.94
547.914	75.94
548.127	82.94
548.34	68.94
548.554	71.94
548.767	92.94
548.98	76.94
549.193	82.94
549.407	83.94
549.62	76.94
549.833	81.94
550.046	78.94
550.259	83.94
550.473	92.94
550.686	85.94
550.899	66.94
551.112	87.94
551.325	63.94
551.538	72.94
551.751	84.94
551.964	85.94
552.177	92.94
552.39	97.94
552.603	84.94
552.816	84.94
553.029	87.94
553.242	84.94
553.455	106.94
553.667	87.94
553.88	82.94
554.093	92.94
554.306	87.94
554.519	89.94
554.732	89.94
554.944	94.94
555.157	97.94
555.37	73.94
555.583	92.94
555.795	91.94
556.008	87.94
556.221	84.94
556.433	92.94
556.646	92.94
556.859	82.94
557.071	91.94
557.284	89.94
557.496	82.94
557.709	89.94
557.921	93.94
558.134	89.94
558.346	85.94
558.559	87.94
558.771	91.94
558.984	81.94
559.196	91.94
559.409	94.94
559.621	81.94
559.833	83.94
560.046	79.94
560.258	97.94
560.47	84.94
560.683	79.94
560.895	81.94
561.107	80.94
561.32	82.94
561.532	100.94
561.744	92.94
561.956	86.94
562.168	94.94
562.381	86.94
562.593	88.94
562.805	80.94
563.017	91.94
563.229	94.94
563.441	83.94
563.653	83.94
563.865	94.94
564.077	91.94
564.289	99.94
564.501	85.94
564.713	88.94
564.925	91.94
565.137	102.94
565.349	76.94
565.561	85.94
565.773	82.94
565.985	80.94
566.197	78.94
566.408	83.94
566.62	85.94
566.832	78.94
567.044	90.94
567.255	83.94
567.467	87.94
567.679	85.94
567.891	81.94
568.102	78.94
568.314	89.94
568.526	80.94
568.737	83.94
568.949	79.94
569.161	86.94
569.372	87.94
569.584	80.94
569.795	86.94
570.007	117.94
570.218	232.94
570.43	113.94
570.641	69.94
570.853	94.94
571.064	94.94
571.276	82.94
571.487	87.94
571.698	72.94
571.91	73.94
572.121	76.94
572.333	84.94
572.544	81.94
572.755	68.94
572.966	86.94
573.178	77.94
573.389	91.94
573.6	89.94
573.811	78.94
574.023	62.94
574.234	92.94
574.445	93.94
574.656	97.94
574.867	83.94
575.078	88.94
575.289	83.94
575.501	77.94
575.712	88.94
575.923	78.94
576.134	79.94
576.345	77.94
576.556	84.94
576.767	79.94
576.978	86.94
577.188	79.94
577.399	91.94
577.61	74.94
577.821	85.94
578.032	98.94
578.243	246.94
578.454	709.94
578.665	190.94
578.875	101.94
579.086	91.94
579.297	81.94
579.508	75.94
579.718	83.94
579.929	82.94
580.14	71.94
580.35	71.94
580.561	88.94
580.772	78.94
580.982	95.94
581.193	94.94
581.403	75.94
581.614	65.94
581.825	84.94
582.035	84.94
582.246	78.94
582.456	74.94
582.667	84.94
582.877	85.94
583.087	77.94
583.298	81.94
583.508	82.94
583.719	102.94
583.929	81.94
584.139	71.94
584.35	81.94
584.56	72.94
584.77	79.94
584.981	89.94
585.191	79.94
585.401	84.94
585.611	94.94
585.821	88.94
586.032	89.94
586.242	83.94
586.452	96.94
586.662	85.94
586.872	74.94
587.082	80.94
587.292	81.94
587.502	82.94
587.713	82.94
587.923	79.94
588.133	85.94
588.343	83.94
588.553	89.94
588.762	80.94
588.972	70.94
589.182	80.94
589.392	79.94
589.602	70.94
589.812	80.94
590.022	62.94
590.232	84.94
590.441	71.94
590.651	76.94
590.861	78.94
591.071	67.94
591.281	81.94
591.49	77.94
591.7	68.94
591.91	86.94
592.119	83.94
592.329	68.94
592.539	78.94
592.748	76.94
592.958	68.94
593.167	92.94
593.377	83.94
593.587	77.94
593.796	63.94
594.006	89.94
594.215	80.94
594.424	90.94
594.634	91.94
594.843	92.94
595.053	97.94
595.262	69.94
595.472	87.94
595.681	73.94
595.89	79.94
596.1	84.94
596.309	84.94
596.518	95.94
596.727	91.94
596.937	77.94
597.146	85.94
597.355	84.94
597.564	67.94
597.774	74.94
597.983	87.94
598.192	78.94
598.401	80.94
598.61	89.94
598.819	77.94
599.028	91.94
599.237	79.94
599.446	94.94
599.655	83.94
599.864	79.94
600.073	74.94
600.282	80.94
600.491	82.94
600.7	76.94
600.909	89.94
601.118	94.94
601.327	84.94
601.536	91.94
601.745	73.94
601.953	80.94
602.162	79.94
602.371	78.94
602.58	103.94
602.789	86.94
602.997	82.94
603.206	80.94
603.415	80.94
603.623	74.94
603.832	82.94
604.041	74.94
604.249	73.94
604.458	79.94
604.666	67.94
604.875	84.94
605.084	80.94
605.292	78.94
605.501	71.94
605.709	85.94
605.918	86.94
606.126	91.94
606.334	75.94
606.543	81.94
606.751	87.94
606.96	77.94
607.168	98.94
607.376	75.94
607.585	94.94
607.793	73.94
608.001	85.94
608.21	81.94
608.418	70.94
608.626	77.94
608.834	72.94
609.043	85.94
609.251	103.94
609.459	81.94
609.667	68.94
609.875	83.94
610.083	77.94
610.291	85.94
610.499	90.94
610.707	82.94
610.916	82.94
611.124	81.94
611.332	79.94
611.54	78.94
611.748	74.94
611.955	74.94
612.163	75.94
612.371	76.94
612.579	89.94
612.787	77.94
612.995	81.94
613.203	96.94
613.411	80.94
613.618	81.94
613.826	76.94
614.034	80.94
614.242	91.94
614.449	82.94
614.657	80.94
614.865	83.94
615.072	76.94
615.28	97.94
615.488	96.94
615.695	79.94
615.903	72.94
616.111	88.94
616.318	92.94
616.526	85.94
616.733	81.94
616.941	89.94
617.148	81.94
617.356	93.94
617.563	73.94
617.771	79.94
617.978	77.94
618.185	86.94
618.393	62.94
618.6	66.94
618.807	84.94
619.015	79.94
619.222	88.94
619.429	81.94
619.637	86.94
619.844	89.94
620.051	71.94
620.258	80.94
620.466	97.94
620.673	89.94
620.88	68.94
621.087	88.94
621.294	99.94
621.501	74.94
621.708	81.94
621.915	70.94
622.122	75.94
622.329	78.94
622.536	84.94
622.743	91.94
622.95	89.94
623.157	85.94
623.364	86.94
623.571	81.94
623.778	88.94
623.985	79.94
624.192	86.94
624.399	85.94
624.606	70.94
624.812	81.94
625.019	78.94
625.226	75.94
625.433	88.94
625.639	84.94
625.846	71.94
626.053	72.94
626.259	84.94
626.466	77.94
626.673	86.94
626.879	81.94
627.086	82.94
627.293	80.94
627.499	86.94
627.706	83.94
627.912	85.94
628.119	78.94
628.325	71.94
628.532	59.94
628.738	88.94
628.945	82.94
629.151	85.94
629.357	86.94
629.564	74.94
629.77	68.94
629.976	74.94
630.183	81.94
630.389	83.94
630.595	91.94
630.802	79.94
631.008	77.94
631.214	87.94
631.42	87.94
631.627	84.94
631.833	85.94
632.039	82.94
632.245	73.94
632.451	86.94
632.657	80.94
632.863	82.94
633.069	82.94
633.275	77.94
633.481	74.94
633.688	85.94
633.893	91.94
634.099	81.94
634.305	69.94
634.511	76.94
634.717	77.94
634.923	70.94
635.129	62.94
635.335	70.94
635.541	70.94
635.747	68.94
635.952	71.94
636.158	82.94
636.364	80.94
636.57	76.94
636.775	90.94
636.981	74.94
637.187	83.94
637.392	82.94
637.598	95.94
637.804	72.94
638.009	86.94
638.215	69.94
638.421	79.94
638.626	68.94
638.832	79.94
639.037	64.94
639.243	71.94
639.448	82.94
639.654	77.94
639.859	79.94
640.065	75.94
640.27	67.94
640.475	81.94
640.681	72.94
640.886	89.94
641.091	87.94
641.297	82.94
641.502	69.94
641.707	85.94
641.913	87.94
642.118	78.94
642.323	74.94
642.528	85.94
642.733	75.94
642.939	77.94
643.144	84.94
643.349	73.94
643.554	83.94
643.759	71.94
643.964	78.94
644.169	72.94
644.374	81.94
644.579	86.94
644.784	74.94
644.989	77.94
645.194	75.94
645.399	77.94
645.604	70.94
645.809	82.94
646.014	73.94
646.219	72.94
646.423	77.94
646.628	79.94
646.833	74.94
647.038	82.94
647.243	78.94
647.447	91.94
647.652	90.94
647.857	84.94
648.062	89.94
648.266	82.94
648.471	76.94
648.676	107.94
648.88	87.94
649.085	77.94
649.289	94.94
649.494	111.94
649.698	119.94
649.903	107.94
650.107	88.94
650.312	91.94
650.516	78.94
650.721	71.94
650.925	79.94
651.13	84.94
651.334	87.94
651.539	69.94
651.743	75.94
651.947	84.94
652.152	88.94
652.356	86.94
652.56	86.94
652.764	91.94
652.969	74.94
653.173	94.94
653.377	73.94
653.581	84.94
653.785	88.94
653.99	78.94
654.194	83.94
654.398	83.94
654.602	84.94
654.806	84.94
655.01	105.94
655.214	95.94
655.418	82.94
655.622	98.94
655.826	79.94
656.03	80.94
656.234	70.94
656.438	88.94
656.642	93.94
656.846	98.94
657.049	78.94
657.253	74.94
657.457	76.94
657.661	74.94
657.865	85.94
658.068	80.94
658.272	86.94
658.476	75.94
658.68	74.94
658.883	73.94
659.087	89.94
659.291	74.94
659.494	77.94
659.698	68.94
659.901	91.94
660.105	82.94
660.309	70.94
660.512	78.94
660.716	78.94
660.919	75.94
661.123	77.94
661.326	77.94
661.53	80.94
661.733	78.94
661.936	68.94
662.14	74.94
662.343	87.94
662.546	65.94
662.75	56.94
662.953	83.94
663.156	68.94
663.36	67.94
663.563	71.94
663.766	74.94
663.969	72.94
664.173	61.94
664.376	85.94
664.579	96.94
664.782	74.94
664.985	81.94
665.188	67.94
665.391	65.94
665.594	80.94
665.797	74.94
666	81.94
666.203	71.94
666.406	84.94
666.609	73.94
666.812	84.94
667.015	78.94
667.218	76.94
667.421	83.94
667.624	80.94
667.827	81.94
668.03	68.94
668.232	65.94
668.435	78.94
668.638	82.94
668.841	81.94
669.043	77.94
669.246	92.94
669.449	66.94
669.651	61.94
669.854	95.94
670.057	77.94
670.259	78.94
670.462	82.94
670.665	74.94
670.867	76.94
671.07	87.94
671.272	81.94
671.475	83.94
671.677	82.94
671.88	72.94
672.082	70.94
672.284	71.94
672.487	78.94
672.689	62.94
672.892	77.94
