Data from Uncirc_1997_H10_HRD10591_00054.txt Node
Date: Wed Jan 03 11:28:41 EST 2024
User: Yrep
Spectrometer: HR+D1059
Trigger mode: 1
Integration Time (sec): 1.000000E-1
Scans to average: 1
Electric dark correction enabled: true
Nonlinearity correction enabled: false
Boxcar width: 0
XAxis mode: Wavelengths
Number of Pixels in Spectrum: 2048
>>>>>Begin Spectral Data<<<<<
223.165	-22.25
223.4	-22.25
223.635	-22.25
223.869	-18.25
224.104	-18.25
224.338	-14.25
224.573	-11.25
224.808	-15.25
225.042	-9.25
225.277	8.75
225.511	-9.25
225.746	7.75
225.98	15.75
226.215	11.75
226.449	26.75
226.683	9.75
226.918	17.75
227.152	19.75
227.387	33.75
227.621	42.75
227.856	47.75
228.09	30.75
228.324	40.75
228.559	55.75
228.793	58.75
229.027	64.75
229.262	58.75
229.496	69.75
229.73	85.75
229.964	74.75
230.199	75.75
230.433	60.75
230.667	78.75
230.901	71.75
231.136	77.75
231.37	80.75
231.604	83.75
231.838	67.75
232.072	87.75
232.306	69.75
232.541	92.75
232.775	74.75
233.009	77.75
233.243	91.75
233.477	67.75
233.711	87.75
233.945	69.75
234.179	63.75
234.413	77.75
234.647	81.75
234.881	60.75
235.115	76.75
235.349	85.75
235.583	79.75
235.817	70.75
236.051	81.75
236.285	67.75
236.519	71.75
236.753	72.75
236.987	90.75
237.221	90.75
237.455	77.75
237.689	71.75
237.922	77.75
238.156	64.75
238.39	83.75
238.624	75.75
238.858	73.75
239.091	72.75
239.325	80.75
239.559	69.75
239.793	76.75
240.027	74.75
240.26	75.75
240.494	67.75
240.728	81.75
240.961	75.75
241.195	78.75
241.429	82.75
241.662	78.75
241.896	86.75
242.13	79.75
242.363	76.75
242.597	57.75
242.83	65.75
243.064	75.75
243.298	92.75
243.531	72.75
243.765	75.75
243.998	79.75
244.232	81.75
244.465	72.75
244.699	62.75
244.932	73.75
245.166	74.75
245.399	71.75
245.633	85.75
245.866	69.75
246.099	70.75
246.333	67.75
246.566	82.75
246.8	75.75
247.033	70.75
247.266	78.75
247.5	76.75
247.733	74.75
247.966	79.75
248.2	78.75
248.433	84.75
248.666	77.75
248.899	87.75
249.133	97.75
249.366	89.75
249.599	95.75
249.832	59.75
250.066	77.75
250.299	73.75
250.532	81.75
250.765	86.75
250.998	73.75
251.231	75.75
251.465	87.75
251.698	73.75
251.931	78.75
252.164	86.75
252.397	73.75
252.63	81.75
252.863	68.75
253.096	72.75
253.329	79.75
253.562	89.75
253.795	80.75
254.028	81.75
254.261	70.75
254.494	74.75
254.727	66.75
254.96	69.75
255.193	76.75
255.426	85.75
255.659	75.75
255.892	93.75
256.124	83.75
256.357	94.75
256.59	72.75
256.823	84.75
257.056	81.75
257.289	70.75
257.521	83.75
257.754	81.75
257.987	96.75
258.22	73.75
258.452	75.75
258.685	73.75
258.918	72.75
259.151	81.75
259.383	78.75
259.616	71.75
259.849	80.75
260.081	86.75
260.314	75.75
260.547	81.75
260.779	77.75
261.012	67.75
261.244	73.75
261.477	79.75
261.71	97.75
261.942	102.75
262.175	91.75
262.407	78.75
262.64	74.75
262.872	75.75
263.105	76.75
263.337	82.75
263.57	85.75
263.802	73.75
264.035	93.75
264.267	87.75
264.499	89.75
264.732	88.75
264.964	73.75
265.197	76.75
265.429	92.75
265.661	78.75
265.894	94.75
266.126	91.75
266.358	74.75
266.591	69.75
266.823	72.75
267.055	82.75
267.287	75.75
267.52	73.75
267.752	73.75
267.984	86.75
268.216	92.75
268.448	93.75
268.681	82.75
268.913	90.75
269.145	95.75
269.377	78.75
269.609	75.75
269.841	88.75
270.073	94.75
270.306	87.75
270.538	82.75
270.77	77.75
271.002	71.75
271.234	81.75
271.466	77.75
271.698	85.75
271.93	82.75
272.162	96.75
272.394	92.75
272.626	86.75
272.858	77.75
273.09	79.75
273.322	81.75
273.553	88.75
273.785	78.75
274.017	82.75
274.249	77.75
274.481	88.75
274.713	78.75
274.945	85.75
275.176	72.75
275.408	97.75
275.64	80.75
275.872	75.75
276.104	96.75
276.335	85.75
276.567	87.75
276.799	101.75
277.031	98.75
277.262	77.75
277.494	97.75
277.726	86.75
277.957	88.75
278.189	76.75
278.421	83.75
278.652	97.75
278.884	71.75
279.115	75.75
279.347	94.75
279.579	86.75
279.81	85.75
280.042	88.75
280.273	89.75
280.505	88.75
280.736	92.75
280.968	83.75
281.199	73.75
281.431	70.75
281.662	87.75
281.894	86.75
282.125	94.75
282.356	123.75
282.588	130.75
282.819	104.75
283.051	93.75
283.282	81.75
283.513	83.75
283.745	75.75
283.976	91.75
284.207	84.75
284.439	95.75
284.67	87.75
284.901	71.75
285.132	74.75
285.364	88.75
285.595	82.75
285.826	81.75
286.057	83.75
286.288	81.75
286.52	91.75
286.751	98.75
286.982	85.75
287.213	86.75
287.444	78.75
287.675	88.75
287.906	89.75
288.138	93.75
288.369	92.75
288.6	96.75
288.831	83.75
289.062	75.75
289.293	92.75
289.524	86.75
289.755	83.75
289.986	79.75
290.217	81.75
290.448	85.75
290.679	71.75
290.91	83.75
291.141	89.75
291.371	86.75
291.602	75.75
291.833	91.75
292.064	87.75
292.295	95.75
292.526	88.75
292.757	85.75
292.987	80.75
293.218	83.75
293.449	85.75
293.68	85.75
293.91	88.75
294.141	92.75
294.372	93.75
294.603	84.75
294.833	92.75
295.064	79.75
295.295	91.75
295.525	81.75
295.756	97.75
295.987	105.75
296.217	118.75
296.448	111.75
296.679	88.75
296.909	102.75
297.14	98.75
297.37	92.75
297.601	83.75
297.831	85.75
298.062	90.75
298.292	97.75
298.523	89.75
298.753	80.75
298.984	70.75
299.214	68.75
299.445	78.75
299.675	82.75
299.905	83.75
300.136	92.75
300.366	95.75
300.597	81.75
300.827	89.75
301.057	99.75
301.288	93.75
301.518	105.75
301.748	101.75
301.979	97.75
302.209	96.75
302.439	97.75
302.669	81.75
302.9	89.75
303.13	91.75
303.36	79.75
303.59	94.75
303.82	87.75
304.051	91.75
304.281	101.75
304.511	77.75
304.741	89.75
304.971	96.75
305.201	89.75
305.431	90.75
305.661	81.75
305.891	87.75
306.121	105.75
306.352	84.75
306.582	93.75
306.812	87.75
307.042	85.75
307.272	97.75
307.502	76.75
307.731	79.75
307.961	94.75
308.191	86.75
308.421	100.75
308.651	106.75
308.881	100.75
309.111	85.75
309.341	94.75
309.571	106.75
309.8	85.75
310.03	104.75
310.26	87.75
310.49	88.75
310.72	105.75
310.949	94.75
311.179	91.75
311.409	87.75
311.639	87.75
311.868	84.75
312.098	95.75
312.328	96.75
312.557	93.75
312.787	96.75
313.017	96.75
313.246	92.75
313.476	95.75
313.706	85.75
313.935	84.75
314.165	88.75
314.394	99.75
314.624	89.75
314.853	95.75
315.083	100.75
315.312	92.75
315.542	92.75
315.771	71.75
316.001	93.75
316.23	96.75
316.46	85.75
316.689	89.75
316.919	103.75
317.148	99.75
317.377	80.75
317.607	85.75
317.836	88.75
318.065	91.75
318.295	102.75
318.524	92.75
318.753	87.75
318.983	95.75
319.212	101.75
319.441	110.75
319.67	100.75
319.9	89.75
320.129	93.75
320.358	73.75
320.587	84.75
320.816	88.75
321.046	105.75
321.275	93.75
321.504	77.75
321.733	99.75
321.962	108.75
322.191	97.75
322.42	95.75
322.649	107.75
322.878	110.75
323.108	101.75
323.337	116.75
323.566	119.75
323.795	132.75
324.024	171.75
324.253	341.75
324.482	673.75
324.71	1397.75
324.939	1811.75
325.168	667.75
325.397	219.75
325.626	132.75
325.855	113.75
326.084	111.75
326.313	139.75
326.542	137.75
326.77	211.75
326.999	384.75
327.228	748.75
327.457	1439.75
327.686	1126.75
327.914	321.75
328.143	189.75
328.372	120.75
328.6	117.75
328.829	107.75
329.058	116.75
329.287	115.75
329.515	105.75
329.744	96.75
329.972	92.75
330.201	100.75
330.43	106.75
330.658	103.75
330.887	121.75
331.115	123.75
331.344	92.75
331.572	88.75
331.801	97.75
332.03	92.75
332.258	91.75
332.486	94.75
332.715	88.75
332.943	85.75
333.172	84.75
333.4	108.75
333.629	111.75
333.857	116.75
334.085	96.75
334.314	88.75
334.542	88.75
334.771	103.75
334.999	78.75
335.227	87.75
335.455	78.75
335.684	112.75
335.912	92.75
336.14	93.75
336.369	90.75
336.597	108.75
336.825	95.75
337.053	103.75
337.281	96.75
337.51	84.75
337.738	69.75
337.966	78.75
338.194	89.75
338.422	84.75
338.65	102.75
338.878	90.75
339.106	92.75
339.334	96.75
339.562	88.75
339.79	92.75
340.018	93.75
340.246	91.75
340.474	96.75
340.702	98.75
340.93	76.75
341.158	94.75
341.386	86.75
341.614	92.75
341.842	83.75
342.07	81.75
342.298	95.75
342.526	82.75
342.754	86.75
342.981	80.75
343.209	80.75
343.437	100.75
343.665	89.75
343.893	102.75
344.12	87.75
344.348	94.75
344.576	74.75
344.804	108.75
345.031	106.75
345.259	79.75
345.487	86.75
345.714	76.75
345.942	89.75
346.17	90.75
346.397	87.75
346.625	96.75
346.853	88.75
347.08	95.75
347.308	93.75
347.535	90.75
347.763	92.75
347.99	85.75
348.218	109.75
348.445	103.75
348.673	103.75
348.9	101.75
349.128	112.75
349.355	88.75
349.583	75.75
349.81	79.75
350.037	87.75
350.265	101.75
350.492	97.75
350.72	99.75
350.947	92.75
351.174	100.75
351.402	112.75
351.629	93.75
351.856	89.75
352.083	99.75
352.311	97.75
352.538	101.75
352.765	107.75
352.992	107.75
353.22	95.75
353.447	95.75
353.674	93.75
353.901	94.75
354.128	91.75
354.355	86.75
354.583	109.75
354.81	88.75
355.037	94.75
355.264	87.75
355.491	81.75
355.718	94.75
355.945	91.75
356.172	105.75
356.399	87.75
356.626	92.75
356.853	98.75
357.08	89.75
357.307	94.75
357.534	71.75
357.761	93.75
357.988	84.75
358.215	85.75
358.441	90.75
358.668	73.75
358.895	93.75
359.122	90.75
359.349	86.75
359.576	95.75
359.802	85.75
360.029	95.75
360.256	85.75
360.483	90.75
360.709	88.75
360.936	93.75
361.163	86.75
361.39	92.75
361.616	92.75
361.843	87.75
362.07	97.75
362.296	97.75
362.523	84.75
362.749	89.75
362.976	80.75
363.203	95.75
363.429	85.75
363.656	88.75
363.882	91.75
364.109	87.75
364.335	102.75
364.562	82.75
364.788	96.75
365.015	91.75
365.241	110.75
365.468	100.75
365.694	88.75
365.92	91.75
366.147	84.75
366.373	74.75
366.599	73.75
366.826	94.75
367.052	79.75
367.278	95.75
367.505	88.75
367.731	93.75
367.957	85.75
368.184	85.75
368.41	88.75
368.636	109.75
368.862	110.75
369.089	106.75
369.315	88.75
369.541	73.75
369.767	77.75
369.993	77.75
370.219	87.75
370.445	95.75
370.672	93.75
370.898	85.75
371.124	79.75
371.35	84.75
371.576	106.75
371.802	91.75
372.028	87.75
372.254	89.75
372.48	79.75
372.706	93.75
372.932	84.75
373.158	79.75
373.384	71.75
373.61	68.75
373.835	88.75
374.061	90.75
374.287	91.75
374.513	86.75
374.739	90.75
374.965	91.75
375.191	95.75
375.416	86.75
375.642	83.75
375.868	87.75
376.094	86.75
376.319	92.75
376.545	100.75
376.771	92.75
376.997	90.75
377.222	97.75
377.448	80.75
377.674	97.75
377.899	92.75
378.125	83.75
378.35	85.75
378.576	84.75
378.802	89.75
379.027	89.75
379.253	87.75
379.478	100.75
379.704	80.75
379.929	86.75
380.155	96.75
380.38	89.75
380.606	93.75
380.831	90.75
381.057	74.75
381.282	86.75
381.507	98.75
381.733	103.75
381.958	97.75
382.184	103.75
382.409	88.75
382.634	96.75
382.86	93.75
383.085	85.75
383.31	89.75
383.535	101.75
383.761	87.75
383.986	98.75
384.211	88.75
384.436	102.75
384.662	94.75
384.887	82.75
385.112	84.75
385.337	80.75
385.562	87.75
385.787	106.75
386.013	83.75
386.238	124.75
386.463	107.75
386.688	101.75
386.913	105.75
387.138	94.75
387.363	85.75
387.588	95.75
387.813	86.75
388.038	103.75
388.263	113.75
388.488	101.75
388.713	108.75
388.938	102.75
389.163	94.75
389.387	87.75
389.612	75.75
389.837	92.75
390.062	91.75
390.287	92.75
390.512	89.75
390.736	82.75
390.961	104.75
391.186	104.75
391.411	101.75
391.636	88.75
391.86	84.75
392.085	84.75
392.31	91.75
392.534	86.75
392.759	88.75
392.984	75.75
393.208	74.75
393.433	89.75
393.658	97.75
393.882	93.75
394.107	97.75
394.331	87.75
394.556	88.75
394.78	87.75
395.005	79.75
395.229	86.75
395.454	83.75
395.678	90.75
395.903	93.75
396.127	85.75
396.352	89.75
396.576	93.75
396.801	83.75
397.025	84.75
397.249	92.75
397.474	86.75
397.698	86.75
397.922	75.75
398.147	71.75
398.371	87.75
398.595	102.75
398.82	80.75
399.044	71.75
399.268	86.75
399.492	79.75
399.717	96.75
399.941	74.75
400.165	93.75
400.389	80.75
400.613	91.75
400.837	79.75
401.062	80.75
401.286	94.75
401.51	95.75
401.734	79.75
401.958	97.75
402.182	119.75
402.406	135.75
402.63	95.75
402.854	89.75
403.078	96.75
403.302	79.75
403.526	87.75
403.75	103.75
403.974	99.75
404.198	83.75
404.422	91.75
404.645	79.75
404.869	90.75
405.093	76.75
405.317	103.75
405.541	90.75
405.765	91.75
405.988	107.75
406.212	138.75
406.436	190.75
406.66	120.75
406.883	96.75
407.107	94.75
407.331	96.75
407.555	98.75
407.778	79.75
408.002	87.75
408.226	87.75
408.449	92.75
408.673	76.75
408.896	81.75
409.12	88.75
409.344	79.75
409.567	94.75
409.791	97.75
410.014	101.75
410.238	87.75
410.461	84.75
410.685	91.75
410.908	85.75
411.132	103.75
411.355	91.75
411.578	88.75
411.802	83.75
412.025	73.75
412.249	83.75
412.472	84.75
412.695	96.75
412.919	84.75
413.142	85.75
413.365	87.75
413.589	88.75
413.812	83.75
414.035	83.75
414.258	89.75
414.482	99.75
414.705	83.75
414.928	82.75
415.151	85.75
415.374	104.75
415.597	77.75
415.821	93.75
416.044	77.75
416.267	72.75
416.49	69.75
416.713	92.75
416.936	94.75
417.159	88.75
417.382	92.75
417.605	84.75
417.828	97.75
418.051	76.75
418.274	87.75
418.497	64.75
418.72	76.75
418.943	90.75
419.166	87.75
419.389	87.75
419.611	96.75
419.834	92.75
420.057	83.75
420.28	92.75
420.503	69.75
420.726	96.75
420.948	84.75
421.171	111.75
421.394	102.75
421.617	82.75
421.839	88.75
422.062	94.75
422.285	96.75
422.507	104.75
422.73	96.75
422.953	73.75
423.175	87.75
423.398	73.75
423.621	87.75
423.843	83.75
424.066	90.75
424.288	84.75
424.511	83.75
424.733	105.75
424.956	95.75
425.178	89.75
425.401	102.75
425.623	96.75
425.846	79.75
426.068	71.75
426.291	84.75
426.513	103.75
426.735	75.75
426.958	85.75
427.18	87.75
427.402	121.75
427.625	137.75
427.847	107.75
428.069	98.75
428.292	86.75
428.514	90.75
428.736	93.75
428.958	94.75
429.181	79.75
429.403	86.75
429.625	76.75
429.847	87.75
430.069	101.75
430.292	90.75
430.514	81.75
430.736	86.75
430.958	76.75
431.18	90.75
431.402	86.75
431.624	73.75
431.846	80.75
432.068	75.75
432.29	77.75
432.512	88.75
432.734	92.75
432.956	75.75
433.178	97.75
433.4	104.75
433.622	97.75
433.844	78.75
434.066	84.75
434.287	91.75
434.509	83.75
434.731	87.75
434.953	98.75
435.175	68.75
435.397	72.75
435.618	88.75
435.84	82.75
436.062	109.75
436.284	116.75
436.505	99.75
436.727	77.75
436.949	89.75
437.17	98.75
437.392	71.75
437.614	80.75
437.835	105.75
438.057	102.75
438.278	99.75
438.5	102.75
438.721	114.75
438.943	81.75
439.165	71.75
439.386	102.75
439.608	91.75
439.829	101.75
440.05	120.75
440.272	133.75
440.493	97.75
440.715	95.75
440.936	97.75
441.158	77.75
441.379	91.75
441.6	84.75
441.822	99.75
442.043	103.75
442.264	100.75
442.486	90.75
442.707	91.75
442.928	87.75
443.149	111.75
443.371	112.75
443.592	86.75
443.813	103.75
444.034	97.75
444.255	83.75
444.476	82.75
444.698	89.75
444.919	92.75
445.14	112.75
445.361	117.75
445.582	110.75
445.803	116.75
446.024	125.75
446.245	120.75
446.466	107.75
446.687	83.75
446.908	92.75
447.129	81.75
447.35	96.75
447.571	94.75
447.792	95.75
448.013	94.75
448.234	107.75
448.455	96.75
448.675	101.75
448.896	105.75
449.117	86.75
449.338	87.75
449.559	114.75
449.779	111.75
450	93.75
450.221	79.75
450.442	78.75
450.662	102.75
450.883	92.75
451.104	111.75
451.324	100.75
451.545	54.75
451.766	92.75
451.986	91.75
452.207	91.75
452.428	92.75
452.648	99.75
452.869	105.75
453.089	116.75
453.31	100.75
453.53	72.75
453.751	109.75
453.971	93.75
454.192	105.75
454.412	88.75
454.633	91.75
454.853	74.75
455.073	85.75
455.294	87.75
455.514	96.75
455.734	95.75
455.955	95.75
456.175	97.75
456.395	84.75
456.616	79.75
456.836	87.75
457.056	78.75
457.276	82.75
457.497	86.75
457.717	80.75
457.937	85.75
458.157	89.75
458.377	83.75
458.598	92.75
458.818	128.75
459.038	149.75
459.258	99.75
459.478	86.75
459.698	64.75
459.918	88.75
460.138	86.75
460.358	81.75
460.578	84.75
460.798	76.75
461.018	60.75
461.238	74.75
461.458	83.75
461.678	85.75
461.898	79.75
462.118	88.75
462.338	75.75
462.558	92.75
462.777	79.75
462.997	85.75
463.217	92.75
463.437	83.75
463.657	81.75
463.876	85.75
464.096	101.75
464.316	81.75
464.536	70.75
464.755	72.75
464.975	91.75
465.195	121.75
465.414	143.75
465.634	107.75
465.854	69.75
466.073	86.75
466.293	83.75
466.512	87.75
466.732	70.75
466.951	77.75
467.171	87.75
467.391	94.75
467.61	107.75
467.829	97.75
468.049	76.75
468.268	86.75
468.488	79.75
468.707	76.75
468.927	92.75
469.146	76.75
469.365	85.75
469.585	76.75
469.804	99.75
470.023	103.75
470.243	86.75
470.462	85.75
470.681	87.75
470.901	86.75
471.12	79.75
471.339	85.75
471.558	88.75
471.777	75.75
471.997	93.75
472.216	80.75
472.435	90.75
472.654	86.75
472.873	79.75
473.092	88.75
473.311	93.75
473.53	88.75
473.749	102.75
473.968	98.75
474.187	101.75
474.406	118.75
474.625	89.75
474.844	80.75
475.063	90.75
475.282	83.75
475.501	80.75
475.72	96.75
475.939	84.75
476.158	80.75
476.377	91.75
476.596	87.75
476.814	83.75
477.033	87.75
477.252	91.75
477.471	90.75
477.69	85.75
477.908	83.75
478.127	80.75
478.346	85.75
478.564	78.75
478.783	89.75
479.002	92.75
479.22	68.75
479.439	85.75
479.658	99.75
479.876	80.75
480.095	86.75
480.313	95.75
480.532	102.75
480.751	84.75
480.969	91.75
481.188	98.75
481.406	87.75
481.624	94.75
481.843	79.75
482.061	86.75
482.28	99.75
482.498	87.75
482.717	99.75
482.935	85.75
483.153	86.75
483.372	80.75
483.59	91.75
483.808	81.75
484.027	86.75
484.245	99.75
484.463	88.75
484.681	99.75
484.9	83.75
485.118	96.75
485.336	96.75
485.554	89.75
485.772	96.75
485.99	93.75
486.209	108.75
486.427	104.75
486.645	118.75
486.863	98.75
487.081	85.75
487.299	95.75
487.517	94.75
487.735	101.75
487.953	88.75
488.171	86.75
488.389	92.75
488.607	86.75
488.825	83.75
489.043	74.75
489.261	100.75
489.479	80.75
489.696	81.75
489.914	104.75
490.132	82.75
490.35	84.75
490.568	76.75
490.786	80.75
491.003	73.75
491.221	80.75
491.439	89.75
491.657	86.75
491.874	89.75
492.092	95.75
492.31	77.75
492.527	74.75
492.745	95.75
492.963	81.75
493.18	90.75
493.398	75.75
493.615	96.75
493.833	95.75
494.05	87.75
494.268	76.75
494.485	79.75
494.703	105.75
494.92	93.75
495.138	81.75
495.355	76.75
495.573	84.75
495.79	86.75
496.008	105.75
496.225	95.75
496.442	80.75
496.66	87.75
496.877	76.75
497.094	87.75
497.312	92.75
497.529	75.75
497.746	91.75
497.963	92.75
498.181	91.75
498.398	77.75
498.615	121.75
498.832	96.75
499.049	94.75
499.267	80.75
499.484	84.75
499.701	89.75
499.918	88.75
500.135	88.75
500.352	95.75
500.569	97.75
500.786	99.75
501.003	69.75
501.22	81.75
501.437	93.75
501.654	91.75
501.871	105.75
502.088	97.75
502.305	77.75
502.522	92.75
502.739	87.75
502.956	86.75
503.172	93.75
503.389	87.75
503.606	104.75
503.823	90.75
504.04	87.75
504.256	91.75
504.473	91.75
504.69	88.75
504.907	90.75
505.123	84.75
505.34	81.75
505.557	91.75
505.773	79.75
505.99	91.75
506.207	85.75
506.423	79.75
506.64	80.75
506.856	79.75
507.073	84.75
507.289	84.75
507.506	95.75
507.722	98.75
507.939	119.75
508.155	75.75
508.372	104.75
508.588	92.75
508.805	83.75
509.021	89.75
509.238	94.75
509.454	89.75
509.67	97.75
509.887	108.75
510.103	119.75
510.319	185.75
510.536	661.75
510.752	1995.75
510.968	550.75
511.184	138.75
511.401	104.75
511.617	97.75
511.833	83.75
512.049	86.75
512.265	91.75
512.481	95.75
512.698	92.75
512.914	84.75
513.13	98.75
513.346	77.75
513.562	101.75
513.778	92.75
513.994	104.75
514.21	79.75
514.426	93.75
514.642	106.75
514.858	102.75
515.074	134.75
515.29	389.75
515.506	1193.75
515.721	444.75
515.937	139.75
516.153	95.75
516.369	90.75
516.585	94.75
516.801	80.75
517.016	91.75
517.232	97.75
517.448	89.75
517.664	77.75
517.879	83.75
518.095	81.75
518.311	91.75
518.527	87.75
518.742	74.75
518.958	93.75
519.173	101.75
519.389	94.75
519.605	88.75
519.82	99.75
520.036	98.75
520.251	109.75
520.467	104.75
520.682	89.75
520.898	101.75
521.113	111.75
521.329	125.75
521.544	191.75
521.76	457.75
521.975	1992.75
522.19	1161.75
522.406	248.75
522.621	116.75
522.836	105.75
523.052	99.75
523.267	108.75
523.482	62.75
523.698	101.75
523.913	105.75
524.128	98.75
524.343	100.75
524.559	95.75
524.774	90.75
524.989	98.75
525.204	99.75
525.419	90.75
525.634	88.75
525.849	76.75
526.064	88.75
526.28	89.75
526.495	92.75
526.71	93.75
526.925	88.75
527.14	93.75
527.355	86.75
527.57	88.75
527.785	95.75
527.999	84.75
528.214	103.75
528.429	103.75
528.644	87.75
528.859	90.75
529.074	100.75
529.289	96.75
529.503	148.75
529.718	92.75
529.933	94.75
530.148	93.75
530.363	78.75
530.577	94.75
530.792	94.75
531.007	91.75
531.221	76.75
531.436	90.75
531.651	85.75
531.865	83.75
532.08	91.75
532.295	83.75
532.509	90.75
532.724	74.75
532.938	95.75
533.153	80.75
533.367	84.75
533.582	78.75
533.796	94.75
534.011	88.75
534.225	87.75
534.44	92.75
534.654	87.75
534.868	72.75
535.083	100.75
535.297	93.75
535.511	100.75
535.726	100.75
535.94	106.75
536.154	85.75
536.369	84.75
536.583	74.75
536.797	96.75
537.011	83.75
537.225	86.75
537.44	102.75
537.654	80.75
537.868	91.75
538.082	93.75
538.296	80.75
538.51	85.75
538.724	70.75
538.938	84.75
539.153	90.75
539.367	91.75
539.581	92.75
539.795	94.75
540.009	92.75
540.222	83.75
540.436	78.75
540.65	71.75
540.864	89.75
541.078	85.75
541.292	99.75
541.506	93.75
541.72	88.75
541.934	95.75
542.147	90.75
542.361	94.75
542.575	73.75
542.789	81.75
543.002	93.75
543.216	92.75
543.43	93.75
543.644	87.75
543.857	96.75
544.071	75.75
544.285	85.75
544.498	97.75
544.712	93.75
544.925	85.75
545.139	97.75
545.352	89.75
545.566	95.75
545.779	75.75
545.993	69.75
546.206	82.75
546.42	85.75
546.633	87.75
546.847	85.75
547.06	81.75
547.274	104.75
547.487	102.75
547.7	79.75
547.914	96.75
548.127	67.75
548.34	73.75
548.554	85.75
548.767	94.75
548.98	87.75
549.193	76.75
549.407	97.75
549.62	86.75
549.833	90.75
550.046	91.75
550.259	87.75
550.473	90.75
550.686	83.75
550.899	73.75
551.112	81.75
551.325	81.75
551.538	88.75
551.751	87.75
551.964	68.75
552.177	83.75
552.39	88.75
552.603	89.75
552.816	79.75
553.029	92.75
553.242	86.75
553.455	91.75
553.667	97.75
553.88	94.75
554.093	92.75
554.306	77.75
554.519	95.75
554.732	96.75
554.944	77.75
555.157	96.75
555.37	86.75
555.583	84.75
555.795	80.75
556.008	82.75
556.221	97.75
556.433	91.75
556.646	89.75
556.859	93.75
557.071	83.75
557.284	84.75
557.496	79.75
557.709	84.75
557.921	90.75
558.134	88.75
558.346	83.75
558.559	79.75
558.771	87.75
558.984	79.75
559.196	76.75
559.409	89.75
559.621	91.75
559.833	73.75
560.046	96.75
560.258	86.75
560.47	77.75
560.683	92.75
560.895	96.75
561.107	77.75
561.32	94.75
561.532	83.75
561.744	92.75
561.956	94.75
562.168	90.75
562.381	92.75
562.593	84.75
562.805	105.75
563.017	81.75
563.229	77.75
563.441	87.75
563.653	91.75
563.865	63.75
564.077	86.75
564.289	85.75
564.501	81.75
564.713	92.75
564.925	89.75
565.137	96.75
565.349	80.75
565.561	75.75
565.773	79.75
565.985	86.75
566.197	77.75
566.408	92.75
566.62	86.75
566.832	75.75
567.044	83.75
567.255	79.75
567.467	90.75
567.679	90.75
567.891	95.75
568.102	99.75
568.314	86.75
568.526	92.75
568.737	89.75
568.949	91.75
569.161	82.75
569.372	94.75
569.584	90.75
569.795	85.75
570.007	108.75
570.218	219.75
570.43	104.75
570.641	73.75
570.853	74.75
571.064	101.75
571.276	81.75
571.487	84.75
571.698	92.75
571.91	88.75
572.121	86.75
572.333	83.75
572.544	85.75
572.755	84.75
572.966	94.75
573.178	94.75
573.389	93.75
573.6	84.75
573.811	79.75
574.023	79.75
574.234	76.75
574.445	80.75
574.656	97.75
574.867	82.75
575.078	76.75
575.289	85.75
575.501	76.75
575.712	91.75
575.923	75.75
576.134	89.75
576.345	85.75
576.556	99.75
576.767	96.75
576.978	82.75
577.188	92.75
577.399	89.75
577.61	87.75
577.821	84.75
578.032	112.75
578.243	259.75
578.454	650.75
578.665	195.75
578.875	110.75
579.086	82.75
579.297	81.75
579.508	67.75
579.718	96.75
579.929	100.75
580.14	92.75
580.35	90.75
580.561	89.75
580.772	78.75
580.982	100.75
581.193	95.75
581.403	87.75
581.614	83.75
581.825	71.75
582.035	73.75
582.246	88.75
582.456	84.75
582.667	87.75
582.877	78.75
583.087	88.75
583.298	68.75
583.508	84.75
583.719	79.75
583.929	79.75
584.139	76.75
584.35	85.75
584.56	87.75
584.77	93.75
584.981	72.75
585.191	90.75
585.401	85.75
585.611	86.75
585.821	89.75
586.032	83.75
586.242	90.75
586.452	89.75
586.662	75.75
586.872	88.75
587.082	81.75
587.292	86.75
587.502	88.75
587.713	83.75
587.923	92.75
588.133	94.75
588.343	91.75
588.553	89.75
588.762	89.75
588.972	94.75
589.182	81.75
589.392	76.75
589.602	96.75
589.812	88.75
590.022	92.75
590.232	94.75
590.441	85.75
590.651	80.75
590.861	89.75
591.071	77.75
591.281	77.75
591.49	88.75
591.7	83.75
591.91	78.75
592.119	96.75
592.329	76.75
592.539	88.75
592.748	84.75
592.958	82.75
593.167	81.75
593.377	65.75
593.587	90.75
593.796	94.75
594.006	91.75
594.215	88.75
594.424	86.75
594.634	90.75
594.843	81.75
595.053	85.75
595.262	92.75
595.472	82.75
595.681	63.75
595.89	79.75
596.1	81.75
596.309	97.75
596.518	79.75
596.727	91.75
596.937	77.75
597.146	89.75
597.355	77.75
597.564	98.75
597.774	91.75
597.983	86.75
598.192	78.75
598.401	84.75
598.61	67.75
598.819	81.75
599.028	83.75
599.237	91.75
599.446	82.75
599.655	76.75
599.864	89.75
600.073	80.75
600.282	87.75
600.491	81.75
600.7	95.75
600.909	94.75
601.118	89.75
601.327	84.75
601.536	91.75
601.745	92.75
601.953	94.75
602.162	98.75
602.371	75.75
602.58	88.75
602.789	94.75
602.997	85.75
603.206	86.75
603.415	86.75
603.623	83.75
603.832	79.75
604.041	71.75
604.249	83.75
604.458	86.75
604.666	78.75
604.875	76.75
605.084	70.75
605.292	81.75
605.501	86.75
605.709	79.75
605.918	87.75
606.126	69.75
606.334	104.75
606.543	85.75
606.751	83.75
606.96	86.75
607.168	91.75
607.376	87.75
607.585	79.75
607.793	89.75
608.001	64.75
608.21	65.75
608.418	60.75
608.626	87.75
608.834	87.75
609.043	78.75
609.251	89.75
609.459	64.75
609.667	90.75
609.875	76.75
610.083	77.75
610.291	73.75
610.499	85.75
610.707	78.75
610.916	72.75
611.124	78.75
611.332	69.75
611.54	87.75
611.748	76.75
611.955	93.75
612.163	87.75
612.371	77.75
612.579	80.75
612.787	83.75
612.995	88.75
613.203	83.75
613.411	87.75
613.618	87.75
613.826	93.75
614.034	79.75
614.242	80.75
614.449	90.75
614.657	90.75
614.865	84.75
615.072	96.75
615.28	99.75
615.488	74.75
615.695	92.75
615.903	92.75
616.111	94.75
616.318	92.75
616.526	100.75
616.733	101.75
616.941	87.75
617.148	78.75
617.356	78.75
617.563	82.75
617.771	80.75
617.978	82.75
618.185	90.75
618.393	87.75
618.6	83.75
618.807	94.75
619.015	86.75
619.222	98.75
619.429	81.75
619.637	89.75
619.844	75.75
620.051	71.75
620.258	83.75
620.466	89.75
620.673	86.75
620.88	87.75
621.087	88.75
621.294	80.75
621.501	71.75
621.708	84.75
621.915	78.75
622.122	87.75
622.329	82.75
622.536	85.75
622.743	81.75
622.95	80.75
623.157	83.75
623.364	89.75
623.571	81.75
623.778	84.75
623.985	85.75
624.192	83.75
624.399	79.75
624.606	83.75
624.812	85.75
625.019	87.75
625.226	92.75
625.433	78.75
625.639	84.75
625.846	81.75
626.053	77.75
626.259	87.75
626.466	87.75
626.673	78.75
626.879	83.75
627.086	86.75
627.293	80.75
627.499	83.75
627.706	102.75
627.912	91.75
628.119	74.75
628.325	96.75
628.532	77.75
628.738	75.75
628.945	79.75
629.151	88.75
629.357	76.75
629.564	76.75
629.77	92.75
629.976	79.75
630.183	84.75
630.389	91.75
630.595	76.75
630.802	81.75
631.008	79.75
631.214	100.75
631.42	100.75
631.627	99.75
631.833	82.75
632.039	76.75
632.245	70.75
632.451	75.75
632.657	83.75
632.863	80.75
633.069	76.75
633.275	84.75
633.481	80.75
633.688	69.75
633.893	79.75
634.099	64.75
634.305	80.75
634.511	91.75
634.717	91.75
634.923	73.75
635.129	94.75
635.335	68.75
635.541	78.75
635.747	83.75
635.952	85.75
636.158	84.75
636.364	71.75
636.57	94.75
636.775	88.75
636.981	78.75
637.187	80.75
637.392	79.75
637.598	90.75
637.804	79.75
638.009	86.75
638.215	81.75
638.421	68.75
638.626	75.75
638.832	83.75
639.037	87.75
639.243	73.75
639.448	72.75
639.654	79.75
639.859	84.75
640.065	73.75
640.27	81.75
640.475	80.75
640.681	77.75
640.886	90.75
641.091	83.75
641.297	78.75
641.502	83.75
641.707	85.75
641.913	89.75
642.118	70.75
642.323	89.75
642.528	85.75
642.733	85.75
642.939	92.75
643.144	89.75
643.349	85.75
643.554	85.75
643.759	70.75
643.964	76.75
644.169	90.75
644.374	79.75
644.579	90.75
644.784	97.75
644.989	82.75
645.194	81.75
645.399	86.75
645.604	78.75
645.809	87.75
646.014	86.75
646.219	87.75
646.423	84.75
646.628	85.75
646.833	87.75
647.038	96.75
647.243	77.75
647.447	84.75
647.652	84.75
647.857	75.75
648.062	71.75
648.266	91.75
648.471	86.75
648.676	84.75
648.88	87.75
649.085	79.75
649.289	96.75
649.494	83.75
649.698	123.75
649.903	92.75
650.107	84.75
650.312	85.75
650.516	87.75
650.721	95.75
650.925	81.75
651.13	88.75
651.334	79.75
651.539	73.75
651.743	73.75
651.947	85.75
652.152	88.75
652.356	68.75
652.56	71.75
652.764	80.75
652.969	78.75
653.173	73.75
653.377	94.75
653.581	99.75
653.785	88.75
653.99	79.75
654.194	82.75
654.398	76.75
654.602	102.75
654.806	83.75
655.01	106.75
655.214	82.75
655.418	88.75
655.622	73.75
655.826	73.75
656.03	88.75
656.234	88.75
656.438	88.75
656.642	92.75
656.846	84.75
657.049	72.75
657.253	77.75
657.457	81.75
657.661	79.75
657.865	73.75
658.068	92.75
658.272	84.75
658.476	81.75
658.68	80.75
658.883	82.75
659.087	73.75
659.291	85.75
659.494	91.75
659.698	76.75
659.901	82.75
660.105	88.75
660.309	83.75
660.512	75.75
660.716	74.75
660.919	87.75
661.123	72.75
661.326	76.75
661.53	78.75
661.733	80.75
661.936	88.75
662.14	75.75
662.343	72.75
662.546	76.75
662.75	76.75
662.953	64.75
663.156	69.75
663.36	77.75
663.563	70.75
663.766	65.75
663.969	88.75
664.173	80.75
664.376	84.75
664.579	91.75
664.782	89.75
664.985	82.75
665.188	70.75
665.391	65.75
665.594	71.75
665.797	87.75
666	97.75
666.203	88.75
666.406	67.75
666.609	71.75
666.812	80.75
667.015	68.75
667.218	80.75
667.421	70.75
667.624	72.75
667.827	81.75
668.03	84.75
668.232	78.75
668.435	79.75
668.638	74.75
668.841	81.75
669.043	61.75
669.246	77.75
669.449	83.75
669.651	87.75
669.854	65.75
670.057	83.75
670.259	75.75
670.462	78.75
670.665	60.75
670.867	84.75
671.07	67.75
671.272	96.75
671.475	89.75
671.677	84.75
671.88	85.75
672.082	83.75
672.284	71.75
672.487	84.75
672.689	72.75
672.892	81.75
