Data from Uncirc_1997_H10_HRD10591_00040.txt Node
Date: Wed Jan 03 11:28:38 EST 2024
User: Yrep
Spectrometer: HR+D1059
Trigger mode: 1
Integration Time (sec): 1.000000E-1
Scans to average: 1
Electric dark correction enabled: true
Nonlinearity correction enabled: false
Boxcar width: 0
XAxis mode: Wavelengths
Number of Pixels in Spectrum: 2048
>>>>>Begin Spectral Data<<<<<
223.165	-8.25
223.4	-8.25
223.635	-8.25
223.869	-20.25
224.104	-21.25
224.338	-5.25
224.573	-11.25
224.808	-12.25
225.042	4.75
225.277	-7.25
225.511	6.75
225.746	-11.25
225.98	9.75
226.215	7.75
226.449	12.75
226.683	11.75
226.918	16.75
227.152	26.75
227.387	29.75
227.621	39.75
227.856	43.75
228.09	37.75
228.324	40.75
228.559	49.75
228.793	56.75
229.027	69.75
229.262	66.75
229.496	75.75
229.73	71.75
229.964	81.75
230.199	73.75
230.433	72.75
230.667	76.75
230.901	59.75
231.136	73.75
231.37	80.75
231.604	80.75
231.838	59.75
232.072	67.75
232.306	64.75
232.541	79.75
232.775	73.75
233.009	69.75
233.243	71.75
233.477	64.75
233.711	77.75
233.945	74.75
234.179	93.75
234.413	61.75
234.647	75.75
234.881	77.75
235.115	74.75
235.349	88.75
235.583	56.75
235.817	79.75
236.051	59.75
236.285	65.75
236.519	73.75
236.753	63.75
236.987	81.75
237.221	84.75
237.455	76.75
237.689	70.75
237.922	72.75
238.156	65.75
238.39	63.75
238.624	57.75
238.858	72.75
239.091	66.75
239.325	69.75
239.559	78.75
239.793	84.75
240.027	68.75
240.26	72.75
240.494	78.75
240.728	69.75
240.961	69.75
241.195	77.75
241.429	71.75
241.662	63.75
241.896	65.75
242.13	84.75
242.363	76.75
242.597	58.75
242.83	57.75
243.064	48.75
243.298	65.75
243.531	73.75
243.765	64.75
243.998	70.75
244.232	73.75
244.465	70.75
244.699	80.75
244.932	61.75
245.166	67.75
245.399	67.75
245.633	60.75
245.866	69.75
246.099	75.75
246.333	67.75
246.566	74.75
246.8	67.75
247.033	73.75
247.266	63.75
247.5	72.75
247.733	67.75
247.966	63.75
248.2	59.75
248.433	69.75
248.666	72.75
248.899	68.75
249.133	88.75
249.366	89.75
249.599	100.75
249.832	63.75
250.066	82.75
250.299	83.75
250.532	80.75
250.765	87.75
250.998	63.75
251.231	67.75
251.465	80.75
251.698	82.75
251.931	68.75
252.164	80.75
252.397	66.75
252.63	73.75
252.863	81.75
253.096	71.75
253.329	74.75
253.562	74.75
253.795	71.75
254.028	77.75
254.261	79.75
254.494	75.75
254.727	80.75
254.96	67.75
255.193	78.75
255.426	72.75
255.659	70.75
255.892	66.75
256.124	79.75
256.357	55.75
256.59	81.75
256.823	63.75
257.056	79.75
257.289	67.75
257.521	87.75
257.754	59.75
257.987	68.75
258.22	76.75
258.452	58.75
258.685	81.75
258.918	63.75
259.151	75.75
259.383	74.75
259.616	86.75
259.849	68.75
260.081	72.75
260.314	82.75
260.547	77.75
260.779	79.75
261.012	76.75
261.244	73.75
261.477	77.75
261.71	81.75
261.942	95.75
262.175	85.75
262.407	92.75
262.64	78.75
262.872	86.75
263.105	84.75
263.337	87.75
263.57	65.75
263.802	77.75
264.035	79.75
264.267	70.75
264.499	85.75
264.732	72.75
264.964	69.75
265.197	84.75
265.429	74.75
265.661	60.75
265.894	85.75
266.126	72.75
266.358	63.75
266.591	73.75
266.823	65.75
267.055	82.75
267.287	68.75
267.52	85.75
267.752	72.75
267.984	75.75
268.216	74.75
268.448	78.75
268.681	99.75
268.913	84.75
269.145	84.75
269.377	75.75
269.609	83.75
269.841	80.75
270.073	78.75
270.306	73.75
270.538	88.75
270.77	66.75
271.002	63.75
271.234	70.75
271.466	89.75
271.698	71.75
271.93	77.75
272.162	93.75
272.394	91.75
272.626	85.75
272.858	76.75
273.09	68.75
273.322	84.75
273.553	74.75
273.785	74.75
274.017	78.75
274.249	74.75
274.481	67.75
274.713	74.75
274.945	72.75
275.176	76.75
275.408	70.75
275.64	67.75
275.872	72.75
276.104	74.75
276.335	82.75
276.567	88.75
276.799	72.75
277.031	83.75
277.262	80.75
277.494	75.75
277.726	87.75
277.957	81.75
278.189	66.75
278.421	76.75
278.652	84.75
278.884	86.75
279.115	85.75
279.347	89.75
279.579	73.75
279.81	76.75
280.042	68.75
280.273	73.75
280.505	74.75
280.736	71.75
280.968	77.75
281.199	88.75
281.431	72.75
281.662	68.75
281.894	78.75
282.125	89.75
282.356	119.75
282.588	118.75
282.819	110.75
283.051	93.75
283.282	88.75
283.513	68.75
283.745	65.75
283.976	85.75
284.207	65.75
284.439	80.75
284.67	76.75
284.901	88.75
285.132	96.75
285.364	85.75
285.595	78.75
285.826	82.75
286.057	65.75
286.288	75.75
286.52	83.75
286.751	81.75
286.982	86.75
287.213	90.75
287.444	98.75
287.675	79.75
287.906	84.75
288.138	90.75
288.369	84.75
288.6	87.75
288.831	79.75
289.062	86.75
289.293	76.75
289.524	85.75
289.755	79.75
289.986	75.75
290.217	77.75
290.448	62.75
290.679	81.75
290.91	87.75
291.141	83.75
291.371	82.75
291.602	73.75
291.833	74.75
292.064	67.75
292.295	85.75
292.526	72.75
292.757	90.75
292.987	86.75
293.218	83.75
293.449	72.75
293.68	82.75
293.91	75.75
294.141	89.75
294.372	92.75
294.603	87.75
294.833	71.75
295.064	87.75
295.295	88.75
295.525	82.75
295.756	103.75
295.987	111.75
296.217	117.75
296.448	101.75
296.679	87.75
296.909	87.75
297.14	77.75
297.37	92.75
297.601	81.75
297.831	73.75
298.062	85.75
298.292	83.75
298.523	75.75
298.753	96.75
298.984	81.75
299.214	76.75
299.445	80.75
299.675	73.75
299.905	88.75
300.136	95.75
300.366	84.75
300.597	92.75
300.827	93.75
301.057	90.75
301.288	96.75
301.518	82.75
301.748	71.75
301.979	96.75
302.209	81.75
302.439	73.75
302.669	87.75
302.9	76.75
303.13	71.75
303.36	69.75
303.59	80.75
303.82	93.75
304.051	96.75
304.281	79.75
304.511	88.75
304.741	86.75
304.971	75.75
305.201	78.75
305.431	90.75
305.661	77.75
305.891	70.75
306.121	86.75
306.352	86.75
306.582	87.75
306.812	76.75
307.042	90.75
307.272	91.75
307.502	88.75
307.731	89.75
307.961	77.75
308.191	79.75
308.421	76.75
308.651	92.75
308.881	70.75
309.111	74.75
309.341	82.75
309.571	81.75
309.8	98.75
310.03	80.75
310.26	76.75
310.49	77.75
310.72	89.75
310.949	90.75
311.179	95.75
311.409	85.75
311.639	86.75
311.868	87.75
312.098	88.75
312.328	98.75
312.557	89.75
312.787	83.75
313.017	85.75
313.246	87.75
313.476	86.75
313.706	75.75
313.935	84.75
314.165	87.75
314.394	79.75
314.624	75.75
314.853	91.75
315.083	92.75
315.312	88.75
315.542	70.75
315.771	77.75
316.001	104.75
316.23	94.75
316.46	71.75
316.689	79.75
316.919	79.75
317.148	104.75
317.377	59.75
317.607	96.75
317.836	76.75
318.065	100.75
318.295	70.75
318.524	89.75
318.753	75.75
318.983	83.75
319.212	78.75
319.441	99.75
319.67	90.75
319.9	98.75
320.129	83.75
320.358	83.75
320.587	96.75
320.816	90.75
321.046	82.75
321.275	100.75
321.504	69.75
321.733	66.75
321.962	83.75
322.191	92.75
322.42	97.75
322.649	99.75
322.878	85.75
323.108	91.75
323.337	103.75
323.566	100.75
323.795	131.75
324.024	180.75
324.253	321.75
324.482	682.75
324.71	1391.75
324.939	1813.75
325.168	658.75
325.397	204.75
325.626	148.75
325.855	108.75
326.084	105.75
326.313	106.75
326.542	145.75
326.77	203.75
326.999	398.75
327.228	801.75
327.457	1416.75
327.686	1128.75
327.914	305.75
328.143	162.75
328.372	136.75
328.6	111.75
328.829	99.75
329.058	111.75
329.287	104.75
329.515	98.75
329.744	90.75
329.972	95.75
330.201	103.75
330.43	100.75
330.658	123.75
330.887	123.75
331.115	96.75
331.344	74.75
331.572	92.75
331.801	91.75
332.03	91.75
332.258	84.75
332.486	89.75
332.715	83.75
332.943	96.75
333.172	69.75
333.4	87.75
333.629	94.75
333.857	108.75
334.085	89.75
334.314	80.75
334.542	86.75
334.771	98.75
334.999	93.75
335.227	83.75
335.455	67.75
335.684	93.75
335.912	88.75
336.14	82.75
336.369	84.75
336.597	87.75
336.825	83.75
337.053	82.75
337.281	89.75
337.51	95.75
337.738	92.75
337.966	84.75
338.194	90.75
338.422	78.75
338.65	86.75
338.878	73.75
339.106	81.75
339.334	82.75
339.562	67.75
339.79	91.75
340.018	76.75
340.246	92.75
340.474	84.75
340.702	81.75
340.93	87.75
341.158	82.75
341.386	96.75
341.614	91.75
341.842	67.75
342.07	98.75
342.298	92.75
342.526	80.75
342.754	73.75
342.981	84.75
343.209	77.75
343.437	95.75
343.665	89.75
343.893	75.75
344.12	96.75
344.348	82.75
344.576	85.75
344.804	87.75
345.031	89.75
345.259	80.75
345.487	81.75
345.714	77.75
345.942	68.75
346.17	80.75
346.397	83.75
346.625	90.75
346.853	89.75
347.08	95.75
347.308	76.75
347.535	81.75
347.763	86.75
347.99	89.75
348.218	90.75
348.445	91.75
348.673	108.75
348.9	90.75
349.128	92.75
349.355	75.75
349.583	86.75
349.81	88.75
350.037	91.75
350.265	79.75
350.492	86.75
350.72	96.75
350.947	91.75
351.174	103.75
351.402	90.75
351.629	79.75
351.856	99.75
352.083	99.75
352.311	88.75
352.538	105.75
352.765	92.75
352.992	95.75
353.22	107.75
353.447	97.75
353.674	81.75
353.901	82.75
354.128	88.75
354.355	89.75
354.583	96.75
354.81	91.75
355.037	92.75
355.264	87.75
355.491	82.75
355.718	80.75
355.945	95.75
356.172	88.75
356.399	83.75
356.626	85.75
356.853	88.75
357.08	71.75
357.307	82.75
357.534	74.75
357.761	82.75
357.988	96.75
358.215	102.75
358.441	95.75
358.668	87.75
358.895	82.75
359.122	85.75
359.349	92.75
359.576	87.75
359.802	72.75
360.029	102.75
360.256	99.75
360.483	84.75
360.709	98.75
360.936	85.75
361.163	97.75
361.39	92.75
361.616	94.75
361.843	78.75
362.07	84.75
362.296	97.75
362.523	86.75
362.749	88.75
362.976	82.75
363.203	66.75
363.429	92.75
363.656	73.75
363.882	90.75
364.109	82.75
364.335	80.75
364.562	68.75
364.788	82.75
365.015	91.75
365.241	83.75
365.468	92.75
365.694	91.75
365.92	96.75
366.147	73.75
366.373	100.75
366.599	84.75
366.826	93.75
367.052	94.75
367.278	87.75
367.505	82.75
367.731	83.75
367.957	77.75
368.184	83.75
368.41	85.75
368.636	103.75
368.862	104.75
369.089	100.75
369.315	79.75
369.541	91.75
369.767	81.75
369.993	94.75
370.219	87.75
370.445	75.75
370.672	89.75
370.898	73.75
371.124	72.75
371.35	84.75
371.576	76.75
371.802	92.75
372.028	80.75
372.254	78.75
372.48	83.75
372.706	71.75
372.932	87.75
373.158	81.75
373.384	85.75
373.61	76.75
373.835	77.75
374.061	71.75
374.287	72.75
374.513	90.75
374.739	82.75
374.965	76.75
375.191	73.75
375.416	89.75
375.642	76.75
375.868	85.75
376.094	82.75
376.319	85.75
376.545	77.75
376.771	79.75
376.997	72.75
377.222	83.75
377.448	71.75
377.674	77.75
377.899	75.75
378.125	87.75
378.35	81.75
378.576	83.75
378.802	79.75
379.027	87.75
379.253	79.75
379.478	74.75
379.704	92.75
379.929	65.75
380.155	79.75
380.38	92.75
380.606	100.75
380.831	92.75
381.057	87.75
381.282	98.75
381.507	74.75
381.733	84.75
381.958	79.75
382.184	86.75
382.409	84.75
382.634	89.75
382.86	92.75
383.085	92.75
383.31	92.75
383.535	89.75
383.761	89.75
383.986	84.75
384.211	83.75
384.436	98.75
384.662	87.75
384.887	95.75
385.112	87.75
385.337	89.75
385.562	91.75
385.787	88.75
386.013	80.75
386.238	88.75
386.463	111.75
386.688	100.75
386.913	79.75
387.138	91.75
387.363	94.75
387.588	98.75
387.813	90.75
388.038	87.75
388.263	93.75
388.488	93.75
388.713	84.75
388.938	94.75
389.163	72.75
389.387	88.75
389.612	91.75
389.837	77.75
390.062	101.75
390.287	95.75
390.512	76.75
390.736	67.75
390.961	70.75
391.186	85.75
391.411	85.75
391.636	73.75
391.86	90.75
392.085	89.75
392.31	73.75
392.534	77.75
392.759	86.75
392.984	85.75
393.208	102.75
393.433	76.75
393.658	71.75
393.882	80.75
394.107	85.75
394.331	79.75
394.556	87.75
394.78	68.75
395.005	85.75
395.229	78.75
395.454	73.75
395.678	90.75
395.903	82.75
396.127	74.75
396.352	86.75
396.576	72.75
396.801	75.75
397.025	76.75
397.249	81.75
397.474	79.75
397.698	80.75
397.922	92.75
398.147	81.75
398.371	78.75
398.595	75.75
398.82	78.75
399.044	83.75
399.268	74.75
399.492	80.75
399.717	74.75
399.941	87.75
400.165	91.75
400.389	70.75
400.613	75.75
400.837	67.75
401.062	79.75
401.286	79.75
401.51	67.75
401.734	85.75
401.958	89.75
402.182	120.75
402.406	134.75
402.63	99.75
402.854	82.75
403.078	90.75
403.302	88.75
403.526	86.75
403.75	82.75
403.974	91.75
404.198	89.75
404.422	79.75
404.645	83.75
404.869	84.75
405.093	81.75
405.317	88.75
405.541	91.75
405.765	88.75
405.988	99.75
406.212	143.75
406.436	186.75
406.66	121.75
406.883	85.75
407.107	98.75
407.331	73.75
407.555	89.75
407.778	88.75
408.002	80.75
408.226	76.75
408.449	86.75
408.673	85.75
408.896	72.75
409.12	89.75
409.344	74.75
409.567	91.75
409.791	72.75
410.014	79.75
410.238	98.75
410.461	67.75
410.685	84.75
410.908	84.75
411.132	92.75
411.355	80.75
411.578	75.75
411.802	81.75
412.025	83.75
412.249	70.75
412.472	71.75
412.695	84.75
412.919	77.75
413.142	70.75
413.365	80.75
413.589	92.75
413.812	80.75
414.035	74.75
414.258	67.75
414.482	78.75
414.705	74.75
414.928	83.75
415.151	92.75
415.374	83.75
415.597	82.75
415.821	70.75
416.044	73.75
416.267	93.75
416.49	76.75
416.713	84.75
416.936	89.75
417.159	87.75
417.382	84.75
417.605	75.75
417.828	89.75
418.051	87.75
418.274	89.75
418.497	85.75
418.72	85.75
418.943	74.75
419.166	85.75
419.389	75.75
419.611	77.75
419.834	84.75
420.057	78.75
420.28	87.75
420.503	75.75
420.726	86.75
420.948	85.75
421.171	90.75
421.394	85.75
421.617	97.75
421.839	93.75
422.062	84.75
422.285	76.75
422.507	79.75
422.73	75.75
422.953	79.75
423.175	67.75
423.398	74.75
423.621	81.75
423.843	73.75
424.066	79.75
424.288	78.75
424.511	77.75
424.733	84.75
424.956	101.75
425.178	84.75
425.401	88.75
425.623	85.75
425.846	93.75
426.068	81.75
426.291	72.75
426.513	86.75
426.735	82.75
426.958	88.75
427.18	97.75
427.402	110.75
427.625	131.75
427.847	108.75
428.069	93.75
428.292	80.75
428.514	87.75
428.736	75.75
428.958	85.75
429.181	78.75
429.403	81.75
429.625	80.75
429.847	86.75
430.069	101.75
430.292	68.75
430.514	86.75
430.736	80.75
430.958	80.75
431.18	90.75
431.402	69.75
431.624	95.75
431.846	79.75
432.068	85.75
432.29	81.75
432.512	91.75
432.734	87.75
432.956	92.75
433.178	94.75
433.4	97.75
433.622	77.75
433.844	70.75
434.066	84.75
434.287	74.75
434.509	76.75
434.731	71.75
434.953	77.75
435.175	91.75
435.397	85.75
435.618	78.75
435.84	87.75
436.062	93.75
436.284	92.75
436.505	97.75
436.727	99.75
436.949	84.75
437.17	75.75
437.392	88.75
437.614	87.75
437.835	103.75
438.057	92.75
438.278	94.75
438.5	89.75
438.721	103.75
438.943	81.75
439.165	92.75
439.386	88.75
439.608	97.75
439.829	93.75
440.05	104.75
440.272	116.75
440.493	100.75
440.715	87.75
440.936	73.75
441.158	80.75
441.379	107.75
441.6	76.75
441.822	90.75
442.043	76.75
442.264	91.75
442.486	100.75
442.707	90.75
442.928	103.75
443.149	112.75
443.371	98.75
443.592	90.75
443.813	93.75
444.034	89.75
444.255	85.75
444.476	85.75
444.698	79.75
444.919	77.75
445.14	121.75
445.361	109.75
445.582	100.75
445.803	109.75
446.024	111.75
446.245	101.75
446.466	88.75
446.687	100.75
446.908	79.75
447.129	81.75
447.35	74.75
447.571	80.75
447.792	80.75
448.013	81.75
448.234	90.75
448.455	97.75
448.675	104.75
448.896	104.75
449.117	85.75
449.338	88.75
449.559	136.75
449.779	123.75
450	74.75
450.221	84.75
450.442	82.75
450.662	74.75
450.883	103.75
451.104	99.75
451.324	70.75
451.545	83.75
451.766	77.75
451.986	79.75
452.207	91.75
452.428	85.75
452.648	77.75
452.869	84.75
453.089	100.75
453.31	84.75
453.53	77.75
453.751	79.75
453.971	88.75
454.192	90.75
454.412	81.75
454.633	89.75
454.853	93.75
455.073	85.75
455.294	85.75
455.514	75.75
455.734	101.75
455.955	83.75
456.175	73.75
456.395	72.75
456.616	81.75
456.836	73.75
457.056	75.75
457.276	73.75
457.497	92.75
457.717	88.75
457.937	73.75
458.157	82.75
458.377	87.75
458.598	92.75
458.818	121.75
459.038	113.75
459.258	105.75
459.478	82.75
459.698	80.75
459.918	83.75
460.138	77.75
460.358	74.75
460.578	83.75
460.798	87.75
461.018	89.75
461.238	82.75
461.458	79.75
461.678	85.75
461.898	76.75
462.118	70.75
462.338	73.75
462.558	80.75
462.777	75.75
462.997	75.75
463.217	83.75
463.437	74.75
463.657	78.75
463.876	71.75
464.096	97.75
464.316	81.75
464.536	76.75
464.755	84.75
464.975	98.75
465.195	147.75
465.414	116.75
465.634	80.75
465.854	95.75
466.073	89.75
466.293	79.75
466.512	80.75
466.732	75.75
466.951	87.75
467.171	95.75
467.391	78.75
467.61	96.75
467.829	78.75
468.049	77.75
468.268	91.75
468.488	83.75
468.707	78.75
468.927	94.75
469.146	86.75
469.365	75.75
469.585	72.75
469.804	75.75
470.023	69.75
470.243	84.75
470.462	73.75
470.681	87.75
470.901	69.75
471.12	79.75
471.339	71.75
471.558	89.75
471.777	92.75
471.997	87.75
472.216	90.75
472.435	94.75
472.654	84.75
472.873	73.75
473.092	85.75
473.311	89.75
473.53	76.75
473.749	82.75
473.968	82.75
474.187	107.75
474.406	92.75
474.625	89.75
474.844	88.75
475.063	84.75
475.282	87.75
475.501	79.75
475.72	91.75
475.939	77.75
476.158	74.75
476.377	85.75
476.596	95.75
476.814	97.75
477.033	96.75
477.252	79.75
477.471	89.75
477.69	66.75
477.908	90.75
478.127	84.75
478.346	91.75
478.564	86.75
478.783	77.75
479.002	91.75
479.22	93.75
479.439	89.75
479.658	96.75
479.876	89.75
480.095	84.75
480.313	73.75
480.532	73.75
480.751	80.75
480.969	88.75
481.188	114.75
481.406	91.75
481.624	79.75
481.843	85.75
482.061	82.75
482.28	95.75
482.498	83.75
482.717	89.75
482.935	76.75
483.153	74.75
483.372	72.75
483.59	82.75
483.808	72.75
484.027	79.75
484.245	92.75
484.463	90.75
484.681	96.75
484.9	82.75
485.118	83.75
485.336	85.75
485.554	84.75
485.772	85.75
485.99	96.75
486.209	92.75
486.427	107.75
486.645	104.75
486.863	91.75
487.081	94.75
487.299	83.75
487.517	87.75
487.735	76.75
487.953	88.75
488.171	80.75
488.389	84.75
488.607	88.75
488.825	85.75
489.043	75.75
489.261	68.75
489.479	76.75
489.696	81.75
489.914	79.75
490.132	76.75
490.35	82.75
490.568	79.75
490.786	85.75
491.003	82.75
491.221	89.75
491.439	86.75
491.657	89.75
491.874	88.75
492.092	81.75
492.31	80.75
492.527	86.75
492.745	83.75
492.963	78.75
493.18	85.75
493.398	88.75
493.615	79.75
493.833	87.75
494.05	86.75
494.268	93.75
494.485	84.75
494.703	90.75
494.92	89.75
495.138	83.75
495.355	73.75
495.573	80.75
495.79	88.75
496.008	83.75
496.225	80.75
496.442	75.75
496.66	97.75
496.877	91.75
497.094	97.75
497.312	90.75
497.529	101.75
497.746	103.75
497.963	88.75
498.181	83.75
498.398	95.75
498.615	84.75
498.832	100.75
499.049	96.75
499.267	76.75
499.484	81.75
499.701	83.75
499.918	80.75
500.135	87.75
500.352	71.75
500.569	89.75
500.786	79.75
501.003	79.75
501.22	69.75
501.437	94.75
501.654	85.75
501.871	92.75
502.088	88.75
502.305	83.75
502.522	74.75
502.739	91.75
502.956	68.75
503.172	87.75
503.389	95.75
503.606	92.75
503.823	86.75
504.04	87.75
504.256	84.75
504.473	74.75
504.69	79.75
504.907	95.75
505.123	83.75
505.34	77.75
505.557	80.75
505.773	91.75
505.99	79.75
506.207	75.75
506.423	86.75
506.64	86.75
506.856	74.75
507.073	81.75
507.289	97.75
507.506	101.75
507.722	98.75
507.939	95.75
508.155	81.75
508.372	81.75
508.588	95.75
508.805	92.75
509.021	102.75
509.238	109.75
509.454	79.75
509.67	90.75
509.887	99.75
510.103	113.75
510.319	181.75
510.536	645.75
510.752	1861.75
510.968	529.75
511.184	137.75
511.401	93.75
511.617	88.75
511.833	76.75
512.049	91.75
512.265	87.75
512.481	82.75
512.698	91.75
512.914	80.75
513.13	87.75
513.346	89.75
513.562	65.75
513.778	84.75
513.994	92.75
514.21	91.75
514.426	105.75
514.642	132.75
514.858	98.75
515.074	135.75
515.29	365.75
515.506	1152.75
515.721	429.75
515.937	131.75
516.153	97.75
516.369	89.75
516.585	88.75
516.801	96.75
517.016	84.75
517.232	94.75
517.448	81.75
517.664	95.75
517.879	98.75
518.095	85.75
518.311	82.75
518.527	76.75
518.742	81.75
518.958	91.75
519.173	77.75
519.389	78.75
519.605	73.75
519.82	78.75
520.036	75.75
520.251	105.75
520.467	109.75
520.682	94.75
520.898	82.75
521.113	104.75
521.329	117.75
521.544	164.75
521.76	455.75
521.975	1874.75
522.19	1121.75
522.406	241.75
522.621	92.75
522.836	90.75
523.052	90.75
523.267	97.75
523.482	86.75
523.698	85.75
523.913	94.75
524.128	98.75
524.343	77.75
524.559	83.75
524.774	76.75
524.989	96.75
525.204	91.75
525.419	85.75
525.634	78.75
525.849	87.75
526.064	90.75
526.28	84.75
526.495	79.75
526.71	85.75
526.925	79.75
527.14	81.75
527.355	79.75
527.57	88.75
527.785	82.75
527.999	92.75
528.214	90.75
528.429	93.75
528.644	88.75
528.859	77.75
529.074	97.75
529.289	108.75
529.503	132.75
529.718	99.75
529.933	89.75
530.148	82.75
530.363	88.75
530.577	73.75
530.792	67.75
531.007	83.75
531.221	75.75
531.436	72.75
531.651	87.75
531.865	81.75
532.08	86.75
532.295	85.75
532.509	89.75
532.724	68.75
532.938	94.75
533.153	88.75
533.367	86.75
533.582	84.75
533.796	89.75
534.011	94.75
534.225	89.75
534.44	89.75
534.654	77.75
534.868	87.75
535.083	95.75
535.297	79.75
535.511	99.75
535.726	100.75
535.94	71.75
536.154	86.75
536.369	76.75
536.583	67.75
536.797	85.75
537.011	75.75
537.225	89.75
537.44	90.75
537.654	90.75
537.868	88.75
538.082	87.75
538.296	83.75
538.51	86.75
538.724	70.75
538.938	84.75
539.153	88.75
539.367	96.75
539.581	79.75
539.795	85.75
540.009	72.75
540.222	85.75
540.436	81.75
540.65	75.75
540.864	84.75
541.078	85.75
541.292	86.75
541.506	82.75
541.72	89.75
541.934	88.75
542.147	77.75
542.361	74.75
542.575	86.75
542.789	82.75
543.002	80.75
543.216	87.75
543.43	98.75
543.644	84.75
543.857	74.75
544.071	81.75
544.285	89.75
544.498	79.75
544.712	92.75
544.925	81.75
545.139	76.75
545.352	82.75
545.566	76.75
545.779	86.75
545.993	72.75
546.206	75.75
546.42	76.75
546.633	79.75
546.847	84.75
547.06	84.75
547.274	80.75
547.487	89.75
547.7	83.75
547.914	90.75
548.127	84.75
548.34	80.75
548.554	85.75
548.767	85.75
548.98	85.75
549.193	81.75
549.407	80.75
549.62	84.75
549.833	80.75
550.046	80.75
550.259	82.75
550.473	80.75
550.686	86.75
550.899	64.75
551.112	94.75
551.325	69.75
551.538	87.75
551.751	82.75
551.964	78.75
552.177	93.75
552.39	92.75
552.603	86.75
552.816	87.75
553.029	84.75
553.242	96.75
553.455	84.75
553.667	79.75
553.88	84.75
554.093	88.75
554.306	93.75
554.519	102.75
554.732	81.75
554.944	78.75
555.157	83.75
555.37	86.75
555.583	77.75
555.795	99.75
556.008	79.75
556.221	77.75
556.433	94.75
556.646	84.75
556.859	77.75
557.071	88.75
557.284	92.75
557.496	85.75
557.709	98.75
557.921	80.75
558.134	80.75
558.346	89.75
558.559	81.75
558.771	71.75
558.984	79.75
559.196	71.75
559.409	82.75
559.621	80.75
559.833	79.75
560.046	84.75
560.258	81.75
560.47	87.75
560.683	96.75
560.895	79.75
561.107	90.75
561.32	91.75
561.532	86.75
561.744	77.75
561.956	88.75
562.168	82.75
562.381	92.75
562.593	76.75
562.805	92.75
563.017	76.75
563.229	75.75
563.441	81.75
563.653	89.75
563.865	80.75
564.077	91.75
564.289	95.75
564.501	71.75
564.713	79.75
564.925	86.75
565.137	79.75
565.349	82.75
565.561	85.75
565.773	79.75
565.985	81.75
566.197	83.75
566.408	92.75
566.62	84.75
566.832	81.75
567.044	76.75
567.255	73.75
567.467	88.75
567.679	76.75
567.891	81.75
568.102	87.75
568.314	82.75
568.526	72.75
568.737	84.75
568.949	82.75
569.161	74.75
569.372	83.75
569.584	81.75
569.795	83.75
570.007	108.75
570.218	197.75
570.43	110.75
570.641	94.75
570.853	81.75
571.064	79.75
571.276	79.75
571.487	74.75
571.698	75.75
571.91	69.75
572.121	70.75
572.333	75.75
572.544	82.75
572.755	76.75
572.966	79.75
573.178	68.75
573.389	96.75
573.6	85.75
573.811	88.75
574.023	72.75
574.234	84.75
574.445	76.75
574.656	77.75
574.867	87.75
575.078	75.75
575.289	92.75
575.501	87.75
575.712	83.75
575.923	75.75
576.134	75.75
576.345	83.75
576.556	83.75
576.767	92.75
576.978	75.75
577.188	69.75
577.399	83.75
577.61	77.75
577.821	91.75
578.032	104.75
578.243	244.75
578.454	635.75
578.665	183.75
578.875	107.75
579.086	73.75
579.297	76.75
579.508	77.75
579.718	84.75
579.929	81.75
580.14	66.75
580.35	87.75
580.561	79.75
580.772	87.75
580.982	82.75
581.193	75.75
581.403	69.75
581.614	71.75
581.825	77.75
582.035	79.75
582.246	90.75
582.456	85.75
582.667	84.75
582.877	87.75
583.087	87.75
583.298	86.75
583.508	69.75
583.719	90.75
583.929	89.75
584.139	82.75
584.35	86.75
584.56	83.75
584.77	88.75
584.981	69.75
585.191	85.75
585.401	96.75
585.611	84.75
585.821	78.75
586.032	77.75
586.242	87.75
586.452	85.75
586.662	83.75
586.872	71.75
587.082	70.75
587.292	87.75
587.502	88.75
587.713	67.75
587.923	89.75
588.133	67.75
588.343	73.75
588.553	85.75
588.762	87.75
588.972	83.75
589.182	80.75
589.392	79.75
589.602	81.75
589.812	81.75
590.022	80.75
590.232	77.75
590.441	75.75
590.651	87.75
590.861	81.75
591.071	82.75
591.281	76.75
591.49	85.75
591.7	69.75
591.91	75.75
592.119	72.75
592.329	101.75
592.539	84.75
592.748	92.75
592.958	90.75
593.167	93.75
593.377	84.75
593.587	81.75
593.796	74.75
594.006	71.75
594.215	73.75
594.424	82.75
594.634	88.75
594.843	76.75
595.053	82.75
595.262	88.75
595.472	77.75
595.681	87.75
595.89	87.75
596.1	79.75
596.309	82.75
596.518	83.75
596.727	90.75
596.937	71.75
597.146	71.75
597.355	73.75
597.564	80.75
597.774	74.75
597.983	68.75
598.192	83.75
598.401	83.75
598.61	77.75
598.819	89.75
599.028	69.75
599.237	73.75
599.446	76.75
599.655	87.75
599.864	65.75
600.073	92.75
600.282	83.75
600.491	80.75
600.7	88.75
600.909	87.75
601.118	83.75
601.327	80.75
601.536	82.75
601.745	87.75
601.953	80.75
602.162	86.75
602.371	64.75
602.58	84.75
602.789	73.75
602.997	79.75
603.206	86.75
603.415	93.75
603.623	69.75
603.832	58.75
604.041	73.75
604.249	78.75
604.458	67.75
604.666	75.75
604.875	80.75
605.084	73.75
605.292	77.75
605.501	76.75
605.709	90.75
605.918	92.75
606.126	76.75
606.334	98.75
606.543	83.75
606.751	74.75
606.96	83.75
607.168	82.75
607.376	77.75
607.585	74.75
607.793	69.75
608.001	88.75
608.21	79.75
608.418	81.75
608.626	73.75
608.834	73.75
609.043	79.75
609.251	76.75
609.459	75.75
609.667	89.75
609.875	84.75
610.083	80.75
610.291	72.75
610.499	82.75
610.707	88.75
610.916	83.75
611.124	79.75
611.332	72.75
611.54	70.75
611.748	84.75
611.955	84.75
612.163	79.75
612.371	71.75
612.579	79.75
612.787	79.75
612.995	83.75
613.203	89.75
613.411	73.75
613.618	56.75
613.826	66.75
614.034	70.75
614.242	83.75
614.449	71.75
614.657	88.75
614.865	74.75
615.072	81.75
615.28	81.75
615.488	84.75
615.695	76.75
615.903	86.75
616.111	85.75
616.318	86.75
616.526	88.75
616.733	98.75
616.941	96.75
617.148	82.75
617.356	83.75
617.563	84.75
617.771	77.75
617.978	74.75
618.185	75.75
618.393	83.75
618.6	69.75
618.807	80.75
619.015	76.75
619.222	72.75
619.429	69.75
619.637	89.75
619.844	71.75
620.051	84.75
620.258	74.75
620.466	86.75
620.673	77.75
620.88	67.75
621.087	78.75
621.294	76.75
621.501	72.75
621.708	80.75
621.915	78.75
622.122	82.75
622.329	74.75
622.536	85.75
622.743	73.75
622.95	75.75
623.157	89.75
623.364	76.75
623.571	84.75
623.778	79.75
623.985	77.75
624.192	71.75
624.399	74.75
624.606	81.75
624.812	80.75
625.019	83.75
625.226	86.75
625.433	73.75
625.639	79.75
625.846	88.75
626.053	80.75
626.259	84.75
626.466	74.75
626.673	73.75
626.879	78.75
627.086	96.75
627.293	72.75
627.499	83.75
627.706	70.75
627.912	72.75
628.119	71.75
628.325	65.75
628.532	68.75
628.738	91.75
628.945	81.75
629.151	81.75
629.357	97.75
629.564	78.75
629.77	81.75
629.976	84.75
630.183	73.75
630.389	80.75
630.595	93.75
630.802	76.75
631.008	84.75
631.214	75.75
631.42	73.75
631.627	81.75
631.833	75.75
632.039	79.75
632.245	79.75
632.451	72.75
632.657	75.75
632.863	83.75
633.069	59.75
633.275	84.75
633.481	79.75
633.688	83.75
633.893	77.75
634.099	90.75
634.305	69.75
634.511	85.75
634.717	80.75
634.923	72.75
635.129	75.75
635.335	84.75
635.541	82.75
635.747	75.75
635.952	75.75
636.158	74.75
636.364	83.75
636.57	65.75
636.775	71.75
636.981	83.75
637.187	69.75
637.392	63.75
637.598	66.75
637.804	76.75
638.009	77.75
638.215	64.75
638.421	70.75
638.626	84.75
638.832	83.75
639.037	94.75
639.243	73.75
639.448	80.75
639.654	85.75
639.859	66.75
640.065	58.75
640.27	83.75
640.475	69.75
640.681	79.75
640.886	63.75
641.091	70.75
641.297	65.75
641.502	75.75
641.707	78.75
641.913	90.75
642.118	66.75
642.323	70.75
642.528	95.75
642.733	64.75
642.939	71.75
643.144	74.75
643.349	88.75
643.554	82.75
643.759	85.75
643.964	76.75
644.169	89.75
644.374	89.75
644.579	71.75
644.784	65.75
644.989	81.75
645.194	67.75
645.399	79.75
645.604	78.75
645.809	76.75
646.014	71.75
646.219	70.75
646.423	64.75
646.628	45.75
646.833	77.75
647.038	82.75
647.243	82.75
647.447	95.75
647.652	76.75
647.857	82.75
648.062	71.75
648.266	70.75
648.471	77.75
648.676	95.75
648.88	84.75
649.085	88.75
649.289	88.75
649.494	86.75
649.698	132.75
649.903	99.75
650.107	77.75
650.312	73.75
650.516	85.75
650.721	84.75
650.925	74.75
651.13	63.75
651.334	76.75
651.539	83.75
651.743	78.75
651.947	86.75
652.152	76.75
652.356	61.75
652.56	79.75
652.764	67.75
652.969	74.75
653.173	75.75
653.377	75.75
653.581	74.75
653.785	69.75
653.99	73.75
654.194	74.75
654.398	84.75
654.602	80.75
654.806	81.75
655.01	105.75
655.214	67.75
655.418	71.75
655.622	78.75
655.826	89.75
656.03	81.75
656.234	77.75
656.438	82.75
656.642	90.75
656.846	84.75
657.049	85.75
657.253	82.75
657.457	89.75
657.661	79.75
657.865	88.75
658.068	83.75
658.272	66.75
658.476	84.75
658.68	88.75
658.883	86.75
659.087	60.75
659.291	70.75
659.494	74.75
659.698	67.75
659.901	73.75
660.105	67.75
660.309	72.75
660.512	76.75
660.716	67.75
660.919	73.75
661.123	80.75
661.326	85.75
661.53	87.75
661.733	65.75
661.936	81.75
662.14	76.75
662.343	79.75
662.546	73.75
662.75	75.75
662.953	63.75
663.156	80.75
663.36	68.75
663.563	72.75
663.766	76.75
663.969	71.75
664.173	73.75
664.376	66.75
664.579	81.75
664.782	80.75
664.985	83.75
665.188	86.75
665.391	67.75
665.594	82.75
665.797	67.75
666	73.75
666.203	84.75
666.406	77.75
666.609	85.75
666.812	68.75
667.015	75.75
667.218	80.75
667.421	88.75
667.624	63.75
667.827	71.75
668.03	67.75
668.232	80.75
668.435	79.75
668.638	71.75
668.841	71.75
669.043	86.75
669.246	76.75
669.449	68.75
669.651	87.75
669.854	76.75
670.057	69.75
670.259	64.75
670.462	68.75
670.665	79.75
670.867	69.75
671.07	68.75
671.272	81.75
671.475	84.75
671.677	67.75
671.88	81.75
672.082	63.75
672.284	95.75
672.487	61.75
672.689	80.75
672.892	67.75
