Data from Uncirc_1997_H10_HRD10591_00044.txt Node
Date: Wed Jan 03 11:28:39 EST 2024
User: Yrep
Spectrometer: HR+D1059
Trigger mode: 1
Integration Time (sec): 1.000000E-1
Scans to average: 1
Electric dark correction enabled: true
Nonlinearity correction enabled: false
Boxcar width: 0
XAxis mode: Wavelengths
Number of Pixels in Spectrum: 2048
>>>>>Begin Spectral Data<<<<<
223.165	-6.69
223.4	-6.69
223.635	-6.69
223.869	-26.69
224.104	-37.69
224.338	-19.69
224.573	-7.69
224.808	0.31
225.042	8.31
225.277	-0.69
225.511	-13.69
225.746	15.31
225.98	0.31
226.215	4.31
226.449	3.31
226.683	28.31
226.918	27.31
227.152	25.31
227.387	39.31
227.621	37.31
227.856	51.31
228.09	53.31
228.324	64.31
228.559	57.31
228.793	62.31
229.027	60.31
229.262	58.31
229.496	80.31
229.73	79.31
229.964	63.31
230.199	72.31
230.433	87.31
230.667	78.31
230.901	71.31
231.136	82.31
231.37	58.31
231.604	75.31
231.838	80.31
232.072	90.31
232.306	80.31
232.541	78.31
232.775	90.31
233.009	82.31
233.243	85.31
233.477	80.31
233.711	75.31
233.945	79.31
234.179	73.31
234.413	97.31
234.647	64.31
234.881	92.31
235.115	93.31
235.349	85.31
235.583	79.31
235.817	96.31
236.051	80.31
236.285	71.31
236.519	81.31
236.753	89.31
236.987	72.31
237.221	76.31
237.455	73.31
237.689	83.31
237.922	77.31
238.156	78.31
238.39	65.31
238.624	79.31
238.858	82.31
239.091	81.31
239.325	80.31
239.559	99.31
239.793	83.31
240.027	76.31
240.26	73.31
240.494	76.31
240.728	66.31
240.961	72.31
241.195	87.31
241.429	75.31
241.662	75.31
241.896	90.31
242.13	76.31
242.363	77.31
242.597	87.31
242.83	76.31
243.064	77.31
243.298	92.31
243.531	83.31
243.765	86.31
243.998	83.31
244.232	77.31
244.465	89.31
244.699	75.31
244.932	73.31
245.166	68.31
245.399	63.31
245.633	70.31
245.866	79.31
246.099	79.31
246.333	65.31
246.566	88.31
246.8	78.31
247.033	69.31
247.266	61.31
247.5	84.31
247.733	75.31
247.966	81.31
248.2	69.31
248.433	78.31
248.666	76.31
248.899	88.31
249.133	86.31
249.366	90.31
249.599	91.31
249.832	71.31
250.066	80.31
250.299	86.31
250.532	75.31
250.765	84.31
250.998	72.31
251.231	86.31
251.465	79.31
251.698	76.31
251.931	82.31
252.164	74.31
252.397	84.31
252.63	61.31
252.863	74.31
253.096	82.31
253.329	84.31
253.562	76.31
253.795	91.31
254.028	75.31
254.261	83.31
254.494	79.31
254.727	73.31
254.96	97.31
255.193	74.31
255.426	73.31
255.659	96.31
255.892	91.31
256.124	70.31
256.357	75.31
256.59	77.31
256.823	79.31
257.056	77.31
257.289	91.31
257.521	86.31
257.754	78.31
257.987	80.31
258.22	101.31
258.452	92.31
258.685	88.31
258.918	89.31
259.151	76.31
259.383	92.31
259.616	82.31
259.849	79.31
260.081	87.31
260.314	90.31
260.547	84.31
260.779	84.31
261.012	75.31
261.244	90.31
261.477	67.31
261.71	89.31
261.942	113.31
262.175	96.31
262.407	107.31
262.64	83.31
262.872	91.31
263.105	83.31
263.337	93.31
263.57	80.31
263.802	84.31
264.035	82.31
264.267	82.31
264.499	87.31
264.732	71.31
264.964	91.31
265.197	88.31
265.429	71.31
265.661	84.31
265.894	86.31
266.126	87.31
266.358	91.31
266.591	82.31
266.823	70.31
267.055	87.31
267.287	86.31
267.52	82.31
267.752	102.31
267.984	84.31
268.216	83.31
268.448	92.31
268.681	83.31
268.913	80.31
269.145	92.31
269.377	88.31
269.609	84.31
269.841	75.31
270.073	89.31
270.306	72.31
270.538	84.31
270.77	77.31
271.002	77.31
271.234	84.31
271.466	86.31
271.698	90.31
271.93	92.31
272.162	81.31
272.394	86.31
272.626	87.31
272.858	83.31
273.09	74.31
273.322	83.31
273.553	81.31
273.785	80.31
274.017	95.31
274.249	91.31
274.481	83.31
274.713	76.31
274.945	89.31
275.176	78.31
275.408	91.31
275.64	80.31
275.872	79.31
276.104	88.31
276.335	89.31
276.567	95.31
276.799	91.31
277.031	96.31
277.262	79.31
277.494	85.31
277.726	92.31
277.957	88.31
278.189	85.31
278.421	93.31
278.652	75.31
278.884	77.31
279.115	80.31
279.347	89.31
279.579	71.31
279.81	92.31
280.042	105.31
280.273	85.31
280.505	84.31
280.736	87.31
280.968	77.31
281.199	82.31
281.431	84.31
281.662	78.31
281.894	80.31
282.125	97.31
282.356	115.31
282.588	120.31
282.819	118.31
283.051	85.31
283.282	96.31
283.513	86.31
283.745	90.31
283.976	85.31
284.207	85.31
284.439	86.31
284.67	89.31
284.901	92.31
285.132	88.31
285.364	81.31
285.595	87.31
285.826	82.31
286.057	75.31
286.288	69.31
286.52	77.31
286.751	83.31
286.982	92.31
287.213	79.31
287.444	101.31
287.675	83.31
287.906	69.31
288.138	99.31
288.369	98.31
288.6	84.31
288.831	83.31
289.062	81.31
289.293	85.31
289.524	82.31
289.755	86.31
289.986	82.31
290.217	84.31
290.448	97.31
290.679	84.31
290.91	84.31
291.141	79.31
291.371	79.31
291.602	80.31
291.833	97.31
292.064	95.31
292.295	91.31
292.526	95.31
292.757	79.31
292.987	101.31
293.218	91.31
293.449	84.31
293.68	79.31
293.91	99.31
294.141	94.31
294.372	87.31
294.603	82.31
294.833	84.31
295.064	72.31
295.295	90.31
295.525	103.31
295.756	90.31
295.987	98.31
296.217	131.31
296.448	112.31
296.679	99.31
296.909	91.31
297.14	90.31
297.37	94.31
297.601	91.31
297.831	100.31
298.062	83.31
298.292	84.31
298.523	89.31
298.753	96.31
298.984	101.31
299.214	85.31
299.445	94.31
299.675	95.31
299.905	87.31
300.136	100.31
300.366	96.31
300.597	89.31
300.827	104.31
301.057	99.31
301.288	113.31
301.518	92.31
301.748	74.31
301.979	96.31
302.209	93.31
302.439	91.31
302.669	81.31
302.9	103.31
303.13	100.31
303.36	86.31
303.59	88.31
303.82	95.31
304.051	94.31
304.281	87.31
304.511	89.31
304.741	85.31
304.971	87.31
305.201	92.31
305.431	97.31
305.661	96.31
305.891	95.31
306.121	103.31
306.352	99.31
306.582	116.31
306.812	82.31
307.042	90.31
307.272	88.31
307.502	73.31
307.731	96.31
307.961	89.31
308.191	98.31
308.421	84.31
308.651	97.31
308.881	93.31
309.111	100.31
309.341	106.31
309.571	93.31
309.8	99.31
310.03	104.31
310.26	91.31
310.49	87.31
310.72	92.31
310.949	100.31
311.179	101.31
311.409	98.31
311.639	94.31
311.868	93.31
312.098	96.31
312.328	90.31
312.557	103.31
312.787	96.31
313.017	85.31
313.246	82.31
313.476	85.31
313.706	94.31
313.935	96.31
314.165	107.31
314.394	99.31
314.624	93.31
314.853	101.31
315.083	96.31
315.312	79.31
315.542	87.31
315.771	97.31
316.001	117.31
316.23	84.31
316.46	83.31
316.689	108.31
316.919	98.31
317.148	93.31
317.377	92.31
317.607	87.31
317.836	91.31
318.065	90.31
318.295	101.31
318.524	89.31
318.753	93.31
318.983	76.31
319.212	84.31
319.441	107.31
319.67	105.31
319.9	92.31
320.129	95.31
320.358	89.31
320.587	102.31
320.816	95.31
321.046	103.31
321.275	98.31
321.504	80.31
321.733	93.31
321.962	95.31
322.191	100.31
322.42	97.31
322.649	114.31
322.878	100.31
323.108	116.31
323.337	123.31
323.566	115.31
323.795	129.31
324.024	174.31
324.253	340.31
324.482	655.31
324.71	1313.31
324.939	1770.31
325.168	666.31
325.397	211.31
325.626	129.31
325.855	125.31
326.084	119.31
326.313	112.31
326.542	138.31
326.77	194.31
326.999	384.31
327.228	754.31
327.457	1339.31
327.686	1104.31
327.914	310.31
328.143	163.31
328.372	119.31
328.6	100.31
328.829	121.31
329.058	121.31
329.287	120.31
329.515	93.31
329.744	99.31
329.972	91.31
330.201	119.31
330.43	94.31
330.658	103.31
330.887	118.31
331.115	107.31
331.344	92.31
331.572	104.31
331.801	96.31
332.03	97.31
332.258	99.31
332.486	90.31
332.715	89.31
332.943	95.31
333.172	99.31
333.4	80.31
333.629	93.31
333.857	105.31
334.085	108.31
334.314	104.31
334.542	115.31
334.771	104.31
334.999	103.31
335.227	114.31
335.455	100.31
335.684	96.31
335.912	93.31
336.14	99.31
336.369	82.31
336.597	91.31
336.825	88.31
337.053	92.31
337.281	93.31
337.51	91.31
337.738	78.31
337.966	94.31
338.194	84.31
338.422	90.31
338.65	107.31
338.878	85.31
339.106	77.31
339.334	96.31
339.562	101.31
339.79	96.31
340.018	84.31
340.246	91.31
340.474	88.31
340.702	83.31
340.93	96.31
341.158	96.31
341.386	96.31
341.614	96.31
341.842	95.31
342.07	82.31
342.298	94.31
342.526	97.31
342.754	80.31
342.981	95.31
343.209	89.31
343.437	95.31
343.665	83.31
343.893	95.31
344.12	89.31
344.348	86.31
344.576	85.31
344.804	89.31
345.031	89.31
345.259	89.31
345.487	98.31
345.714	78.31
345.942	86.31
346.17	92.31
346.397	79.31
346.625	89.31
346.853	90.31
347.08	87.31
347.308	89.31
347.535	99.31
347.763	82.31
347.99	97.31
348.218	111.31
348.445	102.31
348.673	110.31
348.9	86.31
349.128	98.31
349.355	86.31
349.583	102.31
349.81	86.31
350.037	94.31
350.265	98.31
350.492	103.31
350.72	105.31
350.947	99.31
351.174	102.31
351.402	93.31
351.629	100.31
351.856	101.31
352.083	103.31
352.311	98.31
352.538	100.31
352.765	97.31
352.992	106.31
353.22	107.31
353.447	83.31
353.674	116.31
353.901	95.31
354.128	93.31
354.355	100.31
354.583	94.31
354.81	96.31
355.037	82.31
355.264	107.31
355.491	80.31
355.718	84.31
355.945	98.31
356.172	98.31
356.399	84.31
356.626	92.31
356.853	95.31
357.08	88.31
357.307	87.31
357.534	102.31
357.761	98.31
357.988	98.31
358.215	105.31
358.441	85.31
358.668	78.31
358.895	96.31
359.122	74.31
359.349	82.31
359.576	101.31
359.802	104.31
360.029	105.31
360.256	104.31
360.483	72.31
360.709	85.31
360.936	94.31
361.163	99.31
361.39	107.31
361.616	111.31
361.843	96.31
362.07	87.31
362.296	94.31
362.523	95.31
362.749	86.31
362.976	85.31
363.203	87.31
363.429	90.31
363.656	84.31
363.882	101.31
364.109	106.31
364.335	95.31
364.562	90.31
364.788	88.31
365.015	87.31
365.241	71.31
365.468	112.31
365.694	95.31
365.92	82.31
366.147	99.31
366.373	88.31
366.599	93.31
366.826	88.31
367.052	96.31
367.278	94.31
367.505	83.31
367.731	99.31
367.957	100.31
368.184	89.31
368.41	97.31
368.636	97.31
368.862	115.31
369.089	91.31
369.315	87.31
369.541	100.31
369.767	88.31
369.993	100.31
370.219	104.31
370.445	95.31
370.672	79.31
370.898	89.31
371.124	79.31
371.35	85.31
371.576	94.31
371.802	87.31
372.028	93.31
372.254	93.31
372.48	95.31
372.706	91.31
372.932	84.31
373.158	101.31
373.384	103.31
373.61	89.31
373.835	96.31
374.061	98.31
374.287	97.31
374.513	99.31
374.739	98.31
374.965	94.31
375.191	86.31
375.416	91.31
375.642	79.31
375.868	96.31
376.094	75.31
376.319	99.31
376.545	96.31
376.771	82.31
376.997	90.31
377.222	88.31
377.448	85.31
377.674	91.31
377.899	95.31
378.125	88.31
378.35	80.31
378.576	91.31
378.802	87.31
379.027	91.31
379.253	88.31
379.478	77.31
379.704	90.31
379.929	86.31
380.155	112.31
380.38	83.31
380.606	66.31
380.831	88.31
381.057	74.31
381.282	74.31
381.507	80.31
381.733	93.31
381.958	106.31
382.184	98.31
382.409	80.31
382.634	108.31
382.86	95.31
383.085	95.31
383.31	114.31
383.535	104.31
383.761	106.31
383.986	92.31
384.211	100.31
384.436	91.31
384.662	99.31
384.887	99.31
385.112	103.31
385.337	99.31
385.562	104.31
385.787	114.31
386.013	105.31
386.238	123.31
386.463	108.31
386.688	105.31
386.913	100.31
387.138	105.31
387.363	103.31
387.588	105.31
387.813	90.31
388.038	79.31
388.263	97.31
388.488	115.31
388.713	85.31
388.938	101.31
389.163	92.31
389.387	93.31
389.612	100.31
389.837	89.31
390.062	79.31
390.287	98.31
390.512	83.31
390.736	75.31
390.961	82.31
391.186	89.31
391.411	101.31
391.636	84.31
391.86	90.31
392.085	89.31
392.31	87.31
392.534	95.31
392.759	85.31
392.984	84.31
393.208	82.31
393.433	89.31
393.658	83.31
393.882	86.31
394.107	78.31
394.331	80.31
394.556	94.31
394.78	79.31
395.005	83.31
395.229	72.31
395.454	100.31
395.678	89.31
395.903	94.31
396.127	75.31
396.352	77.31
396.576	89.31
396.801	87.31
397.025	90.31
397.249	83.31
397.474	89.31
397.698	87.31
397.922	85.31
398.147	99.31
398.371	92.31
398.595	94.31
398.82	96.31
399.044	76.31
399.268	96.31
399.492	90.31
399.717	81.31
399.941	95.31
400.165	91.31
400.389	85.31
400.613	81.31
400.837	88.31
401.062	91.31
401.286	100.31
401.51	88.31
401.734	93.31
401.958	91.31
402.182	99.31
402.406	136.31
402.63	107.31
402.854	78.31
403.078	88.31
403.302	95.31
403.526	91.31
403.75	104.31
403.974	92.31
404.198	79.31
404.422	101.31
404.645	85.31
404.869	83.31
405.093	88.31
405.317	79.31
405.541	94.31
405.765	103.31
405.988	100.31
406.212	145.31
406.436	183.31
406.66	133.31
406.883	88.31
407.107	107.31
407.331	99.31
407.555	96.31
407.778	98.31
408.002	96.31
408.226	90.31
408.449	87.31
408.673	95.31
408.896	79.31
409.12	83.31
409.344	92.31
409.567	89.31
409.791	82.31
410.014	93.31
410.238	90.31
410.461	86.31
410.685	94.31
410.908	107.31
411.132	94.31
411.355	98.31
411.578	98.31
411.802	91.31
412.025	92.31
412.249	98.31
412.472	88.31
412.695	98.31
412.919	89.31
413.142	90.31
413.365	95.31
413.589	97.31
413.812	91.31
414.035	98.31
414.258	98.31
414.482	84.31
414.705	90.31
414.928	101.31
415.151	94.31
415.374	99.31
415.597	83.31
415.821	82.31
416.044	91.31
416.267	82.31
416.49	84.31
416.713	89.31
416.936	89.31
417.159	100.31
417.382	106.31
417.605	92.31
417.828	98.31
418.051	94.31
418.274	97.31
418.497	74.31
418.72	93.31
418.943	96.31
419.166	80.31
419.389	81.31
419.611	81.31
419.834	80.31
420.057	95.31
420.28	79.31
420.503	90.31
420.726	87.31
420.948	83.31
421.171	94.31
421.394	88.31
421.617	90.31
421.839	105.31
422.062	96.31
422.285	97.31
422.507	104.31
422.73	100.31
422.953	92.31
423.175	83.31
423.398	90.31
423.621	87.31
423.843	95.31
424.066	96.31
424.288	75.31
424.511	87.31
424.733	79.31
424.956	101.31
425.178	99.31
425.401	111.31
425.623	92.31
425.846	90.31
426.068	89.31
426.291	104.31
426.513	89.31
426.735	91.31
426.958	87.31
427.18	92.31
427.402	110.31
427.625	135.31
427.847	119.31
428.069	92.31
428.292	95.31
428.514	97.31
428.736	84.31
428.958	83.31
429.181	77.31
429.403	77.31
429.625	80.31
429.847	78.31
430.069	105.31
430.292	89.31
430.514	78.31
430.736	87.31
430.958	88.31
431.18	101.31
431.402	77.31
431.624	90.31
431.846	97.31
432.068	83.31
432.29	78.31
432.512	85.31
432.734	84.31
432.956	88.31
433.178	102.31
433.4	87.31
433.622	83.31
433.844	79.31
434.066	82.31
434.287	82.31
434.509	89.31
434.731	81.31
434.953	88.31
435.175	95.31
435.397	78.31
435.618	89.31
435.84	98.31
436.062	110.31
436.284	110.31
436.505	87.31
436.727	98.31
436.949	97.31
437.17	98.31
437.392	92.31
437.614	99.31
437.835	96.31
438.057	96.31
438.278	100.31
438.5	101.31
438.721	127.31
438.943	98.31
439.165	88.31
439.386	76.31
439.608	87.31
439.829	106.31
440.05	117.31
440.272	120.31
440.493	98.31
440.715	77.31
440.936	86.31
441.158	96.31
441.379	88.31
441.6	90.31
441.822	91.31
442.043	93.31
442.264	98.31
442.486	108.31
442.707	93.31
442.928	98.31
443.149	110.31
443.371	112.31
443.592	91.31
443.813	103.31
444.034	97.31
444.255	91.31
444.476	92.31
444.698	93.31
444.919	90.31
445.14	119.31
445.361	117.31
445.582	98.31
445.803	121.31
446.024	120.31
446.245	118.31
446.466	114.31
446.687	89.31
446.908	84.31
447.129	81.31
447.35	89.31
447.571	84.31
447.792	85.31
448.013	99.31
448.234	83.31
448.455	102.31
448.675	103.31
448.896	112.31
449.117	74.31
449.338	100.31
449.559	126.31
449.779	111.31
450	82.31
450.221	87.31
450.442	98.31
450.662	78.31
450.883	109.31
451.104	100.31
451.324	91.31
451.545	87.31
451.766	68.31
451.986	84.31
452.207	95.31
452.428	79.31
452.648	100.31
452.869	110.31
453.089	108.31
453.31	101.31
453.53	81.31
453.751	100.31
453.971	92.31
454.192	111.31
454.412	80.31
454.633	81.31
454.853	89.31
455.073	94.31
455.294	83.31
455.514	87.31
455.734	85.31
455.955	81.31
456.175	91.31
456.395	87.31
456.616	77.31
456.836	82.31
457.056	90.31
457.276	88.31
457.497	101.31
457.717	85.31
457.937	92.31
458.157	69.31
458.377	89.31
458.598	89.31
458.818	148.31
459.038	133.31
459.258	96.31
459.478	81.31
459.698	78.31
459.918	93.31
460.138	99.31
460.358	79.31
460.578	80.31
460.798	97.31
461.018	102.31
461.238	106.31
461.458	90.31
461.678	93.31
461.898	94.31
462.118	86.31
462.338	83.31
462.558	83.31
462.777	93.31
462.997	90.31
463.217	77.31
463.437	84.31
463.657	83.31
463.876	81.31
464.096	82.31
464.316	98.31
464.536	93.31
464.755	96.31
464.975	108.31
465.195	142.31
465.414	141.31
465.634	100.31
465.854	94.31
466.073	88.31
466.293	87.31
466.512	77.31
466.732	92.31
466.951	99.31
467.171	97.31
467.391	104.31
467.61	113.31
467.829	87.31
468.049	87.31
468.268	88.31
468.488	87.31
468.707	87.31
468.927	93.31
469.146	78.31
469.365	103.31
469.585	90.31
469.804	77.31
470.023	87.31
470.243	108.31
470.462	80.31
470.681	108.31
470.901	78.31
471.12	78.31
471.339	97.31
471.558	77.31
471.777	91.31
471.997	82.31
472.216	94.31
472.435	87.31
472.654	88.31
472.873	100.31
473.092	73.31
473.311	80.31
473.53	91.31
473.749	83.31
473.968	99.31
474.187	96.31
474.406	97.31
474.625	83.31
474.844	92.31
475.063	97.31
475.282	94.31
475.501	89.31
475.72	88.31
475.939	76.31
476.158	94.31
476.377	87.31
476.596	93.31
476.814	100.31
477.033	98.31
477.252	86.31
477.471	105.31
477.69	101.31
477.908	93.31
478.127	83.31
478.346	97.31
478.564	85.31
478.783	92.31
479.002	108.31
479.22	90.31
479.439	105.31
479.658	94.31
479.876	102.31
480.095	98.31
480.313	87.31
480.532	92.31
480.751	93.31
480.969	98.31
481.188	93.31
481.406	95.31
481.624	96.31
481.843	99.31
482.061	90.31
482.28	85.31
482.498	87.31
482.717	83.31
482.935	90.31
483.153	99.31
483.372	97.31
483.59	96.31
483.808	88.31
484.027	95.31
484.245	107.31
484.463	96.31
484.681	83.31
484.9	98.31
485.118	93.31
485.336	81.31
485.554	96.31
485.772	79.31
485.99	84.31
486.209	106.31
486.427	106.31
486.645	109.31
486.863	99.31
487.081	85.31
487.299	100.31
487.517	79.31
487.735	95.31
487.953	93.31
488.171	102.31
488.389	100.31
488.607	97.31
488.825	92.31
489.043	80.31
489.261	86.31
489.479	79.31
489.696	85.31
489.914	84.31
490.132	81.31
490.35	84.31
490.568	91.31
490.786	87.31
491.003	100.31
491.221	84.31
491.439	77.31
491.657	87.31
491.874	84.31
492.092	81.31
492.31	100.31
492.527	86.31
492.745	91.31
492.963	90.31
493.18	85.31
493.398	98.31
493.615	90.31
493.833	101.31
494.05	84.31
494.268	87.31
494.485	83.31
494.703	95.31
494.92	86.31
495.138	84.31
495.355	100.31
495.573	101.31
495.79	97.31
496.008	102.31
496.225	87.31
496.442	87.31
496.66	92.31
496.877	88.31
497.094	86.31
497.312	89.31
497.529	87.31
497.746	81.31
497.963	90.31
498.181	92.31
498.398	96.31
498.615	104.31
498.832	100.31
499.049	109.31
499.267	87.31
499.484	95.31
499.701	80.31
499.918	85.31
500.135	91.31
500.352	92.31
500.569	89.31
500.786	92.31
501.003	104.31
501.22	84.31
501.437	84.31
501.654	99.31
501.871	96.31
502.088	100.31
502.305	77.31
502.522	105.31
502.739	99.31
502.956	87.31
503.172	99.31
503.389	95.31
503.606	100.31
503.823	105.31
504.04	92.31
504.256	84.31
504.473	87.31
504.69	93.31
504.907	99.31
505.123	88.31
505.34	89.31
505.557	84.31
505.773	88.31
505.99	92.31
506.207	85.31
506.423	68.31
506.64	96.31
506.856	87.31
507.073	84.31
507.289	85.31
507.506	93.31
507.722	96.31
507.939	101.31
508.155	100.31
508.372	101.31
508.588	87.31
508.805	107.31
509.021	96.31
509.238	96.31
509.454	106.31
509.67	99.31
509.887	114.31
510.103	120.31
510.319	185.31
510.536	636.31
510.752	1907.31
510.968	558.31
511.184	142.31
511.401	106.31
511.617	108.31
511.833	90.31
512.049	93.31
512.265	90.31
512.481	84.31
512.698	94.31
512.914	89.31
513.13	78.31
513.346	96.31
513.562	96.31
513.778	87.31
513.994	95.31
514.21	96.31
514.426	118.31
514.642	116.31
514.858	123.31
515.074	154.31
515.29	373.31
515.506	1146.31
515.721	450.31
515.937	139.31
516.153	105.31
516.369	101.31
516.585	103.31
516.801	92.31
517.016	88.31
517.232	98.31
517.448	87.31
517.664	97.31
517.879	98.31
518.095	98.31
518.311	85.31
518.527	96.31
518.742	100.31
518.958	99.31
519.173	101.31
519.389	88.31
519.605	91.31
519.82	95.31
520.036	93.31
520.251	108.31
520.467	114.31
520.682	103.31
520.898	112.31
521.113	115.31
521.329	130.31
521.544	164.31
521.76	460.31
521.975	1901.31
522.19	1128.31
522.406	259.31
522.621	114.31
522.836	102.31
523.052	100.31
523.267	95.31
523.482	82.31
523.698	102.31
523.913	119.31
524.128	98.31
524.343	99.31
524.559	98.31
524.774	92.31
524.989	91.31
525.204	106.31
525.419	85.31
525.634	87.31
525.849	93.31
526.064	92.31
526.28	85.31
526.495	98.31
526.71	79.31
526.925	90.31
527.14	85.31
527.355	96.31
527.57	101.31
527.785	98.31
527.999	96.31
528.214	100.31
528.429	108.31
528.644	104.31
528.859	91.31
529.074	97.31
529.289	122.31
529.503	153.31
529.718	103.31
529.933	97.31
530.148	97.31
530.363	112.31
530.577	91.31
530.792	103.31
531.007	89.31
531.221	99.31
531.436	96.31
531.651	98.31
531.865	87.31
532.08	91.31
532.295	85.31
532.509	92.31
532.724	87.31
532.938	93.31
533.153	98.31
533.367	88.31
533.582	87.31
533.796	81.31
534.011	98.31
534.225	95.31
534.44	80.31
534.654	92.31
534.868	91.31
535.083	95.31
535.297	92.31
535.511	85.31
535.726	91.31
535.94	97.31
536.154	100.31
536.369	93.31
536.583	79.31
536.797	90.31
537.011	85.31
537.225	103.31
537.44	91.31
537.654	87.31
537.868	67.31
538.082	98.31
538.296	85.31
538.51	91.31
538.724	80.31
538.938	89.31
539.153	103.31
539.367	105.31
539.581	104.31
539.795	100.31
540.009	91.31
540.222	94.31
540.436	102.31
540.65	89.31
540.864	94.31
541.078	103.31
541.292	84.31
541.506	99.31
541.72	85.31
541.934	91.31
542.147	93.31
542.361	84.31
542.575	89.31
542.789	82.31
543.002	88.31
543.216	80.31
543.43	98.31
543.644	91.31
543.857	95.31
544.071	96.31
544.285	100.31
544.498	90.31
544.712	94.31
544.925	96.31
545.139	101.31
545.352	92.31
545.566	93.31
545.779	100.31
545.993	84.31
546.206	89.31
546.42	85.31
546.633	90.31
546.847	94.31
547.06	94.31
547.274	84.31
547.487	94.31
547.7	89.31
547.914	82.31
548.127	87.31
548.34	86.31
548.554	77.31
548.767	94.31
548.98	79.31
549.193	83.31
549.407	97.31
549.62	83.31
549.833	82.31
550.046	100.31
550.259	90.31
550.473	99.31
550.686	88.31
550.899	96.31
551.112	77.31
551.325	100.31
551.538	90.31
551.751	99.31
551.964	94.31
552.177	88.31
552.39	83.31
552.603	98.31
552.816	67.31
553.029	96.31
553.242	94.31
553.455	94.31
553.667	89.31
553.88	93.31
554.093	101.31
554.306	109.31
554.519	97.31
554.732	87.31
554.944	88.31
555.157	93.31
555.37	97.31
555.583	88.31
555.795	107.31
556.008	83.31
556.221	92.31
556.433	94.31
556.646	93.31
556.859	92.31
557.071	82.31
557.284	85.31
557.496	97.31
557.709	98.31
557.921	82.31
558.134	80.31
558.346	91.31
558.559	86.31
558.771	88.31
558.984	81.31
559.196	77.31
559.409	90.31
559.621	87.31
559.833	89.31
560.046	100.31
560.258	78.31
560.47	87.31
560.683	85.31
560.895	90.31
561.107	79.31
561.32	87.31
561.532	95.31
561.744	89.31
561.956	86.31
562.168	90.31
562.381	86.31
562.593	84.31
562.805	98.31
563.017	87.31
563.229	91.31
563.441	100.31
563.653	93.31
563.865	92.31
564.077	84.31
564.289	94.31
564.501	81.31
564.713	87.31
564.925	105.31
565.137	88.31
565.349	92.31
565.561	80.31
565.773	96.31
565.985	86.31
566.197	105.31
566.408	97.31
566.62	98.31
566.832	98.31
567.044	96.31
567.255	88.31
567.467	102.31
567.679	77.31
567.891	82.31
568.102	81.31
568.314	81.31
568.526	69.31
568.737	84.31
568.949	84.31
569.161	95.31
569.372	100.31
569.584	94.31
569.795	90.31
570.007	108.31
570.218	212.31
570.43	124.31
570.641	105.31
570.853	84.31
571.064	96.31
571.276	90.31
571.487	93.31
571.698	81.31
571.91	91.31
572.121	90.31
572.333	84.31
572.544	94.31
572.755	92.31
572.966	77.31
573.178	95.31
573.389	96.31
573.6	95.31
573.811	100.31
574.023	108.31
574.234	82.31
574.445	88.31
574.656	89.31
574.867	87.31
575.078	90.31
575.289	83.31
575.501	68.31
575.712	92.31
575.923	91.31
576.134	97.31
576.345	98.31
576.556	94.31
576.767	84.31
576.978	84.31
577.188	88.31
577.399	86.31
577.61	98.31
577.821	101.31
578.032	114.31
578.243	237.31
578.454	629.31
578.665	206.31
578.875	103.31
579.086	100.31
579.297	94.31
579.508	98.31
579.718	92.31
579.929	85.31
580.14	86.31
580.35	89.31
580.561	75.31
580.772	92.31
580.982	86.31
581.193	84.31
581.403	81.31
581.614	80.31
581.825	78.31
582.035	91.31
582.246	93.31
582.456	77.31
582.667	95.31
582.877	83.31
583.087	83.31
583.298	79.31
583.508	93.31
583.719	82.31
583.929	91.31
584.139	100.31
584.35	96.31
584.56	104.31
584.77	90.31
584.981	82.31
585.191	99.31
585.401	89.31
585.611	71.31
585.821	78.31
586.032	97.31
586.242	94.31
586.452	77.31
586.662	91.31
586.872	77.31
587.082	79.31
587.292	104.31
587.502	90.31
587.713	97.31
587.923	90.31
588.133	91.31
588.343	90.31
588.553	81.31
588.762	74.31
588.972	93.31
589.182	87.31
589.392	93.31
589.602	76.31
589.812	88.31
590.022	93.31
590.232	89.31
590.441	76.31
590.651	83.31
590.861	90.31
591.071	83.31
591.281	74.31
591.49	85.31
591.7	67.31
591.91	90.31
592.119	65.31
592.329	104.31
592.539	83.31
592.748	95.31
592.958	81.31
593.167	79.31
593.377	89.31
593.587	100.31
593.796	95.31
594.006	78.31
594.215	85.31
594.424	104.31
594.634	87.31
594.843	80.31
595.053	91.31
595.262	97.31
595.472	94.31
595.681	86.31
595.89	84.31
596.1	86.31
596.309	91.31
596.518	85.31
596.727	83.31
596.937	104.31
597.146	98.31
597.355	99.31
597.564	87.31
597.774	105.31
597.983	79.31
598.192	89.31
598.401	80.31
598.61	94.31
598.819	98.31
599.028	92.31
599.237	82.31
599.446	85.31
599.655	76.31
599.864	83.31
600.073	75.31
600.282	106.31
600.491	94.31
600.7	97.31
600.909	87.31
601.118	77.31
601.327	100.31
601.536	95.31
601.745	100.31
601.953	95.31
602.162	94.31
602.371	85.31
602.58	93.31
602.789	81.31
602.997	81.31
603.206	82.31
603.415	84.31
603.623	87.31
603.832	88.31
604.041	95.31
604.249	111.31
604.458	84.31
604.666	78.31
604.875	78.31
605.084	85.31
605.292	87.31
605.501	82.31
605.709	103.31
605.918	100.31
606.126	95.31
606.334	96.31
606.543	89.31
606.751	79.31
606.96	84.31
607.168	82.31
607.376	90.31
607.585	87.31
607.793	88.31
608.001	93.31
608.21	90.31
608.418	93.31
608.626	80.31
608.834	78.31
609.043	96.31
609.251	85.31
609.459	80.31
609.667	92.31
609.875	78.31
610.083	86.31
610.291	103.31
610.499	87.31
610.707	86.31
610.916	86.31
611.124	94.31
611.332	88.31
611.54	88.31
611.748	93.31
611.955	76.31
612.163	84.31
612.371	87.31
612.579	89.31
612.787	81.31
612.995	101.31
613.203	84.31
613.411	83.31
613.618	94.31
613.826	79.31
614.034	84.31
614.242	79.31
614.449	85.31
614.657	89.31
614.865	95.31
615.072	87.31
615.28	98.31
615.488	93.31
615.695	97.31
615.903	89.31
616.111	100.31
616.318	103.31
616.526	104.31
616.733	94.31
616.941	80.31
617.148	93.31
617.356	91.31
617.563	95.31
617.771	93.31
617.978	87.31
618.185	96.31
618.393	85.31
618.6	98.31
618.807	91.31
619.015	93.31
619.222	86.31
619.429	97.31
619.637	94.31
619.844	82.31
620.051	84.31
620.258	87.31
620.466	91.31
620.673	86.31
620.88	85.31
621.087	89.31
621.294	78.31
621.501	79.31
621.708	75.31
621.915	90.31
622.122	88.31
622.329	87.31
622.536	79.31
622.743	86.31
622.95	90.31
623.157	71.31
623.364	83.31
623.571	89.31
623.778	91.31
623.985	94.31
624.192	90.31
624.399	97.31
624.606	96.31
624.812	82.31
625.019	78.31
625.226	77.31
625.433	96.31
625.639	92.31
625.846	88.31
626.053	75.31
626.259	81.31
626.466	82.31
626.673	98.31
626.879	80.31
627.086	93.31
627.293	94.31
627.499	80.31
627.706	90.31
627.912	84.31
628.119	92.31
628.325	84.31
628.532	79.31
628.738	87.31
628.945	85.31
629.151	84.31
629.357	85.31
629.564	96.31
629.77	85.31
629.976	98.31
630.183	88.31
630.389	72.31
630.595	77.31
630.802	83.31
631.008	80.31
631.214	86.31
631.42	91.31
631.627	103.31
631.833	89.31
632.039	78.31
632.245	97.31
632.451	76.31
632.657	75.31
632.863	81.31
633.069	89.31
633.275	84.31
633.481	89.31
633.688	91.31
633.893	82.31
634.099	79.31
634.305	84.31
634.511	88.31
634.717	102.31
634.923	84.31
635.129	71.31
635.335	87.31
635.541	88.31
635.747	75.31
635.952	85.31
636.158	96.31
636.364	92.31
636.57	84.31
636.775	90.31
636.981	92.31
637.187	81.31
637.392	83.31
637.598	74.31
637.804	91.31
638.009	85.31
638.215	93.31
638.421	87.31
638.626	87.31
638.832	95.31
639.037	81.31
639.243	93.31
639.448	91.31
639.654	80.31
639.859	89.31
640.065	86.31
640.27	98.31
640.475	84.31
640.681	84.31
640.886	97.31
641.091	102.31
641.297	98.31
641.502	79.31
641.707	80.31
641.913	86.31
642.118	96.31
642.323	88.31
642.528	85.31
642.733	79.31
642.939	86.31
643.144	72.31
643.349	92.31
643.554	93.31
643.759	97.31
643.964	74.31
644.169	91.31
644.374	81.31
644.579	90.31
644.784	96.31
644.989	92.31
645.194	89.31
645.399	94.31
645.604	90.31
645.809	83.31
646.014	82.31
646.219	83.31
646.423	76.31
646.628	100.31
646.833	82.31
647.038	83.31
647.243	93.31
647.447	99.31
647.652	89.31
647.857	93.31
648.062	78.31
648.266	96.31
648.471	101.31
648.676	109.31
648.88	91.31
649.085	99.31
649.289	90.31
649.494	92.31
649.698	126.31
649.903	101.31
650.107	88.31
650.312	82.31
650.516	84.31
650.721	79.31
650.925	74.31
651.13	88.31
651.334	69.31
651.539	92.31
651.743	80.31
651.947	78.31
652.152	81.31
652.356	94.31
652.56	84.31
652.764	89.31
652.969	95.31
653.173	79.31
653.377	75.31
653.581	90.31
653.785	84.31
653.99	81.31
654.194	77.31
654.398	88.31
654.602	91.31
654.806	92.31
655.01	105.31
655.214	96.31
655.418	90.31
655.622	87.31
655.826	89.31
656.03	97.31
656.234	90.31
656.438	83.31
656.642	105.31
656.846	81.31
657.049	93.31
657.253	86.31
657.457	77.31
657.661	87.31
657.865	85.31
658.068	97.31
658.272	82.31
658.476	83.31
658.68	67.31
658.883	76.31
659.087	91.31
659.291	88.31
659.494	90.31
659.698	78.31
659.901	73.31
660.105	62.31
660.309	100.31
660.512	83.31
660.716	87.31
660.919	90.31
661.123	79.31
661.326	76.31
661.53	80.31
661.733	90.31
661.936	85.31
662.14	91.31
662.343	87.31
662.546	76.31
662.75	88.31
662.953	80.31
663.156	85.31
663.36	73.31
663.563	88.31
663.766	80.31
663.969	87.31
664.173	76.31
664.376	77.31
664.579	79.31
664.782	77.31
664.985	76.31
665.188	80.31
665.391	88.31
665.594	73.31
665.797	85.31
666	85.31
666.203	72.31
666.406	66.31
666.609	77.31
666.812	99.31
667.015	86.31
667.218	92.31
667.421	73.31
667.624	78.31
667.827	88.31
668.03	82.31
668.232	95.31
668.435	91.31
668.638	90.31
668.841	79.31
669.043	51.31
669.246	77.31
669.449	77.31
669.651	83.31
669.854	83.31
670.057	90.31
670.259	86.31
670.462	78.31
670.665	68.31
670.867	91.31
671.07	98.31
671.272	65.31
671.475	72.31
671.677	89.31
671.88	101.31
672.082	81.31
672.284	80.31
672.487	67.31
672.689	88.31
672.892	85.31
