Data from Circ_2002_H10_HRD10591_00016.txt Node
Date: Wed Jan 03 10:41:01 EST 2024
User: Yrep
Spectrometer: HR+D1059
Trigger mode: 1
Integration Time (sec): 1.000000E-1
Scans to average: 1
Electric dark correction enabled: true
Nonlinearity correction enabled: false
Boxcar width: 0
XAxis mode: Wavelengths
Number of Pixels in Spectrum: 2048
>>>>>Begin Spectral Data<<<<<
223.165	-23.19
223.4	-23.19
223.635	-23.19
223.869	-19.19
224.104	-16.19
224.338	-19.19
224.573	-24.19
224.808	-6.19
225.042	-11.19
225.277	-6.19
225.511	-3.19
225.746	8.81
225.98	0.81
226.215	15.81
226.449	20.81
226.683	22.81
226.918	37.81
227.152	21.81
227.387	34.81
227.621	40.81
227.856	44.81
228.09	40.81
228.324	44.81
228.559	66.81
228.793	48.81
229.027	70.81
229.262	69.81
229.496	59.81
229.73	60.81
229.964	76.81
230.199	74.81
230.433	74.81
230.667	82.81
230.901	69.81
231.136	77.81
231.37	79.81
231.604	82.81
231.838	80.81
232.072	82.81
232.306	65.81
232.541	75.81
232.775	86.81
233.009	76.81
233.243	79.81
233.477	80.81
233.711	76.81
233.945	77.81
234.179	66.81
234.413	80.81
234.647	68.81
234.881	76.81
235.115	67.81
235.349	76.81
235.583	81.81
235.817	73.81
236.051	79.81
236.285	78.81
236.519	78.81
236.753	63.81
236.987	74.81
237.221	79.81
237.455	74.81
237.689	74.81
237.922	69.81
238.156	75.81
238.39	77.81
238.624	72.81
238.858	70.81
239.091	80.81
239.325	91.81
239.559	55.81
239.793	69.81
240.027	71.81
240.26	68.81
240.494	74.81
240.728	73.81
240.961	77.81
241.195	79.81
241.429	80.81
241.662	73.81
241.896	80.81
242.13	76.81
242.363	80.81
242.597	73.81
242.83	79.81
243.064	76.81
243.298	60.81
243.531	71.81
243.765	76.81
243.998	81.81
244.232	65.81
244.465	70.81
244.699	73.81
244.932	81.81
245.166	66.81
245.399	61.81
245.633	78.81
245.866	66.81
246.099	76.81
246.333	68.81
246.566	72.81
246.8	79.81
247.033	84.81
247.266	68.81
247.5	83.81
247.733	78.81
247.966	72.81
248.2	75.81
248.433	73.81
248.666	65.81
248.899	72.81
249.133	73.81
249.366	89.81
249.599	87.81
249.832	79.81
250.066	72.81
250.299	94.81
250.532	84.81
250.765	74.81
250.998	80.81
251.231	78.81
251.465	84.81
251.698	83.81
251.931	73.81
252.164	64.81
252.397	74.81
252.63	72.81
252.863	79.81
253.096	80.81
253.329	68.81
253.562	80.81
253.795	85.81
254.028	87.81
254.261	83.81
254.494	85.81
254.727	84.81
254.96	74.81
255.193	64.81
255.426	84.81
255.659	74.81
255.892	70.81
256.124	70.81
256.357	81.81
256.59	89.81
256.823	78.81
257.056	94.81
257.289	75.81
257.521	81.81
257.754	82.81
257.987	86.81
258.22	68.81
258.452	79.81
258.685	70.81
258.918	79.81
259.151	84.81
259.383	73.81
259.616	80.81
259.849	71.81
260.081	76.81
260.314	76.81
260.547	75.81
260.779	93.81
261.012	92.81
261.244	71.81
261.477	84.81
261.71	88.81
261.942	92.81
262.175	94.81
262.407	73.81
262.64	84.81
262.872	75.81
263.105	79.81
263.337	76.81
263.57	71.81
263.802	83.81
264.035	84.81
264.267	82.81
264.499	87.81
264.732	87.81
264.964	85.81
265.197	77.81
265.429	82.81
265.661	77.81
265.894	58.81
266.126	86.81
266.358	71.81
266.591	84.81
266.823	93.81
267.055	78.81
267.287	69.81
267.52	70.81
267.752	77.81
267.984	77.81
268.216	81.81
268.448	85.81
268.681	89.81
268.913	72.81
269.145	88.81
269.377	87.81
269.609	76.81
269.841	92.81
270.073	90.81
270.306	92.81
270.538	80.81
270.77	57.81
271.002	83.81
271.234	86.81
271.466	73.81
271.698	86.81
271.93	82.81
272.162	66.81
272.394	79.81
272.626	82.81
272.858	78.81
273.09	80.81
273.322	85.81
273.553	84.81
273.785	82.81
274.017	72.81
274.249	73.81
274.481	76.81
274.713	94.81
274.945	85.81
275.176	78.81
275.408	83.81
275.64	76.81
275.872	90.81
276.104	85.81
276.335	82.81
276.567	85.81
276.799	97.81
277.031	94.81
277.262	96.81
277.494	94.81
277.726	89.81
277.957	84.81
278.189	79.81
278.421	79.81
278.652	82.81
278.884	83.81
279.115	87.81
279.347	82.81
279.579	76.81
279.81	88.81
280.042	85.81
280.273	89.81
280.505	77.81
280.736	95.81
280.968	84.81
281.199	95.81
281.431	82.81
281.662	91.81
281.894	87.81
282.125	98.81
282.356	113.81
282.588	134.81
282.819	105.81
283.051	85.81
283.282	89.81
283.513	77.81
283.745	82.81
283.976	87.81
284.207	87.81
284.439	96.81
284.67	88.81
284.901	94.81
285.132	90.81
285.364	86.81
285.595	77.81
285.826	77.81
286.057	82.81
286.288	92.81
286.52	89.81
286.751	93.81
286.982	91.81
287.213	82.81
287.444	83.81
287.675	80.81
287.906	93.81
288.138	88.81
288.369	93.81
288.6	95.81
288.831	89.81
289.062	91.81
289.293	78.81
289.524	101.81
289.755	81.81
289.986	70.81
290.217	90.81
290.448	90.81
290.679	105.81
290.91	76.81
291.141	73.81
291.371	86.81
291.602	86.81
291.833	93.81
292.064	91.81
292.295	82.81
292.526	92.81
292.757	81.81
292.987	89.81
293.218	88.81
293.449	84.81
293.68	67.81
293.91	81.81
294.141	75.81
294.372	88.81
294.603	83.81
294.833	88.81
295.064	74.81
295.295	79.81
295.525	67.81
295.756	83.81
295.987	103.81
296.217	120.81
296.448	95.81
296.679	82.81
296.909	77.81
297.14	71.81
297.37	82.81
297.601	81.81
297.831	75.81
298.062	81.81
298.292	93.81
298.523	78.81
298.753	99.81
298.984	96.81
299.214	98.81
299.445	86.81
299.675	83.81
299.905	86.81
300.136	84.81
300.366	83.81
300.597	80.81
300.827	83.81
301.057	86.81
301.288	90.81
301.518	97.81
301.748	88.81
301.979	93.81
302.209	82.81
302.439	85.81
302.669	103.81
302.9	86.81
303.13	98.81
303.36	94.81
303.59	111.81
303.82	101.81
304.051	79.81
304.281	73.81
304.511	84.81
304.741	92.81
304.971	84.81
305.201	86.81
305.431	84.81
305.661	93.81
305.891	67.81
306.121	97.81
306.352	106.81
306.582	99.81
306.812	98.81
307.042	108.81
307.272	90.81
307.502	96.81
307.731	103.81
307.961	85.81
308.191	90.81
308.421	95.81
308.651	86.81
308.881	102.81
309.111	105.81
309.341	89.81
309.571	86.81
309.8	93.81
310.03	86.81
310.26	101.81
310.49	104.81
310.72	102.81
310.949	100.81
311.179	111.81
311.409	102.81
311.639	86.81
311.868	87.81
312.098	95.81
312.328	82.81
312.557	98.81
312.787	91.81
313.017	106.81
313.246	103.81
313.476	81.81
313.706	99.81
313.935	83.81
314.165	97.81
314.394	98.81
314.624	93.81
314.853	90.81
315.083	87.81
315.312	88.81
315.542	95.81
315.771	93.81
316.001	96.81
316.23	88.81
316.46	93.81
316.689	88.81
316.919	87.81
317.148	96.81
317.377	92.81
317.607	81.81
317.836	90.81
318.065	91.81
318.295	80.81
318.524	89.81
318.753	91.81
318.983	99.81
319.212	84.81
319.441	96.81
319.67	95.81
319.9	82.81
320.129	95.81
320.358	78.81
320.587	91.81
320.816	92.81
321.046	93.81
321.275	93.81
321.504	87.81
321.733	90.81
321.962	92.81
322.191	79.81
322.42	87.81
322.649	108.81
322.878	101.81
323.108	114.81
323.337	103.81
323.566	127.81
323.795	132.81
324.024	166.81
324.253	326.81
324.482	656.81
324.71	1326.81
324.939	1706.81
325.168	641.81
325.397	204.81
325.626	128.81
325.855	111.81
326.084	122.81
326.313	105.81
326.542	142.81
326.77	209.81
326.999	373.81
327.228	790.81
327.457	1333.81
327.686	1039.81
327.914	297.81
328.143	164.81
328.372	134.81
328.6	108.81
328.829	109.81
329.058	114.81
329.287	100.81
329.515	96.81
329.744	96.81
329.972	90.81
330.201	87.81
330.43	111.81
330.658	105.81
330.887	119.81
331.115	114.81
331.344	81.81
331.572	104.81
331.801	92.81
332.03	94.81
332.258	90.81
332.486	91.81
332.715	95.81
332.943	85.81
333.172	91.81
333.4	76.81
333.629	91.81
333.857	92.81
334.085	85.81
334.314	92.81
334.542	89.81
334.771	107.81
334.999	78.81
335.227	92.81
335.455	90.81
335.684	88.81
335.912	90.81
336.14	84.81
336.369	93.81
336.597	109.81
336.825	98.81
337.053	105.81
337.281	101.81
337.51	92.81
337.738	98.81
337.966	103.81
338.194	86.81
338.422	92.81
338.65	89.81
338.878	100.81
339.106	88.81
339.334	95.81
339.562	97.81
339.79	82.81
340.018	88.81
340.246	90.81
340.474	89.81
340.702	103.81
340.93	94.81
341.158	78.81
341.386	85.81
341.614	94.81
341.842	90.81
342.07	83.81
342.298	85.81
342.526	88.81
342.754	85.81
342.981	87.81
343.209	69.81
343.437	89.81
343.665	89.81
343.893	80.81
344.12	89.81
344.348	82.81
344.576	90.81
344.804	84.81
345.031	98.81
345.259	111.81
345.487	97.81
345.714	96.81
345.942	94.81
346.17	99.81
346.397	97.81
346.625	95.81
346.853	73.81
347.08	89.81
347.308	87.81
347.535	87.81
347.763	93.81
347.99	98.81
348.218	89.81
348.445	105.81
348.673	101.81
348.9	91.81
349.128	100.81
349.355	93.81
349.583	76.81
349.81	102.81
350.037	96.81
350.265	105.81
350.492	97.81
350.72	92.81
350.947	109.81
351.174	115.81
351.402	105.81
351.629	78.81
351.856	105.81
352.083	97.81
352.311	96.81
352.538	102.81
352.765	95.81
352.992	101.81
353.22	103.81
353.447	108.81
353.674	103.81
353.901	96.81
354.128	97.81
354.355	100.81
354.583	95.81
354.81	98.81
355.037	94.81
355.264	96.81
355.491	83.81
355.718	89.81
355.945	102.81
356.172	92.81
356.399	105.81
356.626	86.81
356.853	86.81
357.08	93.81
357.307	71.81
357.534	87.81
357.761	90.81
357.988	94.81
358.215	104.81
358.441	98.81
358.668	90.81
358.895	84.81
359.122	90.81
359.349	92.81
359.576	84.81
359.802	93.81
360.029	88.81
360.256	106.81
360.483	98.81
360.709	75.81
360.936	90.81
361.163	81.81
361.39	98.81
361.616	100.81
361.843	81.81
362.07	87.81
362.296	86.81
362.523	80.81
362.749	90.81
362.976	96.81
363.203	88.81
363.429	86.81
363.656	85.81
363.882	86.81
364.109	92.81
364.335	85.81
364.562	70.81
364.788	100.81
365.015	95.81
365.241	95.81
365.468	98.81
365.694	104.81
365.92	81.81
366.147	92.81
366.373	96.81
366.599	80.81
366.826	88.81
367.052	94.81
367.278	78.81
367.505	96.81
367.731	81.81
367.957	87.81
368.184	89.81
368.41	101.81
368.636	107.81
368.862	101.81
369.089	98.81
369.315	81.81
369.541	89.81
369.767	89.81
369.993	93.81
370.219	83.81
370.445	81.81
370.672	99.81
370.898	66.81
371.124	87.81
371.35	85.81
371.576	85.81
371.802	96.81
372.028	81.81
372.254	81.81
372.48	91.81
372.706	83.81
372.932	90.81
373.158	90.81
373.384	78.81
373.61	76.81
373.835	91.81
374.061	85.81
374.287	95.81
374.513	84.81
374.739	86.81
374.965	91.81
375.191	77.81
375.416	88.81
375.642	85.81
375.868	88.81
376.094	93.81
376.319	96.81
376.545	77.81
376.771	95.81
376.997	88.81
377.222	92.81
377.448	93.81
377.674	90.81
377.899	103.81
378.125	92.81
378.35	92.81
378.576	104.81
378.802	90.81
379.027	99.81
379.253	85.81
379.478	89.81
379.704	91.81
379.929	114.81
380.155	104.81
380.38	111.81
380.606	97.81
380.831	100.81
381.057	95.81
381.282	100.81
381.507	94.81
381.733	104.81
381.958	104.81
382.184	93.81
382.409	103.81
382.634	98.81
382.86	101.81
383.085	103.81
383.31	86.81
383.535	103.81
383.761	97.81
383.986	100.81
384.211	99.81
384.436	113.81
384.662	97.81
384.887	90.81
385.112	112.81
385.337	114.81
385.562	113.81
385.787	113.81
386.013	117.81
386.238	117.81
386.463	109.81
386.688	114.81
386.913	106.81
387.138	109.81
387.363	104.81
387.588	105.81
387.813	106.81
388.038	131.81
388.263	102.81
388.488	117.81
388.713	85.81
388.938	76.81
389.163	103.81
389.387	98.81
389.612	86.81
389.837	82.81
390.062	110.81
390.287	82.81
390.512	94.81
390.736	85.81
390.961	90.81
391.186	102.81
391.411	93.81
391.636	71.81
391.86	75.81
392.085	84.81
392.31	93.81
392.534	81.81
392.759	81.81
392.984	70.81
393.208	90.81
393.433	106.81
393.658	96.81
393.882	83.81
394.107	93.81
394.331	84.81
394.556	106.81
394.78	92.81
395.005	83.81
395.229	68.81
395.454	82.81
395.678	71.81
395.903	88.81
396.127	94.81
396.352	76.81
396.576	84.81
396.801	96.81
397.025	95.81
397.249	82.81
397.474	101.81
397.698	71.81
397.922	90.81
398.147	92.81
398.371	84.81
398.595	80.81
398.82	85.81
399.044	83.81
399.268	89.81
399.492	87.81
399.717	93.81
399.941	82.81
400.165	95.81
400.389	91.81
400.613	85.81
400.837	91.81
401.062	85.81
401.286	89.81
401.51	94.81
401.734	97.81
401.958	87.81
402.182	101.81
402.406	113.81
402.63	107.81
402.854	86.81
403.078	94.81
403.302	78.81
403.526	71.81
403.75	80.81
403.974	85.81
404.198	96.81
404.422	90.81
404.645	86.81
404.869	89.81
405.093	86.81
405.317	82.81
405.541	82.81
405.765	91.81
405.988	97.81
406.212	142.81
406.436	183.81
406.66	128.81
406.883	88.81
407.107	66.81
407.331	94.81
407.555	82.81
407.778	90.81
408.002	92.81
408.226	78.81
408.449	89.81
408.673	82.81
408.896	110.81
409.12	96.81
409.344	89.81
409.567	95.81
409.791	92.81
410.014	93.81
410.238	92.81
410.461	85.81
410.685	101.81
410.908	96.81
411.132	91.81
411.355	107.81
411.578	94.81
411.802	86.81
412.025	87.81
412.249	83.81
412.472	86.81
412.695	84.81
412.919	81.81
413.142	92.81
413.365	82.81
413.589	89.81
413.812	97.81
414.035	95.81
414.258	87.81
414.482	84.81
414.705	85.81
414.928	86.81
415.151	101.81
415.374	103.81
415.597	74.81
415.821	81.81
416.044	93.81
416.267	84.81
416.49	83.81
416.713	94.81
416.936	96.81
417.159	99.81
417.382	97.81
417.605	83.81
417.828	96.81
418.051	95.81
418.274	79.81
418.497	86.81
418.72	81.81
418.943	85.81
419.166	92.81
419.389	84.81
419.611	97.81
419.834	95.81
420.057	90.81
420.28	84.81
420.503	86.81
420.726	87.81
420.948	94.81
421.171	97.81
421.394	104.81
421.617	89.81
421.839	76.81
422.062	81.81
422.285	77.81
422.507	87.81
422.73	90.81
422.953	100.81
423.175	88.81
423.398	92.81
423.621	78.81
423.843	89.81
424.066	83.81
424.288	83.81
424.511	78.81
424.733	99.81
424.956	89.81
425.178	91.81
425.401	108.81
425.623	103.81
425.846	76.81
426.068	90.81
426.291	86.81
426.513	88.81
426.735	88.81
426.958	93.81
427.18	88.81
427.402	108.81
427.625	117.81
427.847	96.81
428.069	101.81
428.292	82.81
428.514	89.81
428.736	82.81
428.958	85.81
429.181	77.81
429.403	96.81
429.625	94.81
429.847	77.81
430.069	92.81
430.292	92.81
430.514	86.81
430.736	90.81
430.958	90.81
431.18	83.81
431.402	72.81
431.624	79.81
431.846	85.81
432.068	81.81
432.29	84.81
432.512	98.81
432.734	74.81
432.956	92.81
433.178	93.81
433.4	97.81
433.622	91.81
433.844	89.81
434.066	83.81
434.287	90.81
434.509	94.81
434.731	79.81
434.953	84.81
435.175	84.81
435.397	72.81
435.618	78.81
435.84	91.81
436.062	107.81
436.284	101.81
436.505	92.81
436.727	92.81
436.949	82.81
437.17	90.81
437.392	82.81
437.614	78.81
437.835	89.81
438.057	95.81
438.278	108.81
438.5	102.81
438.721	106.81
438.943	92.81
439.165	85.81
439.386	89.81
439.608	89.81
439.829	80.81
440.05	105.81
440.272	128.81
440.493	89.81
440.715	93.81
440.936	82.81
441.158	89.81
441.379	83.81
441.6	90.81
441.822	84.81
442.043	90.81
442.264	97.81
442.486	92.81
442.707	88.81
442.928	87.81
443.149	117.81
443.371	115.81
443.592	96.81
443.813	114.81
444.034	99.81
444.255	86.81
444.476	111.81
444.698	80.81
444.919	93.81
445.14	118.81
445.361	128.81
445.582	98.81
445.803	117.81
446.024	118.81
446.245	112.81
446.466	102.81
446.687	92.81
446.908	81.81
447.129	84.81
447.35	83.81
447.571	94.81
447.792	86.81
448.013	89.81
448.234	92.81
448.455	92.81
448.675	91.81
448.896	85.81
449.117	97.81
449.338	89.81
449.559	120.81
449.779	115.81
450	93.81
450.221	87.81
450.442	80.81
450.662	93.81
450.883	104.81
451.104	105.81
451.324	92.81
451.545	80.81
451.766	77.81
451.986	78.81
452.207	90.81
452.428	91.81
452.648	88.81
452.869	100.81
453.089	90.81
453.31	71.81
453.53	87.81
453.751	89.81
453.971	97.81
454.192	94.81
454.412	78.81
454.633	79.81
454.853	72.81
455.073	79.81
455.294	84.81
455.514	83.81
455.734	77.81
455.955	88.81
456.175	99.81
456.395	79.81
456.616	90.81
456.836	85.81
457.056	83.81
457.276	84.81
457.497	78.81
457.717	84.81
457.937	103.81
458.157	90.81
458.377	105.81
458.598	96.81
458.818	113.81
459.038	133.81
459.258	107.81
459.478	88.81
459.698	75.81
459.918	91.81
460.138	88.81
460.358	83.81
460.578	80.81
460.798	99.81
461.018	79.81
461.238	81.81
461.458	73.81
461.678	94.81
461.898	86.81
462.118	66.81
462.338	72.81
462.558	72.81
462.777	90.81
462.997	96.81
463.217	96.81
463.437	93.81
463.657	106.81
463.876	101.81
464.096	88.81
464.316	77.81
464.536	95.81
464.755	97.81
464.975	103.81
465.195	125.81
465.414	114.81
465.634	92.81
465.854	91.81
466.073	81.81
466.293	70.81
466.512	83.81
466.732	62.81
466.951	91.81
467.171	81.81
467.391	92.81
467.61	94.81
467.829	85.81
468.049	87.81
468.268	72.81
468.488	77.81
468.707	90.81
468.927	78.81
469.146	81.81
469.365	89.81
469.585	92.81
469.804	96.81
470.023	104.81
470.243	107.81
470.462	76.81
470.681	94.81
470.901	87.81
471.12	84.81
471.339	81.81
471.558	97.81
471.777	74.81
471.997	82.81
472.216	71.81
472.435	83.81
472.654	80.81
472.873	93.81
473.092	70.81
473.311	70.81
473.53	86.81
473.749	79.81
473.968	88.81
474.187	98.81
474.406	96.81
474.625	84.81
474.844	79.81
475.063	80.81
475.282	83.81
475.501	93.81
475.72	79.81
475.939	92.81
476.158	81.81
476.377	82.81
476.596	86.81
476.814	102.81
477.033	87.81
477.252	69.81
477.471	93.81
477.69	83.81
477.908	77.81
478.127	82.81
478.346	88.81
478.564	88.81
478.783	82.81
479.002	94.81
479.22	97.81
479.439	106.81
479.658	91.81
479.876	82.81
480.095	88.81
480.313	94.81
480.532	94.81
480.751	89.81
480.969	84.81
481.188	94.81
481.406	113.81
481.624	80.81
481.843	83.81
482.061	85.81
482.28	96.81
482.498	90.81
482.717	80.81
482.935	90.81
483.153	90.81
483.372	80.81
483.59	99.81
483.808	113.81
484.027	93.81
484.245	78.81
484.463	89.81
484.681	90.81
484.9	92.81
485.118	73.81
485.336	89.81
485.554	96.81
485.772	84.81
485.99	93.81
486.209	87.81
486.427	95.81
486.645	110.81
486.863	108.81
487.081	92.81
487.299	114.81
487.517	110.81
487.735	90.81
487.953	85.81
488.171	84.81
488.389	83.81
488.607	106.81
488.825	87.81
489.043	79.81
489.261	91.81
489.479	94.81
489.696	96.81
489.914	88.81
490.132	82.81
490.35	88.81
490.568	78.81
490.786	94.81
491.003	85.81
491.221	88.81
491.439	89.81
491.657	98.81
491.874	83.81
492.092	103.81
492.31	95.81
492.527	93.81
492.745	88.81
492.963	85.81
493.18	90.81
493.398	89.81
493.615	83.81
493.833	84.81
494.05	101.81
494.268	82.81
494.485	85.81
494.703	82.81
494.92	88.81
495.138	95.81
495.355	90.81
495.573	103.81
495.79	99.81
496.008	88.81
496.225	85.81
496.442	83.81
496.66	82.81
496.877	79.81
497.094	101.81
497.312	89.81
497.529	99.81
497.746	90.81
497.963	98.81
498.181	86.81
498.398	83.81
498.615	93.81
498.832	93.81
499.049	100.81
499.267	83.81
499.484	85.81
499.701	109.81
499.918	70.81
500.135	94.81
500.352	78.81
500.569	95.81
500.786	95.81
501.003	87.81
501.22	93.81
501.437	103.81
501.654	84.81
501.871	92.81
502.088	92.81
502.305	85.81
502.522	83.81
502.739	88.81
502.956	76.81
503.172	74.81
503.389	90.81
503.606	98.81
503.823	76.81
504.04	93.81
504.256	82.81
504.473	71.81
504.69	89.81
504.907	95.81
505.123	98.81
505.34	81.81
505.557	78.81
505.773	100.81
505.99	79.81
506.207	89.81
506.423	96.81
506.64	97.81
506.856	79.81
507.073	88.81
507.289	110.81
507.506	119.81
507.722	87.81
507.939	111.81
508.155	97.81
508.372	92.81
508.588	87.81
508.805	82.81
509.021	90.81
509.238	89.81
509.454	103.81
509.67	99.81
509.887	97.81
510.103	131.81
510.319	159.81
510.536	518.81
510.752	1588.81
510.968	488.81
511.184	133.81
511.401	108.81
511.617	92.81
511.833	87.81
512.049	101.81
512.265	86.81
512.481	98.81
512.698	97.81
512.914	87.81
513.13	85.81
513.346	88.81
513.562	84.81
513.778	84.81
513.994	80.81
514.21	104.81
514.426	110.81
514.642	112.81
514.858	117.81
515.074	134.81
515.29	293.81
515.506	968.81
515.721	373.81
515.937	142.81
516.153	103.81
516.369	98.81
516.585	94.81
516.801	82.81
517.016	97.81
517.232	85.81
517.448	104.81
517.664	77.81
517.879	98.81
518.095	95.81
518.311	102.81
518.527	93.81
518.742	88.81
518.958	97.81
519.173	99.81
519.389	85.81
519.605	84.81
519.82	98.81
520.036	116.81
520.251	106.81
520.467	93.81
520.682	99.81
520.898	94.81
521.113	110.81
521.329	125.81
521.544	163.81
521.76	369.81
521.975	1565.81
522.19	972.81
522.406	222.81
522.621	117.81
522.836	100.81
523.052	79.81
523.267	85.81
523.482	82.81
523.698	101.81
523.913	107.81
524.128	98.81
524.343	92.81
524.559	104.81
524.774	85.81
524.989	94.81
525.204	92.81
525.419	90.81
525.634	76.81
525.849	93.81
526.064	88.81
526.28	80.81
526.495	90.81
526.71	86.81
526.925	95.81
527.14	90.81
527.355	89.81
527.57	85.81
527.785	98.81
527.999	88.81
528.214	90.81
528.429	92.81
528.644	100.81
528.859	89.81
529.074	100.81
529.289	109.81
529.503	145.81
529.718	104.81
529.933	78.81
530.148	75.81
530.363	90.81
530.577	82.81
530.792	80.81
531.007	88.81
531.221	98.81
531.436	72.81
531.651	81.81
531.865	92.81
532.08	90.81
532.295	96.81
532.509	97.81
532.724	89.81
532.938	89.81
533.153	90.81
533.367	88.81
533.582	86.81
533.796	94.81
534.011	81.81
534.225	89.81
534.44	82.81
534.654	96.81
534.868	88.81
535.083	88.81
535.297	93.81
535.511	99.81
535.726	101.81
535.94	86.81
536.154	92.81
536.369	88.81
536.583	81.81
536.797	82.81
537.011	85.81
537.225	89.81
537.44	79.81
537.654	73.81
537.868	85.81
538.082	92.81
538.296	92.81
538.51	95.81
538.724	90.81
538.938	89.81
539.153	94.81
539.367	97.81
539.581	90.81
539.795	89.81
540.009	95.81
540.222	98.81
540.436	92.81
540.65	64.81
540.864	78.81
541.078	98.81
541.292	92.81
541.506	114.81
541.72	87.81
541.934	94.81
542.147	90.81
542.361	80.81
542.575	77.81
542.789	84.81
543.002	76.81
543.216	89.81
543.43	80.81
543.644	82.81
543.857	94.81
544.071	83.81
544.285	88.81
544.498	71.81
544.712	70.81
544.925	82.81
545.139	88.81
545.352	78.81
545.566	66.81
545.779	87.81
545.993	91.81
546.206	99.81
546.42	90.81
546.633	84.81
546.847	96.81
547.06	99.81
547.274	98.81
547.487	76.81
547.7	86.81
547.914	79.81
548.127	83.81
548.34	72.81
548.554	80.81
548.767	89.81
548.98	80.81
549.193	69.81
549.407	82.81
549.62	93.81
549.833	73.81
550.046	92.81
550.259	87.81
550.473	90.81
550.686	84.81
550.899	83.81
551.112	78.81
551.325	89.81
551.538	94.81
551.751	86.81
551.964	96.81
552.177	91.81
552.39	71.81
552.603	72.81
552.816	82.81
553.029	82.81
553.242	86.81
553.455	81.81
553.667	92.81
553.88	92.81
554.093	88.81
554.306	79.81
554.519	87.81
554.732	85.81
554.944	75.81
555.157	78.81
555.37	98.81
555.583	99.81
555.795	83.81
556.008	90.81
556.221	85.81
556.433	84.81
556.646	96.81
556.859	92.81
557.071	96.81
557.284	88.81
557.496	87.81
557.709	99.81
557.921	97.81
558.134	93.81
558.346	91.81
558.559	93.81
558.771	84.81
558.984	74.81
559.196	89.81
559.409	89.81
559.621	85.81
559.833	85.81
560.046	85.81
560.258	81.81
560.47	86.81
560.683	87.81
560.895	79.81
561.107	106.81
561.32	85.81
561.532	78.81
561.744	85.81
561.956	98.81
562.168	87.81
562.381	87.81
562.593	94.81
562.805	89.81
563.017	90.81
563.229	84.81
563.441	72.81
563.653	76.81
563.865	80.81
564.077	75.81
564.289	89.81
564.501	88.81
564.713	90.81
564.925	88.81
565.137	85.81
565.349	79.81
565.561	99.81
565.773	77.81
565.985	90.81
566.197	100.81
566.408	91.81
566.62	77.81
566.832	75.81
567.044	102.81
567.255	84.81
567.467	79.81
567.679	83.81
567.891	84.81
568.102	86.81
568.314	92.81
568.526	89.81
568.737	84.81
568.949	78.81
569.161	102.81
569.372	70.81
569.584	93.81
569.795	81.81
570.007	100.81
570.218	174.81
570.43	119.81
570.641	80.81
570.853	77.81
571.064	81.81
571.276	77.81
571.487	84.81
571.698	87.81
571.91	87.81
572.121	83.81
572.333	100.81
572.544	80.81
572.755	89.81
572.966	83.81
573.178	87.81
573.389	76.81
573.6	86.81
573.811	87.81
574.023	93.81
574.234	89.81
574.445	103.81
574.656	77.81
574.867	90.81
575.078	85.81
575.289	85.81
575.501	78.81
575.712	87.81
575.923	77.81
576.134	76.81
576.345	78.81
576.556	88.81
576.767	84.81
576.978	79.81
577.188	87.81
577.399	87.81
577.61	102.81
577.821	86.81
578.032	106.81
578.243	203.81
578.454	506.81
578.665	172.81
578.875	96.81
579.086	94.81
579.297	91.81
579.508	84.81
579.718	96.81
579.929	84.81
580.14	78.81
580.35	88.81
580.561	101.81
580.772	89.81
580.982	78.81
581.193	89.81
581.403	86.81
581.614	99.81
581.825	97.81
582.035	83.81
582.246	85.81
582.456	82.81
582.667	72.81
582.877	84.81
583.087	81.81
583.298	81.81
583.508	76.81
583.719	79.81
583.929	110.81
584.139	93.81
584.35	88.81
584.56	80.81
584.77	93.81
584.981	81.81
585.191	87.81
585.401	78.81
585.611	86.81
585.821	90.81
586.032	97.81
586.242	88.81
586.452	95.81
586.662	76.81
586.872	92.81
587.082	81.81
587.292	60.81
587.502	92.81
587.713	81.81
587.923	87.81
588.133	85.81
588.343	87.81
588.553	78.81
588.762	82.81
588.972	89.81
589.182	194.81
589.392	133.81
589.602	120.81
589.812	151.81
590.022	109.81
590.232	96.81
590.441	86.81
590.651	88.81
590.861	85.81
591.071	76.81
591.281	99.81
591.49	80.81
591.7	74.81
591.91	82.81
592.119	106.81
592.329	86.81
592.539	66.81
592.748	83.81
592.958	94.81
593.167	88.81
593.377	80.81
593.587	80.81
593.796	85.81
594.006	101.81
594.215	81.81
594.424	82.81
594.634	74.81
594.843	89.81
595.053	87.81
595.262	89.81
595.472	84.81
595.681	89.81
595.89	84.81
596.1	89.81
596.309	86.81
596.518	83.81
596.727	69.81
596.937	81.81
597.146	81.81
597.355	97.81
597.564	82.81
597.774	88.81
597.983	89.81
598.192	88.81
598.401	87.81
598.61	78.81
598.819	80.81
599.028	72.81
599.237	82.81
599.446	93.81
599.655	81.81
599.864	87.81
600.073	79.81
600.282	91.81
600.491	79.81
600.7	95.81
600.909	87.81
601.118	70.81
601.327	86.81
601.536	95.81
601.745	86.81
601.953	79.81
602.162	87.81
602.371	83.81
602.58	80.81
602.789	97.81
602.997	68.81
603.206	81.81
603.415	84.81
603.623	89.81
603.832	87.81
604.041	85.81
604.249	78.81
604.458	87.81
604.666	80.81
604.875	90.81
605.084	89.81
605.292	75.81
605.501	78.81
605.709	76.81
605.918	89.81
606.126	86.81
606.334	81.81
606.543	89.81
606.751	97.81
606.96	72.81
607.168	83.81
607.376	83.81
607.585	77.81
607.793	85.81
608.001	85.81
608.21	81.81
608.418	67.81
608.626	94.81
608.834	94.81
609.043	72.81
609.251	73.81
609.459	85.81
609.667	90.81
609.875	86.81
610.083	89.81
610.291	70.81
610.499	70.81
610.707	80.81
610.916	91.81
611.124	77.81
611.332	83.81
611.54	78.81
611.748	82.81
611.955	89.81
612.163	88.81
612.371	88.81
612.579	77.81
612.787	81.81
612.995	79.81
613.203	83.81
613.411	83.81
613.618	78.81
613.826	89.81
614.034	69.81
614.242	84.81
614.449	80.81
614.657	90.81
614.865	83.81
615.072	76.81
615.28	88.81
615.488	89.81
615.695	89.81
615.903	101.81
616.111	99.81
616.318	104.81
616.526	97.81
616.733	92.81
616.941	77.81
617.148	86.81
617.356	70.81
617.563	98.81
617.771	92.81
617.978	73.81
618.185	69.81
618.393	84.81
618.6	83.81
618.807	85.81
619.015	90.81
619.222	87.81
619.429	84.81
619.637	85.81
619.844	84.81
620.051	84.81
620.258	85.81
620.466	82.81
620.673	74.81
620.88	88.81
621.087	85.81
621.294	92.81
621.501	83.81
621.708	74.81
621.915	84.81
622.122	88.81
622.329	85.81
622.536	86.81
622.743	76.81
622.95	62.81
623.157	85.81
623.364	90.81
623.571	93.81
623.778	79.81
623.985	89.81
624.192	83.81
624.399	98.81
624.606	84.81
624.812	80.81
625.019	89.81
625.226	71.81
625.433	83.81
625.639	82.81
625.846	84.81
626.053	78.81
626.259	88.81
626.466	84.81
626.673	89.81
626.879	80.81
627.086	82.81
627.293	79.81
627.499	81.81
627.706	83.81
627.912	85.81
628.119	83.81
628.325	82.81
628.532	85.81
628.738	75.81
628.945	74.81
629.151	73.81
629.357	77.81
629.564	80.81
629.77	94.81
629.976	96.81
630.183	86.81
630.389	86.81
630.595	89.81
630.802	88.81
631.008	79.81
631.214	88.81
631.42	98.81
631.627	87.81
631.833	81.81
632.039	82.81
632.245	86.81
632.451	82.81
632.657	72.81
632.863	85.81
633.069	86.81
633.275	78.81
633.481	71.81
633.688	78.81
633.893	80.81
634.099	88.81
634.305	79.81
634.511	84.81
634.717	79.81
634.923	68.81
635.129	89.81
635.335	81.81
635.541	80.81
635.747	81.81
635.952	74.81
636.158	76.81
636.364	74.81
636.57	76.81
636.775	82.81
636.981	86.81
637.187	83.81
637.392	73.81
637.598	80.81
637.804	77.81
638.009	80.81
638.215	63.81
638.421	86.81
638.626	79.81
638.832	80.81
639.037	77.81
639.243	70.81
639.448	85.81
639.654	82.81
639.859	83.81
640.065	84.81
640.27	83.81
640.475	87.81
640.681	79.81
640.886	64.81
641.091	81.81
641.297	88.81
641.502	77.81
641.707	82.81
641.913	72.81
642.118	88.81
642.323	76.81
642.528	85.81
642.733	84.81
642.939	86.81
643.144	66.81
643.349	78.81
643.554	82.81
643.759	81.81
643.964	81.81
644.169	79.81
644.374	83.81
644.579	71.81
644.784	87.81
644.989	81.81
645.194	89.81
645.399	94.81
645.604	88.81
645.809	82.81
646.014	88.81
646.219	84.81
646.423	66.81
646.628	77.81
646.833	80.81
647.038	72.81
647.243	86.81
647.447	68.81
647.652	77.81
647.857	76.81
648.062	85.81
648.266	79.81
648.471	91.81
648.676	90.81
648.88	81.81
649.085	85.81
649.289	76.81
649.494	92.81
649.698	125.81
649.903	92.81
650.107	83.81
650.312	89.81
650.516	72.81
650.721	80.81
650.925	77.81
651.13	76.81
651.334	84.81
651.539	84.81
651.743	67.81
651.947	76.81
652.152	78.81
652.356	90.81
652.56	81.81
652.764	74.81
652.969	80.81
653.173	65.81
653.377	81.81
653.581	77.81
653.785	90.81
653.99	86.81
654.194	88.81
654.398	77.81
654.602	94.81
654.806	88.81
655.01	90.81
655.214	96.81
655.418	85.81
655.622	60.81
655.826	84.81
656.03	82.81
656.234	90.81
656.438	100.81
656.642	92.81
656.846	88.81
657.049	81.81
657.253	87.81
657.457	86.81
657.661	77.81
657.865	86.81
658.068	70.81
658.272	85.81
658.476	81.81
658.68	82.81
658.883	81.81
659.087	83.81
659.291	81.81
659.494	62.81
659.698	79.81
659.901	72.81
660.105	73.81
660.309	69.81
660.512	64.81
660.716	78.81
660.919	84.81
661.123	89.81
661.326	95.81
661.53	78.81
661.733	78.81
661.936	87.81
662.14	75.81
662.343	80.81
662.546	72.81
662.75	73.81
662.953	95.81
663.156	64.81
663.36	79.81
663.563	83.81
663.766	92.81
663.969	85.81
664.173	72.81
664.376	68.81
664.579	71.81
664.782	74.81
664.985	84.81
665.188	71.81
665.391	76.81
665.594	65.81
665.797	72.81
666	84.81
666.203	81.81
666.406	67.81
666.609	80.81
666.812	69.81
667.015	70.81
667.218	74.81
667.421	77.81
667.624	68.81
667.827	81.81
668.03	72.81
668.232	71.81
668.435	82.81
668.638	72.81
668.841	89.81
669.043	81.81
669.246	78.81
669.449	84.81
669.651	76.81
669.854	76.81
670.057	82.81
670.259	79.81
670.462	83.81
670.665	70.81
670.867	76.81
671.07	70.81
671.272	74.81
671.475	79.81
671.677	78.81
671.88	74.81
672.082	77.81
672.284	74.81
672.487	80.81
672.689	73.81
672.892	73.81
