Data from Circ_2002_H10_HRD10591_00056.txt Node
Date: Wed Jan 03 10:41:09 EST 2024
User: Yrep
Spectrometer: HR+D1059
Trigger mode: 1
Integration Time (sec): 1.000000E-1
Scans to average: 1
Electric dark correction enabled: true
Nonlinearity correction enabled: false
Boxcar width: 0
XAxis mode: Wavelengths
Number of Pixels in Spectrum: 2048
>>>>>Begin Spectral Data<<<<<
223.165	-18.94
223.4	-18.94
223.635	-18.94
223.869	-15.94
224.104	-21.94
224.338	-15.94
224.573	-15.94
224.808	1.06
225.042	-1.94
225.277	-5.94
225.511	-5.94
225.746	5.06
225.98	6.06
226.215	4.06
226.449	25.06
226.683	17.06
226.918	26.06
227.152	18.06
227.387	21.06
227.621	30.06
227.856	30.06
228.09	35.06
228.324	51.06
228.559	47.06
228.793	68.06
229.027	63.06
229.262	47.06
229.496	68.06
229.73	76.06
229.964	73.06
230.199	71.06
230.433	72.06
230.667	66.06
230.901	92.06
231.136	71.06
231.37	60.06
231.604	72.06
231.838	66.06
232.072	77.06
232.306	89.06
232.541	77.06
232.775	67.06
233.009	69.06
233.243	83.06
233.477	90.06
233.711	89.06
233.945	71.06
234.179	90.06
234.413	83.06
234.647	78.06
234.881	78.06
235.115	58.06
235.349	89.06
235.583	81.06
235.817	80.06
236.051	71.06
236.285	82.06
236.519	68.06
236.753	60.06
236.987	84.06
237.221	89.06
237.455	90.06
237.689	86.06
237.922	74.06
238.156	83.06
238.39	78.06
238.624	65.06
238.858	84.06
239.091	67.06
239.325	67.06
239.559	80.06
239.793	68.06
240.027	71.06
240.26	80.06
240.494	88.06
240.728	84.06
240.961	81.06
241.195	75.06
241.429	75.06
241.662	66.06
241.896	70.06
242.13	64.06
242.363	62.06
242.597	66.06
242.83	87.06
243.064	70.06
243.298	79.06
243.531	92.06
243.765	64.06
243.998	75.06
244.232	70.06
244.465	84.06
244.699	83.06
244.932	79.06
245.166	66.06
245.399	76.06
245.633	81.06
245.866	70.06
246.099	79.06
246.333	76.06
246.566	79.06
246.8	67.06
247.033	69.06
247.266	71.06
247.5	82.06
247.733	74.06
247.966	75.06
248.2	85.06
248.433	81.06
248.666	79.06
248.899	96.06
249.133	85.06
249.366	94.06
249.599	89.06
249.832	86.06
250.066	88.06
250.299	61.06
250.532	65.06
250.765	66.06
250.998	89.06
251.231	69.06
251.465	64.06
251.698	84.06
251.931	80.06
252.164	82.06
252.397	85.06
252.63	77.06
252.863	68.06
253.096	80.06
253.329	76.06
253.562	77.06
253.795	96.06
254.028	71.06
254.261	70.06
254.494	84.06
254.727	74.06
254.96	78.06
255.193	85.06
255.426	73.06
255.659	84.06
255.892	80.06
256.124	73.06
256.357	74.06
256.59	84.06
256.823	77.06
257.056	82.06
257.289	74.06
257.521	76.06
257.754	71.06
257.987	65.06
258.22	78.06
258.452	81.06
258.685	77.06
258.918	80.06
259.151	85.06
259.383	77.06
259.616	87.06
259.849	90.06
260.081	82.06
260.314	81.06
260.547	67.06
260.779	82.06
261.012	90.06
261.244	84.06
261.477	74.06
261.71	96.06
261.942	88.06
262.175	105.06
262.407	94.06
262.64	81.06
262.872	73.06
263.105	90.06
263.337	95.06
263.57	86.06
263.802	85.06
264.035	93.06
264.267	72.06
264.499	67.06
264.732	71.06
264.964	73.06
265.197	81.06
265.429	75.06
265.661	77.06
265.894	72.06
266.126	82.06
266.358	73.06
266.591	88.06
266.823	91.06
267.055	79.06
267.287	85.06
267.52	98.06
267.752	94.06
267.984	92.06
268.216	84.06
268.448	85.06
268.681	78.06
268.913	70.06
269.145	94.06
269.377	86.06
269.609	80.06
269.841	78.06
270.073	82.06
270.306	85.06
270.538	66.06
270.77	83.06
271.002	72.06
271.234	65.06
271.466	80.06
271.698	80.06
271.93	84.06
272.162	79.06
272.394	84.06
272.626	84.06
272.858	89.06
273.09	100.06
273.322	71.06
273.553	78.06
273.785	77.06
274.017	78.06
274.249	85.06
274.481	84.06
274.713	94.06
274.945	78.06
275.176	93.06
275.408	85.06
275.64	95.06
275.872	80.06
276.104	107.06
276.335	89.06
276.567	87.06
276.799	97.06
277.031	103.06
277.262	87.06
277.494	99.06
277.726	94.06
277.957	79.06
278.189	65.06
278.421	83.06
278.652	83.06
278.884	83.06
279.115	89.06
279.347	79.06
279.579	75.06
279.81	103.06
280.042	87.06
280.273	90.06
280.505	99.06
280.736	91.06
280.968	103.06
281.199	79.06
281.431	90.06
281.662	85.06
281.894	94.06
282.125	103.06
282.356	112.06
282.588	120.06
282.819	102.06
283.051	100.06
283.282	96.06
283.513	83.06
283.745	80.06
283.976	95.06
284.207	84.06
284.439	72.06
284.67	93.06
284.901	85.06
285.132	83.06
285.364	99.06
285.595	75.06
285.826	99.06
286.057	88.06
286.288	79.06
286.52	101.06
286.751	81.06
286.982	90.06
287.213	85.06
287.444	73.06
287.675	92.06
287.906	82.06
288.138	88.06
288.369	79.06
288.6	73.06
288.831	81.06
289.062	88.06
289.293	80.06
289.524	105.06
289.755	86.06
289.986	76.06
290.217	87.06
290.448	82.06
290.679	76.06
290.91	85.06
291.141	88.06
291.371	75.06
291.602	93.06
291.833	87.06
292.064	82.06
292.295	83.06
292.526	86.06
292.757	96.06
292.987	96.06
293.218	97.06
293.449	97.06
293.68	77.06
293.91	96.06
294.141	87.06
294.372	87.06
294.603	85.06
294.833	80.06
295.064	65.06
295.295	86.06
295.525	88.06
295.756	100.06
295.987	113.06
296.217	110.06
296.448	119.06
296.679	89.06
296.909	95.06
297.14	84.06
297.37	84.06
297.601	87.06
297.831	90.06
298.062	100.06
298.292	88.06
298.523	83.06
298.753	82.06
298.984	87.06
299.214	78.06
299.445	73.06
299.675	87.06
299.905	94.06
300.136	85.06
300.366	88.06
300.597	77.06
300.827	74.06
301.057	85.06
301.288	122.06
301.518	87.06
301.748	84.06
301.979	94.06
302.209	91.06
302.439	71.06
302.669	72.06
302.9	88.06
303.13	99.06
303.36	94.06
303.59	109.06
303.82	100.06
304.051	100.06
304.281	92.06
304.511	95.06
304.741	82.06
304.971	100.06
305.201	82.06
305.431	69.06
305.661	85.06
305.891	90.06
306.121	92.06
306.352	100.06
306.582	96.06
306.812	95.06
307.042	88.06
307.272	89.06
307.502	100.06
307.731	86.06
307.961	94.06
308.191	88.06
308.421	88.06
308.651	74.06
308.881	78.06
309.111	91.06
309.341	88.06
309.571	89.06
309.8	83.06
310.03	90.06
310.26	99.06
310.49	100.06
310.72	102.06
310.949	108.06
311.179	101.06
311.409	98.06
311.639	97.06
311.868	72.06
312.098	85.06
312.328	99.06
312.557	98.06
312.787	102.06
313.017	101.06
313.246	89.06
313.476	89.06
313.706	83.06
313.935	85.06
314.165	88.06
314.394	79.06
314.624	83.06
314.853	95.06
315.083	83.06
315.312	82.06
315.542	82.06
315.771	79.06
316.001	95.06
316.23	95.06
316.46	71.06
316.689	95.06
316.919	100.06
317.148	93.06
317.377	80.06
317.607	89.06
317.836	89.06
318.065	83.06
318.295	92.06
318.524	68.06
318.753	86.06
318.983	86.06
319.212	92.06
319.441	105.06
319.67	104.06
319.9	87.06
320.129	88.06
320.358	75.06
320.587	76.06
320.816	102.06
321.046	94.06
321.275	86.06
321.504	86.06
321.733	90.06
321.962	102.06
322.191	86.06
322.42	83.06
322.649	110.06
322.878	125.06
323.108	105.06
323.337	115.06
323.566	119.06
323.795	143.06
324.024	183.06
324.253	350.06
324.482	746.06
324.71	1495.06
324.939	1975.06
325.168	730.06
325.397	204.06
325.626	136.06
325.855	134.06
326.084	117.06
326.313	104.06
326.542	152.06
326.77	210.06
326.999	407.06
327.228	873.06
327.457	1510.06
327.686	1212.06
327.914	340.06
328.143	174.06
328.372	133.06
328.6	119.06
328.829	105.06
329.058	120.06
329.287	113.06
329.515	110.06
329.744	101.06
329.972	103.06
330.201	106.06
330.43	135.06
330.658	99.06
330.887	124.06
331.115	104.06
331.344	91.06
331.572	110.06
331.801	89.06
332.03	92.06
332.258	85.06
332.486	84.06
332.715	89.06
332.943	116.06
333.172	87.06
333.4	88.06
333.629	111.06
333.857	109.06
334.085	114.06
334.314	120.06
334.542	136.06
334.771	142.06
334.999	111.06
335.227	91.06
335.455	89.06
335.684	80.06
335.912	91.06
336.14	96.06
336.369	97.06
336.597	96.06
336.825	109.06
337.053	100.06
337.281	96.06
337.51	75.06
337.738	98.06
337.966	86.06
338.194	83.06
338.422	84.06
338.65	86.06
338.878	85.06
339.106	92.06
339.334	99.06
339.562	95.06
339.79	75.06
340.018	80.06
340.246	73.06
340.474	87.06
340.702	100.06
340.93	79.06
341.158	94.06
341.386	85.06
341.614	96.06
341.842	96.06
342.07	89.06
342.298	80.06
342.526	96.06
342.754	85.06
342.981	84.06
343.209	80.06
343.437	103.06
343.665	95.06
343.893	90.06
344.12	85.06
344.348	94.06
344.576	86.06
344.804	82.06
345.031	93.06
345.259	92.06
345.487	78.06
345.714	104.06
345.942	101.06
346.17	88.06
346.397	86.06
346.625	94.06
346.853	80.06
347.08	92.06
347.308	92.06
347.535	94.06
347.763	108.06
347.99	96.06
348.218	98.06
348.445	103.06
348.673	81.06
348.9	112.06
349.128	104.06
349.355	92.06
349.583	94.06
349.81	104.06
350.037	86.06
350.265	92.06
350.492	94.06
350.72	81.06
350.947	98.06
351.174	105.06
351.402	112.06
351.629	93.06
351.856	103.06
352.083	85.06
352.311	88.06
352.538	117.06
352.765	110.06
352.992	116.06
353.22	111.06
353.447	117.06
353.674	99.06
353.901	108.06
354.128	101.06
354.355	95.06
354.583	102.06
354.81	97.06
355.037	94.06
355.264	95.06
355.491	88.06
355.718	98.06
355.945	80.06
356.172	103.06
356.399	79.06
356.626	96.06
356.853	105.06
357.08	100.06
357.307	96.06
357.534	94.06
357.761	78.06
357.988	96.06
358.215	103.06
358.441	102.06
358.668	96.06
358.895	82.06
359.122	79.06
359.349	89.06
359.576	65.06
359.802	96.06
360.029	99.06
360.256	108.06
360.483	113.06
360.709	80.06
360.936	89.06
361.163	92.06
361.39	91.06
361.616	89.06
361.843	91.06
362.07	92.06
362.296	82.06
362.523	89.06
362.749	81.06
362.976	79.06
363.203	85.06
363.429	80.06
363.656	83.06
363.882	74.06
364.109	94.06
364.335	78.06
364.562	81.06
364.788	89.06
365.015	92.06
365.241	82.06
365.468	95.06
365.694	96.06
365.92	87.06
366.147	87.06
366.373	77.06
366.599	85.06
366.826	77.06
367.052	92.06
367.278	93.06
367.505	93.06
367.731	95.06
367.957	87.06
368.184	93.06
368.41	93.06
368.636	98.06
368.862	118.06
369.089	129.06
369.315	78.06
369.541	78.06
369.767	83.06
369.993	92.06
370.219	87.06
370.445	89.06
370.672	78.06
370.898	84.06
371.124	77.06
371.35	76.06
371.576	79.06
371.802	85.06
372.028	74.06
372.254	81.06
372.48	97.06
372.706	87.06
372.932	92.06
373.158	75.06
373.384	74.06
373.61	80.06
373.835	81.06
374.061	88.06
374.287	92.06
374.513	88.06
374.739	88.06
374.965	89.06
375.191	86.06
375.416	80.06
375.642	89.06
375.868	84.06
376.094	90.06
376.319	91.06
376.545	89.06
376.771	96.06
376.997	88.06
377.222	88.06
377.448	79.06
377.674	80.06
377.899	87.06
378.125	101.06
378.35	94.06
378.576	102.06
378.802	95.06
379.027	95.06
379.253	95.06
379.478	86.06
379.704	84.06
379.929	93.06
380.155	95.06
380.38	90.06
380.606	92.06
380.831	89.06
381.057	111.06
381.282	88.06
381.507	101.06
381.733	98.06
381.958	95.06
382.184	96.06
382.409	96.06
382.634	108.06
382.86	94.06
383.085	93.06
383.31	110.06
383.535	101.06
383.761	95.06
383.986	80.06
384.211	93.06
384.436	104.06
384.662	92.06
384.887	100.06
385.112	96.06
385.337	95.06
385.562	99.06
385.787	107.06
386.013	110.06
386.238	117.06
386.463	103.06
386.688	105.06
386.913	106.06
387.138	104.06
387.363	86.06
387.588	94.06
387.813	100.06
388.038	98.06
388.263	93.06
388.488	101.06
388.713	103.06
388.938	92.06
389.163	77.06
389.387	101.06
389.612	89.06
389.837	86.06
390.062	77.06
390.287	105.06
390.512	82.06
390.736	93.06
390.961	88.06
391.186	88.06
391.411	84.06
391.636	99.06
391.86	81.06
392.085	76.06
392.31	77.06
392.534	86.06
392.759	90.06
392.984	77.06
393.208	93.06
393.433	89.06
393.658	85.06
393.882	79.06
394.107	68.06
394.331	83.06
394.556	81.06
394.78	81.06
395.005	94.06
395.229	81.06
395.454	92.06
395.678	88.06
395.903	86.06
396.127	87.06
396.352	82.06
396.576	83.06
396.801	100.06
397.025	97.06
397.249	91.06
397.474	79.06
397.698	71.06
397.922	95.06
398.147	93.06
398.371	99.06
398.595	92.06
398.82	84.06
399.044	85.06
399.268	88.06
399.492	71.06
399.717	80.06
399.941	76.06
400.165	99.06
400.389	89.06
400.613	88.06
400.837	84.06
401.062	88.06
401.286	86.06
401.51	95.06
401.734	93.06
401.958	103.06
402.182	124.06
402.406	136.06
402.63	114.06
402.854	92.06
403.078	76.06
403.302	93.06
403.526	87.06
403.75	88.06
403.974	78.06
404.198	76.06
404.422	94.06
404.645	80.06
404.869	90.06
405.093	79.06
405.317	87.06
405.541	90.06
405.765	88.06
405.988	97.06
406.212	148.06
406.436	211.06
406.66	135.06
406.883	92.06
407.107	80.06
407.331	84.06
407.555	94.06
407.778	89.06
408.002	86.06
408.226	90.06
408.449	88.06
408.673	78.06
408.896	105.06
409.12	91.06
409.344	86.06
409.567	101.06
409.791	82.06
410.014	100.06
410.238	92.06
410.461	94.06
410.685	106.06
410.908	89.06
411.132	102.06
411.355	88.06
411.578	88.06
411.802	98.06
412.025	92.06
412.249	88.06
412.472	73.06
412.695	89.06
412.919	96.06
413.142	87.06
413.365	79.06
413.589	113.06
413.812	107.06
414.035	86.06
414.258	79.06
414.482	96.06
414.705	80.06
414.928	84.06
415.151	94.06
415.374	84.06
415.597	93.06
415.821	94.06
416.044	85.06
416.267	97.06
416.49	81.06
416.713	94.06
416.936	88.06
417.159	99.06
417.382	84.06
417.605	89.06
417.828	87.06
418.051	89.06
418.274	88.06
418.497	89.06
418.72	81.06
418.943	97.06
419.166	81.06
419.389	96.06
419.611	101.06
419.834	95.06
420.057	96.06
420.28	91.06
420.503	87.06
420.726	84.06
420.948	88.06
421.171	97.06
421.394	100.06
421.617	90.06
421.839	87.06
422.062	87.06
422.285	92.06
422.507	101.06
422.73	99.06
422.953	89.06
423.175	92.06
423.398	78.06
423.621	85.06
423.843	89.06
424.066	86.06
424.288	73.06
424.511	89.06
424.733	71.06
424.956	93.06
425.178	102.06
425.401	102.06
425.623	103.06
425.846	83.06
426.068	96.06
426.291	95.06
426.513	97.06
426.735	108.06
426.958	101.06
427.18	105.06
427.402	133.06
427.625	149.06
427.847	113.06
428.069	96.06
428.292	96.06
428.514	88.06
428.736	87.06
428.958	83.06
429.181	90.06
429.403	87.06
429.625	70.06
429.847	84.06
430.069	81.06
430.292	91.06
430.514	85.06
430.736	90.06
430.958	80.06
431.18	79.06
431.402	86.06
431.624	93.06
431.846	87.06
432.068	104.06
432.29	82.06
432.512	94.06
432.734	91.06
432.956	98.06
433.178	89.06
433.4	93.06
433.622	97.06
433.844	81.06
434.066	97.06
434.287	90.06
434.509	74.06
434.731	85.06
434.953	90.06
435.175	84.06
435.397	79.06
435.618	93.06
435.84	100.06
436.062	119.06
436.284	114.06
436.505	109.06
436.727	103.06
436.949	95.06
437.17	93.06
437.392	87.06
437.614	93.06
437.835	101.06
438.057	101.06
438.278	110.06
438.5	108.06
438.721	111.06
438.943	88.06
439.165	81.06
439.386	92.06
439.608	95.06
439.829	96.06
440.05	121.06
440.272	146.06
440.493	99.06
440.715	80.06
440.936	87.06
441.158	81.06
441.379	88.06
441.6	82.06
441.822	84.06
442.043	88.06
442.264	93.06
442.486	94.06
442.707	81.06
442.928	96.06
443.149	133.06
443.371	117.06
443.592	110.06
443.813	104.06
444.034	110.06
444.255	88.06
444.476	88.06
444.698	67.06
444.919	90.06
445.14	120.06
445.361	120.06
445.582	94.06
445.803	125.06
446.024	120.06
446.245	113.06
446.466	104.06
446.687	78.06
446.908	98.06
447.129	89.06
447.35	69.06
447.571	105.06
447.792	89.06
448.013	97.06
448.234	100.06
448.455	108.06
448.675	109.06
448.896	112.06
449.117	97.06
449.338	109.06
449.559	118.06
449.779	129.06
450	101.06
450.221	84.06
450.442	87.06
450.662	98.06
450.883	98.06
451.104	114.06
451.324	82.06
451.545	80.06
451.766	88.06
451.986	83.06
452.207	94.06
452.428	94.06
452.648	92.06
452.869	105.06
453.089	105.06
453.31	120.06
453.53	96.06
453.751	101.06
453.971	103.06
454.192	96.06
454.412	94.06
454.633	76.06
454.853	80.06
455.073	84.06
455.294	90.06
455.514	90.06
455.734	96.06
455.955	80.06
456.175	77.06
456.395	92.06
456.616	85.06
456.836	72.06
457.056	80.06
457.276	79.06
457.497	89.06
457.717	93.06
457.937	80.06
458.157	90.06
458.377	81.06
458.598	92.06
458.818	122.06
459.038	134.06
459.258	97.06
459.478	91.06
459.698	76.06
459.918	85.06
460.138	94.06
460.358	85.06
460.578	89.06
460.798	80.06
461.018	69.06
461.238	69.06
461.458	78.06
461.678	77.06
461.898	95.06
462.118	84.06
462.338	88.06
462.558	97.06
462.777	96.06
462.997	80.06
463.217	74.06
463.437	80.06
463.657	82.06
463.876	102.06
464.096	97.06
464.316	75.06
464.536	86.06
464.755	86.06
464.975	97.06
465.195	136.06
465.414	125.06
465.634	97.06
465.854	89.06
466.073	85.06
466.293	78.06
466.512	86.06
466.732	91.06
466.951	95.06
467.171	88.06
467.391	97.06
467.61	92.06
467.829	96.06
468.049	99.06
468.268	98.06
468.488	96.06
468.707	84.06
468.927	79.06
469.146	87.06
469.365	85.06
469.585	82.06
469.804	96.06
470.023	89.06
470.243	82.06
470.462	81.06
470.681	98.06
470.901	97.06
471.12	83.06
471.339	78.06
471.558	82.06
471.777	103.06
471.997	86.06
472.216	115.06
472.435	129.06
472.654	93.06
472.873	84.06
473.092	90.06
473.311	89.06
473.53	96.06
473.749	91.06
473.968	100.06
474.187	98.06
474.406	94.06
474.625	79.06
474.844	88.06
475.063	80.06
475.282	90.06
475.501	79.06
475.72	76.06
475.939	102.06
476.158	71.06
476.377	86.06
476.596	83.06
476.814	80.06
477.033	99.06
477.252	80.06
477.471	90.06
477.69	82.06
477.908	90.06
478.127	84.06
478.346	82.06
478.564	90.06
478.783	88.06
479.002	86.06
479.22	94.06
479.439	104.06
479.658	101.06
479.876	94.06
480.095	83.06
480.313	92.06
480.532	92.06
480.751	110.06
480.969	101.06
481.188	192.06
481.406	163.06
481.624	102.06
481.843	90.06
482.061	96.06
482.28	92.06
482.498	68.06
482.717	84.06
482.935	77.06
483.153	70.06
483.372	82.06
483.59	79.06
483.808	95.06
484.027	89.06
484.245	100.06
484.463	86.06
484.681	90.06
484.9	94.06
485.118	95.06
485.336	86.06
485.554	98.06
485.772	100.06
485.99	97.06
486.209	124.06
486.427	102.06
486.645	116.06
486.863	110.06
487.081	105.06
487.299	92.06
487.517	89.06
487.735	87.06
487.953	89.06
488.171	96.06
488.389	93.06
488.607	96.06
488.825	84.06
489.043	88.06
489.261	78.06
489.479	93.06
489.696	74.06
489.914	86.06
490.132	95.06
490.35	90.06
490.568	96.06
490.786	82.06
491.003	73.06
491.221	88.06
491.439	81.06
491.657	96.06
491.874	87.06
492.092	90.06
492.31	84.06
492.527	87.06
492.745	83.06
492.963	91.06
493.18	85.06
493.398	84.06
493.615	84.06
493.833	93.06
494.05	80.06
494.268	89.06
494.485	93.06
494.703	98.06
494.92	84.06
495.138	89.06
495.355	96.06
495.573	100.06
495.79	94.06
496.008	98.06
496.225	82.06
496.442	91.06
496.66	89.06
496.877	85.06
497.094	83.06
497.312	83.06
497.529	80.06
497.746	84.06
497.963	70.06
498.181	85.06
498.398	80.06
498.615	108.06
498.832	92.06
499.049	97.06
499.267	88.06
499.484	102.06
499.701	89.06
499.918	104.06
500.135	98.06
500.352	71.06
500.569	78.06
500.786	76.06
501.003	92.06
501.22	78.06
501.437	99.06
501.654	86.06
501.871	111.06
502.088	90.06
502.305	91.06
502.522	102.06
502.739	75.06
502.956	93.06
503.172	89.06
503.389	109.06
503.606	106.06
503.823	84.06
504.04	86.06
504.256	81.06
504.473	82.06
504.69	80.06
504.907	85.06
505.123	89.06
505.34	82.06
505.557	97.06
505.773	90.06
505.99	89.06
506.207	73.06
506.423	89.06
506.64	80.06
506.856	93.06
507.073	83.06
507.289	94.06
507.506	81.06
507.722	103.06
507.939	113.06
508.155	93.06
508.372	73.06
508.588	94.06
508.805	94.06
509.021	95.06
509.238	97.06
509.454	92.06
509.67	106.06
509.887	110.06
510.103	120.06
510.319	181.06
510.536	650.06
510.752	2021.06
510.968	578.06
511.184	154.06
511.401	97.06
511.617	94.06
511.833	96.06
512.049	81.06
512.265	83.06
512.481	86.06
512.698	92.06
512.914	96.06
513.13	87.06
513.346	71.06
513.562	104.06
513.778	94.06
513.994	93.06
514.21	90.06
514.426	127.06
514.642	108.06
514.858	128.06
515.074	146.06
515.29	400.06
515.506	1278.06
515.721	485.06
515.937	143.06
516.153	108.06
516.369	90.06
516.585	74.06
516.801	88.06
517.016	97.06
517.232	93.06
517.448	92.06
517.664	98.06
517.879	96.06
518.095	88.06
518.311	85.06
518.527	93.06
518.742	82.06
518.958	89.06
519.173	93.06
519.389	76.06
519.605	104.06
519.82	107.06
520.036	93.06
520.251	113.06
520.467	105.06
520.682	96.06
520.898	90.06
521.113	97.06
521.329	127.06
521.544	176.06
521.76	478.06
521.975	2020.06
522.19	1242.06
522.406	269.06
522.621	113.06
522.836	107.06
523.052	93.06
523.267	87.06
523.482	81.06
523.698	104.06
523.913	115.06
524.128	115.06
524.343	98.06
524.559	88.06
524.774	88.06
524.989	101.06
525.204	106.06
525.419	84.06
525.634	86.06
525.849	106.06
526.064	90.06
526.28	90.06
526.495	82.06
526.71	82.06
526.925	85.06
527.14	89.06
527.355	92.06
527.57	80.06
527.785	95.06
527.999	90.06
528.214	104.06
528.429	106.06
528.644	85.06
528.859	85.06
529.074	84.06
529.289	122.06
529.503	167.06
529.718	93.06
529.933	96.06
530.148	102.06
530.363	77.06
530.577	94.06
530.792	87.06
531.007	91.06
531.221	76.06
531.436	84.06
531.651	95.06
531.865	90.06
532.08	85.06
532.295	95.06
532.509	90.06
532.724	82.06
532.938	89.06
533.153	97.06
533.367	85.06
533.582	87.06
533.796	85.06
534.011	92.06
534.225	90.06
534.44	90.06
534.654	93.06
534.868	100.06
535.083	92.06
535.297	67.06
535.511	92.06
535.726	100.06
535.94	87.06
536.154	85.06
536.369	85.06
536.583	69.06
536.797	93.06
537.011	99.06
537.225	85.06
537.44	96.06
537.654	84.06
537.868	100.06
538.082	90.06
538.296	82.06
538.51	88.06
538.724	98.06
538.938	97.06
539.153	112.06
539.367	99.06
539.581	87.06
539.795	100.06
540.009	79.06
540.222	94.06
540.436	96.06
540.65	77.06
540.864	88.06
541.078	71.06
541.292	81.06
541.506	97.06
541.72	82.06
541.934	82.06
542.147	92.06
542.361	84.06
542.575	95.06
542.789	99.06
543.002	74.06
543.216	82.06
543.43	88.06
543.644	94.06
543.857	86.06
544.071	81.06
544.285	82.06
544.498	88.06
544.712	95.06
544.925	96.06
545.139	82.06
545.352	90.06
545.566	91.06
545.779	81.06
545.993	84.06
546.206	96.06
546.42	90.06
546.633	97.06
546.847	95.06
547.06	85.06
547.274	84.06
547.487	78.06
547.7	84.06
547.914	81.06
548.127	83.06
548.34	85.06
548.554	82.06
548.767	82.06
548.98	81.06
549.193	78.06
549.407	88.06
549.62	95.06
549.833	97.06
550.046	94.06
550.259	98.06
550.473	87.06
550.686	85.06
550.899	89.06
551.112	94.06
551.325	87.06
551.538	86.06
551.751	86.06
551.964	76.06
552.177	93.06
552.39	103.06
552.603	89.06
552.816	95.06
553.029	80.06
553.242	96.06
553.455	88.06
553.667	89.06
553.88	93.06
554.093	100.06
554.306	101.06
554.519	100.06
554.732	66.06
554.944	85.06
555.157	85.06
555.37	74.06
555.583	81.06
555.795	77.06
556.008	81.06
556.221	94.06
556.433	88.06
556.646	72.06
556.859	89.06
557.071	96.06
557.284	88.06
557.496	89.06
557.709	106.06
557.921	90.06
558.134	92.06
558.346	96.06
558.559	77.06
558.771	81.06
558.984	90.06
559.196	95.06
559.409	74.06
559.621	73.06
559.833	83.06
560.046	78.06
560.258	88.06
560.47	78.06
560.683	84.06
560.895	80.06
561.107	94.06
561.32	70.06
561.532	85.06
561.744	95.06
561.956	103.06
562.168	98.06
562.381	86.06
562.593	81.06
562.805	76.06
563.017	90.06
563.229	87.06
563.441	94.06
563.653	88.06
563.865	72.06
564.077	75.06
564.289	87.06
564.501	79.06
564.713	89.06
564.925	100.06
565.137	96.06
565.349	89.06
565.561	81.06
565.773	86.06
565.985	81.06
566.197	107.06
566.408	85.06
566.62	89.06
566.832	88.06
567.044	84.06
567.255	80.06
567.467	86.06
567.679	67.06
567.891	74.06
568.102	81.06
568.314	90.06
568.526	94.06
568.737	96.06
568.949	72.06
569.161	86.06
569.372	83.06
569.584	90.06
569.795	98.06
570.007	114.06
570.218	201.06
570.43	124.06
570.641	69.06
570.853	103.06
571.064	79.06
571.276	95.06
571.487	87.06
571.698	91.06
571.91	84.06
572.121	90.06
572.333	67.06
572.544	72.06
572.755	90.06
572.966	89.06
573.178	85.06
573.389	93.06
573.6	90.06
573.811	84.06
574.023	93.06
574.234	82.06
574.445	88.06
574.656	84.06
574.867	78.06
575.078	96.06
575.289	83.06
575.501	101.06
575.712	94.06
575.923	89.06
576.134	86.06
576.345	83.06
576.556	95.06
576.767	75.06
576.978	89.06
577.188	92.06
577.399	85.06
577.61	94.06
577.821	98.06
578.032	100.06
578.243	226.06
578.454	622.06
578.665	193.06
578.875	97.06
579.086	89.06
579.297	78.06
579.508	93.06
579.718	92.06
579.929	86.06
580.14	73.06
580.35	90.06
580.561	97.06
580.772	93.06
580.982	74.06
581.193	95.06
581.403	93.06
581.614	81.06
581.825	92.06
582.035	84.06
582.246	88.06
582.456	80.06
582.667	78.06
582.877	92.06
583.087	80.06
583.298	77.06
583.508	84.06
583.719	87.06
583.929	95.06
584.139	82.06
584.35	79.06
584.56	94.06
584.77	84.06
584.981	99.06
585.191	95.06
585.401	101.06
585.611	82.06
585.821	81.06
586.032	84.06
586.242	74.06
586.452	101.06
586.662	74.06
586.872	80.06
587.082	97.06
587.292	82.06
587.502	57.06
587.713	84.06
587.923	96.06
588.133	94.06
588.343	78.06
588.553	74.06
588.762	95.06
588.972	102.06
589.182	121.06
589.392	116.06
589.602	73.06
589.812	110.06
590.022	89.06
590.232	94.06
590.441	89.06
590.651	94.06
590.861	80.06
591.071	72.06
591.281	81.06
591.49	68.06
591.7	71.06
591.91	97.06
592.119	82.06
592.329	93.06
592.539	82.06
592.748	80.06
592.958	75.06
593.167	80.06
593.377	85.06
593.587	84.06
593.796	86.06
594.006	90.06
594.215	88.06
594.424	88.06
594.634	83.06
594.843	69.06
595.053	77.06
595.262	93.06
595.472	98.06
595.681	78.06
595.89	86.06
596.1	77.06
596.309	85.06
596.518	80.06
596.727	77.06
596.937	86.06
597.146	83.06
597.355	89.06
597.564	84.06
597.774	87.06
597.983	86.06
598.192	81.06
598.401	69.06
598.61	76.06
598.819	85.06
599.028	92.06
599.237	84.06
599.446	75.06
599.655	82.06
599.864	99.06
600.073	86.06
600.282	90.06
600.491	93.06
600.7	81.06
600.909	77.06
601.118	81.06
601.327	77.06
601.536	72.06
601.745	81.06
601.953	89.06
602.162	89.06
602.371	77.06
602.58	80.06
602.789	84.06
602.997	92.06
603.206	83.06
603.415	96.06
603.623	79.06
603.832	78.06
604.041	76.06
604.249	69.06
604.458	82.06
604.666	84.06
604.875	76.06
605.084	72.06
605.292	97.06
605.501	87.06
605.709	86.06
605.918	94.06
606.126	80.06
606.334	85.06
606.543	100.06
606.751	93.06
606.96	82.06
607.168	85.06
607.376	77.06
607.585	91.06
607.793	72.06
608.001	88.06
608.21	81.06
608.418	94.06
608.626	76.06
608.834	74.06
609.043	76.06
609.251	96.06
609.459	77.06
609.667	89.06
609.875	90.06
610.083	76.06
610.291	76.06
610.499	93.06
610.707	77.06
610.916	93.06
611.124	87.06
611.332	70.06
611.54	74.06
611.748	75.06
611.955	75.06
612.163	94.06
612.371	85.06
612.579	72.06
612.787	79.06
612.995	89.06
613.203	93.06
613.411	95.06
613.618	88.06
613.826	99.06
614.034	86.06
614.242	82.06
614.449	90.06
614.657	82.06
614.865	69.06
615.072	76.06
615.28	86.06
615.488	93.06
615.695	81.06
615.903	89.06
616.111	102.06
616.318	102.06
616.526	78.06
616.733	95.06
616.941	79.06
617.148	83.06
617.356	84.06
617.563	75.06
617.771	76.06
617.978	85.06
618.185	74.06
618.393	78.06
618.6	83.06
618.807	75.06
619.015	84.06
619.222	85.06
619.429	79.06
619.637	72.06
619.844	85.06
620.051	89.06
620.258	70.06
620.466	85.06
620.673	75.06
620.88	85.06
621.087	84.06
621.294	82.06
621.501	90.06
621.708	80.06
621.915	78.06
622.122	94.06
622.329	96.06
622.536	96.06
622.743	82.06
622.95	77.06
623.157	92.06
623.364	74.06
623.571	83.06
623.778	81.06
623.985	95.06
624.192	88.06
624.399	86.06
624.606	94.06
624.812	82.06
625.019	82.06
625.226	87.06
625.433	72.06
625.639	81.06
625.846	72.06
626.053	81.06
626.259	89.06
626.466	69.06
626.673	70.06
626.879	86.06
627.086	80.06
627.293	81.06
627.499	80.06
627.706	98.06
627.912	80.06
628.119	79.06
628.325	86.06
628.532	67.06
628.738	79.06
628.945	80.06
629.151	76.06
629.357	74.06
629.564	73.06
629.77	79.06
629.976	87.06
630.183	95.06
630.389	81.06
630.595	78.06
630.802	72.06
631.008	68.06
631.214	82.06
631.42	93.06
631.627	89.06
631.833	79.06
632.039	73.06
632.245	80.06
632.451	83.06
632.657	78.06
632.863	76.06
633.069	75.06
633.275	84.06
633.481	82.06
633.688	82.06
633.893	81.06
634.099	79.06
634.305	65.06
634.511	80.06
634.717	70.06
634.923	79.06
635.129	84.06
635.335	65.06
635.541	84.06
635.747	83.06
635.952	80.06
636.158	84.06
636.364	85.06
636.57	78.06
636.775	72.06
636.981	97.06
637.187	81.06
637.392	76.06
637.598	80.06
637.804	81.06
638.009	80.06
638.215	84.06
638.421	80.06
638.626	85.06
638.832	91.06
639.037	82.06
639.243	88.06
639.448	88.06
639.654	97.06
639.859	82.06
640.065	74.06
640.27	95.06
640.475	84.06
640.681	74.06
640.886	93.06
641.091	93.06
641.297	74.06
641.502	70.06
641.707	72.06
641.913	90.06
642.118	87.06
642.323	86.06
642.528	94.06
642.733	85.06
642.939	69.06
643.144	81.06
643.349	89.06
643.554	70.06
643.759	83.06
643.964	78.06
644.169	79.06
644.374	91.06
644.579	91.06
644.784	81.06
644.989	89.06
645.194	76.06
645.399	89.06
645.604	89.06
645.809	78.06
646.014	84.06
646.219	87.06
646.423	80.06
646.628	74.06
646.833	82.06
647.038	90.06
647.243	83.06
647.447	82.06
647.652	84.06
647.857	85.06
648.062	93.06
648.266	94.06
648.471	87.06
648.676	100.06
648.88	93.06
649.085	86.06
649.289	77.06
649.494	99.06
649.698	119.06
649.903	90.06
650.107	87.06
650.312	83.06
650.516	66.06
650.721	94.06
650.925	87.06
651.13	88.06
651.334	79.06
651.539	75.06
651.743	73.06
651.947	81.06
652.152	81.06
652.356	85.06
652.56	76.06
652.764	81.06
652.969	82.06
653.173	69.06
653.377	91.06
653.581	88.06
653.785	81.06
653.99	88.06
654.194	80.06
654.398	75.06
654.602	94.06
654.806	89.06
655.01	95.06
655.214	91.06
655.418	76.06
655.622	82.06
655.826	77.06
656.03	83.06
656.234	85.06
656.438	81.06
656.642	79.06
656.846	76.06
657.049	83.06
657.253	99.06
657.457	81.06
657.661	75.06
657.865	77.06
658.068	70.06
658.272	81.06
658.476	76.06
658.68	82.06
658.883	80.06
659.087	94.06
659.291	88.06
659.494	85.06
659.698	70.06
659.901	77.06
660.105	82.06
660.309	75.06
660.512	80.06
660.716	92.06
660.919	72.06
661.123	76.06
661.326	80.06
661.53	76.06
661.733	77.06
661.936	86.06
662.14	83.06
662.343	78.06
662.546	74.06
662.75	85.06
662.953	81.06
663.156	96.06
663.36	74.06
663.563	84.06
663.766	78.06
663.969	87.06
664.173	78.06
664.376	87.06
664.579	77.06
664.782	78.06
664.985	80.06
665.188	87.06
665.391	86.06
665.594	83.06
665.797	81.06
666	75.06
666.203	85.06
666.406	92.06
666.609	78.06
666.812	71.06
667.015	80.06
667.218	86.06
667.421	85.06
667.624	78.06
667.827	72.06
668.03	70.06
668.232	81.06
668.435	84.06
668.638	88.06
668.841	75.06
669.043	77.06
669.246	92.06
669.449	84.06
669.651	85.06
669.854	84.06
670.057	84.06
670.259	87.06
670.462	77.06
670.665	87.06
670.867	81.06
671.07	85.06
671.272	93.06
671.475	79.06
671.677	81.06
671.88	78.06
672.082	67.06
672.284	74.06
672.487	74.06
672.689	90.06
672.892	71.06
