Data from Circ_2002_H10_HRD10591_00047.txt Node
Date: Wed Jan 03 10:41:07 EST 2024
User: Yrep
Spectrometer: HR+D1059
Trigger mode: 1
Integration Time (sec): 1.000000E-1
Scans to average: 1
Electric dark correction enabled: true
Nonlinearity correction enabled: false
Boxcar width: 0
XAxis mode: Wavelengths
Number of Pixels in Spectrum: 2048
>>>>>Begin Spectral Data<<<<<
223.165	-13
223.4	-13
223.635	-13
223.869	-12
224.104	-7
224.338	-24
224.573	1
224.808	-7
225.042	-21
225.277	-19
225.511	-9
225.746	-15
225.98	9
226.215	5
226.449	31
226.683	15
226.918	27
227.152	39
227.387	53
227.621	41
227.856	55
228.09	41
228.324	47
228.559	62
228.793	67
229.027	55
229.262	60
229.496	62
229.73	84
229.964	71
230.199	85
230.433	76
230.667	72
230.901	88
231.136	64
231.37	90
231.604	85
231.838	94
232.072	88
232.306	71
232.541	88
232.775	99
233.009	69
233.243	99
233.477	99
233.711	96
233.945	97
234.179	87
234.413	82
234.647	90
234.881	72
235.115	76
235.349	92
235.583	91
235.817	83
236.051	78
236.285	79
236.519	69
236.753	91
236.987	93
237.221	89
237.455	83
237.689	86
237.922	72
238.156	85
238.39	91
238.624	72
238.858	75
239.091	90
239.325	92
239.559	81
239.793	81
240.027	84
240.26	68
240.494	79
240.728	83
240.961	86
241.195	87
241.429	83
241.662	79
241.896	81
242.13	76
242.363	80
242.597	74
242.83	65
243.064	92
243.298	93
243.531	95
243.765	81
243.998	84
244.232	76
244.465	74
244.699	85
244.932	80
245.166	83
245.399	81
245.633	76
245.866	95
246.099	90
246.333	84
246.566	86
246.8	84
247.033	87
247.266	79
247.5	88
247.733	67
247.966	82
248.2	77
248.433	94
248.666	83
248.899	73
249.133	83
249.366	101
249.599	84
249.832	91
250.066	91
250.299	86
250.532	79
250.765	85
250.998	93
251.231	88
251.465	67
251.698	82
251.931	81
252.164	91
252.397	86
252.63	95
252.863	86
253.096	91
253.329	97
253.562	80
253.795	80
254.028	81
254.261	80
254.494	88
254.727	92
254.96	82
255.193	76
255.426	86
255.659	81
255.892	78
256.124	80
256.357	96
256.59	86
256.823	92
257.056	83
257.289	77
257.521	79
257.754	71
257.987	77
258.22	101
258.452	97
258.685	88
258.918	96
259.151	89
259.383	100
259.616	90
259.849	89
260.081	84
260.314	100
260.547	84
260.779	84
261.012	80
261.244	83
261.477	96
261.71	101
261.942	107
262.175	111
262.407	92
262.64	92
262.872	82
263.105	83
263.337	89
263.57	84
263.802	97
264.035	100
264.267	81
264.499	93
264.732	84
264.964	82
265.197	87
265.429	96
265.661	79
265.894	82
266.126	85
266.358	90
266.591	84
266.823	81
267.055	85
267.287	82
267.52	85
267.752	92
267.984	90
268.216	79
268.448	84
268.681	83
268.913	79
269.145	86
269.377	83
269.609	73
269.841	77
270.073	77
270.306	96
270.538	88
270.77	86
271.002	89
271.234	96
271.466	82
271.698	92
271.93	96
272.162	101
272.394	98
272.626	86
272.858	75
273.09	83
273.322	84
273.553	87
273.785	87
274.017	70
274.249	93
274.481	87
274.713	87
274.945	88
275.176	88
275.408	95
275.64	80
275.872	84
276.104	97
276.335	79
276.567	95
276.799	112
277.031	117
277.262	102
277.494	94
277.726	82
277.957	90
278.189	93
278.421	87
278.652	84
278.884	97
279.115	98
279.347	77
279.579	105
279.81	97
280.042	100
280.273	97
280.505	86
280.736	95
280.968	72
281.199	87
281.431	95
281.662	89
281.894	89
282.125	80
282.356	116
282.588	138
282.819	124
283.051	104
283.282	96
283.513	95
283.745	110
283.976	92
284.207	90
284.439	108
284.67	96
284.901	86
285.132	87
285.364	89
285.595	90
285.826	99
286.057	94
286.288	92
286.52	93
286.751	100
286.982	89
287.213	84
287.444	79
287.675	101
287.906	97
288.138	83
288.369	92
288.6	87
288.831	91
289.062	93
289.293	95
289.524	80
289.755	88
289.986	91
290.217	88
290.448	87
290.679	93
290.91	103
291.141	90
291.371	97
291.602	99
291.833	93
292.064	85
292.295	97
292.526	92
292.757	87
292.987	85
293.218	99
293.449	87
293.68	103
293.91	88
294.141	80
294.372	80
294.603	97
294.833	93
295.064	104
295.295	89
295.525	109
295.756	110
295.987	107
296.217	124
296.448	123
296.679	93
296.909	86
297.14	92
297.37	94
297.601	77
297.831	101
298.062	101
298.292	98
298.523	97
298.753	84
298.984	81
299.214	91
299.445	99
299.675	89
299.905	101
300.136	97
300.366	108
300.597	93
300.827	101
301.057	106
301.288	93
301.518	93
301.748	96
301.979	110
302.209	104
302.439	72
302.669	104
302.9	100
303.13	100
303.36	96
303.59	115
303.82	99
304.051	86
304.281	95
304.511	93
304.741	102
304.971	92
305.201	93
305.431	89
305.661	102
305.891	90
306.121	100
306.352	96
306.582	97
306.812	88
307.042	96
307.272	97
307.502	114
307.731	95
307.961	98
308.191	104
308.421	105
308.651	91
308.881	100
309.111	104
309.341	97
309.571	116
309.8	102
310.03	114
310.26	87
310.49	94
310.72	95
310.949	106
311.179	89
311.409	101
311.639	96
311.868	110
312.098	99
312.328	95
312.557	96
312.787	91
313.017	86
313.246	96
313.476	96
313.706	96
313.935	91
314.165	104
314.394	96
314.624	92
314.853	110
315.083	102
315.312	96
315.542	79
315.771	88
316.001	111
316.23	93
316.46	89
316.689	89
316.919	89
317.148	86
317.377	106
317.607	97
317.836	105
318.065	102
318.295	97
318.524	104
318.753	103
318.983	90
319.212	102
319.441	111
319.67	96
319.9	103
320.129	96
320.358	101
320.587	89
320.816	96
321.046	109
321.275	101
321.504	94
321.733	107
321.962	105
322.191	97
322.42	99
322.649	112
322.878	119
323.108	106
323.337	118
323.566	130
323.795	138
324.024	187
324.253	351
324.482	722
324.71	1471
324.939	1890
325.168	713
325.397	233
325.626	154
325.855	125
326.084	113
326.313	127
326.542	153
326.77	221
326.999	411
327.228	839
327.457	1493
327.686	1203
327.914	327
328.143	173
328.372	143
328.6	112
328.829	104
329.058	125
329.287	119
329.515	114
329.744	90
329.972	120
330.201	113
330.43	117
330.658	127
330.887	114
331.115	108
331.344	106
331.572	102
331.801	121
332.03	94
332.258	109
332.486	112
332.715	94
332.943	99
333.172	99
333.4	103
333.629	109
333.857	116
334.085	117
334.314	92
334.542	113
334.771	128
334.999	112
335.227	92
335.455	92
335.684	103
335.912	106
336.14	99
336.369	93
336.597	103
336.825	95
337.053	95
337.281	104
337.51	104
337.738	110
337.966	101
338.194	93
338.422	105
338.65	99
338.878	78
339.106	94
339.334	108
339.562	88
339.79	97
340.018	96
340.246	93
340.474	99
340.702	89
340.93	95
341.158	86
341.386	96
341.614	104
341.842	87
342.07	96
342.298	85
342.526	100
342.754	100
342.981	94
343.209	93
343.437	91
343.665	84
343.893	94
344.12	104
344.348	96
344.576	109
344.804	100
345.031	100
345.259	111
345.487	101
345.714	85
345.942	110
346.17	100
346.397	102
346.625	104
346.853	89
347.08	106
347.308	93
347.535	110
347.763	109
347.99	100
348.218	91
348.445	97
348.673	105
348.9	105
349.128	107
349.355	92
349.583	90
349.81	106
350.037	117
350.265	106
350.492	101
350.72	118
350.947	92
351.174	96
351.402	102
351.629	112
351.856	114
352.083	91
352.311	95
352.538	103
352.765	96
352.992	118
353.22	117
353.447	110
353.674	112
353.901	109
354.128	104
354.355	105
354.583	110
354.81	103
355.037	107
355.264	95
355.491	91
355.718	107
355.945	96
356.172	109
356.399	102
356.626	94
356.853	104
357.08	83
357.307	87
357.534	98
357.761	101
357.988	111
358.215	107
358.441	97
358.668	97
358.895	102
359.122	95
359.349	97
359.576	89
359.802	102
360.029	105
360.256	104
360.483	100
360.709	103
360.936	102
361.163	96
361.39	101
361.616	95
361.843	101
362.07	97
362.296	93
362.523	87
362.749	106
362.976	79
363.203	97
363.429	91
363.656	86
363.882	86
364.109	94
364.335	90
364.562	94
364.788	84
365.015	90
365.241	89
365.468	115
365.694	99
365.92	92
366.147	94
366.373	80
366.599	85
366.826	93
367.052	97
367.278	89
367.505	84
367.731	107
367.957	83
368.184	94
368.41	107
368.636	97
368.862	104
369.089	116
369.315	95
369.541	108
369.767	96
369.993	76
370.219	89
370.445	92
370.672	101
370.898	88
371.124	101
371.35	92
371.576	104
371.802	105
372.028	97
372.254	86
372.48	88
372.706	93
372.932	92
373.158	92
373.384	101
373.61	93
373.835	96
374.061	96
374.287	96
374.513	93
374.739	92
374.965	79
375.191	89
375.416	96
375.642	103
375.868	107
376.094	94
376.319	94
376.545	95
376.771	93
376.997	97
377.222	93
377.448	89
377.674	90
377.899	95
378.125	95
378.35	89
378.576	106
378.802	92
379.027	105
379.253	92
379.478	94
379.704	87
379.929	96
380.155	89
380.38	101
380.606	104
380.831	102
381.057	115
381.282	107
381.507	105
381.733	94
381.958	100
382.184	103
382.409	103
382.634	90
382.86	100
383.085	103
383.31	115
383.535	105
383.761	110
383.986	98
384.211	103
384.436	101
384.662	94
384.887	108
385.112	109
385.337	109
385.562	105
385.787	104
386.013	116
386.238	118
386.463	122
386.688	112
386.913	105
387.138	118
387.363	109
387.588	109
387.813	111
388.038	113
388.263	132
388.488	117
388.713	100
388.938	94
389.163	102
389.387	114
389.612	100
389.837	100
390.062	101
390.287	106
390.512	96
390.736	91
390.961	96
391.186	103
391.411	97
391.636	96
391.86	96
392.085	87
392.31	88
392.534	97
392.759	92
392.984	100
393.208	93
393.433	107
393.658	104
393.882	81
394.107	97
394.331	84
394.556	91
394.78	94
395.005	101
395.229	96
395.454	85
395.678	84
395.903	73
396.127	89
396.352	94
396.576	93
396.801	85
397.025	97
397.249	95
397.474	89
397.698	94
397.922	107
398.147	91
398.371	82
398.595	82
398.82	96
399.044	87
399.268	84
399.492	96
399.717	80
399.941	95
400.165	106
400.389	75
400.613	88
400.837	93
401.062	87
401.286	90
401.51	93
401.734	89
401.958	85
402.182	110
402.406	126
402.63	98
402.854	100
403.078	86
403.302	97
403.526	89
403.75	89
403.974	106
404.198	80
404.422	103
404.645	97
404.869	88
405.093	122
405.317	106
405.541	108
405.765	103
405.988	106
406.212	147
406.436	197
406.66	131
406.883	102
407.107	101
407.331	86
407.555	114
407.778	108
408.002	92
408.226	97
408.449	90
408.673	101
408.896	104
409.12	111
409.344	95
409.567	104
409.791	90
410.014	101
410.238	95
410.461	107
410.685	104
410.908	103
411.132	103
411.355	97
411.578	101
411.802	84
412.025	77
412.249	104
412.472	96
412.695	109
412.919	107
413.142	88
413.365	88
413.589	89
413.812	101
414.035	111
414.258	92
414.482	91
414.705	86
414.928	80
415.151	79
415.374	97
415.597	84
415.821	86
416.044	91
416.267	90
416.49	92
416.713	89
416.936	95
417.159	91
417.382	87
417.605	107
417.828	102
418.051	95
418.274	93
418.497	101
418.72	91
418.943	79
419.166	89
419.389	100
419.611	79
419.834	90
420.057	84
420.28	92
420.503	94
420.726	86
420.948	100
421.171	108
421.394	100
421.617	92
421.839	112
422.062	109
422.285	101
422.507	102
422.73	83
422.953	84
423.175	97
423.398	83
423.621	88
423.843	86
424.066	94
424.288	92
424.511	95
424.733	107
424.956	98
425.178	100
425.401	104
425.623	97
425.846	104
426.068	91
426.291	101
426.513	89
426.735	91
426.958	93
427.18	99
427.402	127
427.625	157
427.847	119
428.069	109
428.292	89
428.514	87
428.736	106
428.958	95
429.181	85
429.403	100
429.625	93
429.847	94
430.069	99
430.292	95
430.514	96
430.736	85
430.958	86
431.18	89
431.402	93
431.624	102
431.846	101
432.068	87
432.29	107
432.512	87
432.734	83
432.956	88
433.178	105
433.4	110
433.622	87
433.844	93
434.066	97
434.287	88
434.509	82
434.731	94
434.953	99
435.175	78
435.397	103
435.618	90
435.84	110
436.062	114
436.284	123
436.505	90
436.727	101
436.949	94
437.17	82
437.392	85
437.614	91
437.835	96
438.057	117
438.278	118
438.5	120
438.721	107
438.943	104
439.165	92
439.386	89
439.608	100
439.829	107
440.05	109
440.272	116
440.493	97
440.715	84
440.936	101
441.158	94
441.379	100
441.6	95
441.822	84
442.043	80
442.264	113
442.486	108
442.707	82
442.928	118
443.149	123
443.371	112
443.592	102
443.813	114
444.034	103
444.255	89
444.476	99
444.698	87
444.919	96
445.14	125
445.361	124
445.582	105
445.803	122
446.024	109
446.245	121
446.466	105
446.687	75
446.908	78
447.129	79
447.35	81
447.571	96
447.792	101
448.013	97
448.234	111
448.455	103
448.675	98
448.896	103
449.117	92
449.338	89
449.559	127
449.779	135
450	93
450.221	94
450.442	107
450.662	102
450.883	101
451.104	119
451.324	90
451.545	92
451.766	97
451.986	89
452.207	90
452.428	87
452.648	83
452.869	107
453.089	117
453.31	115
453.53	86
453.751	104
453.971	104
454.192	87
454.412	77
454.633	89
454.853	89
455.073	92
455.294	91
455.514	84
455.734	86
455.955	95
456.175	79
456.395	75
456.616	89
456.836	92
457.056	90
457.276	83
457.497	88
457.717	83
457.937	87
458.157	87
458.377	104
458.598	106
458.818	133
459.038	135
459.258	107
459.478	79
459.698	83
459.918	96
460.138	94
460.358	87
460.578	87
460.798	83
461.018	89
461.238	89
461.458	96
461.678	105
461.898	88
462.118	91
462.338	102
462.558	95
462.777	85
462.997	81
463.217	88
463.437	79
463.657	69
463.876	83
464.096	96
464.316	96
464.536	106
464.755	99
464.975	115
465.195	137
465.414	140
465.634	80
465.854	88
466.073	93
466.293	103
466.512	95
466.732	83
466.951	94
467.171	94
467.391	97
467.61	97
467.829	97
468.049	89
468.268	97
468.488	84
468.707	69
468.927	90
469.146	103
469.365	83
469.585	93
469.804	109
470.023	106
470.243	105
470.462	108
470.681	106
470.901	86
471.12	83
471.339	103
471.558	107
471.777	97
471.997	104
472.216	104
472.435	117
472.654	99
472.873	65
473.092	88
473.311	113
473.53	97
473.749	98
473.968	96
474.187	104
474.406	100
474.625	99
474.844	88
475.063	94
475.282	97
475.501	93
475.72	89
475.939	96
476.158	98
476.377	86
476.596	91
476.814	83
477.033	94
477.252	89
477.471	105
477.69	82
477.908	96
478.127	90
478.346	96
478.564	79
478.783	101
479.002	108
479.22	96
479.439	102
479.658	88
479.876	87
480.095	74
480.313	96
480.532	104
480.751	85
480.969	103
481.188	165
481.406	123
481.624	89
481.843	97
482.061	91
482.28	85
482.498	91
482.717	89
482.935	101
483.153	101
483.372	84
483.59	89
483.808	94
484.027	85
484.245	96
484.463	84
484.681	88
484.9	96
485.118	93
485.336	83
485.554	110
485.772	103
485.99	100
486.209	86
486.427	121
486.645	109
486.863	103
487.081	91
487.299	102
487.517	115
487.735	96
487.953	105
488.171	89
488.389	92
488.607	100
488.825	100
489.043	102
489.261	87
489.479	108
489.696	101
489.914	95
490.132	92
490.35	97
490.568	95
490.786	89
491.003	100
491.221	104
491.439	90
491.657	114
491.874	85
492.092	103
492.31	87
492.527	101
492.745	83
492.963	91
493.18	93
493.398	104
493.615	91
493.833	104
494.05	86
494.268	81
494.485	83
494.703	93
494.92	103
495.138	87
495.355	92
495.573	84
495.79	87
496.008	93
496.225	92
496.442	100
496.66	101
496.877	95
497.094	92
497.312	104
497.529	95
497.746	101
497.963	88
498.181	93
498.398	85
498.615	108
498.832	101
499.049	89
499.267	82
499.484	101
499.701	102
499.918	99
500.135	96
500.352	98
500.569	88
500.786	103
501.003	88
501.22	90
501.437	96
501.654	90
501.871	104
502.088	93
502.305	88
502.522	89
502.739	97
502.956	91
503.172	75
503.389	92
503.606	108
503.823	97
504.04	96
504.256	92
504.473	94
504.69	91
504.907	110
505.123	87
505.34	83
505.557	96
505.773	95
505.99	91
506.207	88
506.423	88
506.64	95
506.856	94
507.073	104
507.289	86
507.506	81
507.722	109
507.939	104
508.155	94
508.372	92
508.588	82
508.805	87
509.021	88
509.238	95
509.454	104
509.67	108
509.887	110
510.103	122
510.319	186
510.536	608
510.752	1778
510.968	544
511.184	150
511.401	107
511.617	105
511.833	105
512.049	90
512.265	96
512.481	91
512.698	96
512.914	87
513.13	84
513.346	95
513.562	98
513.778	99
513.994	99
514.21	105
514.426	111
514.642	116
514.858	109
515.074	157
515.29	342
515.506	1118
515.721	443
515.937	147
516.153	114
516.369	95
516.585	83
516.801	94
517.016	108
517.232	94
517.448	102
517.664	95
517.879	102
518.095	91
518.311	91
518.527	102
518.742	77
518.958	86
519.173	97
519.389	100
519.605	104
519.82	105
520.036	108
520.251	128
520.467	108
520.682	108
520.898	101
521.113	120
521.329	118
521.544	152
521.76	447
521.975	1774
522.19	1125
522.406	275
522.621	116
522.836	103
523.052	110
523.267	99
523.482	103
523.698	111
523.913	116
524.128	106
524.343	103
524.559	110
524.774	95
524.989	100
525.204	101
525.419	105
525.634	94
525.849	93
526.064	89
526.28	104
526.495	97
526.71	93
526.925	109
527.14	97
527.355	86
527.57	101
527.785	94
527.999	89
528.214	101
528.429	105
528.644	96
528.859	100
529.074	102
529.289	113
529.503	149
529.718	108
529.933	96
530.148	95
530.363	99
530.577	105
530.792	111
531.007	111
531.221	103
531.436	93
531.651	103
531.865	97
532.08	79
532.295	95
532.509	102
532.724	104
532.938	89
533.153	110
533.367	90
533.582	95
533.796	105
534.011	89
534.225	94
534.44	101
534.654	106
534.868	91
535.083	95
535.297	86
535.511	97
535.726	119
535.94	107
536.154	99
536.369	106
536.583	86
536.797	95
537.011	107
537.225	94
537.44	95
537.654	103
537.868	93
538.082	94
538.296	95
538.51	105
538.724	96
538.938	101
539.153	94
539.367	107
539.581	94
539.795	92
540.009	86
540.222	95
540.436	105
540.65	87
540.864	86
541.078	92
541.292	100
541.506	94
541.72	89
541.934	95
542.147	103
542.361	95
542.575	93
542.789	86
543.002	90
543.216	102
543.43	92
543.644	97
543.857	96
544.071	92
544.285	97
544.498	84
544.712	82
544.925	87
545.139	95
545.352	97
545.566	91
545.779	96
545.993	93
546.206	85
546.42	100
546.633	89
546.847	89
547.06	86
547.274	90
547.487	101
547.7	104
547.914	75
548.127	95
548.34	84
548.554	91
548.767	97
548.98	103
549.193	104
549.407	78
549.62	97
549.833	95
550.046	93
550.259	96
550.473	85
550.686	102
550.899	83
551.112	94
551.325	81
551.538	82
551.751	92
551.964	103
552.177	88
552.39	107
552.603	95
552.816	98
553.029	91
553.242	96
553.455	95
553.667	99
553.88	103
554.093	92
554.306	94
554.519	90
554.732	92
554.944	87
555.157	93
555.37	89
555.583	94
555.795	96
556.008	102
556.221	93
556.433	95
556.646	104
556.859	88
557.071	94
557.284	105
557.496	87
557.709	89
557.921	78
558.134	83
558.346	88
558.559	95
558.771	94
558.984	82
559.196	87
559.409	88
559.621	85
559.833	87
560.046	90
560.258	84
560.47	95
560.683	93
560.895	88
561.107	85
561.32	87
561.532	87
561.744	103
561.956	103
562.168	97
562.381	98
562.593	92
562.805	88
563.017	83
563.229	95
563.441	85
563.653	85
563.865	81
564.077	88
564.289	95
564.501	101
564.713	96
564.925	103
565.137	111
565.349	85
565.561	98
565.773	89
565.985	92
566.197	93
566.408	87
566.62	102
566.832	87
567.044	109
567.255	91
567.467	103
567.679	74
567.891	80
568.102	72
568.314	110
568.526	110
568.737	94
568.949	88
569.161	102
569.372	100
569.584	96
569.795	103
570.007	101
570.218	205
570.43	133
570.641	86
570.853	91
571.064	105
571.276	103
571.487	101
571.698	96
571.91	102
572.121	83
572.333	83
572.544	85
572.755	97
572.966	85
573.178	95
573.389	92
573.6	105
573.811	102
574.023	86
574.234	96
574.445	103
574.656	90
574.867	88
575.078	99
575.289	102
575.501	100
575.712	100
575.923	92
576.134	108
576.345	85
576.556	99
576.767	81
576.978	95
577.188	84
577.399	91
577.61	98
577.821	109
578.032	123
578.243	224
578.454	567
578.665	183
578.875	99
579.086	104
579.297	86
579.508	81
579.718	81
579.929	87
580.14	86
580.35	95
580.561	97
580.772	97
580.982	88
581.193	96
581.403	73
581.614	91
581.825	89
582.035	94
582.246	93
582.456	86
582.667	92
582.877	93
583.087	104
583.298	85
583.508	97
583.719	97
583.929	93
584.139	102
584.35	83
584.56	91
584.77	90
584.981	86
585.191	85
585.401	95
585.611	87
585.821	102
586.032	97
586.242	94
586.452	86
586.662	96
586.872	73
587.082	90
587.292	101
587.502	93
587.713	89
587.923	104
588.133	100
588.343	79
588.553	75
588.762	88
588.972	107
589.182	128
589.392	115
589.602	93
589.812	112
590.022	101
590.232	79
590.441	94
590.651	90
590.861	76
591.071	91
591.281	84
591.49	91
591.7	79
591.91	94
592.119	98
592.329	96
592.539	85
592.748	94
592.958	93
593.167	100
593.377	97
593.587	90
593.796	83
594.006	90
594.215	84
594.424	89
594.634	78
594.843	82
595.053	99
595.262	104
595.472	84
595.681	102
595.89	93
596.1	93
596.309	90
596.518	106
596.727	94
596.937	103
597.146	92
597.355	90
597.564	88
597.774	105
597.983	101
598.192	79
598.401	93
598.61	102
598.819	89
599.028	87
599.237	86
599.446	84
599.655	96
599.864	92
600.073	90
600.282	99
600.491	96
600.7	77
600.909	92
601.118	75
601.327	89
601.536	96
601.745	96
601.953	90
602.162	94
602.371	87
602.58	96
602.789	104
602.997	89
603.206	95
603.415	98
603.623	77
603.832	97
604.041	87
604.249	86
604.458	90
604.666	80
604.875	99
605.084	86
605.292	96
605.501	102
605.709	97
605.918	83
606.126	77
606.334	92
606.543	95
606.751	103
606.96	94
607.168	81
607.376	95
607.585	92
607.793	95
608.001	93
608.21	89
608.418	92
608.626	90
608.834	90
609.043	92
609.251	97
609.459	92
609.667	90
609.875	79
610.083	86
610.291	92
610.499	96
610.707	95
610.916	96
611.124	92
611.332	78
611.54	75
611.748	79
611.955	88
612.163	85
612.371	86
612.579	97
612.787	78
612.995	96
613.203	96
613.411	94
613.618	88
613.826	96
614.034	93
614.242	94
614.449	85
614.657	96
614.865	106
615.072	88
615.28	90
615.488	98
615.695	78
615.903	101
616.111	90
616.318	127
616.526	94
616.733	107
616.941	111
617.148	115
617.356	90
617.563	89
617.771	100
617.978	88
618.185	103
618.393	100
618.6	87
618.807	94
619.015	79
619.222	102
619.429	85
619.637	109
619.844	84
620.051	101
620.258	97
620.466	93
620.673	79
620.88	118
621.087	89
621.294	91
621.501	102
621.708	85
621.915	92
622.122	90
622.329	94
622.536	84
622.743	87
622.95	83
623.157	88
623.364	101
623.571	85
623.778	93
623.985	96
624.192	102
624.399	80
624.606	87
624.812	90
625.019	100
625.226	86
625.433	93
625.639	104
625.846	89
626.053	87
626.259	77
626.466	80
626.673	80
626.879	89
627.086	100
627.293	88
627.499	106
627.706	100
627.912	88
628.119	86
628.325	89
628.532	90
628.738	83
628.945	80
629.151	96
629.357	93
629.564	101
629.77	83
629.976	87
630.183	80
630.389	83
630.595	86
630.802	89
631.008	95
631.214	82
631.42	92
631.627	103
631.833	97
632.039	90
632.245	91
632.451	92
632.657	87
632.863	75
633.069	101
633.275	88
633.481	91
633.688	85
633.893	88
634.099	97
634.305	95
634.511	96
634.717	83
634.923	97
635.129	85
635.335	83
635.541	85
635.747	68
635.952	104
636.158	88
636.364	83
636.57	93
636.775	90
636.981	71
637.187	102
637.392	95
637.598	90
637.804	86
638.009	85
638.215	88
638.421	76
638.626	96
638.832	80
639.037	75
639.243	102
639.448	92
639.654	90
639.859	90
640.065	95
640.27	96
640.475	75
640.681	88
640.886	89
641.091	79
641.297	95
641.502	90
641.707	89
641.913	79
642.118	91
642.323	84
642.528	91
642.733	88
642.939	70
643.144	97
643.349	81
643.554	94
643.759	88
643.964	91
644.169	74
644.374	84
644.579	92
644.784	81
644.989	82
645.194	105
645.399	101
645.604	88
645.809	97
646.014	87
646.219	105
646.423	90
646.628	101
646.833	83
647.038	90
647.243	93
647.447	84
647.652	84
647.857	85
648.062	85
648.266	94
648.471	87
648.676	88
648.88	96
649.085	92
649.289	97
649.494	101
649.698	138
649.903	90
650.107	97
650.312	95
650.516	83
650.721	89
650.925	85
651.13	82
651.334	88
651.539	100
651.743	92
651.947	87
652.152	92
652.356	80
652.56	80
652.764	95
652.969	84
653.173	79
653.377	87
653.581	91
653.785	86
653.99	86
654.194	67
654.398	72
654.602	93
654.806	87
655.01	107
655.214	103
655.418	91
655.622	94
655.826	89
656.03	93
656.234	83
656.438	93
656.642	94
656.846	87
657.049	73
657.253	101
657.457	107
657.661	85
657.865	103
658.068	84
658.272	94
658.476	93
658.68	85
658.883	97
659.087	99
659.291	83
659.494	87
659.698	82
659.901	85
660.105	75
660.309	78
660.512	94
660.716	93
660.919	94
661.123	67
661.326	87
661.53	106
661.733	83
661.936	83
662.14	69
662.343	94
662.546	81
662.75	79
662.953	77
663.156	95
663.36	91
663.563	73
663.766	79
663.969	90
664.173	91
664.376	90
664.579	78
664.782	86
664.985	83
665.188	89
665.391	70
665.594	89
665.797	85
666	83
666.203	71
666.406	63
666.609	81
666.812	93
667.015	86
667.218	71
667.421	97
667.624	85
667.827	85
668.03	91
668.232	89
668.435	92
668.638	80
668.841	96
669.043	59
669.246	87
669.449	88
669.651	84
669.854	86
670.057	95
670.259	82
670.462	82
670.665	92
670.867	77
671.07	88
671.272	74
671.475	83
671.677	91
671.88	88
672.082	91
672.284	75
672.487	97
672.689	75
672.892	93
