Data from Circ_2002_H10_HRD10591_00039.txt Node
Date: Wed Jan 03 10:41:06 EST 2024
User: Yrep
Spectrometer: HR+D1059
Trigger mode: 1
Integration Time (sec): 1.000000E-1
Scans to average: 1
Electric dark correction enabled: true
Nonlinearity correction enabled: false
Boxcar width: 0
XAxis mode: Wavelengths
Number of Pixels in Spectrum: 2048
>>>>>Begin Spectral Data<<<<<
223.165	-13.56
223.4	-13.56
223.635	-13.56
223.869	-15.56
224.104	-10.56
224.338	-8.56
224.573	-1.56
224.808	-13.56
225.042	-14.56
225.277	-2.56
225.511	-3.56
225.746	-3.56
225.98	8.44
226.215	12.44
226.449	10.44
226.683	14.44
226.918	29.44
227.152	12.44
227.387	48.44
227.621	36.44
227.856	55.44
228.09	47.44
228.324	55.44
228.559	76.44
228.793	72.44
229.027	66.44
229.262	65.44
229.496	73.44
229.73	86.44
229.964	74.44
230.199	65.44
230.433	75.44
230.667	70.44
230.901	82.44
231.136	83.44
231.37	78.44
231.604	72.44
231.838	81.44
232.072	73.44
232.306	94.44
232.541	80.44
232.775	84.44
233.009	82.44
233.243	74.44
233.477	60.44
233.711	90.44
233.945	74.44
234.179	84.44
234.413	90.44
234.647	91.44
234.881	80.44
235.115	88.44
235.349	81.44
235.583	98.44
235.817	76.44
236.051	80.44
236.285	71.44
236.519	75.44
236.753	85.44
236.987	100.44
237.221	84.44
237.455	78.44
237.689	71.44
237.922	74.44
238.156	85.44
238.39	80.44
238.624	76.44
238.858	68.44
239.091	72.44
239.325	67.44
239.559	76.44
239.793	87.44
240.027	81.44
240.26	84.44
240.494	78.44
240.728	97.44
240.961	76.44
241.195	84.44
241.429	85.44
241.662	74.44
241.896	75.44
242.13	67.44
242.363	61.44
242.597	91.44
242.83	84.44
243.064	90.44
243.298	78.44
243.531	72.44
243.765	89.44
243.998	84.44
244.232	83.44
244.465	81.44
244.699	89.44
244.932	84.44
245.166	77.44
245.399	82.44
245.633	98.44
245.866	73.44
246.099	77.44
246.333	78.44
246.566	76.44
246.8	78.44
247.033	73.44
247.266	74.44
247.5	74.44
247.733	84.44
247.966	68.44
248.2	76.44
248.433	90.44
248.666	82.44
248.899	77.44
249.133	69.44
249.366	84.44
249.599	81.44
249.832	74.44
250.066	84.44
250.299	79.44
250.532	70.44
250.765	82.44
250.998	82.44
251.231	87.44
251.465	82.44
251.698	77.44
251.931	85.44
252.164	73.44
252.397	73.44
252.63	81.44
252.863	70.44
253.096	80.44
253.329	75.44
253.562	76.44
253.795	77.44
254.028	88.44
254.261	77.44
254.494	72.44
254.727	88.44
254.96	88.44
255.193	94.44
255.426	68.44
255.659	85.44
255.892	85.44
256.124	80.44
256.357	81.44
256.59	77.44
256.823	82.44
257.056	80.44
257.289	83.44
257.521	80.44
257.754	75.44
257.987	76.44
258.22	93.44
258.452	91.44
258.685	85.44
258.918	87.44
259.151	83.44
259.383	76.44
259.616	76.44
259.849	77.44
260.081	86.44
260.314	82.44
260.547	94.44
260.779	77.44
261.012	78.44
261.244	90.44
261.477	97.44
261.71	99.44
261.942	94.44
262.175	106.44
262.407	86.44
262.64	90.44
262.872	86.44
263.105	89.44
263.337	91.44
263.57	91.44
263.802	106.44
264.035	80.44
264.267	78.44
264.499	81.44
264.732	81.44
264.964	81.44
265.197	94.44
265.429	82.44
265.661	100.44
265.894	83.44
266.126	90.44
266.358	92.44
266.591	91.44
266.823	81.44
267.055	90.44
267.287	94.44
267.52	66.44
267.752	87.44
267.984	103.44
268.216	86.44
268.448	83.44
268.681	73.44
268.913	85.44
269.145	90.44
269.377	68.44
269.609	87.44
269.841	98.44
270.073	81.44
270.306	89.44
270.538	85.44
270.77	78.44
271.002	87.44
271.234	81.44
271.466	87.44
271.698	92.44
271.93	93.44
272.162	82.44
272.394	81.44
272.626	85.44
272.858	92.44
273.09	76.44
273.322	76.44
273.553	84.44
273.785	78.44
274.017	91.44
274.249	89.44
274.481	78.44
274.713	84.44
274.945	78.44
275.176	78.44
275.408	88.44
275.64	77.44
275.872	80.44
276.104	94.44
276.335	100.44
276.567	90.44
276.799	96.44
277.031	107.44
277.262	92.44
277.494	95.44
277.726	90.44
277.957	96.44
278.189	94.44
278.421	100.44
278.652	89.44
278.884	91.44
279.115	95.44
279.347	90.44
279.579	88.44
279.81	85.44
280.042	79.44
280.273	87.44
280.505	94.44
280.736	89.44
280.968	93.44
281.199	98.44
281.431	96.44
281.662	89.44
281.894	86.44
282.125	117.44
282.356	113.44
282.588	122.44
282.819	108.44
283.051	87.44
283.282	88.44
283.513	89.44
283.745	82.44
283.976	75.44
284.207	85.44
284.439	84.44
284.67	97.44
284.901	92.44
285.132	90.44
285.364	89.44
285.595	92.44
285.826	87.44
286.057	109.44
286.288	94.44
286.52	89.44
286.751	100.44
286.982	82.44
287.213	97.44
287.444	85.44
287.675	102.44
287.906	84.44
288.138	84.44
288.369	91.44
288.6	103.44
288.831	79.44
289.062	82.44
289.293	93.44
289.524	83.44
289.755	88.44
289.986	76.44
290.217	96.44
290.448	74.44
290.679	83.44
290.91	87.44
291.141	88.44
291.371	94.44
291.602	77.44
291.833	80.44
292.064	81.44
292.295	76.44
292.526	88.44
292.757	90.44
292.987	77.44
293.218	90.44
293.449	86.44
293.68	91.44
293.91	94.44
294.141	90.44
294.372	105.44
294.603	97.44
294.833	89.44
295.064	83.44
295.295	88.44
295.525	96.44
295.756	110.44
295.987	128.44
296.217	125.44
296.448	131.44
296.679	93.44
296.909	73.44
297.14	88.44
297.37	89.44
297.601	89.44
297.831	97.44
298.062	91.44
298.292	72.44
298.523	88.44
298.753	88.44
298.984	92.44
299.214	76.44
299.445	97.44
299.675	82.44
299.905	84.44
300.136	93.44
300.366	68.44
300.597	82.44
300.827	93.44
301.057	89.44
301.288	92.44
301.518	97.44
301.748	91.44
301.979	95.44
302.209	90.44
302.439	82.44
302.669	79.44
302.9	74.44
303.13	85.44
303.36	103.44
303.59	92.44
303.82	92.44
304.051	86.44
304.281	82.44
304.511	96.44
304.741	94.44
304.971	84.44
305.201	85.44
305.431	80.44
305.661	81.44
305.891	99.44
306.121	89.44
306.352	92.44
306.582	104.44
306.812	101.44
307.042	91.44
307.272	75.44
307.502	104.44
307.731	100.44
307.961	93.44
308.191	101.44
308.421	71.44
308.651	94.44
308.881	94.44
309.111	101.44
309.341	90.44
309.571	90.44
309.8	88.44
310.03	98.44
310.26	96.44
310.49	108.44
310.72	106.44
310.949	109.44
311.179	99.44
311.409	90.44
311.639	108.44
311.868	104.44
312.098	104.44
312.328	90.44
312.557	98.44
312.787	105.44
313.017	104.44
313.246	94.44
313.476	89.44
313.706	99.44
313.935	83.44
314.165	102.44
314.394	86.44
314.624	90.44
314.853	95.44
315.083	96.44
315.312	96.44
315.542	92.44
315.771	94.44
316.001	93.44
316.23	111.44
316.46	99.44
316.689	83.44
316.919	82.44
317.148	99.44
317.377	81.44
317.607	91.44
317.836	87.44
318.065	92.44
318.295	90.44
318.524	90.44
318.753	92.44
318.983	102.44
319.212	109.44
319.441	94.44
319.67	98.44
319.9	101.44
320.129	90.44
320.358	102.44
320.587	105.44
320.816	98.44
321.046	92.44
321.275	101.44
321.504	96.44
321.733	98.44
321.962	90.44
322.191	91.44
322.42	116.44
322.649	118.44
322.878	115.44
323.108	102.44
323.337	131.44
323.566	144.44
323.795	147.44
324.024	205.44
324.253	390.44
324.482	808.44
324.71	1668.44
324.939	2184.44
325.168	770.44
325.397	234.44
325.626	152.44
325.855	123.44
326.084	125.44
326.313	120.44
326.542	152.44
326.77	245.44
326.999	457.44
327.228	962.44
327.457	1657.44
327.686	1309.44
327.914	348.44
328.143	197.44
328.372	153.44
328.6	117.44
328.829	115.44
329.058	119.44
329.287	132.44
329.515	108.44
329.744	97.44
329.972	116.44
330.201	109.44
330.43	114.44
330.658	119.44
330.887	121.44
331.115	117.44
331.344	97.44
331.572	103.44
331.801	97.44
332.03	107.44
332.258	96.44
332.486	89.44
332.715	100.44
332.943	101.44
333.172	100.44
333.4	104.44
333.629	101.44
333.857	109.44
334.085	99.44
334.314	99.44
334.542	112.44
334.771	105.44
334.999	90.44
335.227	112.44
335.455	106.44
335.684	101.44
335.912	97.44
336.14	89.44
336.369	97.44
336.597	104.44
336.825	92.44
337.053	90.44
337.281	82.44
337.51	94.44
337.738	109.44
337.966	87.44
338.194	100.44
338.422	86.44
338.65	98.44
338.878	98.44
339.106	86.44
339.334	101.44
339.562	91.44
339.79	90.44
340.018	100.44
340.246	92.44
340.474	81.44
340.702	98.44
340.93	86.44
341.158	94.44
341.386	110.44
341.614	90.44
341.842	103.44
342.07	95.44
342.298	103.44
342.526	87.44
342.754	97.44
342.981	89.44
343.209	83.44
343.437	102.44
343.665	95.44
343.893	101.44
344.12	89.44
344.348	106.44
344.576	91.44
344.804	101.44
345.031	100.44
345.259	102.44
345.487	95.44
345.714	85.44
345.942	84.44
346.17	98.44
346.397	96.44
346.625	84.44
346.853	85.44
347.08	92.44
347.308	93.44
347.535	90.44
347.763	99.44
347.99	77.44
348.218	101.44
348.445	96.44
348.673	105.44
348.9	101.44
349.128	89.44
349.355	107.44
349.583	104.44
349.81	114.44
350.037	102.44
350.265	101.44
350.492	97.44
350.72	102.44
350.947	113.44
351.174	106.44
351.402	107.44
351.629	94.44
351.856	96.44
352.083	117.44
352.311	99.44
352.538	117.44
352.765	107.44
352.992	126.44
353.22	121.44
353.447	103.44
353.674	100.44
353.901	105.44
354.128	109.44
354.355	105.44
354.583	94.44
354.81	107.44
355.037	114.44
355.264	94.44
355.491	116.44
355.718	101.44
355.945	102.44
356.172	105.44
356.399	93.44
356.626	88.44
356.853	82.44
357.08	84.44
357.307	97.44
357.534	96.44
357.761	100.44
357.988	89.44
358.215	91.44
358.441	107.44
358.668	92.44
358.895	89.44
359.122	91.44
359.349	91.44
359.576	90.44
359.802	95.44
360.029	107.44
360.256	112.44
360.483	105.44
360.709	97.44
360.936	103.44
361.163	84.44
361.39	95.44
361.616	95.44
361.843	105.44
362.07	96.44
362.296	104.44
362.523	89.44
362.749	81.44
362.976	96.44
363.203	104.44
363.429	91.44
363.656	86.44
363.882	102.44
364.109	98.44
364.335	90.44
364.562	98.44
364.788	101.44
365.015	98.44
365.241	119.44
365.468	117.44
365.694	100.44
365.92	86.44
366.147	88.44
366.373	88.44
366.599	83.44
366.826	93.44
367.052	92.44
367.278	93.44
367.505	96.44
367.731	98.44
367.957	83.44
368.184	97.44
368.41	98.44
368.636	101.44
368.862	108.44
369.089	98.44
369.315	91.44
369.541	96.44
369.767	90.44
369.993	98.44
370.219	108.44
370.445	90.44
370.672	92.44
370.898	93.44
371.124	105.44
371.35	70.44
371.576	69.44
371.802	97.44
372.028	76.44
372.254	93.44
372.48	86.44
372.706	90.44
372.932	89.44
373.158	103.44
373.384	88.44
373.61	89.44
373.835	92.44
374.061	112.44
374.287	85.44
374.513	93.44
374.739	98.44
374.965	80.44
375.191	98.44
375.416	98.44
375.642	93.44
375.868	110.44
376.094	88.44
376.319	82.44
376.545	97.44
376.771	110.44
376.997	92.44
377.222	92.44
377.448	91.44
377.674	88.44
377.899	98.44
378.125	94.44
378.35	97.44
378.576	88.44
378.802	88.44
379.027	82.44
379.253	99.44
379.478	100.44
379.704	92.44
379.929	100.44
380.155	88.44
380.38	100.44
380.606	101.44
380.831	94.44
381.057	110.44
381.282	100.44
381.507	89.44
381.733	98.44
381.958	92.44
382.184	114.44
382.409	112.44
382.634	105.44
382.86	93.44
383.085	101.44
383.31	99.44
383.535	115.44
383.761	103.44
383.986	108.44
384.211	107.44
384.436	95.44
384.662	100.44
384.887	115.44
385.112	107.44
385.337	108.44
385.562	121.44
385.787	107.44
386.013	116.44
386.238	117.44
386.463	105.44
386.688	101.44
386.913	104.44
387.138	104.44
387.363	100.44
387.588	94.44
387.813	107.44
388.038	108.44
388.263	121.44
388.488	108.44
388.713	106.44
388.938	104.44
389.163	87.44
389.387	100.44
389.612	81.44
389.837	98.44
390.062	105.44
390.287	97.44
390.512	78.44
390.736	94.44
390.961	104.44
391.186	93.44
391.411	95.44
391.636	80.44
391.86	91.44
392.085	88.44
392.31	82.44
392.534	91.44
392.759	91.44
392.984	93.44
393.208	112.44
393.433	105.44
393.658	91.44
393.882	99.44
394.107	88.44
394.331	74.44
394.556	80.44
394.78	81.44
395.005	98.44
395.229	90.44
395.454	97.44
395.678	76.44
395.903	80.44
396.127	84.44
396.352	88.44
396.576	91.44
396.801	110.44
397.025	100.44
397.249	91.44
397.474	88.44
397.698	83.44
397.922	80.44
398.147	98.44
398.371	82.44
398.595	85.44
398.82	96.44
399.044	109.44
399.268	88.44
399.492	86.44
399.717	86.44
399.941	95.44
400.165	101.44
400.389	91.44
400.613	88.44
400.837	101.44
401.062	89.44
401.286	75.44
401.51	93.44
401.734	87.44
401.958	80.44
402.182	122.44
402.406	155.44
402.63	120.44
402.854	103.44
403.078	91.44
403.302	94.44
403.526	93.44
403.75	91.44
403.974	87.44
404.198	92.44
404.422	93.44
404.645	88.44
404.869	85.44
405.093	94.44
405.317	89.44
405.541	102.44
405.765	99.44
405.988	130.44
406.212	145.44
406.436	203.44
406.66	133.44
406.883	94.44
407.107	90.44
407.331	83.44
407.555	100.44
407.778	92.44
408.002	87.44
408.226	99.44
408.449	90.44
408.673	84.44
408.896	98.44
409.12	97.44
409.344	92.44
409.567	85.44
409.791	94.44
410.014	100.44
410.238	89.44
410.461	109.44
410.685	96.44
410.908	83.44
411.132	105.44
411.355	93.44
411.578	90.44
411.802	91.44
412.025	95.44
412.249	75.44
412.472	78.44
412.695	90.44
412.919	98.44
413.142	71.44
413.365	100.44
413.589	78.44
413.812	82.44
414.035	96.44
414.258	109.44
414.482	85.44
414.705	91.44
414.928	85.44
415.151	90.44
415.374	84.44
415.597	94.44
415.821	75.44
416.044	90.44
416.267	90.44
416.49	97.44
416.713	103.44
416.936	92.44
417.159	104.44
417.382	91.44
417.605	108.44
417.828	93.44
418.051	90.44
418.274	98.44
418.497	82.44
418.72	81.44
418.943	78.44
419.166	81.44
419.389	92.44
419.611	86.44
419.834	92.44
420.057	82.44
420.28	97.44
420.503	99.44
420.726	100.44
420.948	89.44
421.171	75.44
421.394	93.44
421.617	116.44
421.839	91.44
422.062	99.44
422.285	96.44
422.507	102.44
422.73	103.44
422.953	102.44
423.175	98.44
423.398	89.44
423.621	103.44
423.843	105.44
424.066	85.44
424.288	84.44
424.511	76.44
424.733	97.44
424.956	107.44
425.178	90.44
425.401	99.44
425.623	113.44
425.846	100.44
426.068	98.44
426.291	100.44
426.513	90.44
426.735	89.44
426.958	93.44
427.18	101.44
427.402	133.44
427.625	170.44
427.847	128.44
428.069	110.44
428.292	94.44
428.514	83.44
428.736	84.44
428.958	97.44
429.181	92.44
429.403	85.44
429.625	91.44
429.847	93.44
430.069	90.44
430.292	97.44
430.514	93.44
430.736	86.44
430.958	83.44
431.18	84.44
431.402	78.44
431.624	87.44
431.846	96.44
432.068	86.44
432.29	93.44
432.512	78.44
432.734	84.44
432.956	89.44
433.178	98.44
433.4	101.44
433.622	82.44
433.844	102.44
434.066	91.44
434.287	82.44
434.509	100.44
434.731	102.44
434.953	93.44
435.175	92.44
435.397	94.44
435.618	95.44
435.84	109.44
436.062	125.44
436.284	123.44
436.505	110.44
436.727	94.44
436.949	98.44
437.17	101.44
437.392	78.44
437.614	94.44
437.835	97.44
438.057	112.44
438.278	105.44
438.5	100.44
438.721	120.44
438.943	113.44
439.165	100.44
439.386	90.44
439.608	99.44
439.829	106.44
440.05	129.44
440.272	134.44
440.493	94.44
440.715	86.44
440.936	88.44
441.158	94.44
441.379	86.44
441.6	101.44
441.822	89.44
442.043	83.44
442.264	104.44
442.486	101.44
442.707	107.44
442.928	106.44
443.149	129.44
443.371	125.44
443.592	95.44
443.813	117.44
444.034	120.44
444.255	97.44
444.476	85.44
444.698	83.44
444.919	89.44
445.14	128.44
445.361	123.44
445.582	115.44
445.803	125.44
446.024	139.44
446.245	135.44
446.466	102.44
446.687	95.44
446.908	93.44
447.129	109.44
447.35	76.44
447.571	91.44
447.792	90.44
448.013	87.44
448.234	107.44
448.455	89.44
448.675	135.44
448.896	136.44
449.117	105.44
449.338	105.44
449.559	124.44
449.779	138.44
450	111.44
450.221	95.44
450.442	111.44
450.662	97.44
450.883	110.44
451.104	113.44
451.324	104.44
451.545	91.44
451.766	89.44
451.986	81.44
452.207	78.44
452.428	93.44
452.648	98.44
452.869	97.44
453.089	108.44
453.31	134.44
453.53	98.44
453.751	95.44
453.971	108.44
454.192	92.44
454.412	94.44
454.633	95.44
454.853	92.44
455.073	82.44
455.294	90.44
455.514	104.44
455.734	92.44
455.955	102.44
456.175	101.44
456.395	96.44
456.616	75.44
456.836	81.44
457.056	75.44
457.276	88.44
457.497	89.44
457.717	97.44
457.937	81.44
458.157	96.44
458.377	81.44
458.598	118.44
458.818	132.44
459.038	137.44
459.258	110.44
459.478	88.44
459.698	87.44
459.918	80.44
460.138	90.44
460.358	82.44
460.578	84.44
460.798	99.44
461.018	86.44
461.238	84.44
461.458	86.44
461.678	87.44
461.898	93.44
462.118	85.44
462.338	89.44
462.558	99.44
462.777	84.44
462.997	79.44
463.217	89.44
463.437	85.44
463.657	87.44
463.876	90.44
464.096	103.44
464.316	100.44
464.536	88.44
464.755	96.44
464.975	96.44
465.195	159.44
465.414	149.44
465.634	91.44
465.854	93.44
466.073	92.44
466.293	101.44
466.512	92.44
466.732	88.44
466.951	100.44
467.171	84.44
467.391	87.44
467.61	87.44
467.829	94.44
468.049	98.44
468.268	99.44
468.488	89.44
468.707	86.44
468.927	93.44
469.146	81.44
469.365	81.44
469.585	84.44
469.804	84.44
470.023	104.44
470.243	100.44
470.462	102.44
470.681	102.44
470.901	85.44
471.12	87.44
471.339	76.44
471.558	62.44
471.777	95.44
471.997	103.44
472.216	106.44
472.435	113.44
472.654	90.44
472.873	84.44
473.092	91.44
473.311	82.44
473.53	74.44
473.749	86.44
473.968	84.44
474.187	89.44
474.406	96.44
474.625	77.44
474.844	86.44
475.063	92.44
475.282	105.44
475.501	91.44
475.72	93.44
475.939	94.44
476.158	85.44
476.377	84.44
476.596	85.44
476.814	90.44
477.033	85.44
477.252	90.44
477.471	105.44
477.69	83.44
477.908	86.44
478.127	79.44
478.346	94.44
478.564	103.44
478.783	107.44
479.002	94.44
479.22	89.44
479.439	102.44
479.658	96.44
479.876	86.44
480.095	93.44
480.313	94.44
480.532	82.44
480.751	91.44
480.969	98.44
481.188	130.44
481.406	121.44
481.624	86.44
481.843	88.44
482.061	80.44
482.28	94.44
482.498	101.44
482.717	80.44
482.935	95.44
483.153	82.44
483.372	104.44
483.59	104.44
483.808	82.44
484.027	102.44
484.245	97.44
484.463	94.44
484.681	97.44
484.9	94.44
485.118	104.44
485.336	101.44
485.554	96.44
485.772	106.44
485.99	105.44
486.209	99.44
486.427	112.44
486.645	101.44
486.863	107.44
487.081	111.44
487.299	96.44
487.517	97.44
487.735	97.44
487.953	105.44
488.171	93.44
488.389	101.44
488.607	120.44
488.825	97.44
489.043	101.44
489.261	79.44
489.479	85.44
489.696	94.44
489.914	102.44
490.132	87.44
490.35	87.44
490.568	75.44
490.786	97.44
491.003	95.44
491.221	89.44
491.439	83.44
491.657	82.44
491.874	91.44
492.092	89.44
492.31	104.44
492.527	94.44
492.745	85.44
492.963	93.44
493.18	80.44
493.398	98.44
493.615	105.44
493.833	96.44
494.05	81.44
494.268	87.44
494.485	94.44
494.703	88.44
494.92	91.44
495.138	88.44
495.355	86.44
495.573	96.44
495.79	80.44
496.008	103.44
496.225	102.44
496.442	82.44
496.66	84.44
496.877	96.44
497.094	93.44
497.312	94.44
497.529	91.44
497.746	95.44
497.963	98.44
498.181	78.44
498.398	93.44
498.615	114.44
498.832	108.44
499.049	86.44
499.267	92.44
499.484	81.44
499.701	84.44
499.918	95.44
500.135	91.44
500.352	96.44
500.569	74.44
500.786	76.44
501.003	92.44
501.22	79.44
501.437	82.44
501.654	93.44
501.871	102.44
502.088	105.44
502.305	89.44
502.522	84.44
502.739	83.44
502.956	95.44
503.172	96.44
503.389	96.44
503.606	101.44
503.823	91.44
504.04	84.44
504.256	80.44
504.473	86.44
504.69	86.44
504.907	80.44
505.123	74.44
505.34	94.44
505.557	99.44
505.773	97.44
505.99	98.44
506.207	90.44
506.423	93.44
506.64	91.44
506.856	88.44
507.073	109.44
507.289	99.44
507.506	78.44
507.722	107.44
507.939	95.44
508.155	110.44
508.372	86.44
508.588	104.44
508.805	98.44
509.021	92.44
509.238	93.44
509.454	112.44
509.67	99.44
509.887	112.44
510.103	114.44
510.319	194.44
510.536	640.44
510.752	1884.44
510.968	554.44
511.184	144.44
511.401	103.44
511.617	93.44
511.833	84.44
512.049	89.44
512.265	85.44
512.481	94.44
512.698	96.44
512.914	101.44
513.13	93.44
513.346	93.44
513.562	98.44
513.778	102.44
513.994	107.44
514.21	97.44
514.426	106.44
514.642	123.44
514.858	130.44
515.074	164.44
515.29	383.44
515.506	1208.44
515.721	464.44
515.937	151.44
516.153	106.44
516.369	98.44
516.585	83.44
516.801	100.44
517.016	98.44
517.232	97.44
517.448	90.44
517.664	80.44
517.879	98.44
518.095	88.44
518.311	96.44
518.527	90.44
518.742	99.44
518.958	104.44
519.173	96.44
519.389	94.44
519.605	96.44
519.82	93.44
520.036	104.44
520.251	117.44
520.467	108.44
520.682	98.44
520.898	88.44
521.113	116.44
521.329	129.44
521.544	184.44
521.76	495.44
521.975	2002.44
522.19	1194.44
522.406	277.44
522.621	125.44
522.836	106.44
523.052	90.44
523.267	91.44
523.482	89.44
523.698	97.44
523.913	128.44
524.128	102.44
524.343	93.44
524.559	84.44
524.774	74.44
524.989	81.44
525.204	101.44
525.419	91.44
525.634	94.44
525.849	77.44
526.064	87.44
526.28	100.44
526.495	92.44
526.71	99.44
526.925	93.44
527.14	98.44
527.355	84.44
527.57	86.44
527.785	91.44
527.999	97.44
528.214	94.44
528.429	94.44
528.644	102.44
528.859	90.44
529.074	92.44
529.289	105.44
529.503	166.44
529.718	113.44
529.933	99.44
530.148	90.44
530.363	103.44
530.577	95.44
530.792	96.44
531.007	85.44
531.221	105.44
531.436	90.44
531.651	86.44
531.865	97.44
532.08	82.44
532.295	92.44
532.509	91.44
532.724	83.44
532.938	102.44
533.153	103.44
533.367	98.44
533.582	98.44
533.796	94.44
534.011	72.44
534.225	106.44
534.44	94.44
534.654	82.44
534.868	96.44
535.083	97.44
535.297	92.44
535.511	102.44
535.726	106.44
535.94	99.44
536.154	105.44
536.369	93.44
536.583	101.44
536.797	96.44
537.011	81.44
537.225	89.44
537.44	91.44
537.654	92.44
537.868	85.44
538.082	100.44
538.296	82.44
538.51	92.44
538.724	79.44
538.938	75.44
539.153	89.44
539.367	106.44
539.581	98.44
539.795	84.44
540.009	98.44
540.222	93.44
540.436	110.44
540.65	84.44
540.864	86.44
541.078	95.44
541.292	98.44
541.506	86.44
541.72	101.44
541.934	93.44
542.147	98.44
542.361	86.44
542.575	87.44
542.789	98.44
543.002	86.44
543.216	101.44
543.43	95.44
543.644	87.44
543.857	98.44
544.071	101.44
544.285	113.44
544.498	93.44
544.712	90.44
544.925	98.44
545.139	92.44
545.352	90.44
545.566	76.44
545.779	93.44
545.993	94.44
546.206	95.44
546.42	89.44
546.633	92.44
546.847	98.44
547.06	89.44
547.274	95.44
547.487	88.44
547.7	85.44
547.914	86.44
548.127	105.44
548.34	89.44
548.554	94.44
548.767	98.44
548.98	104.44
549.193	84.44
549.407	88.44
549.62	69.44
549.833	97.44
550.046	81.44
550.259	93.44
550.473	107.44
550.686	94.44
550.899	89.44
551.112	87.44
551.325	90.44
551.538	104.44
551.751	105.44
551.964	106.44
552.177	85.44
552.39	95.44
552.603	87.44
552.816	92.44
553.029	93.44
553.242	101.44
553.455	101.44
553.667	109.44
553.88	101.44
554.093	86.44
554.306	94.44
554.519	98.44
554.732	99.44
554.944	91.44
555.157	99.44
555.37	78.44
555.583	102.44
555.795	100.44
556.008	96.44
556.221	84.44
556.433	106.44
556.646	89.44
556.859	85.44
557.071	88.44
557.284	81.44
557.496	77.44
557.709	101.44
557.921	106.44
558.134	94.44
558.346	86.44
558.559	89.44
558.771	65.44
558.984	87.44
559.196	90.44
559.409	92.44
559.621	86.44
559.833	79.44
560.046	87.44
560.258	85.44
560.47	99.44
560.683	84.44
560.895	90.44
561.107	101.44
561.32	78.44
561.532	99.44
561.744	100.44
561.956	86.44
562.168	103.44
562.381	93.44
562.593	106.44
562.805	91.44
563.017	103.44
563.229	100.44
563.441	103.44
563.653	89.44
563.865	94.44
564.077	90.44
564.289	85.44
564.501	90.44
564.713	81.44
564.925	109.44
565.137	104.44
565.349	98.44
565.561	84.44
565.773	93.44
565.985	94.44
566.197	113.44
566.408	80.44
566.62	85.44
566.832	85.44
567.044	88.44
567.255	86.44
567.467	94.44
567.679	87.44
567.891	87.44
568.102	92.44
568.314	93.44
568.526	94.44
568.737	98.44
568.949	89.44
569.161	89.44
569.372	87.44
569.584	92.44
569.795	82.44
570.007	113.44
570.218	214.44
570.43	124.44
570.641	91.44
570.853	94.44
571.064	81.44
571.276	94.44
571.487	106.44
571.698	90.44
571.91	88.44
572.121	79.44
572.333	80.44
572.544	90.44
572.755	94.44
572.966	94.44
573.178	89.44
573.389	98.44
573.6	84.44
573.811	97.44
574.023	90.44
574.234	86.44
574.445	87.44
574.656	86.44
574.867	86.44
575.078	78.44
575.289	82.44
575.501	92.44
575.712	87.44
575.923	81.44
576.134	88.44
576.345	94.44
576.556	88.44
576.767	100.44
576.978	96.44
577.188	109.44
577.399	96.44
577.61	90.44
577.821	99.44
578.032	100.44
578.243	233.44
578.454	607.44
578.665	192.44
578.875	100.44
579.086	95.44
579.297	82.44
579.508	71.44
579.718	94.44
579.929	99.44
580.14	80.44
580.35	89.44
580.561	96.44
580.772	84.44
580.982	88.44
581.193	97.44
581.403	96.44
581.614	83.44
581.825	98.44
582.035	91.44
582.246	104.44
582.456	85.44
582.667	101.44
582.877	93.44
583.087	83.44
583.298	87.44
583.508	75.44
583.719	93.44
583.929	92.44
584.139	82.44
584.35	94.44
584.56	94.44
584.77	90.44
584.981	82.44
585.191	87.44
585.401	88.44
585.611	103.44
585.821	93.44
586.032	102.44
586.242	86.44
586.452	78.44
586.662	89.44
586.872	91.44
587.082	81.44
587.292	88.44
587.502	97.44
587.713	82.44
587.923	76.44
588.133	85.44
588.343	78.44
588.553	81.44
588.762	91.44
588.972	94.44
589.182	140.44
589.392	109.44
589.602	84.44
589.812	113.44
590.022	102.44
590.232	94.44
590.441	85.44
590.651	91.44
590.861	86.44
591.071	94.44
591.281	84.44
591.49	78.44
591.7	93.44
591.91	91.44
592.119	93.44
592.329	89.44
592.539	101.44
592.748	70.44
592.958	77.44
593.167	91.44
593.377	85.44
593.587	95.44
593.796	90.44
594.006	87.44
594.215	84.44
594.424	84.44
594.634	100.44
594.843	73.44
595.053	73.44
595.262	100.44
595.472	95.44
595.681	90.44
595.89	87.44
596.1	88.44
596.309	94.44
596.518	88.44
596.727	85.44
596.937	80.44
597.146	88.44
597.355	85.44
597.564	106.44
597.774	87.44
597.983	80.44
598.192	93.44
598.401	84.44
598.61	86.44
598.819	84.44
599.028	83.44
599.237	86.44
599.446	102.44
599.655	90.44
599.864	88.44
600.073	96.44
600.282	86.44
600.491	86.44
600.7	99.44
600.909	96.44
601.118	87.44
601.327	94.44
601.536	88.44
601.745	80.44
601.953	92.44
602.162	79.44
602.371	96.44
602.58	76.44
602.789	78.44
602.997	95.44
603.206	84.44
603.415	85.44
603.623	86.44
603.832	78.44
604.041	91.44
604.249	82.44
604.458	89.44
604.666	103.44
604.875	98.44
605.084	89.44
605.292	96.44
605.501	92.44
605.709	106.44
605.918	96.44
606.126	97.44
606.334	83.44
606.543	86.44
606.751	89.44
606.96	84.44
607.168	94.44
607.376	94.44
607.585	89.44
607.793	82.44
608.001	87.44
608.21	80.44
608.418	87.44
608.626	75.44
608.834	64.44
609.043	78.44
609.251	82.44
609.459	89.44
609.667	93.44
609.875	75.44
610.083	78.44
610.291	88.44
610.499	87.44
610.707	80.44
610.916	94.44
611.124	93.44
611.332	103.44
611.54	85.44
611.748	97.44
611.955	93.44
612.163	79.44
612.371	79.44
612.579	79.44
612.787	87.44
612.995	86.44
613.203	75.44
613.411	96.44
613.618	91.44
613.826	88.44
614.034	90.44
614.242	88.44
614.449	91.44
614.657	86.44
614.865	87.44
615.072	99.44
615.28	91.44
615.488	101.44
615.695	96.44
615.903	84.44
616.111	88.44
616.318	99.44
616.526	105.44
616.733	89.44
616.941	94.44
617.148	93.44
617.356	87.44
617.563	100.44
617.771	86.44
617.978	86.44
618.185	87.44
618.393	77.44
618.6	83.44
618.807	85.44
619.015	74.44
619.222	84.44
619.429	79.44
619.637	100.44
619.844	86.44
620.051	89.44
620.258	89.44
620.466	90.44
620.673	91.44
620.88	94.44
621.087	78.44
621.294	82.44
621.501	73.44
621.708	77.44
621.915	83.44
622.122	94.44
622.329	86.44
622.536	108.44
622.743	78.44
622.95	88.44
623.157	90.44
623.364	94.44
623.571	92.44
623.778	84.44
623.985	84.44
624.192	90.44
624.399	94.44
624.606	68.44
624.812	93.44
625.019	89.44
625.226	84.44
625.433	79.44
625.639	70.44
625.846	93.44
626.053	85.44
626.259	93.44
626.466	83.44
626.673	86.44
626.879	100.44
627.086	89.44
627.293	93.44
627.499	94.44
627.706	94.44
627.912	73.44
628.119	82.44
628.325	89.44
628.532	89.44
628.738	84.44
628.945	90.44
629.151	82.44
629.357	87.44
629.564	89.44
629.77	81.44
629.976	82.44
630.183	83.44
630.389	70.44
630.595	77.44
630.802	95.44
631.008	84.44
631.214	90.44
631.42	93.44
631.627	85.44
631.833	86.44
632.039	85.44
632.245	79.44
632.451	92.44
632.657	92.44
632.863	92.44
633.069	88.44
633.275	95.44
633.481	78.44
633.688	90.44
633.893	94.44
634.099	86.44
634.305	84.44
634.511	102.44
634.717	78.44
634.923	87.44
635.129	79.44
635.335	77.44
635.541	85.44
635.747	88.44
635.952	89.44
636.158	77.44
636.364	104.44
636.57	94.44
636.775	85.44
636.981	73.44
637.187	85.44
637.392	89.44
637.598	78.44
637.804	98.44
638.009	68.44
638.215	89.44
638.421	83.44
638.626	90.44
638.832	80.44
639.037	88.44
639.243	74.44
639.448	85.44
639.654	90.44
639.859	91.44
640.065	83.44
640.27	92.44
640.475	89.44
640.681	92.44
640.886	90.44
641.091	86.44
641.297	87.44
641.502	83.44
641.707	93.44
641.913	84.44
642.118	90.44
642.323	87.44
642.528	87.44
642.733	99.44
642.939	108.44
643.144	93.44
643.349	90.44
643.554	100.44
643.759	70.44
643.964	86.44
644.169	82.44
644.374	86.44
644.579	96.44
644.784	80.44
644.989	78.44
645.194	91.44
645.399	78.44
645.604	85.44
645.809	88.44
646.014	101.44
646.219	86.44
646.423	89.44
646.628	78.44
646.833	98.44
647.038	93.44
647.243	85.44
647.447	85.44
647.652	95.44
647.857	95.44
648.062	76.44
648.266	89.44
648.471	98.44
648.676	103.44
648.88	92.44
649.085	97.44
649.289	93.44
649.494	96.44
649.698	126.44
649.903	109.44
650.107	97.44
650.312	97.44
650.516	72.44
650.721	81.44
650.925	90.44
651.13	84.44
651.334	72.44
651.539	86.44
651.743	75.44
651.947	81.44
652.152	81.44
652.356	98.44
652.56	86.44
652.764	87.44
652.969	83.44
653.173	85.44
653.377	75.44
653.581	81.44
653.785	81.44
653.99	87.44
654.194	83.44
654.398	93.44
654.602	90.44
654.806	96.44
655.01	113.44
655.214	89.44
655.418	70.44
655.622	83.44
655.826	84.44
656.03	99.44
656.234	90.44
656.438	105.44
656.642	85.44
656.846	85.44
657.049	77.44
657.253	88.44
657.457	104.44
657.661	87.44
657.865	84.44
658.068	76.44
658.272	88.44
658.476	78.44
658.68	93.44
658.883	82.44
659.087	80.44
659.291	87.44
659.494	82.44
659.698	77.44
659.901	94.44
660.105	92.44
660.309	88.44
660.512	77.44
660.716	100.44
660.919	93.44
661.123	87.44
661.326	88.44
661.53	93.44
661.733	93.44
661.936	85.44
662.14	78.44
662.343	80.44
662.546	85.44
662.75	90.44
662.953	84.44
663.156	93.44
663.36	92.44
663.563	85.44
663.766	83.44
663.969	92.44
664.173	70.44
664.376	76.44
664.579	78.44
664.782	93.44
664.985	77.44
665.188	76.44
665.391	100.44
665.594	72.44
665.797	79.44
666	88.44
666.203	82.44
666.406	86.44
666.609	82.44
666.812	97.44
667.015	71.44
667.218	82.44
667.421	78.44
667.624	77.44
667.827	83.44
668.03	86.44
668.232	92.44
668.435	75.44
668.638	83.44
668.841	81.44
669.043	87.44
669.246	86.44
669.449	77.44
669.651	85.44
669.854	75.44
670.057	92.44
670.259	79.44
670.462	83.44
670.665	77.44
670.867	74.44
671.07	89.44
671.272	88.44
671.475	65.44
671.677	80.44
671.88	92.44
672.082	76.44
672.284	84.44
672.487	97.44
672.689	86.44
672.892	83.44
