Data from Circ_2002_H10_HRD10591_00017.txt Node
Date: Wed Jan 03 10:41:01 EST 2024
User: Yrep
Spectrometer: HR+D1059
Trigger mode: 1
Integration Time (sec): 1.000000E-1
Scans to average: 1
Electric dark correction enabled: true
Nonlinearity correction enabled: false
Boxcar width: 0
XAxis mode: Wavelengths
Number of Pixels in Spectrum: 2048
>>>>>Begin Spectral Data<<<<<
223.165	-22.25
223.4	-22.25
223.635	-22.25
223.869	-12.25
224.104	-18.25
224.338	-8.25
224.573	-25.25
224.808	-20.25
225.042	-12.25
225.277	-2.25
225.511	-8.25
225.746	14.75
225.98	9.75
226.215	13.75
226.449	14.75
226.683	18.75
226.918	18.75
227.152	38.75
227.387	34.75
227.621	42.75
227.856	53.75
228.09	47.75
228.324	53.75
228.559	56.75
228.793	63.75
229.027	53.75
229.262	69.75
229.496	79.75
229.73	89.75
229.964	85.75
230.199	73.75
230.433	70.75
230.667	95.75
230.901	82.75
231.136	70.75
231.37	73.75
231.604	99.75
231.838	74.75
232.072	82.75
232.306	74.75
232.541	90.75
232.775	85.75
233.009	57.75
233.243	79.75
233.477	73.75
233.711	81.75
233.945	65.75
234.179	79.75
234.413	72.75
234.647	85.75
234.881	82.75
235.115	84.75
235.349	86.75
235.583	68.75
235.817	74.75
236.051	82.75
236.285	77.75
236.519	83.75
236.753	84.75
236.987	88.75
237.221	77.75
237.455	81.75
237.689	77.75
237.922	73.75
238.156	86.75
238.39	56.75
238.624	73.75
238.858	72.75
239.091	74.75
239.325	63.75
239.559	81.75
239.793	79.75
240.027	88.75
240.26	89.75
240.494	86.75
240.728	72.75
240.961	79.75
241.195	67.75
241.429	83.75
241.662	74.75
241.896	65.75
242.13	73.75
242.363	75.75
242.597	66.75
242.83	79.75
243.064	78.75
243.298	75.75
243.531	99.75
243.765	74.75
243.998	76.75
244.232	79.75
244.465	84.75
244.699	72.75
244.932	63.75
245.166	78.75
245.399	81.75
245.633	73.75
245.866	85.75
246.099	81.75
246.333	75.75
246.566	76.75
246.8	74.75
247.033	80.75
247.266	75.75
247.5	67.75
247.733	78.75
247.966	69.75
248.2	84.75
248.433	78.75
248.666	85.75
248.899	94.75
249.133	89.75
249.366	90.75
249.599	85.75
249.832	72.75
250.066	70.75
250.299	89.75
250.532	67.75
250.765	88.75
250.998	77.75
251.231	73.75
251.465	78.75
251.698	84.75
251.931	78.75
252.164	87.75
252.397	72.75
252.63	80.75
252.863	82.75
253.096	78.75
253.329	51.75
253.562	77.75
253.795	67.75
254.028	75.75
254.261	81.75
254.494	95.75
254.727	89.75
254.96	80.75
255.193	69.75
255.426	78.75
255.659	78.75
255.892	86.75
256.124	90.75
256.357	83.75
256.59	78.75
256.823	75.75
257.056	80.75
257.289	84.75
257.521	83.75
257.754	82.75
257.987	77.75
258.22	82.75
258.452	87.75
258.685	93.75
258.918	86.75
259.151	90.75
259.383	85.75
259.616	87.75
259.849	82.75
260.081	71.75
260.314	82.75
260.547	80.75
260.779	91.75
261.012	89.75
261.244	82.75
261.477	76.75
261.71	88.75
261.942	106.75
262.175	103.75
262.407	89.75
262.64	88.75
262.872	78.75
263.105	81.75
263.337	82.75
263.57	84.75
263.802	70.75
264.035	78.75
264.267	62.75
264.499	80.75
264.732	83.75
264.964	78.75
265.197	77.75
265.429	89.75
265.661	95.75
265.894	87.75
266.126	86.75
266.358	79.75
266.591	73.75
266.823	87.75
267.055	70.75
267.287	88.75
267.52	82.75
267.752	80.75
267.984	85.75
268.216	77.75
268.448	96.75
268.681	84.75
268.913	82.75
269.145	87.75
269.377	76.75
269.609	77.75
269.841	81.75
270.073	90.75
270.306	86.75
270.538	77.75
270.77	73.75
271.002	78.75
271.234	77.75
271.466	102.75
271.698	77.75
271.93	77.75
272.162	78.75
272.394	94.75
272.626	91.75
272.858	86.75
273.09	73.75
273.322	72.75
273.553	71.75
273.785	88.75
274.017	70.75
274.249	85.75
274.481	87.75
274.713	71.75
274.945	99.75
275.176	84.75
275.408	78.75
275.64	84.75
275.872	85.75
276.104	79.75
276.335	93.75
276.567	84.75
276.799	109.75
277.031	91.75
277.262	84.75
277.494	93.75
277.726	95.75
277.957	62.75
278.189	78.75
278.421	81.75
278.652	88.75
278.884	81.75
279.115	83.75
279.347	88.75
279.579	78.75
279.81	89.75
280.042	82.75
280.273	89.75
280.505	84.75
280.736	84.75
280.968	77.75
281.199	96.75
281.431	96.75
281.662	87.75
281.894	95.75
282.125	81.75
282.356	107.75
282.588	144.75
282.819	121.75
283.051	101.75
283.282	85.75
283.513	98.75
283.745	82.75
283.976	86.75
284.207	91.75
284.439	77.75
284.67	87.75
284.901	80.75
285.132	79.75
285.364	80.75
285.595	92.75
285.826	81.75
286.057	83.75
286.288	78.75
286.52	87.75
286.751	93.75
286.982	79.75
287.213	88.75
287.444	95.75
287.675	81.75
287.906	91.75
288.138	83.75
288.369	103.75
288.6	87.75
288.831	79.75
289.062	86.75
289.293	89.75
289.524	109.75
289.755	107.75
289.986	84.75
290.217	89.75
290.448	89.75
290.679	83.75
290.91	88.75
291.141	84.75
291.371	76.75
291.602	80.75
291.833	90.75
292.064	83.75
292.295	83.75
292.526	94.75
292.757	90.75
292.987	97.75
293.218	85.75
293.449	97.75
293.68	91.75
293.91	93.75
294.141	90.75
294.372	87.75
294.603	81.75
294.833	98.75
295.064	90.75
295.295	77.75
295.525	106.75
295.756	86.75
295.987	97.75
296.217	146.75
296.448	121.75
296.679	103.75
296.909	87.75
297.14	82.75
297.37	83.75
297.601	94.75
297.831	81.75
298.062	97.75
298.292	86.75
298.523	90.75
298.753	87.75
298.984	94.75
299.214	93.75
299.445	86.75
299.675	96.75
299.905	103.75
300.136	86.75
300.366	90.75
300.597	97.75
300.827	89.75
301.057	105.75
301.288	116.75
301.518	85.75
301.748	90.75
301.979	93.75
302.209	95.75
302.439	82.75
302.669	77.75
302.9	87.75
303.13	101.75
303.36	88.75
303.59	90.75
303.82	102.75
304.051	89.75
304.281	93.75
304.511	84.75
304.741	77.75
304.971	96.75
305.201	91.75
305.431	88.75
305.661	94.75
305.891	89.75
306.121	99.75
306.352	99.75
306.582	106.75
306.812	95.75
307.042	100.75
307.272	85.75
307.502	84.75
307.731	104.75
307.961	89.75
308.191	83.75
308.421	92.75
308.651	91.75
308.881	93.75
309.111	85.75
309.341	86.75
309.571	101.75
309.8	86.75
310.03	81.75
310.26	98.75
310.49	87.75
310.72	102.75
310.949	97.75
311.179	108.75
311.409	93.75
311.639	88.75
311.868	101.75
312.098	94.75
312.328	94.75
312.557	108.75
312.787	103.75
313.017	97.75
313.246	83.75
313.476	88.75
313.706	85.75
313.935	87.75
314.165	111.75
314.394	108.75
314.624	81.75
314.853	85.75
315.083	91.75
315.312	93.75
315.542	83.75
315.771	99.75
316.001	89.75
316.23	93.75
316.46	100.75
316.689	96.75
316.919	93.75
317.148	101.75
317.377	88.75
317.607	94.75
317.836	89.75
318.065	91.75
318.295	95.75
318.524	88.75
318.753	89.75
318.983	100.75
319.212	97.75
319.441	112.75
319.67	110.75
319.9	92.75
320.129	88.75
320.358	91.75
320.587	91.75
320.816	102.75
321.046	107.75
321.275	89.75
321.504	91.75
321.733	97.75
321.962	91.75
322.191	89.75
322.42	89.75
322.649	114.75
322.878	127.75
323.108	101.75
323.337	120.75
323.566	133.75
323.795	155.75
324.024	203.75
324.253	397.75
324.482	824.75
324.71	1747.75
324.939	2291.75
325.168	838.75
325.397	239.75
325.626	147.75
325.855	120.75
326.084	138.75
326.313	137.75
326.542	149.75
326.77	223.75
326.999	454.75
327.228	991.75
327.457	1762.75
327.686	1423.75
327.914	373.75
328.143	200.75
328.372	150.75
328.6	109.75
328.829	119.75
329.058	123.75
329.287	132.75
329.515	93.75
329.744	100.75
329.972	103.75
330.201	107.75
330.43	103.75
330.658	136.75
330.887	143.75
331.115	115.75
331.344	79.75
331.572	110.75
331.801	99.75
332.03	104.75
332.258	95.75
332.486	94.75
332.715	94.75
332.943	102.75
333.172	82.75
333.4	92.75
333.629	102.75
333.857	106.75
334.085	97.75
334.314	97.75
334.542	95.75
334.771	102.75
334.999	84.75
335.227	86.75
335.455	115.75
335.684	112.75
335.912	89.75
336.14	104.75
336.369	75.75
336.597	97.75
336.825	112.75
337.053	98.75
337.281	88.75
337.51	95.75
337.738	105.75
337.966	95.75
338.194	105.75
338.422	88.75
338.65	89.75
338.878	81.75
339.106	86.75
339.334	72.75
339.562	95.75
339.79	87.75
340.018	103.75
340.246	95.75
340.474	115.75
340.702	85.75
340.93	79.75
341.158	90.75
341.386	97.75
341.614	110.75
341.842	103.75
342.07	92.75
342.298	85.75
342.526	102.75
342.754	85.75
342.981	86.75
343.209	89.75
343.437	95.75
343.665	88.75
343.893	88.75
344.12	101.75
344.348	83.75
344.576	85.75
344.804	95.75
345.031	91.75
345.259	100.75
345.487	89.75
345.714	89.75
345.942	84.75
346.17	103.75
346.397	97.75
346.625	83.75
346.853	93.75
347.08	90.75
347.308	77.75
347.535	101.75
347.763	90.75
347.99	104.75
348.218	97.75
348.445	103.75
348.673	95.75
348.9	93.75
349.128	82.75
349.355	82.75
349.583	93.75
349.81	106.75
350.037	93.75
350.265	89.75
350.492	91.75
350.72	108.75
350.947	118.75
351.174	106.75
351.402	114.75
351.629	98.75
351.856	96.75
352.083	104.75
352.311	101.75
352.538	109.75
352.765	106.75
352.992	102.75
353.22	98.75
353.447	101.75
353.674	102.75
353.901	106.75
354.128	103.75
354.355	95.75
354.583	105.75
354.81	101.75
355.037	96.75
355.264	94.75
355.491	88.75
355.718	83.75
355.945	90.75
356.172	83.75
356.399	96.75
356.626	105.75
356.853	89.75
357.08	93.75
357.307	102.75
357.534	96.75
357.761	99.75
357.988	108.75
358.215	96.75
358.441	94.75
358.668	100.75
358.895	89.75
359.122	95.75
359.349	87.75
359.576	88.75
359.802	85.75
360.029	104.75
360.256	110.75
360.483	93.75
360.709	103.75
360.936	91.75
361.163	91.75
361.39	100.75
361.616	86.75
361.843	103.75
362.07	97.75
362.296	105.75
362.523	99.75
362.749	78.75
362.976	89.75
363.203	91.75
363.429	76.75
363.656	86.75
363.882	87.75
364.109	91.75
364.335	94.75
364.562	86.75
364.788	86.75
365.015	83.75
365.241	86.75
365.468	125.75
365.694	93.75
365.92	99.75
366.147	94.75
366.373	79.75
366.599	94.75
366.826	89.75
367.052	79.75
367.278	87.75
367.505	88.75
367.731	86.75
367.957	95.75
368.184	84.75
368.41	93.75
368.636	93.75
368.862	114.75
369.089	86.75
369.315	97.75
369.541	84.75
369.767	85.75
369.993	96.75
370.219	98.75
370.445	81.75
370.672	81.75
370.898	88.75
371.124	91.75
371.35	83.75
371.576	82.75
371.802	86.75
372.028	89.75
372.254	88.75
372.48	79.75
372.706	84.75
372.932	89.75
373.158	96.75
373.384	78.75
373.61	94.75
373.835	97.75
374.061	86.75
374.287	81.75
374.513	94.75
374.739	71.75
374.965	78.75
375.191	89.75
375.416	88.75
375.642	80.75
375.868	98.75
376.094	81.75
376.319	88.75
376.545	99.75
376.771	81.75
376.997	90.75
377.222	82.75
377.448	87.75
377.674	96.75
377.899	100.75
378.125	68.75
378.35	94.75
378.576	96.75
378.802	86.75
379.027	88.75
379.253	74.75
379.478	83.75
379.704	98.75
379.929	93.75
380.155	83.75
380.38	90.75
380.606	90.75
380.831	97.75
381.057	106.75
381.282	86.75
381.507	103.75
381.733	101.75
381.958	112.75
382.184	91.75
382.409	97.75
382.634	98.75
382.86	102.75
383.085	103.75
383.31	101.75
383.535	110.75
383.761	96.75
383.986	112.75
384.211	107.75
384.436	103.75
384.662	93.75
384.887	110.75
385.112	117.75
385.337	111.75
385.562	105.75
385.787	108.75
386.013	112.75
386.238	115.75
386.463	121.75
386.688	116.75
386.913	109.75
387.138	104.75
387.363	102.75
387.588	101.75
387.813	97.75
388.038	113.75
388.263	126.75
388.488	113.75
388.713	99.75
388.938	104.75
389.163	109.75
389.387	110.75
389.612	88.75
389.837	96.75
390.062	110.75
390.287	85.75
390.512	78.75
390.736	82.75
390.961	82.75
391.186	84.75
391.411	98.75
391.636	95.75
391.86	82.75
392.085	85.75
392.31	65.75
392.534	80.75
392.759	90.75
392.984	92.75
393.208	97.75
393.433	99.75
393.658	98.75
393.882	81.75
394.107	75.75
394.331	87.75
394.556	90.75
394.78	76.75
395.005	88.75
395.229	88.75
395.454	87.75
395.678	74.75
395.903	85.75
396.127	89.75
396.352	85.75
396.576	91.75
396.801	113.75
397.025	94.75
397.249	91.75
397.474	80.75
397.698	84.75
397.922	82.75
398.147	100.75
398.371	86.75
398.595	81.75
398.82	88.75
399.044	93.75
399.268	94.75
399.492	90.75
399.717	101.75
399.941	96.75
400.165	94.75
400.389	90.75
400.613	83.75
400.837	83.75
401.062	86.75
401.286	83.75
401.51	87.75
401.734	99.75
401.958	99.75
402.182	122.75
402.406	158.75
402.63	131.75
402.854	90.75
403.078	87.75
403.302	88.75
403.526	100.75
403.75	92.75
403.974	85.75
404.198	71.75
404.422	91.75
404.645	84.75
404.869	89.75
405.093	92.75
405.317	81.75
405.541	88.75
405.765	91.75
405.988	105.75
406.212	152.75
406.436	209.75
406.66	139.75
406.883	101.75
407.107	81.75
407.331	85.75
407.555	93.75
407.778	81.75
408.002	81.75
408.226	94.75
408.449	87.75
408.673	91.75
408.896	86.75
409.12	92.75
409.344	83.75
409.567	89.75
409.791	87.75
410.014	89.75
410.238	80.75
410.461	85.75
410.685	96.75
410.908	91.75
411.132	103.75
411.355	109.75
411.578	82.75
411.802	80.75
412.025	81.75
412.249	79.75
412.472	110.75
412.695	93.75
412.919	89.75
413.142	98.75
413.365	91.75
413.589	86.75
413.812	85.75
414.035	95.75
414.258	95.75
414.482	80.75
414.705	95.75
414.928	95.75
415.151	88.75
415.374	88.75
415.597	86.75
415.821	85.75
416.044	96.75
416.267	89.75
416.49	92.75
416.713	91.75
416.936	97.75
417.159	90.75
417.382	80.75
417.605	94.75
417.828	88.75
418.051	90.75
418.274	103.75
418.497	82.75
418.72	102.75
418.943	89.75
419.166	91.75
419.389	87.75
419.611	89.75
419.834	97.75
420.057	92.75
420.28	84.75
420.503	102.75
420.726	98.75
420.948	84.75
421.171	93.75
421.394	97.75
421.617	83.75
421.839	90.75
422.062	88.75
422.285	88.75
422.507	101.75
422.73	98.75
422.953	90.75
423.175	71.75
423.398	77.75
423.621	83.75
423.843	90.75
424.066	98.75
424.288	89.75
424.511	83.75
424.733	79.75
424.956	102.75
425.178	98.75
425.401	98.75
425.623	96.75
425.846	84.75
426.068	97.75
426.291	97.75
426.513	87.75
426.735	85.75
426.958	83.75
427.18	97.75
427.402	128.75
427.625	162.75
427.847	117.75
428.069	97.75
428.292	78.75
428.514	97.75
428.736	81.75
428.958	90.75
429.181	86.75
429.403	93.75
429.625	74.75
429.847	90.75
430.069	84.75
430.292	90.75
430.514	76.75
430.736	73.75
430.958	85.75
431.18	83.75
431.402	73.75
431.624	81.75
431.846	86.75
432.068	87.75
432.29	87.75
432.512	94.75
432.734	84.75
432.956	87.75
433.178	102.75
433.4	102.75
433.622	80.75
433.844	93.75
434.066	79.75
434.287	74.75
434.509	88.75
434.731	81.75
434.953	82.75
435.175	89.75
435.397	89.75
435.618	84.75
435.84	110.75
436.062	128.75
436.284	104.75
436.505	99.75
436.727	108.75
436.949	86.75
437.17	87.75
437.392	88.75
437.614	91.75
437.835	103.75
438.057	106.75
438.278	101.75
438.5	102.75
438.721	102.75
438.943	100.75
439.165	101.75
439.386	94.75
439.608	85.75
439.829	109.75
440.05	126.75
440.272	137.75
440.493	95.75
440.715	84.75
440.936	72.75
441.158	84.75
441.379	91.75
441.6	79.75
441.822	86.75
442.043	91.75
442.264	111.75
442.486	95.75
442.707	89.75
442.928	100.75
443.149	134.75
443.371	122.75
443.592	97.75
443.813	110.75
444.034	98.75
444.255	93.75
444.476	73.75
444.698	93.75
444.919	100.75
445.14	136.75
445.361	108.75
445.582	99.75
445.803	143.75
446.024	159.75
446.245	128.75
446.466	103.75
446.687	84.75
446.908	85.75
447.129	87.75
447.35	91.75
447.571	82.75
447.792	79.75
448.013	116.75
448.234	100.75
448.455	100.75
448.675	110.75
448.896	119.75
449.117	83.75
449.338	101.75
449.559	138.75
449.779	115.75
450	91.75
450.221	88.75
450.442	77.75
450.662	94.75
450.883	118.75
451.104	105.75
451.324	112.75
451.545	96.75
451.766	94.75
451.986	91.75
452.207	87.75
452.428	74.75
452.648	102.75
452.869	112.75
453.089	103.75
453.31	109.75
453.53	104.75
453.751	113.75
453.971	102.75
454.192	106.75
454.412	94.75
454.633	88.75
454.853	80.75
455.073	81.75
455.294	87.75
455.514	90.75
455.734	93.75
455.955	78.75
456.175	80.75
456.395	77.75
456.616	85.75
456.836	88.75
457.056	83.75
457.276	88.75
457.497	84.75
457.717	90.75
457.937	82.75
458.157	86.75
458.377	97.75
458.598	103.75
458.818	143.75
459.038	150.75
459.258	112.75
459.478	85.75
459.698	103.75
459.918	91.75
460.138	90.75
460.358	79.75
460.578	81.75
460.798	101.75
461.018	100.75
461.238	84.75
461.458	85.75
461.678	84.75
461.898	96.75
462.118	98.75
462.338	90.75
462.558	82.75
462.777	90.75
462.997	93.75
463.217	84.75
463.437	79.75
463.657	85.75
463.876	85.75
464.096	100.75
464.316	83.75
464.536	85.75
464.755	96.75
464.975	114.75
465.195	154.75
465.414	149.75
465.634	105.75
465.854	83.75
466.073	93.75
466.293	82.75
466.512	95.75
466.732	91.75
466.951	94.75
467.171	103.75
467.391	95.75
467.61	102.75
467.829	102.75
468.049	85.75
468.268	90.75
468.488	68.75
468.707	92.75
468.927	87.75
469.146	78.75
469.365	87.75
469.585	87.75
469.804	72.75
470.023	84.75
470.243	85.75
470.462	91.75
470.681	87.75
470.901	90.75
471.12	85.75
471.339	79.75
471.558	95.75
471.777	97.75
471.997	88.75
472.216	95.75
472.435	84.75
472.654	91.75
472.873	95.75
473.092	84.75
473.311	69.75
473.53	59.75
473.749	78.75
473.968	82.75
474.187	103.75
474.406	95.75
474.625	74.75
474.844	100.75
475.063	91.75
475.282	87.75
475.501	89.75
475.72	89.75
475.939	85.75
476.158	93.75
476.377	90.75
476.596	82.75
476.814	96.75
477.033	89.75
477.252	94.75
477.471	85.75
477.69	94.75
477.908	90.75
478.127	90.75
478.346	91.75
478.564	87.75
478.783	101.75
479.002	99.75
479.22	84.75
479.439	106.75
479.658	99.75
479.876	93.75
480.095	90.75
480.313	88.75
480.532	96.75
480.751	105.75
480.969	98.75
481.188	108.75
481.406	94.75
481.624	90.75
481.843	90.75
482.061	96.75
482.28	93.75
482.498	83.75
482.717	85.75
482.935	81.75
483.153	94.75
483.372	78.75
483.59	81.75
483.808	78.75
484.027	90.75
484.245	104.75
484.463	85.75
484.681	98.75
484.9	93.75
485.118	95.75
485.336	99.75
485.554	99.75
485.772	107.75
485.99	105.75
486.209	97.75
486.427	100.75
486.645	103.75
486.863	110.75
487.081	98.75
487.299	103.75
487.517	94.75
487.735	91.75
487.953	87.75
488.171	99.75
488.389	98.75
488.607	91.75
488.825	93.75
489.043	73.75
489.261	86.75
489.479	82.75
489.696	95.75
489.914	89.75
490.132	92.75
490.35	81.75
490.568	87.75
490.786	73.75
491.003	81.75
491.221	89.75
491.439	88.75
491.657	101.75
491.874	82.75
492.092	87.75
492.31	93.75
492.527	82.75
492.745	86.75
492.963	82.75
493.18	86.75
493.398	90.75
493.615	104.75
493.833	98.75
494.05	77.75
494.268	87.75
494.485	89.75
494.703	74.75
494.92	96.75
495.138	82.75
495.355	74.75
495.573	87.75
495.79	93.75
496.008	78.75
496.225	73.75
496.442	84.75
496.66	95.75
496.877	84.75
497.094	89.75
497.312	84.75
497.529	83.75
497.746	91.75
497.963	94.75
498.181	74.75
498.398	86.75
498.615	113.75
498.832	109.75
499.049	81.75
499.267	91.75
499.484	78.75
499.701	84.75
499.918	84.75
500.135	99.75
500.352	84.75
500.569	74.75
500.786	94.75
501.003	83.75
501.22	87.75
501.437	77.75
501.654	99.75
501.871	106.75
502.088	101.75
502.305	86.75
502.522	93.75
502.739	90.75
502.956	82.75
503.172	84.75
503.389	88.75
503.606	94.75
503.823	86.75
504.04	86.75
504.256	90.75
504.473	82.75
504.69	86.75
504.907	101.75
505.123	103.75
505.34	83.75
505.557	76.75
505.773	91.75
505.99	90.75
506.207	90.75
506.423	102.75
506.64	88.75
506.856	86.75
507.073	93.75
507.289	93.75
507.506	85.75
507.722	104.75
507.939	101.75
508.155	82.75
508.372	88.75
508.588	89.75
508.805	91.75
509.021	87.75
509.238	87.75
509.454	89.75
509.67	89.75
509.887	97.75
510.103	129.75
510.319	204.75
510.536	683.75
510.752	2224.75
510.968	635.75
511.184	158.75
511.401	109.75
511.617	110.75
511.833	90.75
512.049	105.75
512.265	102.75
512.481	97.75
512.698	89.75
512.914	100.75
513.13	81.75
513.346	97.75
513.562	90.75
513.778	92.75
513.994	94.75
514.21	106.75
514.426	110.75
514.642	131.75
514.858	125.75
515.074	160.75
515.29	404.75
515.506	1392.75
515.721	511.75
515.937	158.75
516.153	106.75
516.369	97.75
516.585	96.75
516.801	97.75
517.016	93.75
517.232	98.75
517.448	103.75
517.664	99.75
517.879	106.75
518.095	97.75
518.311	99.75
518.527	91.75
518.742	96.75
518.958	96.75
519.173	90.75
519.389	91.75
519.605	94.75
519.82	104.75
520.036	95.75
520.251	120.75
520.467	110.75
520.682	98.75
520.898	99.75
521.113	119.75
521.329	142.75
521.544	207.75
521.76	540.75
521.975	2247.75
522.19	1365.75
522.406	290.75
522.621	115.75
522.836	100.75
523.052	109.75
523.267	88.75
523.482	101.75
523.698	101.75
523.913	117.75
524.128	109.75
524.343	79.75
524.559	86.75
524.774	93.75
524.989	93.75
525.204	106.75
525.419	102.75
525.634	98.75
525.849	101.75
526.064	78.75
526.28	88.75
526.495	97.75
526.71	81.75
526.925	89.75
527.14	100.75
527.355	85.75
527.57	72.75
527.785	81.75
527.999	103.75
528.214	103.75
528.429	94.75
528.644	99.75
528.859	85.75
529.074	98.75
529.289	123.75
529.503	179.75
529.718	96.75
529.933	87.75
530.148	75.75
530.363	80.75
530.577	89.75
530.792	90.75
531.007	86.75
531.221	102.75
531.436	87.75
531.651	80.75
531.865	105.75
532.08	77.75
532.295	89.75
532.509	86.75
532.724	82.75
532.938	97.75
533.153	90.75
533.367	88.75
533.582	99.75
533.796	88.75
534.011	83.75
534.225	89.75
534.44	81.75
534.654	100.75
534.868	98.75
535.083	88.75
535.297	83.75
535.511	86.75
535.726	104.75
535.94	107.75
536.154	104.75
536.369	88.75
536.583	91.75
536.797	85.75
537.011	85.75
537.225	98.75
537.44	93.75
537.654	80.75
537.868	87.75
538.082	87.75
538.296	84.75
538.51	111.75
538.724	82.75
538.938	94.75
539.153	87.75
539.367	102.75
539.581	95.75
539.795	104.75
540.009	111.75
540.222	97.75
540.436	94.75
540.65	88.75
540.864	85.75
541.078	83.75
541.292	88.75
541.506	92.75
541.72	91.75
541.934	99.75
542.147	82.75
542.361	91.75
542.575	87.75
542.789	92.75
543.002	86.75
543.216	83.75
543.43	95.75
543.644	82.75
543.857	91.75
544.071	97.75
544.285	109.75
544.498	87.75
544.712	79.75
544.925	78.75
545.139	70.75
545.352	91.75
545.566	89.75
545.779	85.75
545.993	83.75
546.206	93.75
546.42	91.75
546.633	93.75
546.847	84.75
547.06	89.75
547.274	90.75
547.487	82.75
547.7	91.75
547.914	83.75
548.127	76.75
548.34	91.75
548.554	86.75
548.767	91.75
548.98	93.75
549.193	86.75
549.407	94.75
549.62	81.75
549.833	91.75
550.046	79.75
550.259	80.75
550.473	79.75
550.686	90.75
550.899	94.75
551.112	95.75
551.325	84.75
551.538	80.75
551.751	93.75
551.964	88.75
552.177	89.75
552.39	99.75
552.603	85.75
552.816	99.75
553.029	93.75
553.242	93.75
553.455	86.75
553.667	105.75
553.88	108.75
554.093	90.75
554.306	83.75
554.519	95.75
554.732	100.75
554.944	98.75
555.157	81.75
555.37	89.75
555.583	81.75
555.795	98.75
556.008	91.75
556.221	90.75
556.433	91.75
556.646	89.75
556.859	85.75
557.071	98.75
557.284	81.75
557.496	91.75
557.709	78.75
557.921	94.75
558.134	81.75
558.346	102.75
558.559	85.75
558.771	80.75
558.984	97.75
559.196	101.75
559.409	78.75
559.621	95.75
559.833	80.75
560.046	93.75
560.258	83.75
560.47	88.75
560.683	100.75
560.895	95.75
561.107	99.75
561.32	87.75
561.532	89.75
561.744	88.75
561.956	88.75
562.168	91.75
562.381	92.75
562.593	94.75
562.805	96.75
563.017	78.75
563.229	91.75
563.441	94.75
563.653	96.75
563.865	87.75
564.077	101.75
564.289	93.75
564.501	101.75
564.713	90.75
564.925	91.75
565.137	95.75
565.349	90.75
565.561	87.75
565.773	97.75
565.985	99.75
566.197	85.75
566.408	85.75
566.62	89.75
566.832	65.75
567.044	86.75
567.255	99.75
567.467	75.75
567.679	83.75
567.891	99.75
568.102	78.75
568.314	93.75
568.526	91.75
568.737	95.75
568.949	91.75
569.161	82.75
569.372	83.75
569.584	86.75
569.795	96.75
570.007	120.75
570.218	229.75
570.43	127.75
570.641	95.75
570.853	88.75
571.064	85.75
571.276	97.75
571.487	90.75
571.698	97.75
571.91	90.75
572.121	73.75
572.333	79.75
572.544	69.75
572.755	84.75
572.966	91.75
573.178	86.75
573.389	93.75
573.6	91.75
573.811	88.75
574.023	81.75
574.234	70.75
574.445	81.75
574.656	71.75
574.867	81.75
575.078	79.75
575.289	88.75
575.501	98.75
575.712	95.75
575.923	72.75
576.134	90.75
576.345	78.75
576.556	82.75
576.767	87.75
576.978	99.75
577.188	94.75
577.399	74.75
577.61	90.75
577.821	94.75
578.032	110.75
578.243	229.75
578.454	666.75
578.665	182.75
578.875	96.75
579.086	93.75
579.297	88.75
579.508	79.75
579.718	85.75
579.929	88.75
580.14	93.75
580.35	81.75
580.561	88.75
580.772	97.75
580.982	72.75
581.193	84.75
581.403	88.75
581.614	91.75
581.825	87.75
582.035	84.75
582.246	81.75
582.456	86.75
582.667	96.75
582.877	98.75
583.087	86.75
583.298	77.75
583.508	103.75
583.719	81.75
583.929	105.75
584.139	83.75
584.35	97.75
584.56	105.75
584.77	90.75
584.981	89.75
585.191	95.75
585.401	72.75
585.611	91.75
585.821	91.75
586.032	87.75
586.242	77.75
586.452	91.75
586.662	73.75
586.872	94.75
587.082	94.75
587.292	92.75
587.502	102.75
587.713	94.75
587.923	101.75
588.133	82.75
588.343	77.75
588.553	89.75
588.762	86.75
588.972	105.75
589.182	197.75
589.392	130.75
589.602	109.75
589.812	157.75
590.022	101.75
590.232	86.75
590.441	81.75
590.651	73.75
590.861	85.75
591.071	83.75
591.281	87.75
591.49	78.75
591.7	86.75
591.91	88.75
592.119	89.75
592.329	95.75
592.539	94.75
592.748	81.75
592.958	73.75
593.167	75.75
593.377	81.75
593.587	95.75
593.796	84.75
594.006	78.75
594.215	92.75
594.424	83.75
594.634	83.75
594.843	85.75
595.053	91.75
595.262	73.75
595.472	83.75
595.681	95.75
595.89	86.75
596.1	91.75
596.309	87.75
596.518	87.75
596.727	79.75
596.937	76.75
597.146	89.75
597.355	78.75
597.564	86.75
597.774	94.75
597.983	98.75
598.192	82.75
598.401	86.75
598.61	94.75
598.819	82.75
599.028	90.75
599.237	79.75
599.446	83.75
599.655	82.75
599.864	84.75
600.073	82.75
600.282	81.75
600.491	86.75
600.7	91.75
600.909	94.75
601.118	89.75
601.327	93.75
601.536	83.75
601.745	89.75
601.953	103.75
602.162	79.75
602.371	97.75
602.58	83.75
602.789	91.75
602.997	93.75
603.206	79.75
603.415	90.75
603.623	99.75
603.832	88.75
604.041	86.75
604.249	72.75
604.458	70.75
604.666	84.75
604.875	77.75
605.084	79.75
605.292	82.75
605.501	77.75
605.709	81.75
605.918	74.75
606.126	84.75
606.334	103.75
606.543	99.75
606.751	78.75
606.96	64.75
607.168	86.75
607.376	88.75
607.585	75.75
607.793	86.75
608.001	77.75
608.21	102.75
608.418	97.75
608.626	90.75
608.834	89.75
609.043	78.75
609.251	71.75
609.459	88.75
609.667	88.75
609.875	91.75
610.083	103.75
610.291	97.75
610.499	74.75
610.707	85.75
610.916	76.75
611.124	98.75
611.332	93.75
611.54	99.75
611.748	86.75
611.955	86.75
612.163	86.75
612.371	90.75
612.579	84.75
612.787	98.75
612.995	95.75
613.203	81.75
613.411	86.75
613.618	86.75
613.826	85.75
614.034	85.75
614.242	82.75
614.449	90.75
614.657	89.75
614.865	80.75
615.072	72.75
615.28	91.75
615.488	85.75
615.695	87.75
615.903	93.75
616.111	94.75
616.318	103.75
616.526	83.75
616.733	95.75
616.941	80.75
617.148	81.75
617.356	88.75
617.563	86.75
617.771	80.75
617.978	87.75
618.185	79.75
618.393	69.75
618.6	82.75
618.807	75.75
619.015	78.75
619.222	84.75
619.429	84.75
619.637	72.75
619.844	82.75
620.051	76.75
620.258	86.75
620.466	95.75
620.673	88.75
620.88	86.75
621.087	84.75
621.294	75.75
621.501	84.75
621.708	89.75
621.915	78.75
622.122	71.75
622.329	96.75
622.536	90.75
622.743	88.75
622.95	76.75
623.157	69.75
623.364	86.75
623.571	63.75
623.778	95.75
623.985	118.75
624.192	79.75
624.399	86.75
624.606	86.75
624.812	72.75
625.019	86.75
625.226	80.75
625.433	94.75
625.639	68.75
625.846	73.75
626.053	90.75
626.259	87.75
626.466	72.75
626.673	85.75
626.879	83.75
627.086	92.75
627.293	89.75
627.499	78.75
627.706	78.75
627.912	80.75
628.119	72.75
628.325	96.75
628.532	95.75
628.738	91.75
628.945	79.75
629.151	78.75
629.357	87.75
629.564	86.75
629.77	91.75
629.976	75.75
630.183	81.75
630.389	88.75
630.595	89.75
630.802	79.75
631.008	87.75
631.214	83.75
631.42	79.75
631.627	97.75
631.833	85.75
632.039	67.75
632.245	78.75
632.451	89.75
632.657	100.75
632.863	82.75
633.069	84.75
633.275	74.75
633.481	73.75
633.688	79.75
633.893	79.75
634.099	85.75
634.305	92.75
634.511	73.75
634.717	65.75
634.923	71.75
635.129	82.75
635.335	81.75
635.541	71.75
635.747	88.75
635.952	81.75
636.158	77.75
636.364	85.75
636.57	96.75
636.775	86.75
636.981	77.75
637.187	94.75
637.392	98.75
637.598	80.75
637.804	87.75
638.009	74.75
638.215	84.75
638.421	76.75
638.626	92.75
638.832	83.75
639.037	88.75
639.243	84.75
639.448	84.75
639.654	83.75
639.859	85.75
640.065	85.75
640.27	85.75
640.475	87.75
640.681	83.75
640.886	71.75
641.091	88.75
641.297	83.75
641.502	76.75
641.707	83.75
641.913	73.75
642.118	79.75
642.323	86.75
642.528	83.75
642.733	86.75
642.939	85.75
643.144	85.75
643.349	76.75
643.554	81.75
643.759	86.75
643.964	65.75
644.169	77.75
644.374	79.75
644.579	99.75
644.784	91.75
644.989	74.75
645.194	86.75
645.399	84.75
645.604	91.75
645.809	89.75
646.014	90.75
646.219	85.75
646.423	87.75
646.628	82.75
646.833	83.75
647.038	86.75
647.243	88.75
647.447	75.75
647.652	93.75
647.857	87.75
648.062	71.75
648.266	74.75
648.471	79.75
648.676	88.75
648.88	77.75
649.085	89.75
649.289	84.75
649.494	100.75
649.698	131.75
649.903	103.75
650.107	77.75
650.312	74.75
650.516	65.75
650.721	82.75
650.925	75.75
651.13	79.75
651.334	86.75
651.539	91.75
651.743	83.75
651.947	91.75
652.152	81.75
652.356	84.75
652.56	80.75
652.764	73.75
652.969	82.75
653.173	77.75
653.377	54.75
653.581	90.75
653.785	81.75
653.99	89.75
654.194	91.75
654.398	80.75
654.602	88.75
654.806	87.75
655.01	103.75
655.214	92.75
655.418	73.75
655.622	71.75
655.826	75.75
656.03	64.75
656.234	85.75
656.438	95.75
656.642	85.75
656.846	84.75
657.049	78.75
657.253	74.75
657.457	68.75
657.661	87.75
657.865	89.75
658.068	87.75
658.272	74.75
658.476	74.75
658.68	78.75
658.883	72.75
659.087	76.75
659.291	86.75
659.494	83.75
659.698	76.75
659.901	76.75
660.105	74.75
660.309	77.75
660.512	83.75
660.716	74.75
660.919	81.75
661.123	96.75
661.326	87.75
661.53	74.75
661.733	74.75
661.936	77.75
662.14	82.75
662.343	86.75
662.546	90.75
662.75	87.75
662.953	86.75
663.156	72.75
663.36	71.75
663.563	81.75
663.766	75.75
663.969	81.75
664.173	83.75
664.376	82.75
664.579	70.75
664.782	77.75
664.985	79.75
665.188	72.75
665.391	58.75
665.594	85.75
665.797	75.75
666	73.75
666.203	79.75
666.406	77.75
666.609	82.75
666.812	84.75
667.015	80.75
667.218	84.75
667.421	80.75
667.624	81.75
667.827	74.75
668.03	87.75
668.232	72.75
668.435	70.75
668.638	86.75
668.841	81.75
669.043	65.75
669.246	89.75
669.449	82.75
669.651	77.75
669.854	82.75
670.057	84.75
670.259	67.75
670.462	79.75
670.665	78.75
670.867	67.75
671.07	77.75
671.272	72.75
671.475	69.75
671.677	92.75
671.88	77.75
672.082	69.75
672.284	87.75
672.487	71.75
672.689	79.75
672.892	79.75
