Data from Circ_2002_H10_HRD10591_00024.txt Node
Date: Wed Jan 03 10:41:03 EST 2024
User: Yrep
Spectrometer: HR+D1059
Trigger mode: 1
Integration Time (sec): 1.000000E-1
Scans to average: 1
Electric dark correction enabled: true
Nonlinearity correction enabled: false
Boxcar width: 0
XAxis mode: Wavelengths
Number of Pixels in Spectrum: 2048
>>>>>Begin Spectral Data<<<<<
223.165	-22.12
223.4	-22.12
223.635	-22.12
223.869	-27.12
224.104	-12.12
224.338	-20.12
224.573	-24.12
224.808	-17.12
225.042	-18.12
225.277	-13.12
225.511	13.88
225.746	-3.12
225.98	7.88
226.215	7.88
226.449	14.88
226.683	24.88
226.918	45.88
227.152	41.88
227.387	34.88
227.621	36.88
227.856	36.88
228.09	42.88
228.324	71.88
228.559	60.88
228.793	57.88
229.027	55.88
229.262	64.88
229.496	67.88
229.73	97.88
229.964	85.88
230.199	66.88
230.433	73.88
230.667	77.88
230.901	80.88
231.136	80.88
231.37	75.88
231.604	84.88
231.838	78.88
232.072	94.88
232.306	87.88
232.541	78.88
232.775	66.88
233.009	89.88
233.243	65.88
233.477	75.88
233.711	81.88
233.945	94.88
234.179	78.88
234.413	68.88
234.647	74.88
234.881	73.88
235.115	66.88
235.349	86.88
235.583	86.88
235.817	71.88
236.051	87.88
236.285	93.88
236.519	78.88
236.753	80.88
236.987	82.88
237.221	77.88
237.455	68.88
237.689	72.88
237.922	77.88
238.156	74.88
238.39	63.88
238.624	67.88
238.858	72.88
239.091	72.88
239.325	65.88
239.559	78.88
239.793	77.88
240.027	80.88
240.26	79.88
240.494	84.88
240.728	61.88
240.961	68.88
241.195	88.88
241.429	83.88
241.662	79.88
241.896	64.88
242.13	75.88
242.363	74.88
242.597	84.88
242.83	63.88
243.064	69.88
243.298	78.88
243.531	73.88
243.765	74.88
243.998	82.88
244.232	62.88
244.465	81.88
244.699	64.88
244.932	79.88
245.166	81.88
245.399	68.88
245.633	68.88
245.866	79.88
246.099	77.88
246.333	79.88
246.566	69.88
246.8	84.88
247.033	82.88
247.266	77.88
247.5	78.88
247.733	89.88
247.966	79.88
248.2	80.88
248.433	66.88
248.666	69.88
248.899	73.88
249.133	84.88
249.366	102.88
249.599	102.88
249.832	76.88
250.066	78.88
250.299	71.88
250.532	71.88
250.765	72.88
250.998	83.88
251.231	87.88
251.465	66.88
251.698	84.88
251.931	76.88
252.164	84.88
252.397	81.88
252.63	84.88
252.863	71.88
253.096	77.88
253.329	84.88
253.562	82.88
253.795	76.88
254.028	66.88
254.261	93.88
254.494	87.88
254.727	79.88
254.96	72.88
255.193	88.88
255.426	68.88
255.659	78.88
255.892	69.88
256.124	76.88
256.357	95.88
256.59	89.88
256.823	81.88
257.056	82.88
257.289	72.88
257.521	81.88
257.754	66.88
257.987	92.88
258.22	84.88
258.452	80.88
258.685	73.88
258.918	88.88
259.151	89.88
259.383	93.88
259.616	79.88
259.849	89.88
260.081	82.88
260.314	80.88
260.547	92.88
260.779	79.88
261.012	79.88
261.244	87.88
261.477	83.88
261.71	98.88
261.942	113.88
262.175	131.88
262.407	80.88
262.64	81.88
262.872	85.88
263.105	92.88
263.337	96.88
263.57	77.88
263.802	82.88
264.035	66.88
264.267	90.88
264.499	83.88
264.732	85.88
264.964	80.88
265.197	70.88
265.429	70.88
265.661	84.88
265.894	80.88
266.126	81.88
266.358	87.88
266.591	72.88
266.823	75.88
267.055	79.88
267.287	81.88
267.52	82.88
267.752	78.88
267.984	80.88
268.216	84.88
268.448	72.88
268.681	89.88
268.913	77.88
269.145	89.88
269.377	92.88
269.609	80.88
269.841	76.88
270.073	73.88
270.306	74.88
270.538	80.88
270.77	85.88
271.002	80.88
271.234	86.88
271.466	90.88
271.698	81.88
271.93	81.88
272.162	87.88
272.394	93.88
272.626	96.88
272.858	94.88
273.09	76.88
273.322	80.88
273.553	82.88
273.785	79.88
274.017	82.88
274.249	101.88
274.481	94.88
274.713	72.88
274.945	95.88
275.176	75.88
275.408	95.88
275.64	85.88
275.872	90.88
276.104	82.88
276.335	90.88
276.567	109.88
276.799	113.88
277.031	108.88
277.262	81.88
277.494	84.88
277.726	81.88
277.957	68.88
278.189	95.88
278.421	90.88
278.652	84.88
278.884	78.88
279.115	86.88
279.347	76.88
279.579	84.88
279.81	78.88
280.042	82.88
280.273	83.88
280.505	83.88
280.736	91.88
280.968	96.88
281.199	78.88
281.431	80.88
281.662	94.88
281.894	85.88
282.125	94.88
282.356	116.88
282.588	152.88
282.819	116.88
283.051	90.88
283.282	64.88
283.513	66.88
283.745	82.88
283.976	84.88
284.207	92.88
284.439	74.88
284.67	93.88
284.901	97.88
285.132	76.88
285.364	80.88
285.595	68.88
285.826	84.88
286.057	79.88
286.288	81.88
286.52	76.88
286.751	74.88
286.982	95.88
287.213	94.88
287.444	95.88
287.675	71.88
287.906	87.88
288.138	89.88
288.369	94.88
288.6	87.88
288.831	105.88
289.062	80.88
289.293	80.88
289.524	86.88
289.755	85.88
289.986	95.88
290.217	96.88
290.448	90.88
290.679	81.88
290.91	81.88
291.141	92.88
291.371	95.88
291.602	79.88
291.833	88.88
292.064	87.88
292.295	88.88
292.526	102.88
292.757	87.88
292.987	78.88
293.218	76.88
293.449	85.88
293.68	88.88
293.91	89.88
294.141	101.88
294.372	81.88
294.603	96.88
294.833	84.88
295.064	94.88
295.295	85.88
295.525	94.88
295.756	104.88
295.987	123.88
296.217	138.88
296.448	117.88
296.679	101.88
296.909	87.88
297.14	80.88
297.37	89.88
297.601	81.88
297.831	90.88
298.062	72.88
298.292	70.88
298.523	86.88
298.753	99.88
298.984	98.88
299.214	97.88
299.445	83.88
299.675	103.88
299.905	93.88
300.136	94.88
300.366	87.88
300.597	91.88
300.827	94.88
301.057	87.88
301.288	108.88
301.518	78.88
301.748	94.88
301.979	89.88
302.209	105.88
302.439	97.88
302.669	103.88
302.9	104.88
303.13	93.88
303.36	93.88
303.59	105.88
303.82	114.88
304.051	101.88
304.281	91.88
304.511	95.88
304.741	84.88
304.971	88.88
305.201	78.88
305.431	97.88
305.661	108.88
305.891	94.88
306.121	97.88
306.352	100.88
306.582	114.88
306.812	94.88
307.042	90.88
307.272	90.88
307.502	104.88
307.731	92.88
307.961	88.88
308.191	90.88
308.421	90.88
308.651	95.88
308.881	90.88
309.111	86.88
309.341	109.88
309.571	93.88
309.8	77.88
310.03	101.88
310.26	106.88
310.49	103.88
310.72	93.88
310.949	117.88
311.179	118.88
311.409	84.88
311.639	90.88
311.868	101.88
312.098	81.88
312.328	101.88
312.557	115.88
312.787	117.88
313.017	99.88
313.246	95.88
313.476	85.88
313.706	81.88
313.935	88.88
314.165	128.88
314.394	122.88
314.624	111.88
314.853	104.88
315.083	96.88
315.312	100.88
315.542	100.88
315.771	96.88
316.001	86.88
316.23	89.88
316.46	92.88
316.689	86.88
316.919	95.88
317.148	85.88
317.377	90.88
317.607	98.88
317.836	91.88
318.065	97.88
318.295	103.88
318.524	81.88
318.753	100.88
318.983	84.88
319.212	100.88
319.441	108.88
319.67	117.88
319.9	90.88
320.129	97.88
320.358	89.88
320.587	98.88
320.816	91.88
321.046	117.88
321.275	103.88
321.504	100.88
321.733	93.88
321.962	78.88
322.191	93.88
322.42	101.88
322.649	114.88
322.878	110.88
323.108	117.88
323.337	140.88
323.566	142.88
323.795	192.88
324.024	247.88
324.253	503.88
324.482	1107.88
324.71	2377.88
324.939	3112.88
325.168	1059.88
325.397	295.88
325.626	160.88
325.855	131.88
326.084	125.88
326.313	136.88
326.542	174.88
326.77	269.88
326.999	561.88
327.228	1268.88
327.457	2342.88
327.686	1843.88
327.914	468.88
328.143	221.88
328.372	164.88
328.6	140.88
328.829	158.88
329.058	140.88
329.287	134.88
329.515	119.88
329.744	105.88
329.972	100.88
330.201	114.88
330.43	120.88
330.658	147.88
330.887	178.88
331.115	148.88
331.344	109.88
331.572	104.88
331.801	111.88
332.03	101.88
332.258	104.88
332.486	101.88
332.715	87.88
332.943	102.88
333.172	89.88
333.4	94.88
333.629	109.88
333.857	126.88
334.085	98.88
334.314	94.88
334.542	106.88
334.771	108.88
334.999	107.88
335.227	94.88
335.455	96.88
335.684	96.88
335.912	91.88
336.14	89.88
336.369	108.88
336.597	112.88
336.825	111.88
337.053	89.88
337.281	85.88
337.51	84.88
337.738	102.88
337.966	94.88
338.194	90.88
338.422	85.88
338.65	90.88
338.878	94.88
339.106	84.88
339.334	76.88
339.562	82.88
339.79	86.88
340.018	86.88
340.246	98.88
340.474	113.88
340.702	84.88
340.93	90.88
341.158	85.88
341.386	94.88
341.614	100.88
341.842	101.88
342.07	89.88
342.298	75.88
342.526	82.88
342.754	87.88
342.981	83.88
343.209	81.88
343.437	100.88
343.665	79.88
343.893	85.88
344.12	116.88
344.348	90.88
344.576	98.88
344.804	98.88
345.031	96.88
345.259	93.88
345.487	109.88
345.714	90.88
345.942	106.88
346.17	85.88
346.397	93.88
346.625	99.88
346.853	78.88
347.08	87.88
347.308	93.88
347.535	106.88
347.763	102.88
347.99	115.88
348.218	104.88
348.445	99.88
348.673	97.88
348.9	98.88
349.128	87.88
349.355	95.88
349.583	104.88
349.81	106.88
350.037	93.88
350.265	94.88
350.492	100.88
350.72	105.88
350.947	85.88
351.174	119.88
351.402	105.88
351.629	98.88
351.856	99.88
352.083	108.88
352.311	105.88
352.538	120.88
352.765	121.88
352.992	121.88
353.22	110.88
353.447	98.88
353.674	87.88
353.901	79.88
354.128	93.88
354.355	106.88
354.583	110.88
354.81	98.88
355.037	88.88
355.264	95.88
355.491	64.88
355.718	87.88
355.945	110.88
356.172	105.88
356.399	98.88
356.626	90.88
356.853	115.88
357.08	96.88
357.307	92.88
357.534	96.88
357.761	87.88
357.988	92.88
358.215	103.88
358.441	109.88
358.668	98.88
358.895	78.88
359.122	76.88
359.349	96.88
359.576	108.88
359.802	111.88
360.029	133.88
360.256	128.88
360.483	103.88
360.709	95.88
360.936	99.88
361.163	102.88
361.39	88.88
361.616	111.88
361.843	96.88
362.07	108.88
362.296	97.88
362.523	92.88
362.749	84.88
362.976	94.88
363.203	98.88
363.429	84.88
363.656	100.88
363.882	94.88
364.109	98.88
364.335	101.88
364.562	92.88
364.788	89.88
365.015	95.88
365.241	95.88
365.468	102.88
365.694	120.88
365.92	110.88
366.147	91.88
366.373	86.88
366.599	102.88
366.826	91.88
367.052	87.88
367.278	81.88
367.505	93.88
367.731	100.88
367.957	92.88
368.184	93.88
368.41	112.88
368.636	112.88
368.862	126.88
369.089	111.88
369.315	98.88
369.541	102.88
369.767	97.88
369.993	89.88
370.219	96.88
370.445	89.88
370.672	95.88
370.898	96.88
371.124	90.88
371.35	94.88
371.576	93.88
371.802	89.88
372.028	88.88
372.254	91.88
372.48	90.88
372.706	96.88
372.932	86.88
373.158	77.88
373.384	88.88
373.61	94.88
373.835	91.88
374.061	86.88
374.287	85.88
374.513	88.88
374.739	89.88
374.965	89.88
375.191	65.88
375.416	92.88
375.642	85.88
375.868	92.88
376.094	85.88
376.319	88.88
376.545	80.88
376.771	87.88
376.997	81.88
377.222	85.88
377.448	93.88
377.674	87.88
377.899	89.88
378.125	86.88
378.35	98.88
378.576	74.88
378.802	86.88
379.027	90.88
379.253	78.88
379.478	90.88
379.704	93.88
379.929	102.88
380.155	94.88
380.38	92.88
380.606	107.88
380.831	84.88
381.057	105.88
381.282	104.88
381.507	103.88
381.733	109.88
381.958	93.88
382.184	92.88
382.409	99.88
382.634	89.88
382.86	97.88
383.085	91.88
383.31	101.88
383.535	115.88
383.761	104.88
383.986	98.88
384.211	87.88
384.436	93.88
384.662	87.88
384.887	112.88
385.112	114.88
385.337	111.88
385.562	106.88
385.787	118.88
386.013	111.88
386.238	116.88
386.463	112.88
386.688	93.88
386.913	115.88
387.138	114.88
387.363	109.88
387.588	110.88
387.813	116.88
388.038	83.88
388.263	120.88
388.488	104.88
388.713	91.88
388.938	96.88
389.163	94.88
389.387	96.88
389.612	80.88
389.837	85.88
390.062	86.88
390.287	82.88
390.512	104.88
390.736	94.88
390.961	89.88
391.186	99.88
391.411	97.88
391.636	96.88
391.86	94.88
392.085	79.88
392.31	89.88
392.534	79.88
392.759	82.88
392.984	86.88
393.208	86.88
393.433	105.88
393.658	93.88
393.882	84.88
394.107	98.88
394.331	84.88
394.556	91.88
394.78	76.88
395.005	86.88
395.229	83.88
395.454	84.88
395.678	87.88
395.903	70.88
396.127	94.88
396.352	85.88
396.576	91.88
396.801	88.88
397.025	90.88
397.249	98.88
397.474	106.88
397.698	98.88
397.922	89.88
398.147	87.88
398.371	93.88
398.595	83.88
398.82	85.88
399.044	90.88
399.268	86.88
399.492	84.88
399.717	92.88
399.941	87.88
400.165	98.88
400.389	80.88
400.613	83.88
400.837	101.88
401.062	104.88
401.286	95.88
401.51	93.88
401.734	100.88
401.958	83.88
402.182	128.88
402.406	168.88
402.63	128.88
402.854	102.88
403.078	94.88
403.302	94.88
403.526	98.88
403.75	90.88
403.974	87.88
404.198	84.88
404.422	85.88
404.645	98.88
404.869	92.88
405.093	88.88
405.317	107.88
405.541	76.88
405.765	100.88
405.988	124.88
406.212	216.88
406.436	265.88
406.66	168.88
406.883	102.88
407.107	96.88
407.331	76.88
407.555	100.88
407.778	96.88
408.002	86.88
408.226	88.88
408.449	95.88
408.673	96.88
408.896	86.88
409.12	81.88
409.344	93.88
409.567	89.88
409.791	88.88
410.014	96.88
410.238	82.88
410.461	79.88
410.685	91.88
410.908	93.88
411.132	108.88
411.355	113.88
411.578	76.88
411.802	80.88
412.025	88.88
412.249	74.88
412.472	89.88
412.695	97.88
412.919	92.88
413.142	98.88
413.365	90.88
413.589	78.88
413.812	90.88
414.035	92.88
414.258	94.88
414.482	84.88
414.705	92.88
414.928	79.88
415.151	102.88
415.374	100.88
415.597	78.88
415.821	85.88
416.044	84.88
416.267	94.88
416.49	86.88
416.713	97.88
416.936	98.88
417.159	85.88
417.382	80.88
417.605	93.88
417.828	96.88
418.051	103.88
418.274	94.88
418.497	80.88
418.72	76.88
418.943	87.88
419.166	91.88
419.389	84.88
419.611	77.88
419.834	86.88
420.057	74.88
420.28	77.88
420.503	78.88
420.726	69.88
420.948	87.88
421.171	88.88
421.394	92.88
421.617	93.88
421.839	89.88
422.062	88.88
422.285	94.88
422.507	91.88
422.73	118.88
422.953	92.88
423.175	86.88
423.398	86.88
423.621	87.88
423.843	84.88
424.066	92.88
424.288	77.88
424.511	86.88
424.733	116.88
424.956	104.88
425.178	109.88
425.401	114.88
425.623	98.88
425.846	97.88
426.068	85.88
426.291	94.88
426.513	83.88
426.735	101.88
426.958	86.88
427.18	104.88
427.402	142.88
427.625	198.88
427.847	152.88
428.069	119.88
428.292	96.88
428.514	85.88
428.736	95.88
428.958	81.88
429.181	78.88
429.403	80.88
429.625	79.88
429.847	80.88
430.069	101.88
430.292	108.88
430.514	74.88
430.736	84.88
430.958	91.88
431.18	88.88
431.402	88.88
431.624	87.88
431.846	72.88
432.068	74.88
432.29	92.88
432.512	90.88
432.734	74.88
432.956	95.88
433.178	90.88
433.4	100.88
433.622	90.88
433.844	86.88
434.066	93.88
434.287	80.88
434.509	95.88
434.731	82.88
434.953	87.88
435.175	92.88
435.397	84.88
435.618	94.88
435.84	112.88
436.062	131.88
436.284	120.88
436.505	108.88
436.727	98.88
436.949	80.88
437.17	89.88
437.392	93.88
437.614	91.88
437.835	114.88
438.057	100.88
438.278	119.88
438.5	106.88
438.721	126.88
438.943	103.88
439.165	90.88
439.386	81.88
439.608	103.88
439.829	116.88
440.05	144.88
440.272	174.88
440.493	109.88
440.715	88.88
440.936	96.88
441.158	95.88
441.379	97.88
441.6	97.88
441.822	90.88
442.043	98.88
442.264	101.88
442.486	98.88
442.707	89.88
442.928	110.88
443.149	133.88
443.371	141.88
443.592	110.88
443.813	109.88
444.034	115.88
444.255	98.88
444.476	93.88
444.698	95.88
444.919	83.88
445.14	138.88
445.361	121.88
445.582	132.88
445.803	171.88
446.024	158.88
446.245	153.88
446.466	115.88
446.687	90.88
446.908	87.88
447.129	97.88
447.35	84.88
447.571	92.88
447.792	88.88
448.013	86.88
448.234	104.88
448.455	125.88
448.675	117.88
448.896	119.88
449.117	103.88
449.338	115.88
449.559	151.88
449.779	148.88
450	101.88
450.221	72.88
450.442	93.88
450.662	97.88
450.883	115.88
451.104	132.88
451.324	111.88
451.545	100.88
451.766	76.88
451.986	96.88
452.207	71.88
452.428	92.88
452.648	90.88
452.869	129.88
453.089	123.88
453.31	121.88
453.53	104.88
453.751	99.88
453.971	116.88
454.192	115.88
454.412	99.88
454.633	66.88
454.853	79.88
455.073	87.88
455.294	87.88
455.514	102.88
455.734	90.88
455.955	78.88
456.175	71.88
456.395	78.88
456.616	81.88
456.836	80.88
457.056	77.88
457.276	80.88
457.497	92.88
457.717	82.88
457.937	92.88
458.157	101.88
458.377	93.88
458.598	109.88
458.818	172.88
459.038	181.88
459.258	134.88
459.478	99.88
459.698	81.88
459.918	93.88
460.138	101.88
460.358	76.88
460.578	85.88
460.798	95.88
461.018	98.88
461.238	94.88
461.458	73.88
461.678	74.88
461.898	85.88
462.118	74.88
462.338	82.88
462.558	68.88
462.777	75.88
462.997	68.88
463.217	88.88
463.437	94.88
463.657	84.88
463.876	100.88
464.096	95.88
464.316	95.88
464.536	100.88
464.755	105.88
464.975	111.88
465.195	176.88
465.414	188.88
465.634	92.88
465.854	88.88
466.073	78.88
466.293	80.88
466.512	82.88
466.732	87.88
466.951	72.88
467.171	73.88
467.391	107.88
467.61	101.88
467.829	95.88
468.049	87.88
468.268	87.88
468.488	92.88
468.707	77.88
468.927	79.88
469.146	70.88
469.365	89.88
469.585	74.88
469.804	88.88
470.023	108.88
470.243	81.88
470.462	100.88
470.681	120.88
470.901	91.88
471.12	89.88
471.339	86.88
471.558	80.88
471.777	85.88
471.997	91.88
472.216	77.88
472.435	93.88
472.654	94.88
472.873	76.88
473.092	79.88
473.311	98.88
473.53	87.88
473.749	71.88
473.968	97.88
474.187	105.88
474.406	92.88
474.625	83.88
474.844	88.88
475.063	81.88
475.282	81.88
475.501	81.88
475.72	91.88
475.939	100.88
476.158	85.88
476.377	92.88
476.596	93.88
476.814	100.88
477.033	87.88
477.252	92.88
477.471	83.88
477.69	108.88
477.908	93.88
478.127	92.88
478.346	88.88
478.564	90.88
478.783	99.88
479.002	69.88
479.22	90.88
479.439	103.88
479.658	105.88
479.876	93.88
480.095	77.88
480.313	89.88
480.532	88.88
480.751	89.88
480.969	93.88
481.188	113.88
481.406	110.88
481.624	89.88
481.843	83.88
482.061	87.88
482.28	83.88
482.498	80.88
482.717	84.88
482.935	84.88
483.153	75.88
483.372	89.88
483.59	98.88
483.808	84.88
484.027	80.88
484.245	90.88
484.463	89.88
484.681	93.88
484.9	76.88
485.118	101.88
485.336	99.88
485.554	100.88
485.772	96.88
485.99	111.88
486.209	99.88
486.427	104.88
486.645	112.88
486.863	113.88
487.081	97.88
487.299	99.88
487.517	77.88
487.735	90.88
487.953	86.88
488.171	80.88
488.389	83.88
488.607	105.88
488.825	91.88
489.043	79.88
489.261	96.88
489.479	101.88
489.696	87.88
489.914	87.88
490.132	79.88
490.35	101.88
490.568	82.88
490.786	87.88
491.003	94.88
491.221	94.88
491.439	85.88
491.657	80.88
491.874	92.88
492.092	89.88
492.31	82.88
492.527	80.88
492.745	86.88
492.963	78.88
493.18	78.88
493.398	94.88
493.615	88.88
493.833	85.88
494.05	79.88
494.268	91.88
494.485	91.88
494.703	81.88
494.92	88.88
495.138	77.88
495.355	94.88
495.573	101.88
495.79	89.88
496.008	102.88
496.225	74.88
496.442	83.88
496.66	90.88
496.877	87.88
497.094	90.88
497.312	82.88
497.529	97.88
497.746	72.88
497.963	98.88
498.181	75.88
498.398	83.88
498.615	96.88
498.832	112.88
499.049	83.88
499.267	79.88
499.484	91.88
499.701	93.88
499.918	98.88
500.135	87.88
500.352	87.88
500.569	94.88
500.786	76.88
501.003	86.88
501.22	89.88
501.437	88.88
501.654	69.88
501.871	110.88
502.088	80.88
502.305	89.88
502.522	89.88
502.739	96.88
502.956	90.88
503.172	77.88
503.389	87.88
503.606	92.88
503.823	102.88
504.04	103.88
504.256	86.88
504.473	89.88
504.69	89.88
504.907	83.88
505.123	92.88
505.34	90.88
505.557	90.88
505.773	100.88
505.99	93.88
506.207	77.88
506.423	82.88
506.64	92.88
506.856	95.88
507.073	85.88
507.289	95.88
507.506	89.88
507.722	112.88
507.939	120.88
508.155	99.88
508.372	96.88
508.588	85.88
508.805	96.88
509.021	97.88
509.238	99.88
509.454	89.88
509.67	108.88
509.887	110.88
510.103	129.88
510.319	212.88
510.536	826.88
510.752	2721.88
510.968	730.88
511.184	166.88
511.401	118.88
511.617	106.88
511.833	94.88
512.049	93.88
512.265	103.88
512.481	84.88
512.698	90.88
512.914	89.88
513.13	101.88
513.346	84.88
513.562	88.88
513.778	87.88
513.994	99.88
514.21	114.88
514.426	121.88
514.642	151.88
514.858	124.88
515.074	184.88
515.29	584.88
515.506	1963.88
515.721	690.88
515.937	193.88
516.153	110.88
516.369	110.88
516.585	93.88
516.801	84.88
517.016	102.88
517.232	95.88
517.448	94.88
517.664	98.88
517.879	102.88
518.095	96.88
518.311	98.88
518.527	88.88
518.742	95.88
518.958	94.88
519.173	101.88
519.389	99.88
519.605	87.88
519.82	86.88
520.036	109.88
520.251	140.88
520.467	117.88
520.682	112.88
520.898	114.88
521.113	113.88
521.329	146.88
521.544	249.88
521.76	754.88
521.975	3188.88
522.19	1901.88
522.406	392.88
522.621	150.88
522.836	96.88
523.052	101.88
523.267	84.88
523.482	75.88
523.698	100.88
523.913	130.88
524.128	103.88
524.343	80.88
524.559	81.88
524.774	95.88
524.989	102.88
525.204	112.88
525.419	98.88
525.634	100.88
525.849	97.88
526.064	89.88
526.28	83.88
526.495	85.88
526.71	94.88
526.925	80.88
527.14	88.88
527.355	72.88
527.57	73.88
527.785	96.88
527.999	77.88
528.214	97.88
528.429	81.88
528.644	86.88
528.859	70.88
529.074	87.88
529.289	131.88
529.503	222.88
529.718	108.88
529.933	88.88
530.148	82.88
530.363	96.88
530.577	85.88
530.792	94.88
531.007	105.88
531.221	79.88
531.436	83.88
531.651	87.88
531.865	85.88
532.08	88.88
532.295	103.88
532.509	73.88
532.724	89.88
532.938	87.88
533.153	93.88
533.367	81.88
533.582	100.88
533.796	80.88
534.011	97.88
534.225	82.88
534.44	105.88
534.654	94.88
534.868	97.88
535.083	96.88
535.297	90.88
535.511	104.88
535.726	110.88
535.94	103.88
536.154	75.88
536.369	97.88
536.583	90.88
536.797	88.88
537.011	97.88
537.225	84.88
537.44	91.88
537.654	76.88
537.868	84.88
538.082	82.88
538.296	73.88
538.51	74.88
538.724	79.88
538.938	88.88
539.153	90.88
539.367	108.88
539.581	96.88
539.795	85.88
540.009	88.88
540.222	86.88
540.436	102.88
540.65	87.88
540.864	96.88
541.078	80.88
541.292	93.88
541.506	92.88
541.72	90.88
541.934	100.88
542.147	88.88
542.361	87.88
542.575	87.88
542.789	90.88
543.002	77.88
543.216	85.88
543.43	100.88
543.644	95.88
543.857	95.88
544.071	97.88
544.285	90.88
544.498	90.88
544.712	88.88
544.925	96.88
545.139	88.88
545.352	89.88
545.566	83.88
545.779	83.88
545.993	101.88
546.206	89.88
546.42	94.88
546.633	89.88
546.847	99.88
547.06	88.88
547.274	87.88
547.487	84.88
547.7	82.88
547.914	85.88
548.127	83.88
548.34	93.88
548.554	73.88
548.767	92.88
548.98	93.88
549.193	89.88
549.407	118.88
549.62	80.88
549.833	89.88
550.046	82.88
550.259	88.88
550.473	89.88
550.686	94.88
550.899	98.88
551.112	96.88
551.325	91.88
551.538	94.88
551.751	73.88
551.964	93.88
552.177	95.88
552.39	82.88
552.603	99.88
552.816	76.88
553.029	110.88
553.242	78.88
553.455	73.88
553.667	112.88
553.88	107.88
554.093	91.88
554.306	98.88
554.519	91.88
554.732	83.88
554.944	89.88
555.157	85.88
555.37	79.88
555.583	90.88
555.795	91.88
556.008	90.88
556.221	103.88
556.433	111.88
556.646	93.88
556.859	87.88
557.071	97.88
557.284	97.88
557.496	85.88
557.709	84.88
557.921	88.88
558.134	98.88
558.346	98.88
558.559	92.88
558.771	90.88
558.984	99.88
559.196	98.88
559.409	80.88
559.621	90.88
559.833	88.88
560.046	84.88
560.258	86.88
560.47	90.88
560.683	89.88
560.895	105.88
561.107	74.88
561.32	91.88
561.532	76.88
561.744	74.88
561.956	92.88
562.168	70.88
562.381	87.88
562.593	90.88
562.805	83.88
563.017	83.88
563.229	83.88
563.441	96.88
563.653	87.88
563.865	84.88
564.077	90.88
564.289	93.88
564.501	86.88
564.713	93.88
564.925	101.88
565.137	113.88
565.349	84.88
565.561	97.88
565.773	78.88
565.985	90.88
566.197	78.88
566.408	91.88
566.62	87.88
566.832	83.88
567.044	98.88
567.255	79.88
567.467	100.88
567.679	88.88
567.891	96.88
568.102	88.88
568.314	96.88
568.526	104.88
568.737	73.88
568.949	89.88
569.161	85.88
569.372	85.88
569.584	97.88
569.795	92.88
570.007	113.88
570.218	258.88
570.43	127.88
570.641	97.88
570.853	84.88
571.064	85.88
571.276	80.88
571.487	96.88
571.698	83.88
571.91	80.88
572.121	92.88
572.333	89.88
572.544	93.88
572.755	91.88
572.966	89.88
573.178	96.88
573.389	103.88
573.6	77.88
573.811	99.88
574.023	78.88
574.234	95.88
574.445	79.88
574.656	99.88
574.867	90.88
575.078	82.88
575.289	76.88
575.501	82.88
575.712	78.88
575.923	94.88
576.134	69.88
576.345	80.88
576.556	90.88
576.767	88.88
576.978	96.88
577.188	95.88
577.399	88.88
577.61	88.88
577.821	95.88
578.032	127.88
578.243	292.88
578.454	803.88
578.665	227.88
578.875	103.88
579.086	84.88
579.297	71.88
579.508	86.88
579.718	86.88
579.929	79.88
580.14	76.88
580.35	89.88
580.561	79.88
580.772	88.88
580.982	94.88
581.193	79.88
581.403	71.88
581.614	86.88
581.825	86.88
582.035	71.88
582.246	90.88
582.456	101.88
582.667	97.88
582.877	94.88
583.087	95.88
583.298	83.88
583.508	95.88
583.719	91.88
583.929	81.88
584.139	85.88
584.35	101.88
584.56	92.88
584.77	78.88
584.981	86.88
585.191	88.88
585.401	101.88
585.611	92.88
585.821	96.88
586.032	85.88
586.242	90.88
586.452	78.88
586.662	95.88
586.872	86.88
587.082	93.88
587.292	82.88
587.502	81.88
587.713	85.88
587.923	88.88
588.133	73.88
588.343	88.88
588.553	101.88
588.762	100.88
588.972	101.88
589.182	173.88
589.392	111.88
589.602	100.88
589.812	129.88
590.022	118.88
590.232	83.88
590.441	82.88
590.651	89.88
590.861	92.88
591.071	86.88
591.281	77.88
591.49	89.88
591.7	81.88
591.91	82.88
592.119	86.88
592.329	86.88
592.539	92.88
592.748	88.88
592.958	88.88
593.167	81.88
593.377	79.88
593.587	101.88
593.796	101.88
594.006	79.88
594.215	80.88
594.424	92.88
594.634	75.88
594.843	81.88
595.053	90.88
595.262	83.88
595.472	98.88
595.681	85.88
595.89	88.88
596.1	79.88
596.309	100.88
596.518	82.88
596.727	78.88
596.937	77.88
597.146	83.88
597.355	94.88
597.564	88.88
597.774	88.88
597.983	88.88
598.192	82.88
598.401	84.88
598.61	96.88
598.819	85.88
599.028	94.88
599.237	79.88
599.446	90.88
599.655	99.88
599.864	90.88
600.073	84.88
600.282	80.88
600.491	72.88
600.7	81.88
600.909	85.88
601.118	88.88
601.327	79.88
601.536	84.88
601.745	103.88
601.953	82.88
602.162	90.88
602.371	83.88
602.58	87.88
602.789	79.88
602.997	69.88
603.206	94.88
603.415	94.88
603.623	83.88
603.832	82.88
604.041	79.88
604.249	86.88
604.458	76.88
604.666	76.88
604.875	74.88
605.084	96.88
605.292	89.88
605.501	84.88
605.709	89.88
605.918	93.88
606.126	94.88
606.334	97.88
606.543	93.88
606.751	95.88
606.96	74.88
607.168	74.88
607.376	67.88
607.585	88.88
607.793	80.88
608.001	84.88
608.21	73.88
608.418	82.88
608.626	90.88
608.834	85.88
609.043	86.88
609.251	89.88
609.459	94.88
609.667	87.88
609.875	78.88
610.083	68.88
610.291	76.88
610.499	79.88
610.707	80.88
610.916	78.88
611.124	76.88
611.332	89.88
611.54	90.88
611.748	97.88
611.955	92.88
612.163	71.88
612.371	98.88
612.579	86.88
612.787	76.88
612.995	80.88
613.203	62.88
613.411	74.88
613.618	88.88
613.826	84.88
614.034	72.88
614.242	87.88
614.449	85.88
614.657	89.88
614.865	95.88
615.072	85.88
615.28	81.88
615.488	86.88
615.695	83.88
615.903	71.88
616.111	87.88
616.318	103.88
616.526	90.88
616.733	97.88
616.941	77.88
617.148	89.88
617.356	96.88
617.563	95.88
617.771	84.88
617.978	87.88
618.185	87.88
618.393	81.88
618.6	77.88
618.807	97.88
619.015	87.88
619.222	95.88
619.429	78.88
619.637	88.88
619.844	90.88
620.051	90.88
620.258	81.88
620.466	90.88
620.673	93.88
620.88	88.88
621.087	81.88
621.294	76.88
621.501	82.88
621.708	89.88
621.915	81.88
622.122	73.88
622.329	84.88
622.536	85.88
622.743	66.88
622.95	84.88
623.157	96.88
623.364	84.88
623.571	87.88
623.778	75.88
623.985	89.88
624.192	90.88
624.399	81.88
624.606	85.88
624.812	86.88
625.019	95.88
625.226	83.88
625.433	84.88
625.639	86.88
625.846	90.88
626.053	86.88
626.259	80.88
626.466	75.88
626.673	93.88
626.879	69.88
627.086	84.88
627.293	90.88
627.499	84.88
627.706	93.88
627.912	93.88
628.119	92.88
628.325	99.88
628.532	76.88
628.738	70.88
628.945	94.88
629.151	88.88
629.357	76.88
629.564	84.88
629.77	69.88
629.976	66.88
630.183	83.88
630.389	74.88
630.595	65.88
630.802	79.88
631.008	79.88
631.214	82.88
631.42	90.88
631.627	75.88
631.833	88.88
632.039	79.88
632.245	78.88
632.451	96.88
632.657	81.88
632.863	82.88
633.069	83.88
633.275	69.88
633.481	86.88
633.688	61.88
633.893	93.88
634.099	89.88
634.305	80.88
634.511	63.88
634.717	85.88
634.923	88.88
635.129	86.88
635.335	79.88
635.541	79.88
635.747	73.88
635.952	85.88
636.158	99.88
636.364	94.88
636.57	86.88
636.775	95.88
636.981	100.88
637.187	87.88
637.392	76.88
637.598	80.88
637.804	78.88
638.009	81.88
638.215	70.88
638.421	83.88
638.626	83.88
638.832	95.88
639.037	93.88
639.243	78.88
639.448	85.88
639.654	79.88
639.859	76.88
640.065	84.88
640.27	93.88
640.475	82.88
640.681	80.88
640.886	83.88
641.091	77.88
641.297	88.88
641.502	86.88
641.707	89.88
641.913	82.88
642.118	91.88
642.323	84.88
642.528	87.88
642.733	80.88
642.939	87.88
643.144	89.88
643.349	83.88
643.554	78.88
643.759	80.88
643.964	67.88
644.169	68.88
644.374	78.88
644.579	82.88
644.784	78.88
644.989	83.88
645.194	82.88
645.399	88.88
645.604	73.88
645.809	81.88
646.014	91.88
646.219	79.88
646.423	79.88
646.628	75.88
646.833	85.88
647.038	96.88
647.243	79.88
647.447	90.88
647.652	88.88
647.857	68.88
648.062	87.88
648.266	84.88
648.471	86.88
648.676	88.88
648.88	93.88
649.085	95.88
649.289	84.88
649.494	108.88
649.698	122.88
649.903	84.88
650.107	76.88
650.312	82.88
650.516	74.88
650.721	74.88
650.925	80.88
651.13	83.88
651.334	81.88
651.539	79.88
651.743	80.88
651.947	66.88
652.152	79.88
652.356	87.88
652.56	80.88
652.764	99.88
652.969	80.88
653.173	64.88
653.377	79.88
653.581	82.88
653.785	80.88
653.99	72.88
654.194	83.88
654.398	78.88
654.602	93.88
654.806	96.88
655.01	100.88
655.214	89.88
655.418	92.88
655.622	86.88
655.826	77.88
656.03	88.88
656.234	79.88
656.438	92.88
656.642	91.88
656.846	85.88
657.049	93.88
657.253	88.88
657.457	78.88
657.661	73.88
657.865	68.88
658.068	62.88
658.272	88.88
658.476	78.88
658.68	79.88
658.883	77.88
659.087	77.88
659.291	88.88
659.494	91.88
659.698	79.88
659.901	76.88
660.105	71.88
660.309	92.88
660.512	68.88
660.716	79.88
660.919	77.88
661.123	86.88
661.326	66.88
661.53	102.88
661.733	82.88
661.936	89.88
662.14	79.88
662.343	60.88
662.546	76.88
662.75	77.88
662.953	74.88
663.156	88.88
663.36	80.88
663.563	72.88
663.766	74.88
663.969	69.88
664.173	81.88
664.376	83.88
664.579	82.88
664.782	73.88
664.985	77.88
665.188	80.88
665.391	87.88
665.594	63.88
665.797	70.88
666	89.88
666.203	80.88
666.406	85.88
666.609	79.88
666.812	93.88
667.015	87.88
667.218	87.88
667.421	81.88
667.624	84.88
667.827	75.88
668.03	82.88
668.232	67.88
668.435	87.88
668.638	86.88
668.841	87.88
669.043	80.88
669.246	82.88
669.449	76.88
669.651	81.88
669.854	75.88
670.057	78.88
670.259	72.88
670.462	74.88
670.665	76.88
670.867	86.88
671.07	79.88
671.272	74.88
671.475	89.88
671.677	87.88
671.88	87.88
672.082	77.88
672.284	88.88
672.487	78.88
672.689	85.88
672.892	86.88
