Data from Super_Dry_Prop_50_3_HRD10591_00007.txt Node
Date: Wed Dec 03 14:59:24 EST 2025
User: Yrep
Spectrometer: HR+D1059
Trigger mode: 1
Integration Time (sec): 1.000000E-1
Scans to average: 1
Electric dark correction enabled: true
Nonlinearity correction enabled: false
Boxcar width: 0
XAxis mode: Wavelengths
Number of Pixels in Spectrum: 2048
>>>>>Begin Spectral Data<<<<<
223.165	-24.44
223.4	-24.44
223.635	-24.44
223.869	-9.44
224.104	-27.44
224.338	-17.44
224.573	0.56
224.808	-19.44
225.042	-10.44
225.277	12.56
225.511	-0.44
225.746	-0.44
225.98	8.56
226.215	14.56
226.449	21.56
226.683	1.56
226.918	17.56
227.152	32.56
227.387	18.56
227.621	49.56
227.856	59.56
228.09	36.56
228.324	50.56
228.559	44.56
228.793	67.56
229.027	53.56
229.262	75.56
229.496	66.56
229.73	61.56
229.964	85.56
230.199	81.56
230.433	78.56
230.667	71.56
230.901	71.56
231.136	68.56
231.37	76.56
231.604	86.56
231.838	72.56
232.072	78.56
232.306	86.56
232.541	84.56
232.775	75.56
233.009	94.56
233.243	79.56
233.477	75.56
233.711	76.56
233.945	69.56
234.179	93.56
234.413	94.56
234.647	65.56
234.881	79.56
235.115	76.56
235.349	81.56
235.583	72.56
235.817	67.56
236.051	80.56
236.285	65.56
236.519	79.56
236.753	62.56
236.987	88.56
237.221	75.56
237.455	56.56
237.689	79.56
237.922	75.56
238.156	72.56
238.39	78.56
238.624	78.56
238.858	74.56
239.091	83.56
239.325	72.56
239.559	67.56
239.793	75.56
240.027	81.56
240.26	75.56
240.494	80.56
240.728	69.56
240.961	67.56
241.195	71.56
241.429	85.56
241.662	87.56
241.896	62.56
242.13	77.56
242.363	73.56
242.597	71.56
242.83	85.56
243.064	91.56
243.298	75.56
243.531	85.56
243.765	78.56
243.998	73.56
244.232	71.56
244.465	81.56
244.699	80.56
244.932	80.56
245.166	75.56
245.399	84.56
245.633	76.56
245.866	75.56
246.099	71.56
246.333	83.56
246.566	67.56
246.8	74.56
247.033	80.56
247.266	77.56
247.5	65.56
247.733	65.56
247.966	82.56
248.2	78.56
248.433	75.56
248.666	73.56
248.899	77.56
249.133	64.56
249.366	76.56
249.599	51.56
249.832	69.56
250.066	82.56
250.299	81.56
250.532	103.56
250.765	81.56
250.998	65.56
251.231	84.56
251.465	79.56
251.698	60.56
251.931	81.56
252.164	94.56
252.397	83.56
252.63	86.56
252.863	74.56
253.096	75.56
253.329	66.56
253.562	75.56
253.795	84.56
254.028	70.56
254.261	88.56
254.494	85.56
254.727	75.56
254.96	77.56
255.193	79.56
255.426	85.56
255.659	72.56
255.892	67.56
256.124	80.56
256.357	75.56
256.59	77.56
256.823	76.56
257.056	74.56
257.289	92.56
257.521	86.56
257.754	70.56
257.987	82.56
258.22	79.56
258.452	88.56
258.685	91.56
258.918	71.56
259.151	75.56
259.383	79.56
259.616	66.56
259.849	79.56
260.081	73.56
260.314	89.56
260.547	77.56
260.779	76.56
261.012	71.56
261.244	79.56
261.477	99.56
261.71	82.56
261.942	81.56
262.175	76.56
262.407	79.56
262.64	83.56
262.872	84.56
263.105	84.56
263.337	96.56
263.57	80.56
263.802	87.56
264.035	80.56
264.267	75.56
264.499	80.56
264.732	73.56
264.964	72.56
265.197	86.56
265.429	79.56
265.661	71.56
265.894	82.56
266.126	90.56
266.358	97.56
266.591	72.56
266.823	80.56
267.055	86.56
267.287	75.56
267.52	87.56
267.752	73.56
267.984	76.56
268.216	89.56
268.448	85.56
268.681	72.56
268.913	74.56
269.145	75.56
269.377	79.56
269.609	83.56
269.841	88.56
270.073	92.56
270.306	82.56
270.538	81.56
270.77	79.56
271.002	83.56
271.234	82.56
271.466	87.56
271.698	72.56
271.93	72.56
272.162	91.56
272.394	75.56
272.626	87.56
272.858	81.56
273.09	91.56
273.322	69.56
273.553	89.56
273.785	75.56
274.017	77.56
274.249	89.56
274.481	78.56
274.713	93.56
274.945	76.56
275.176	87.56
275.408	75.56
275.64	83.56
275.872	86.56
276.104	91.56
276.335	82.56
276.567	80.56
276.799	87.56
277.031	84.56
277.262	84.56
277.494	74.56
277.726	80.56
277.957	91.56
278.189	74.56
278.421	75.56
278.652	71.56
278.884	72.56
279.115	85.56
279.347	83.56
279.579	86.56
279.81	69.56
280.042	80.56
280.273	75.56
280.505	57.56
280.736	93.56
280.968	86.56
281.199	81.56
281.431	64.56
281.662	81.56
281.894	75.56
282.125	86.56
282.356	83.56
282.588	69.56
282.819	97.56
283.051	83.56
283.282	77.56
283.513	89.56
283.745	81.56
283.976	71.56
284.207	75.56
284.439	95.56
284.67	76.56
284.901	81.56
285.132	75.56
285.364	77.56
285.595	85.56
285.826	72.56
286.057	77.56
286.288	84.56
286.52	82.56
286.751	95.56
286.982	79.56
287.213	79.56
287.444	83.56
287.675	82.56
287.906	77.56
288.138	81.56
288.369	74.56
288.6	86.56
288.831	85.56
289.062	67.56
289.293	80.56
289.524	86.56
289.755	86.56
289.986	92.56
290.217	91.56
290.448	95.56
290.679	82.56
290.91	89.56
291.141	82.56
291.371	79.56
291.602	89.56
291.833	86.56
292.064	89.56
292.295	89.56
292.526	91.56
292.757	80.56
292.987	79.56
293.218	81.56
293.449	73.56
293.68	82.56
293.91	82.56
294.141	72.56
294.372	71.56
294.603	69.56
294.833	85.56
295.064	73.56
295.295	96.56
295.525	88.56
295.756	86.56
295.987	72.56
296.217	93.56
296.448	76.56
296.679	77.56
296.909	84.56
297.14	75.56
297.37	84.56
297.601	93.56
297.831	85.56
298.062	72.56
298.292	82.56
298.523	84.56
298.753	87.56
298.984	89.56
299.214	90.56
299.445	95.56
299.675	80.56
299.905	83.56
300.136	81.56
300.366	79.56
300.597	80.56
300.827	83.56
301.057	82.56
301.288	82.56
301.518	91.56
301.748	91.56
301.979	94.56
302.209	86.56
302.439	87.56
302.669	85.56
302.9	86.56
303.13	72.56
303.36	81.56
303.59	80.56
303.82	81.56
304.051	88.56
304.281	91.56
304.511	75.56
304.741	81.56
304.971	92.56
305.201	87.56
305.431	89.56
305.661	83.56
305.891	84.56
306.121	88.56
306.352	78.56
306.582	82.56
306.812	82.56
307.042	68.56
307.272	79.56
307.502	75.56
307.731	73.56
307.961	80.56
308.191	87.56
308.421	72.56
308.651	80.56
308.881	83.56
309.111	86.56
309.341	77.56
309.571	85.56
309.8	78.56
310.03	79.56
310.26	77.56
310.49	85.56
310.72	67.56
310.949	78.56
311.179	77.56
311.409	95.56
311.639	80.56
311.868	84.56
312.098	93.56
312.328	91.56
312.557	81.56
312.787	100.56
313.017	86.56
313.246	85.56
313.476	106.56
313.706	91.56
313.935	82.56
314.165	79.56
314.394	83.56
314.624	95.56
314.853	91.56
315.083	87.56
315.312	77.56
315.542	75.56
315.771	93.56
316.001	83.56
316.23	84.56
316.46	88.56
316.689	91.56
316.919	80.56
317.148	81.56
317.377	85.56
317.607	79.56
317.836	96.56
318.065	85.56
318.295	77.56
318.524	83.56
318.753	86.56
318.983	81.56
319.212	86.56
319.441	84.56
319.67	96.56
319.9	88.56
320.129	91.56
320.358	75.56
320.587	71.56
320.816	87.56
321.046	83.56
321.275	87.56
321.504	73.56
321.733	81.56
321.962	89.56
322.191	83.56
322.42	71.56
322.649	74.56
322.878	77.56
323.108	89.56
323.337	86.56
323.566	76.56
323.795	91.56
324.024	97.56
324.253	82.56
324.482	87.56
324.71	99.56
324.939	107.56
325.168	82.56
325.397	89.56
325.626	90.56
325.855	75.56
326.084	78.56
326.313	89.56
326.542	68.56
326.77	96.56
326.999	88.56
327.228	75.56
327.457	94.56
327.686	84.56
327.914	87.56
328.143	86.56
328.372	76.56
328.6	73.56
328.829	75.56
329.058	77.56
329.287	87.56
329.515	81.56
329.744	77.56
329.972	84.56
330.201	77.56
330.43	99.56
330.658	91.56
330.887	73.56
331.115	93.56
331.344	83.56
331.572	81.56
331.801	91.56
332.03	92.56
332.258	92.56
332.486	72.56
332.715	76.56
332.943	67.56
333.172	91.56
333.4	86.56
333.629	93.56
333.857	97.56
334.085	94.56
334.314	77.56
334.542	84.56
334.771	74.56
334.999	88.56
335.227	84.56
335.455	77.56
335.684	91.56
335.912	89.56
336.14	73.56
336.369	92.56
336.597	85.56
336.825	85.56
337.053	78.56
337.281	83.56
337.51	88.56
337.738	91.56
337.966	82.56
338.194	96.56
338.422	88.56
338.65	92.56
338.878	75.56
339.106	76.56
339.334	98.56
339.562	99.56
339.79	87.56
340.018	86.56
340.246	83.56
340.474	77.56
340.702	71.56
340.93	77.56
341.158	91.56
341.386	89.56
341.614	81.56
341.842	81.56
342.07	93.56
342.298	80.56
342.526	85.56
342.754	83.56
342.981	98.56
343.209	83.56
343.437	91.56
343.665	77.56
343.893	95.56
344.12	79.56
344.348	94.56
344.576	68.56
344.804	95.56
345.031	69.56
345.259	91.56
345.487	86.56
345.714	86.56
345.942	87.56
346.17	94.56
346.397	93.56
346.625	72.56
346.853	83.56
347.08	82.56
347.308	84.56
347.535	93.56
347.763	85.56
347.99	87.56
348.218	76.56
348.445	76.56
348.673	78.56
348.9	81.56
349.128	85.56
349.355	83.56
349.583	84.56
349.81	78.56
350.037	79.56
350.265	85.56
350.492	82.56
350.72	94.56
350.947	74.56
351.174	88.56
351.402	92.56
351.629	73.56
351.856	83.56
352.083	91.56
352.311	87.56
352.538	82.56
352.765	84.56
352.992	87.56
353.22	96.56
353.447	97.56
353.674	71.56
353.901	88.56
354.128	93.56
354.355	88.56
354.583	75.56
354.81	89.56
355.037	84.56
355.264	92.56
355.491	71.56
355.718	79.56
355.945	82.56
356.172	85.56
356.399	72.56
356.626	88.56
356.853	82.56
357.08	86.56
357.307	92.56
357.534	86.56
357.761	71.56
357.988	97.56
358.215	86.56
358.441	86.56
358.668	81.56
358.895	103.56
359.122	89.56
359.349	98.56
359.576	79.56
359.802	73.56
360.029	89.56
360.256	74.56
360.483	82.56
360.709	81.56
360.936	91.56
361.163	75.56
361.39	99.56
361.616	86.56
361.843	84.56
362.07	83.56
362.296	74.56
362.523	68.56
362.749	84.56
362.976	73.56
363.203	85.56
363.429	79.56
363.656	95.56
363.882	78.56
364.109	77.56
364.335	85.56
364.562	94.56
364.788	85.56
365.015	68.56
365.241	99.56
365.468	78.56
365.694	95.56
365.92	78.56
366.147	69.56
366.373	86.56
366.599	68.56
366.826	71.56
367.052	85.56
367.278	85.56
367.505	79.56
367.731	84.56
367.957	75.56
368.184	80.56
368.41	87.56
368.636	80.56
368.862	84.56
369.089	91.56
369.315	65.56
369.541	95.56
369.767	73.56
369.993	79.56
370.219	80.56
370.445	76.56
370.672	93.56
370.898	84.56
371.124	85.56
371.35	73.56
371.576	92.56
371.802	98.56
372.028	86.56
372.254	84.56
372.48	78.56
372.706	83.56
372.932	69.56
373.158	83.56
373.384	89.56
373.61	94.56
373.835	87.56
374.061	75.56
374.287	83.56
374.513	89.56
374.739	82.56
374.965	86.56
375.191	80.56
375.416	80.56
375.642	87.56
375.868	80.56
376.094	82.56
376.319	67.56
376.545	75.56
376.771	83.56
376.997	95.56
377.222	72.56
377.448	87.56
377.674	79.56
377.899	99.56
378.125	72.56
378.35	82.56
378.576	91.56
378.802	84.56
379.027	82.56
379.253	80.56
379.478	72.56
379.704	79.56
379.929	80.56
380.155	91.56
380.38	86.56
380.606	80.56
380.831	88.56
381.057	72.56
381.282	83.56
381.507	73.56
381.733	92.56
381.958	86.56
382.184	91.56
382.409	61.56
382.634	95.56
382.86	107.56
383.085	91.56
383.31	93.56
383.535	78.56
383.761	84.56
383.986	88.56
384.211	93.56
384.436	63.56
384.662	72.56
384.887	85.56
385.112	78.56
385.337	79.56
385.562	81.56
385.787	72.56
386.013	86.56
386.238	77.56
386.463	95.56
386.688	108.56
386.913	87.56
387.138	86.56
387.363	76.56
387.588	82.56
387.813	92.56
388.038	79.56
388.263	95.56
388.488	68.56
388.713	80.56
388.938	73.56
389.163	88.56
389.387	79.56
389.612	81.56
389.837	83.56
390.062	89.56
390.287	79.56
390.512	84.56
390.736	81.56
390.961	80.56
391.186	67.56
391.411	84.56
391.636	63.56
391.86	85.56
392.085	81.56
392.31	82.56
392.534	74.56
392.759	76.56
392.984	80.56
393.208	96.56
393.433	96.56
393.658	80.56
393.882	79.56
394.107	80.56
394.331	78.56
394.556	89.56
394.78	84.56
395.005	88.56
395.229	77.56
395.454	80.56
395.678	76.56
395.903	87.56
396.127	94.56
396.352	85.56
396.576	81.56
396.801	91.56
397.025	83.56
397.249	71.56
397.474	85.56
397.698	83.56
397.922	82.56
398.147	85.56
398.371	82.56
398.595	84.56
398.82	75.56
399.044	96.56
399.268	84.56
399.492	83.56
399.717	83.56
399.941	73.56
400.165	87.56
400.389	73.56
400.613	80.56
400.837	96.56
401.062	88.56
401.286	92.56
401.51	92.56
401.734	85.56
401.958	71.56
402.182	76.56
402.406	79.56
402.63	83.56
402.854	87.56
403.078	81.56
403.302	91.56
403.526	75.56
403.75	79.56
403.974	83.56
404.198	80.56
404.422	99.56
404.645	99.56
404.869	95.56
405.093	88.56
405.317	94.56
405.541	81.56
405.765	75.56
405.988	78.56
406.212	64.56
406.436	69.56
406.66	84.56
406.883	74.56
407.107	75.56
407.331	83.56
407.555	86.56
407.778	83.56
408.002	73.56
408.226	81.56
408.449	82.56
408.673	76.56
408.896	76.56
409.12	82.56
409.344	77.56
409.567	69.56
409.791	66.56
410.014	86.56
410.238	81.56
410.461	79.56
410.685	75.56
410.908	84.56
411.132	77.56
411.355	84.56
411.578	65.56
411.802	82.56
412.025	98.56
412.249	95.56
412.472	83.56
412.695	91.56
412.919	73.56
413.142	62.56
413.365	85.56
413.589	88.56
413.812	76.56
414.035	85.56
414.258	85.56
414.482	81.56
414.705	87.56
414.928	61.56
415.151	81.56
415.374	77.56
415.597	80.56
415.821	79.56
416.044	109.56
416.267	86.56
416.49	78.56
416.713	66.56
416.936	81.56
417.159	78.56
417.382	75.56
417.605	81.56
417.828	88.56
418.051	92.56
418.274	85.56
418.497	71.56
418.72	72.56
418.943	91.56
419.166	84.56
419.389	70.56
419.611	82.56
419.834	78.56
420.057	92.56
420.28	80.56
420.503	86.56
420.726	77.56
420.948	96.56
421.171	84.56
421.394	88.56
421.617	73.56
421.839	73.56
422.062	83.56
422.285	83.56
422.507	86.56
422.73	109.56
422.953	107.56
423.175	78.56
423.398	86.56
423.621	93.56
423.843	65.56
424.066	82.56
424.288	69.56
424.511	83.56
424.733	76.56
424.956	73.56
425.178	79.56
425.401	88.56
425.623	78.56
425.846	87.56
426.068	78.56
426.291	81.56
426.513	87.56
426.735	81.56
426.958	93.56
427.18	71.56
427.402	76.56
427.625	91.56
427.847	69.56
428.069	88.56
428.292	83.56
428.514	78.56
428.736	83.56
428.958	93.56
429.181	74.56
429.403	71.56
429.625	86.56
429.847	85.56
430.069	79.56
430.292	92.56
430.514	80.56
430.736	80.56
430.958	72.56
431.18	98.56
431.402	77.56
431.624	68.56
431.846	85.56
432.068	87.56
432.29	95.56
432.512	99.56
432.734	76.56
432.956	89.56
433.178	77.56
433.4	79.56
433.622	79.56
433.844	76.56
434.066	77.56
434.287	76.56
434.509	92.56
434.731	79.56
434.953	87.56
435.175	76.56
435.397	73.56
435.618	92.56
435.84	84.56
436.062	74.56
436.284	84.56
436.505	84.56
436.727	79.56
436.949	88.56
437.17	73.56
437.392	70.56
437.614	69.56
437.835	81.56
438.057	73.56
438.278	78.56
438.5	88.56
438.721	68.56
438.943	92.56
439.165	86.56
439.386	82.56
439.608	73.56
439.829	86.56
440.05	93.56
440.272	101.56
440.493	81.56
440.715	88.56
440.936	81.56
441.158	85.56
441.379	76.56
441.6	83.56
441.822	77.56
442.043	72.56
442.264	81.56
442.486	81.56
442.707	79.56
442.928	96.56
443.149	71.56
443.371	89.56
443.592	82.56
443.813	90.56
444.034	77.56
444.255	88.56
444.476	91.56
444.698	93.56
444.919	91.56
445.14	148.56
445.361	101.56
445.582	73.56
445.803	87.56
446.024	80.56
446.245	92.56
446.466	81.56
446.687	95.56
446.908	85.56
447.129	81.56
447.35	72.56
447.571	74.56
447.792	85.56
448.013	80.56
448.234	87.56
448.455	64.56
448.675	81.56
448.896	78.56
449.117	81.56
449.338	57.56
449.559	72.56
449.779	83.56
450	85.56
450.221	107.56
450.442	78.56
450.662	78.56
450.883	69.56
451.104	75.56
451.324	75.56
451.545	81.56
451.766	77.56
451.986	71.56
452.207	85.56
452.428	87.56
452.648	95.56
452.869	72.56
453.089	72.56
453.31	67.56
453.53	74.56
453.751	77.56
453.971	82.56
454.192	74.56
454.412	64.56
454.633	84.56
454.853	81.56
455.073	77.56
455.294	86.56
455.514	90.56
455.734	86.56
455.955	65.56
456.175	81.56
456.395	66.56
456.616	93.56
456.836	88.56
457.056	87.56
457.276	78.56
457.497	71.56
457.717	78.56
457.937	78.56
458.157	76.56
458.377	92.56
458.598	85.56
458.818	81.56
459.038	73.56
459.258	81.56
459.478	76.56
459.698	79.56
459.918	76.56
460.138	74.56
460.358	83.56
460.578	86.56
460.798	83.56
461.018	94.56
461.238	81.56
461.458	76.56
461.678	87.56
461.898	74.56
462.118	81.56
462.338	72.56
462.558	75.56
462.777	75.56
462.997	73.56
463.217	65.56
463.437	87.56
463.657	76.56
463.876	84.56
464.096	75.56
464.316	74.56
464.536	77.56
464.755	95.56
464.975	83.56
465.195	88.56
465.414	81.56
465.634	89.56
465.854	72.56
466.073	85.56
466.293	84.56
466.512	89.56
466.732	74.56
466.951	66.56
467.171	92.56
467.391	81.56
467.61	96.56
467.829	73.56
468.049	82.56
468.268	82.56
468.488	68.56
468.707	75.56
468.927	83.56
469.146	73.56
469.365	85.56
469.585	84.56
469.804	74.56
470.023	79.56
470.243	70.56
470.462	73.56
470.681	92.56
470.901	73.56
471.12	79.56
471.339	81.56
471.558	75.56
471.777	90.56
471.997	87.56
472.216	86.56
472.435	71.56
472.654	84.56
472.873	81.56
473.092	76.56
473.311	83.56
473.53	84.56
473.749	103.56
473.968	83.56
474.187	85.56
474.406	85.56
474.625	81.56
474.844	79.56
475.063	83.56
475.282	82.56
475.501	87.56
475.72	78.56
475.939	77.56
476.158	74.56
476.377	78.56
476.596	76.56
476.814	83.56
477.033	79.56
477.252	85.56
477.471	80.56
477.69	85.56
477.908	105.56
478.127	76.56
478.346	91.56
478.564	88.56
478.783	65.56
479.002	78.56
479.22	83.56
479.439	95.56
479.658	91.56
479.876	68.56
480.095	69.56
480.313	80.56
480.532	77.56
480.751	81.56
480.969	80.56
481.188	80.56
481.406	77.56
481.624	85.56
481.843	76.56
482.061	88.56
482.28	69.56
482.498	82.56
482.717	73.56
482.935	79.56
483.153	80.56
483.372	76.56
483.59	75.56
483.808	86.56
484.027	75.56
484.245	83.56
484.463	80.56
484.681	81.56
484.9	80.56
485.118	87.56
485.336	79.56
485.554	82.56
485.772	79.56
485.99	81.56
486.209	84.56
486.427	77.56
486.645	80.56
486.863	79.56
487.081	70.56
487.299	78.56
487.517	76.56
487.735	77.56
487.953	70.56
488.171	101.56
488.389	75.56
488.607	75.56
488.825	79.56
489.043	97.56
489.261	80.56
489.479	80.56
489.696	80.56
489.914	92.56
490.132	71.56
490.35	91.56
490.568	86.56
490.786	88.56
491.003	83.56
491.221	91.56
491.439	84.56
491.657	87.56
491.874	64.56
492.092	87.56
492.31	95.56
492.527	95.56
492.745	79.56
492.963	73.56
493.18	77.56
493.398	72.56
493.615	87.56
493.833	87.56
494.05	83.56
494.268	81.56
494.485	103.56
494.703	80.56
494.92	84.56
495.138	87.56
495.355	87.56
495.573	83.56
495.79	67.56
496.008	82.56
496.225	78.56
496.442	83.56
496.66	110.56
496.877	86.56
497.094	81.56
497.312	76.56
497.529	93.56
497.746	79.56
497.963	82.56
498.181	74.56
498.398	87.56
498.615	93.56
498.832	97.56
499.049	80.56
499.267	89.56
499.484	81.56
499.701	89.56
499.918	91.56
500.135	75.56
500.352	80.56
500.569	68.56
500.786	85.56
501.003	92.56
501.22	83.56
501.437	85.56
501.654	87.56
501.871	96.56
502.088	81.56
502.305	93.56
502.522	86.56
502.739	86.56
502.956	86.56
503.172	93.56
503.389	82.56
503.606	67.56
503.823	71.56
504.04	73.56
504.256	75.56
504.473	75.56
504.69	87.56
504.907	81.56
505.123	77.56
505.34	88.56
505.557	85.56
505.773	95.56
505.99	73.56
506.207	87.56
506.423	75.56
506.64	87.56
506.856	79.56
507.073	86.56
507.289	76.56
507.506	88.56
507.722	85.56
507.939	93.56
508.155	91.56
508.372	88.56
508.588	90.56
508.805	95.56
509.021	76.56
509.238	90.56
509.454	69.56
509.67	80.56
509.887	85.56
510.103	77.56
510.319	75.56
510.536	80.56
510.752	71.56
510.968	99.56
511.184	80.56
511.401	80.56
511.617	77.56
511.833	89.56
512.049	70.56
512.265	91.56
512.481	91.56
512.698	86.56
512.914	78.56
513.13	84.56
513.346	85.56
513.562	84.56
513.778	84.56
513.994	97.56
514.21	93.56
514.426	71.56
514.642	73.56
514.858	81.56
515.074	84.56
515.29	66.56
515.506	85.56
515.721	79.56
515.937	92.56
516.153	77.56
516.369	75.56
516.585	79.56
516.801	79.56
517.016	75.56
517.232	76.56
517.448	96.56
517.664	83.56
517.879	92.56
518.095	76.56
518.311	71.56
518.527	95.56
518.742	84.56
518.958	81.56
519.173	71.56
519.389	86.56
519.605	81.56
519.82	67.56
520.036	77.56
520.251	86.56
520.467	84.56
520.682	83.56
520.898	85.56
521.113	94.56
521.329	95.56
521.544	81.56
521.76	95.56
521.975	76.56
522.19	77.56
522.406	78.56
522.621	87.56
522.836	76.56
523.052	84.56
523.267	89.56
523.482	63.56
523.698	78.56
523.913	78.56
524.128	82.56
524.343	93.56
524.559	85.56
524.774	70.56
524.989	78.56
525.204	86.56
525.419	80.56
525.634	75.56
525.849	79.56
526.064	82.56
526.28	99.56
526.495	98.56
526.71	92.56
526.925	87.56
527.14	83.56
527.355	76.56
527.57	82.56
527.785	92.56
527.999	83.56
528.214	86.56
528.429	78.56
528.644	69.56
528.859	97.56
529.074	85.56
529.289	85.56
529.503	74.56
529.718	99.56
529.933	92.56
530.148	87.56
530.363	89.56
530.577	71.56
530.792	80.56
531.007	96.56
531.221	89.56
531.436	75.56
531.651	91.56
531.865	81.56
532.08	84.56
532.295	84.56
532.509	88.56
532.724	74.56
532.938	83.56
533.153	83.56
533.367	95.56
533.582	88.56
533.796	73.56
534.011	78.56
534.225	83.56
534.44	89.56
534.654	84.56
534.868	81.56
535.083	77.56
535.297	84.56
535.511	95.56
535.726	95.56
535.94	88.56
536.154	94.56
536.369	75.56
536.583	101.56
536.797	85.56
537.011	77.56
537.225	78.56
537.44	63.56
537.654	77.56
537.868	85.56
538.082	72.56
538.296	78.56
538.51	88.56
538.724	82.56
538.938	72.56
539.153	88.56
539.367	98.56
539.581	83.56
539.795	89.56
540.009	80.56
540.222	90.56
540.436	76.56
540.65	85.56
540.864	81.56
541.078	88.56
541.292	81.56
541.506	77.56
541.72	84.56
541.934	67.56
542.147	79.56
542.361	72.56
542.575	91.56
542.789	83.56
543.002	80.56
543.216	77.56
543.43	89.56
543.644	79.56
543.857	86.56
544.071	76.56
544.285	87.56
544.498	73.56
544.712	70.56
544.925	68.56
545.139	78.56
545.352	81.56
545.566	63.56
545.779	79.56
545.993	88.56
546.206	81.56
546.42	89.56
546.633	81.56
546.847	86.56
547.06	79.56
547.274	79.56
547.487	94.56
547.7	82.56
547.914	97.56
548.127	81.56
548.34	96.56
548.554	94.56
548.767	77.56
548.98	91.56
549.193	92.56
549.407	99.56
549.62	87.56
549.833	91.56
550.046	87.56
550.259	82.56
550.473	85.56
550.686	69.56
550.899	94.56
551.112	87.56
551.325	80.56
551.538	83.56
551.751	93.56
551.964	87.56
552.177	98.56
552.39	100.56
552.603	85.56
552.816	89.56
553.029	92.56
553.242	87.56
553.455	98.56
553.667	85.56
553.88	83.56
554.093	92.56
554.306	79.56
554.519	79.56
554.732	90.56
554.944	95.56
555.157	85.56
555.37	84.56
555.583	85.56
555.795	89.56
556.008	80.56
556.221	101.56
556.433	84.56
556.646	77.56
556.859	89.56
557.071	88.56
557.284	96.56
557.496	79.56
557.709	78.56
557.921	73.56
558.134	80.56
558.346	84.56
558.559	83.56
558.771	77.56
558.984	76.56
559.196	93.56
559.409	88.56
559.621	75.56
559.833	91.56
560.046	78.56
560.258	84.56
560.47	80.56
560.683	77.56
560.895	91.56
561.107	77.56
561.32	91.56
561.532	80.56
561.744	75.56
561.956	92.56
562.168	72.56
562.381	80.56
562.593	82.56
562.805	89.56
563.017	75.56
563.229	94.56
563.441	72.56
563.653	79.56
563.865	77.56
564.077	84.56
564.289	85.56
564.501	85.56
564.713	89.56
564.925	82.56
565.137	77.56
565.349	93.56
565.561	82.56
565.773	88.56
565.985	88.56
566.197	80.56
566.408	84.56
566.62	84.56
566.832	82.56
567.044	102.56
567.255	79.56
567.467	91.56
567.679	89.56
567.891	69.56
568.102	88.56
568.314	83.56
568.526	101.56
568.737	94.56
568.949	87.56
569.161	87.56
569.372	77.56
569.584	88.56
569.795	65.56
570.007	86.56
570.218	97.56
570.43	81.56
570.641	93.56
570.853	93.56
571.064	84.56
571.276	86.56
571.487	83.56
571.698	91.56
571.91	106.56
572.121	87.56
572.333	88.56
572.544	81.56
572.755	87.56
572.966	100.56
573.178	93.56
573.389	75.56
573.6	80.56
573.811	98.56
574.023	87.56
574.234	85.56
574.445	80.56
574.656	94.56
574.867	101.56
575.078	89.56
575.289	85.56
575.501	82.56
575.712	89.56
575.923	96.56
576.134	85.56
576.345	82.56
576.556	97.56
576.767	93.56
576.978	80.56
577.188	80.56
577.399	74.56
577.61	84.56
577.821	65.56
578.032	72.56
578.243	79.56
578.454	97.56
578.665	89.56
578.875	76.56
579.086	83.56
579.297	81.56
579.508	89.56
579.718	85.56
579.929	87.56
580.14	81.56
580.35	92.56
580.561	102.56
580.772	82.56
580.982	91.56
581.193	77.56
581.403	88.56
581.614	86.56
581.825	89.56
582.035	86.56
582.246	96.56
582.456	89.56
582.667	99.56
582.877	80.56
583.087	80.56
583.298	95.56
583.508	86.56
583.719	81.56
583.929	87.56
584.139	83.56
584.35	75.56
584.56	85.56
584.77	91.56
584.981	81.56
585.191	86.56
585.401	93.56
585.611	84.56
585.821	75.56
586.032	87.56
586.242	71.56
586.452	89.56
586.662	85.56
586.872	96.56
587.082	88.56
587.292	85.56
587.502	97.56
587.713	91.56
587.923	88.56
588.133	89.56
588.343	104.56
588.553	96.56
588.762	145.56
588.972	297.56
589.182	544.56
589.392	387.56
589.602	296.56
589.812	475.56
590.022	259.56
590.232	137.56
590.441	110.56
590.651	111.56
590.861	95.56
591.071	112.56
591.281	85.56
591.49	100.56
591.7	97.56
591.91	89.56
592.119	93.56
592.329	88.56
592.539	77.56
592.748	83.56
592.958	88.56
593.167	89.56
593.377	88.56
593.587	76.56
593.796	104.56
594.006	93.56
594.215	86.56
594.424	65.56
594.634	89.56
594.843	89.56
595.053	80.56
595.262	89.56
595.472	94.56
595.681	76.56
595.89	89.56
596.1	91.56
596.309	82.56
596.518	80.56
596.727	92.56
596.937	82.56
597.146	89.56
597.355	79.56
597.564	78.56
597.774	80.56
597.983	86.56
598.192	86.56
598.401	83.56
598.61	79.56
598.819	82.56
599.028	77.56
599.237	78.56
599.446	94.56
599.655	78.56
599.864	84.56
600.073	87.56
600.282	85.56
600.491	73.56
600.7	84.56
600.909	76.56
601.118	66.56
601.327	87.56
601.536	83.56
601.745	91.56
601.953	91.56
602.162	94.56
602.371	83.56
602.58	91.56
602.789	88.56
602.997	91.56
603.206	93.56
603.415	74.56
603.623	75.56
603.832	91.56
604.041	91.56
604.249	87.56
604.458	103.56
604.666	92.56
604.875	87.56
605.084	84.56
605.292	85.56
605.501	85.56
605.709	72.56
605.918	86.56
606.126	89.56
606.334	89.56
606.543	101.56
606.751	93.56
606.96	101.56
607.168	100.56
607.376	91.56
607.585	93.56
607.793	83.56
608.001	96.56
608.21	86.56
608.418	83.56
608.626	83.56
608.834	98.56
609.043	96.56
609.251	97.56
609.459	97.56
609.667	84.56
609.875	87.56
610.083	83.56
610.291	80.56
610.499	86.56
610.707	84.56
610.916	94.56
611.124	96.56
611.332	75.56
611.54	81.56
611.748	80.56
611.955	93.56
612.163	96.56
612.371	84.56
612.579	75.56
612.787	82.56
612.995	99.56
613.203	99.56
613.411	83.56
613.618	99.56
613.826	76.56
614.034	75.56
614.242	85.56
614.449	81.56
614.657	80.56
614.865	75.56
615.072	79.56
615.28	84.56
615.488	96.56
615.695	87.56
615.903	87.56
616.111	89.56
616.318	87.56
616.526	91.56
616.733	99.56
616.941	94.56
617.148	92.56
617.356	95.56
617.563	77.56
617.771	76.56
617.978	94.56
618.185	83.56
618.393	89.56
618.6	87.56
618.807	100.56
619.015	81.56
619.222	90.56
619.429	81.56
619.637	87.56
619.844	79.56
620.051	79.56
620.258	76.56
620.466	85.56
620.673	82.56
620.88	83.56
621.087	71.56
621.294	66.56
621.501	83.56
621.708	94.56
621.915	91.56
622.122	83.56
622.329	83.56
622.536	81.56
622.743	93.56
622.95	75.56
623.157	77.56
623.364	85.56
623.571	79.56
623.778	71.56
623.985	78.56
624.192	70.56
624.399	99.56
624.606	78.56
624.812	95.56
625.019	78.56
625.226	84.56
625.433	95.56
625.639	87.56
625.846	77.56
626.053	87.56
626.259	88.56
626.466	77.56
626.673	92.56
626.879	89.56
627.086	87.56
627.293	92.56
627.499	83.56
627.706	75.56
627.912	81.56
628.119	81.56
628.325	79.56
628.532	91.56
628.738	86.56
628.945	92.56
629.151	66.56
629.357	93.56
629.564	87.56
629.77	89.56
629.976	86.56
630.183	72.56
630.389	80.56
630.595	77.56
630.802	95.56
631.008	82.56
631.214	82.56
631.42	88.56
631.627	91.56
631.833	81.56
632.039	79.56
632.245	80.56
632.451	87.56
632.657	80.56
632.863	83.56
633.069	84.56
633.275	96.56
633.481	78.56
633.688	90.56
633.893	87.56
634.099	93.56
634.305	77.56
634.511	88.56
634.717	91.56
634.923	85.56
635.129	99.56
635.335	80.56
635.541	84.56
635.747	69.56
635.952	98.56
636.158	93.56
636.364	88.56
636.57	89.56
636.775	81.56
636.981	74.56
637.187	87.56
637.392	77.56
637.598	95.56
637.804	86.56
638.009	83.56
638.215	89.56
638.421	72.56
638.626	76.56
638.832	78.56
639.037	80.56
639.243	73.56
639.448	83.56
639.654	85.56
639.859	81.56
640.065	81.56
640.27	82.56
640.475	78.56
640.681	85.56
640.886	76.56
641.091	86.56
641.297	83.56
641.502	88.56
641.707	95.56
641.913	73.56
642.118	83.56
642.323	82.56
642.528	91.56
642.733	67.56
642.939	82.56
643.144	76.56
643.349	88.56
643.554	73.56
643.759	74.56
643.964	76.56
644.169	90.56
644.374	86.56
644.579	86.56
644.784	73.56
644.989	72.56
645.194	86.56
645.399	89.56
645.604	68.56
645.809	87.56
646.014	77.56
646.219	75.56
646.423	83.56
646.628	77.56
646.833	71.56
647.038	81.56
647.243	88.56
647.447	93.56
647.652	61.56
647.857	100.56
648.062	86.56
648.266	85.56
648.471	83.56
648.676	76.56
648.88	86.56
649.085	77.56
649.289	73.56
649.494	85.56
649.698	88.56
649.903	85.56
650.107	86.56
650.312	69.56
650.516	85.56
650.721	95.56
650.925	79.56
651.13	86.56
651.334	78.56
651.539	83.56
651.743	68.56
651.947	87.56
652.152	85.56
652.356	82.56
652.56	93.56
652.764	82.56
652.969	93.56
653.173	87.56
653.377	75.56
653.581	82.56
653.785	72.56
653.99	77.56
654.194	79.56
654.398	71.56
654.602	71.56
654.806	88.56
655.01	85.56
655.214	83.56
655.418	81.56
655.622	78.56
655.826	70.56
656.03	97.56
656.234	83.56
656.438	95.56
656.642	95.56
656.846	71.56
657.049	81.56
657.253	73.56
657.457	69.56
657.661	76.56
657.865	67.56
658.068	93.56
658.272	90.56
658.476	80.56
658.68	89.56
658.883	86.56
659.087	77.56
659.291	72.56
659.494	86.56
659.698	82.56
659.901	95.56
660.105	90.56
660.309	93.56
660.512	82.56
660.716	88.56
660.919	86.56
661.123	71.56
661.326	76.56
661.53	82.56
661.733	87.56
661.936	86.56
662.14	83.56
662.343	77.56
662.546	86.56
662.75	85.56
662.953	95.56
663.156	88.56
663.36	85.56
663.563	82.56
663.766	73.56
663.969	91.56
664.173	75.56
664.376	80.56
664.579	75.56
664.782	71.56
664.985	79.56
665.188	98.56
665.391	77.56
665.594	84.56
665.797	78.56
666	71.56
666.203	78.56
666.406	69.56
666.609	92.56
666.812	80.56
667.015	86.56
667.218	78.56
667.421	88.56
667.624	81.56
667.827	86.56
668.03	80.56
668.232	87.56
668.435	69.56
668.638	77.56
668.841	65.56
669.043	72.56
669.246	83.56
669.449	71.56
669.651	88.56
669.854	85.56
670.057	94.56
670.259	79.56
670.462	76.56
670.665	77.56
670.867	86.56
671.07	88.56
671.272	86.56
671.475	82.56
671.677	70.56
671.88	93.56
672.082	81.56
672.284	93.56
672.487	79.56
672.689	88.56
672.892	84.56
