Data from Super_Dry_Prop_50_3_HRD10591_00004.txt Node
Date: Wed Dec 03 14:59:22 EST 2025
User: Yrep
Spectrometer: HR+D1059
Trigger mode: 1
Integration Time (sec): 1.000000E-1
Scans to average: 1
Electric dark correction enabled: true
Nonlinearity correction enabled: false
Boxcar width: 0
XAxis mode: Wavelengths
Number of Pixels in Spectrum: 2048
>>>>>Begin Spectral Data<<<<<
223.165	-12.31
223.4	-12.31
223.635	-12.31
223.869	-13.31
224.104	-17.31
224.338	-20.31
224.573	-14.31
224.808	-3.31
225.042	-0.31
225.277	-5.31
225.511	2.69
225.746	-1.31
225.98	-8.31
226.215	9.69
226.449	19.69
226.683	18.69
226.918	16.69
227.152	28.69
227.387	38.69
227.621	40.69
227.856	44.69
228.09	45.69
228.324	53.69
228.559	62.69
228.793	47.69
229.027	52.69
229.262	63.69
229.496	63.69
229.73	67.69
229.964	59.69
230.199	65.69
230.433	73.69
230.667	73.69
230.901	75.69
231.136	86.69
231.37	79.69
231.604	89.69
231.838	67.69
232.072	80.69
232.306	70.69
232.541	78.69
232.775	85.69
233.009	75.69
233.243	74.69
233.477	83.69
233.711	67.69
233.945	78.69
234.179	81.69
234.413	100.69
234.647	78.69
234.881	81.69
235.115	89.69
235.349	80.69
235.583	79.69
235.817	74.69
236.051	68.69
236.285	81.69
236.519	90.69
236.753	85.69
236.987	75.69
237.221	67.69
237.455	82.69
237.689	61.69
237.922	81.69
238.156	85.69
238.39	67.69
238.624	70.69
238.858	81.69
239.091	78.69
239.325	97.69
239.559	80.69
239.793	74.69
240.027	65.69
240.26	77.69
240.494	76.69
240.728	65.69
240.961	71.69
241.195	77.69
241.429	72.69
241.662	90.69
241.896	94.69
242.13	87.69
242.363	72.69
242.597	58.69
242.83	86.69
243.064	71.69
243.298	72.69
243.531	86.69
243.765	66.69
243.998	73.69
244.232	66.69
244.465	86.69
244.699	82.69
244.932	75.69
245.166	82.69
245.399	83.69
245.633	76.69
245.866	86.69
246.099	86.69
246.333	73.69
246.566	73.69
246.8	77.69
247.033	82.69
247.266	77.69
247.5	75.69
247.733	73.69
247.966	88.69
248.2	82.69
248.433	66.69
248.666	82.69
248.899	75.69
249.133	83.69
249.366	83.69
249.599	91.69
249.832	76.69
250.066	83.69
250.299	74.69
250.532	77.69
250.765	81.69
250.998	85.69
251.231	63.69
251.465	77.69
251.698	73.69
251.931	85.69
252.164	74.69
252.397	73.69
252.63	69.69
252.863	86.69
253.096	90.69
253.329	97.69
253.562	85.69
253.795	99.69
254.028	71.69
254.261	65.69
254.494	74.69
254.727	74.69
254.96	78.69
255.193	88.69
255.426	92.69
255.659	83.69
255.892	81.69
256.124	70.69
256.357	82.69
256.59	83.69
256.823	73.69
257.056	82.69
257.289	73.69
257.521	77.69
257.754	80.69
257.987	93.69
258.22	77.69
258.452	81.69
258.685	82.69
258.918	95.69
259.151	81.69
259.383	85.69
259.616	90.69
259.849	74.69
260.081	89.69
260.314	85.69
260.547	66.69
260.779	79.69
261.012	72.69
261.244	85.69
261.477	97.69
261.71	85.69
261.942	82.69
262.175	79.69
262.407	81.69
262.64	82.69
262.872	66.69
263.105	66.69
263.337	77.69
263.57	81.69
263.802	81.69
264.035	79.69
264.267	86.69
264.499	88.69
264.732	97.69
264.964	77.69
265.197	81.69
265.429	84.69
265.661	77.69
265.894	74.69
266.126	87.69
266.358	83.69
266.591	88.69
266.823	89.69
267.055	67.69
267.287	83.69
267.52	88.69
267.752	79.69
267.984	93.69
268.216	79.69
268.448	88.69
268.681	89.69
268.913	71.69
269.145	77.69
269.377	67.69
269.609	89.69
269.841	108.69
270.073	92.69
270.306	82.69
270.538	78.69
270.77	87.69
271.002	71.69
271.234	69.69
271.466	83.69
271.698	79.69
271.93	89.69
272.162	87.69
272.394	89.69
272.626	77.69
272.858	80.69
273.09	85.69
273.322	80.69
273.553	68.69
273.785	84.69
274.017	83.69
274.249	85.69
274.481	93.69
274.713	80.69
274.945	80.69
275.176	90.69
275.408	83.69
275.64	90.69
275.872	74.69
276.104	78.69
276.335	83.69
276.567	70.69
276.799	73.69
277.031	73.69
277.262	98.69
277.494	95.69
277.726	74.69
277.957	94.69
278.189	78.69
278.421	81.69
278.652	79.69
278.884	77.69
279.115	81.69
279.347	88.69
279.579	75.69
279.81	93.69
280.042	81.69
280.273	76.69
280.505	96.69
280.736	97.69
280.968	90.69
281.199	85.69
281.431	87.69
281.662	99.69
281.894	79.69
282.125	76.69
282.356	89.69
282.588	88.69
282.819	70.69
283.051	81.69
283.282	85.69
283.513	77.69
283.745	82.69
283.976	79.69
284.207	87.69
284.439	90.69
284.67	86.69
284.901	98.69
285.132	83.69
285.364	78.69
285.595	79.69
285.826	82.69
286.057	73.69
286.288	85.69
286.52	68.69
286.751	89.69
286.982	83.69
287.213	92.69
287.444	92.69
287.675	85.69
287.906	87.69
288.138	98.69
288.369	80.69
288.6	107.69
288.831	110.69
289.062	87.69
289.293	85.69
289.524	65.69
289.755	79.69
289.986	90.69
290.217	95.69
290.448	73.69
290.679	85.69
290.91	89.69
291.141	78.69
291.371	78.69
291.602	86.69
291.833	94.69
292.064	83.69
292.295	61.69
292.526	86.69
292.757	89.69
292.987	88.69
293.218	91.69
293.449	72.69
293.68	77.69
293.91	88.69
294.141	97.69
294.372	72.69
294.603	85.69
294.833	91.69
295.064	88.69
295.295	87.69
295.525	81.69
295.756	82.69
295.987	82.69
296.217	98.69
296.448	81.69
296.679	72.69
296.909	72.69
297.14	71.69
297.37	86.69
297.601	84.69
297.831	93.69
298.062	85.69
298.292	82.69
298.523	86.69
298.753	83.69
298.984	85.69
299.214	86.69
299.445	73.69
299.675	77.69
299.905	82.69
300.136	71.69
300.366	67.69
300.597	79.69
300.827	87.69
301.057	84.69
301.288	77.69
301.518	95.69
301.748	89.69
301.979	94.69
302.209	86.69
302.439	86.69
302.669	83.69
302.9	81.69
303.13	80.69
303.36	95.69
303.59	86.69
303.82	86.69
304.051	78.69
304.281	97.69
304.511	84.69
304.741	81.69
304.971	98.69
305.201	97.69
305.431	72.69
305.661	89.69
305.891	86.69
306.121	80.69
306.352	86.69
306.582	94.69
306.812	78.69
307.042	81.69
307.272	84.69
307.502	85.69
307.731	87.69
307.961	81.69
308.191	86.69
308.421	88.69
308.651	83.69
308.881	84.69
309.111	82.69
309.341	87.69
309.571	77.69
309.8	81.69
310.03	77.69
310.26	86.69
310.49	79.69
310.72	89.69
310.949	96.69
311.179	91.69
311.409	79.69
311.639	69.69
311.868	77.69
312.098	95.69
312.328	85.69
312.557	90.69
312.787	85.69
313.017	80.69
313.246	76.69
313.476	85.69
313.706	73.69
313.935	75.69
314.165	84.69
314.394	79.69
314.624	83.69
314.853	99.69
315.083	100.69
315.312	93.69
315.542	73.69
315.771	77.69
316.001	76.69
316.23	80.69
316.46	98.69
316.689	93.69
316.919	79.69
317.148	82.69
317.377	74.69
317.607	90.69
317.836	100.69
318.065	88.69
318.295	95.69
318.524	84.69
318.753	79.69
318.983	86.69
319.212	86.69
319.441	93.69
319.67	86.69
319.9	104.69
320.129	90.69
320.358	87.69
320.587	81.69
320.816	82.69
321.046	81.69
321.275	90.69
321.504	81.69
321.733	93.69
321.962	77.69
322.191	68.69
322.42	83.69
322.649	77.69
322.878	73.69
323.108	98.69
323.337	91.69
323.566	87.69
323.795	82.69
324.024	82.69
324.253	82.69
324.482	97.69
324.71	80.69
324.939	81.69
325.168	91.69
325.397	87.69
325.626	79.69
325.855	87.69
326.084	81.69
326.313	74.69
326.542	92.69
326.77	91.69
326.999	92.69
327.228	95.69
327.457	99.69
327.686	84.69
327.914	87.69
328.143	89.69
328.372	105.69
328.6	95.69
328.829	93.69
329.058	86.69
329.287	79.69
329.515	102.69
329.744	87.69
329.972	70.69
330.201	87.69
330.43	74.69
330.658	84.69
330.887	87.69
331.115	76.69
331.344	81.69
331.572	83.69
331.801	75.69
332.03	80.69
332.258	86.69
332.486	75.69
332.715	84.69
332.943	101.69
333.172	95.69
333.4	73.69
333.629	95.69
333.857	82.69
334.085	90.69
334.314	80.69
334.542	88.69
334.771	93.69
334.999	84.69
335.227	95.69
335.455	93.69
335.684	93.69
335.912	88.69
336.14	86.69
336.369	91.69
336.597	75.69
336.825	77.69
337.053	91.69
337.281	88.69
337.51	99.69
337.738	85.69
337.966	90.69
338.194	83.69
338.422	81.69
338.65	89.69
338.878	79.69
339.106	85.69
339.334	78.69
339.562	85.69
339.79	79.69
340.018	84.69
340.246	90.69
340.474	90.69
340.702	81.69
340.93	83.69
341.158	89.69
341.386	79.69
341.614	94.69
341.842	75.69
342.07	77.69
342.298	83.69
342.526	81.69
342.754	82.69
342.981	93.69
343.209	75.69
343.437	87.69
343.665	89.69
343.893	94.69
344.12	79.69
344.348	84.69
344.576	90.69
344.804	78.69
345.031	81.69
345.259	85.69
345.487	92.69
345.714	90.69
345.942	93.69
346.17	65.69
346.397	73.69
346.625	90.69
346.853	76.69
347.08	95.69
347.308	79.69
347.535	82.69
347.763	65.69
347.99	96.69
348.218	85.69
348.445	89.69
348.673	95.69
348.9	94.69
349.128	94.69
349.355	88.69
349.583	82.69
349.81	80.69
350.037	77.69
350.265	82.69
350.492	77.69
350.72	99.69
350.947	89.69
351.174	77.69
351.402	89.69
351.629	88.69
351.856	79.69
352.083	67.69
352.311	93.69
352.538	78.69
352.765	72.69
352.992	77.69
353.22	93.69
353.447	87.69
353.674	99.69
353.901	86.69
354.128	73.69
354.355	69.69
354.583	79.69
354.81	86.69
355.037	99.69
355.264	84.69
355.491	78.69
355.718	85.69
355.945	83.69
356.172	79.69
356.399	90.69
356.626	82.69
356.853	74.69
357.08	82.69
357.307	88.69
357.534	83.69
357.761	87.69
357.988	71.69
358.215	84.69
358.441	73.69
358.668	83.69
358.895	81.69
359.122	85.69
359.349	85.69
359.576	87.69
359.802	77.69
360.029	87.69
360.256	72.69
360.483	87.69
360.709	79.69
360.936	96.69
361.163	86.69
361.39	87.69
361.616	69.69
361.843	81.69
362.07	82.69
362.296	85.69
362.523	79.69
362.749	72.69
362.976	71.69
363.203	75.69
363.429	65.69
363.656	66.69
363.882	79.69
364.109	93.69
364.335	84.69
364.562	85.69
364.788	84.69
365.015	96.69
365.241	95.69
365.468	86.69
365.694	77.69
365.92	85.69
366.147	73.69
366.373	81.69
366.599	79.69
366.826	84.69
367.052	85.69
367.278	76.69
367.505	88.69
367.731	87.69
367.957	82.69
368.184	79.69
368.41	79.69
368.636	97.69
368.862	92.69
369.089	83.69
369.315	76.69
369.541	76.69
369.767	80.69
369.993	78.69
370.219	81.69
370.445	84.69
370.672	78.69
370.898	94.69
371.124	90.69
371.35	88.69
371.576	83.69
371.802	74.69
372.028	79.69
372.254	80.69
372.48	83.69
372.706	95.69
372.932	73.69
373.158	93.69
373.384	91.69
373.61	94.69
373.835	83.69
374.061	82.69
374.287	77.69
374.513	77.69
374.739	81.69
374.965	89.69
375.191	72.69
375.416	84.69
375.642	88.69
375.868	87.69
376.094	87.69
376.319	86.69
376.545	98.69
376.771	89.69
376.997	82.69
377.222	93.69
377.448	85.69
377.674	83.69
377.899	71.69
378.125	77.69
378.35	81.69
378.576	75.69
378.802	75.69
379.027	74.69
379.253	76.69
379.478	73.69
379.704	85.69
379.929	77.69
380.155	82.69
380.38	102.69
380.606	80.69
380.831	76.69
381.057	101.69
381.282	82.69
381.507	90.69
381.733	78.69
381.958	74.69
382.184	74.69
382.409	81.69
382.634	80.69
382.86	71.69
383.085	98.69
383.31	79.69
383.535	95.69
383.761	76.69
383.986	87.69
384.211	86.69
384.436	92.69
384.662	78.69
384.887	89.69
385.112	78.69
385.337	86.69
385.562	84.69
385.787	81.69
386.013	77.69
386.238	81.69
386.463	78.69
386.688	83.69
386.913	82.69
387.138	85.69
387.363	84.69
387.588	87.69
387.813	82.69
388.038	93.69
388.263	82.69
388.488	82.69
388.713	95.69
388.938	82.69
389.163	65.69
389.387	84.69
389.612	87.69
389.837	73.69
390.062	78.69
390.287	85.69
390.512	85.69
390.736	81.69
390.961	84.69
391.186	90.69
391.411	82.69
391.636	69.69
391.86	82.69
392.085	78.69
392.31	78.69
392.534	78.69
392.759	83.69
392.984	74.69
393.208	93.69
393.433	90.69
393.658	76.69
393.882	87.69
394.107	77.69
394.331	86.69
394.556	84.69
394.78	86.69
395.005	80.69
395.229	85.69
395.454	86.69
395.678	92.69
395.903	88.69
396.127	73.69
396.352	77.69
396.576	73.69
396.801	85.69
397.025	105.69
397.249	95.69
397.474	88.69
397.698	52.69
397.922	75.69
398.147	95.69
398.371	76.69
398.595	77.69
398.82	91.69
399.044	86.69
399.268	70.69
399.492	89.69
399.717	71.69
399.941	70.69
400.165	85.69
400.389	76.69
400.613	91.69
400.837	71.69
401.062	69.69
401.286	73.69
401.51	86.69
401.734	76.69
401.958	78.69
402.182	78.69
402.406	94.69
402.63	80.69
402.854	80.69
403.078	83.69
403.302	75.69
403.526	81.69
403.75	80.69
403.974	112.69
404.198	75.69
404.422	93.69
404.645	101.69
404.869	86.69
405.093	88.69
405.317	82.69
405.541	89.69
405.765	87.69
405.988	70.69
406.212	68.69
406.436	83.69
406.66	87.69
406.883	73.69
407.107	83.69
407.331	80.69
407.555	79.69
407.778	80.69
408.002	86.69
408.226	81.69
408.449	79.69
408.673	79.69
408.896	82.69
409.12	89.69
409.344	71.69
409.567	75.69
409.791	82.69
410.014	77.69
410.238	85.69
410.461	86.69
410.685	73.69
410.908	75.69
411.132	81.69
411.355	94.69
411.578	89.69
411.802	92.69
412.025	83.69
412.249	85.69
412.472	72.69
412.695	80.69
412.919	81.69
413.142	80.69
413.365	85.69
413.589	88.69
413.812	77.69
414.035	84.69
414.258	74.69
414.482	90.69
414.705	78.69
414.928	76.69
415.151	99.69
415.374	93.69
415.597	88.69
415.821	83.69
416.044	66.69
416.267	105.69
416.49	97.69
416.713	94.69
416.936	84.69
417.159	88.69
417.382	83.69
417.605	86.69
417.828	91.69
418.051	97.69
418.274	91.69
418.497	93.69
418.72	76.69
418.943	78.69
419.166	73.69
419.389	80.69
419.611	73.69
419.834	81.69
420.057	80.69
420.28	73.69
420.503	88.69
420.726	87.69
420.948	78.69
421.171	78.69
421.394	67.69
421.617	93.69
421.839	88.69
422.062	97.69
422.285	94.69
422.507	94.69
422.73	99.69
422.953	90.69
423.175	93.69
423.398	84.69
423.621	79.69
423.843	74.69
424.066	86.69
424.288	94.69
424.511	80.69
424.733	80.69
424.956	70.69
425.178	80.69
425.401	93.69
425.623	77.69
425.846	75.69
426.068	81.69
426.291	87.69
426.513	82.69
426.735	83.69
426.958	83.69
427.18	67.69
427.402	78.69
427.625	83.69
427.847	89.69
428.069	77.69
428.292	73.69
428.514	73.69
428.736	81.69
428.958	81.69
429.181	85.69
429.403	79.69
429.625	78.69
429.847	90.69
430.069	95.69
430.292	94.69
430.514	72.69
430.736	79.69
430.958	80.69
431.18	76.69
431.402	82.69
431.624	77.69
431.846	70.69
432.068	71.69
432.29	71.69
432.512	75.69
432.734	83.69
432.956	77.69
433.178	67.69
433.4	77.69
433.622	78.69
433.844	82.69
434.066	81.69
434.287	77.69
434.509	83.69
434.731	85.69
434.953	66.69
435.175	79.69
435.397	85.69
435.618	73.69
435.84	85.69
436.062	79.69
436.284	83.69
436.505	84.69
436.727	85.69
436.949	73.69
437.17	76.69
437.392	87.69
437.614	84.69
437.835	86.69
438.057	72.69
438.278	88.69
438.5	87.69
438.721	72.69
438.943	70.69
439.165	64.69
439.386	65.69
439.608	77.69
439.829	68.69
440.05	69.69
440.272	74.69
440.493	86.69
440.715	81.69
440.936	79.69
441.158	89.69
441.379	81.69
441.6	94.69
441.822	85.69
442.043	82.69
442.264	75.69
442.486	93.69
442.707	80.69
442.928	85.69
443.149	89.69
443.371	87.69
443.592	75.69
443.813	93.69
444.034	93.69
444.255	86.69
444.476	82.69
444.698	75.69
444.919	72.69
445.14	145.69
445.361	107.69
445.582	84.69
445.803	82.69
446.024	82.69
446.245	83.69
446.466	82.69
446.687	83.69
446.908	76.69
447.129	69.69
447.35	68.69
447.571	74.69
447.792	79.69
448.013	93.69
448.234	74.69
448.455	74.69
448.675	82.69
448.896	77.69
449.117	79.69
449.338	79.69
449.559	81.69
449.779	78.69
450	94.69
450.221	99.69
450.442	85.69
450.662	87.69
450.883	90.69
451.104	80.69
451.324	80.69
451.545	89.69
451.766	82.69
451.986	85.69
452.207	67.69
452.428	72.69
452.648	83.69
452.869	79.69
453.089	89.69
453.31	73.69
453.53	90.69
453.751	92.69
453.971	78.69
454.192	90.69
454.412	77.69
454.633	88.69
454.853	81.69
455.073	91.69
455.294	86.69
455.514	70.69
455.734	81.69
455.955	81.69
456.175	77.69
456.395	87.69
456.616	73.69
456.836	73.69
457.056	75.69
457.276	73.69
457.497	78.69
457.717	89.69
457.937	77.69
458.157	80.69
458.377	80.69
458.598	90.69
458.818	82.69
459.038	64.69
459.258	89.69
459.478	90.69
459.698	77.69
459.918	96.69
460.138	93.69
460.358	74.69
460.578	72.69
460.798	82.69
461.018	79.69
461.238	74.69
461.458	87.69
461.678	79.69
461.898	84.69
462.118	80.69
462.338	69.69
462.558	80.69
462.777	93.69
462.997	85.69
463.217	78.69
463.437	83.69
463.657	81.69
463.876	86.69
464.096	97.69
464.316	65.69
464.536	93.69
464.755	82.69
464.975	66.69
465.195	78.69
465.414	74.69
465.634	74.69
465.854	79.69
466.073	86.69
466.293	79.69
466.512	79.69
466.732	89.69
466.951	76.69
467.171	74.69
467.391	84.69
467.61	72.69
467.829	90.69
468.049	79.69
468.268	65.69
468.488	91.69
468.707	75.69
468.927	82.69
469.146	78.69
469.365	87.69
469.585	79.69
469.804	82.69
470.023	74.69
470.243	78.69
470.462	90.69
470.681	72.69
470.901	95.69
471.12	79.69
471.339	90.69
471.558	80.69
471.777	87.69
471.997	79.69
472.216	89.69
472.435	72.69
472.654	69.69
472.873	81.69
473.092	57.69
473.311	84.69
473.53	75.69
473.749	82.69
473.968	76.69
474.187	82.69
474.406	77.69
474.625	90.69
474.844	84.69
475.063	86.69
475.282	77.69
475.501	72.69
475.72	87.69
475.939	80.69
476.158	65.69
476.377	78.69
476.596	86.69
476.814	93.69
477.033	81.69
477.252	80.69
477.471	79.69
477.69	75.69
477.908	83.69
478.127	84.69
478.346	82.69
478.564	89.69
478.783	77.69
479.002	83.69
479.22	74.69
479.439	74.69
479.658	77.69
479.876	93.69
480.095	79.69
480.313	90.69
480.532	76.69
480.751	83.69
480.969	78.69
481.188	85.69
481.406	71.69
481.624	71.69
481.843	83.69
482.061	82.69
482.28	81.69
482.498	88.69
482.717	84.69
482.935	81.69
483.153	95.69
483.372	70.69
483.59	93.69
483.808	85.69
484.027	79.69
484.245	70.69
484.463	84.69
484.681	100.69
484.9	90.69
485.118	74.69
485.336	81.69
485.554	68.69
485.772	76.69
485.99	91.69
486.209	76.69
486.427	83.69
486.645	89.69
486.863	75.69
487.081	89.69
487.299	71.69
487.517	90.69
487.735	79.69
487.953	85.69
488.171	84.69
488.389	79.69
488.607	86.69
488.825	80.69
489.043	97.69
489.261	87.69
489.479	83.69
489.696	76.69
489.914	75.69
490.132	79.69
490.35	88.69
490.568	95.69
490.786	79.69
491.003	80.69
491.221	83.69
491.439	79.69
491.657	85.69
491.874	88.69
492.092	86.69
492.31	94.69
492.527	86.69
492.745	86.69
492.963	77.69
493.18	82.69
493.398	70.69
493.615	77.69
493.833	69.69
494.05	78.69
494.268	82.69
494.485	90.69
494.703	86.69
494.92	71.69
495.138	74.69
495.355	83.69
495.573	87.69
495.79	82.69
496.008	66.69
496.225	83.69
496.442	72.69
496.66	91.69
496.877	85.69
497.094	82.69
497.312	80.69
497.529	76.69
497.746	93.69
497.963	79.69
498.181	80.69
498.398	92.69
498.615	95.69
498.832	67.69
499.049	88.69
499.267	79.69
499.484	77.69
499.701	90.69
499.918	67.69
500.135	93.69
500.352	75.69
500.569	81.69
500.786	81.69
501.003	91.69
501.22	94.69
501.437	89.69
501.654	95.69
501.871	83.69
502.088	89.69
502.305	82.69
502.522	85.69
502.739	89.69
502.956	83.69
503.172	71.69
503.389	71.69
503.606	90.69
503.823	85.69
504.04	85.69
504.256	80.69
504.473	73.69
504.69	85.69
504.907	82.69
505.123	74.69
505.34	93.69
505.557	87.69
505.773	88.69
505.99	95.69
506.207	85.69
506.423	86.69
506.64	82.69
506.856	78.69
507.073	87.69
507.289	87.69
507.506	81.69
507.722	75.69
507.939	69.69
508.155	81.69
508.372	75.69
508.588	72.69
508.805	88.69
509.021	64.69
509.238	90.69
509.454	86.69
509.67	89.69
509.887	81.69
510.103	67.69
510.319	82.69
510.536	94.69
510.752	87.69
510.968	84.69
511.184	82.69
511.401	78.69
511.617	94.69
511.833	84.69
512.049	83.69
512.265	87.69
512.481	82.69
512.698	83.69
512.914	83.69
513.13	78.69
513.346	81.69
513.562	80.69
513.778	93.69
513.994	89.69
514.21	87.69
514.426	85.69
514.642	87.69
514.858	84.69
515.074	66.69
515.29	80.69
515.506	81.69
515.721	97.69
515.937	87.69
516.153	87.69
516.369	76.69
516.585	89.69
516.801	79.69
517.016	77.69
517.232	69.69
517.448	70.69
517.664	69.69
517.879	86.69
518.095	80.69
518.311	87.69
518.527	89.69
518.742	85.69
518.958	86.69
519.173	102.69
519.389	93.69
519.605	82.69
519.82	77.69
520.036	87.69
520.251	77.69
520.467	81.69
520.682	83.69
520.898	95.69
521.113	92.69
521.329	90.69
521.544	79.69
521.76	87.69
521.975	75.69
522.19	78.69
522.406	85.69
522.621	98.69
522.836	93.69
523.052	89.69
523.267	91.69
523.482	85.69
523.698	62.69
523.913	80.69
524.128	78.69
524.343	89.69
524.559	93.69
524.774	89.69
524.989	85.69
525.204	78.69
525.419	86.69
525.634	81.69
525.849	89.69
526.064	94.69
526.28	73.69
526.495	85.69
526.71	78.69
526.925	80.69
527.14	77.69
527.355	78.69
527.57	70.69
527.785	75.69
527.999	75.69
528.214	76.69
528.429	81.69
528.644	79.69
528.859	81.69
529.074	80.69
529.289	74.69
529.503	89.69
529.718	98.69
529.933	88.69
530.148	82.69
530.363	83.69
530.577	85.69
530.792	89.69
531.007	108.69
531.221	95.69
531.436	82.69
531.651	96.69
531.865	103.69
532.08	98.69
532.295	103.69
532.509	77.69
532.724	78.69
532.938	77.69
533.153	77.69
533.367	82.69
533.582	73.69
533.796	96.69
534.011	78.69
534.225	74.69
534.44	87.69
534.654	78.69
534.868	91.69
535.083	91.69
535.297	83.69
535.511	76.69
535.726	85.69
535.94	85.69
536.154	86.69
536.369	93.69
536.583	89.69
536.797	76.69
537.011	84.69
537.225	85.69
537.44	89.69
537.654	81.69
537.868	81.69
538.082	76.69
538.296	99.69
538.51	93.69
538.724	82.69
538.938	81.69
539.153	74.69
539.367	71.69
539.581	88.69
539.795	88.69
540.009	91.69
540.222	74.69
540.436	81.69
540.65	75.69
540.864	86.69
541.078	73.69
541.292	86.69
541.506	77.69
541.72	84.69
541.934	78.69
542.147	89.69
542.361	86.69
542.575	80.69
542.789	86.69
543.002	80.69
543.216	86.69
543.43	85.69
543.644	94.69
543.857	90.69
544.071	81.69
544.285	78.69
544.498	71.69
544.712	96.69
544.925	90.69
545.139	89.69
545.352	77.69
545.566	95.69
545.779	70.69
545.993	93.69
546.206	96.69
546.42	84.69
546.633	83.69
546.847	69.69
547.06	81.69
547.274	82.69
547.487	88.69
547.7	84.69
547.914	75.69
548.127	84.69
548.34	73.69
548.554	101.69
548.767	90.69
548.98	86.69
549.193	94.69
549.407	103.69
549.62	67.69
549.833	82.69
550.046	91.69
550.259	87.69
550.473	96.69
550.686	103.69
550.899	91.69
551.112	88.69
551.325	79.69
551.538	87.69
551.751	82.69
551.964	78.69
552.177	86.69
552.39	79.69
552.603	97.69
552.816	97.69
553.029	73.69
553.242	83.69
553.455	79.69
553.667	91.69
553.88	82.69
554.093	86.69
554.306	87.69
554.519	96.69
554.732	91.69
554.944	85.69
555.157	79.69
555.37	91.69
555.583	86.69
555.795	87.69
556.008	96.69
556.221	93.69
556.433	101.69
556.646	95.69
556.859	86.69
557.071	90.69
557.284	81.69
557.496	90.69
557.709	95.69
557.921	75.69
558.134	81.69
558.346	99.69
558.559	90.69
558.771	81.69
558.984	98.69
559.196	77.69
559.409	102.69
559.621	85.69
559.833	75.69
560.046	69.69
560.258	83.69
560.47	90.69
560.683	87.69
560.895	66.69
561.107	82.69
561.32	77.69
561.532	93.69
561.744	90.69
561.956	113.69
562.168	87.69
562.381	73.69
562.593	85.69
562.805	76.69
563.017	104.69
563.229	86.69
563.441	85.69
563.653	74.69
563.865	84.69
564.077	84.69
564.289	83.69
564.501	99.69
564.713	97.69
564.925	92.69
565.137	74.69
565.349	80.69
565.561	105.69
565.773	92.69
565.985	83.69
566.197	85.69
566.408	81.69
566.62	70.69
566.832	94.69
567.044	73.69
567.255	99.69
567.467	90.69
567.679	82.69
567.891	80.69
568.102	86.69
568.314	86.69
568.526	89.69
568.737	93.69
568.949	80.69
569.161	87.69
569.372	70.69
569.584	99.69
569.795	86.69
570.007	88.69
570.218	87.69
570.43	104.69
570.641	99.69
570.853	88.69
571.064	88.69
571.276	86.69
571.487	84.69
571.698	93.69
571.91	90.69
572.121	87.69
572.333	79.69
572.544	96.69
572.755	93.69
572.966	103.69
573.178	102.69
573.389	110.69
573.6	105.69
573.811	82.69
574.023	95.69
574.234	80.69
574.445	86.69
574.656	74.69
574.867	84.69
575.078	91.69
575.289	99.69
575.501	97.69
575.712	79.69
575.923	80.69
576.134	79.69
576.345	81.69
576.556	75.69
576.767	84.69
576.978	81.69
577.188	81.69
577.399	87.69
577.61	87.69
577.821	89.69
578.032	103.69
578.243	81.69
578.454	81.69
578.665	76.69
578.875	83.69
579.086	77.69
579.297	85.69
579.508	92.69
579.718	88.69
579.929	89.69
580.14	89.69
580.35	90.69
580.561	84.69
580.772	98.69
580.982	83.69
581.193	74.69
581.403	84.69
581.614	91.69
581.825	104.69
582.035	86.69
582.246	98.69
582.456	87.69
582.667	77.69
582.877	83.69
583.087	73.69
583.298	88.69
583.508	97.69
583.719	103.69
583.929	90.69
584.139	89.69
584.35	77.69
584.56	93.69
584.77	79.69
584.981	95.69
585.191	82.69
585.401	88.69
585.611	85.69
585.821	81.69
586.032	86.69
586.242	95.69
586.452	95.69
586.662	71.69
586.872	84.69
587.082	83.69
587.292	96.69
587.502	75.69
587.713	81.69
587.923	102.69
588.133	98.69
588.343	90.69
588.553	91.69
588.762	119.69
588.972	170.69
589.182	307.69
589.392	226.69
589.602	190.69
589.812	270.69
590.022	157.69
590.232	116.69
590.441	105.69
590.651	96.69
590.861	90.69
591.071	86.69
591.281	72.69
591.49	93.69
591.7	80.69
591.91	97.69
592.119	93.69
592.329	95.69
592.539	86.69
592.748	89.69
592.958	72.69
593.167	85.69
593.377	79.69
593.587	91.69
593.796	90.69
594.006	91.69
594.215	82.69
594.424	92.69
594.634	72.69
594.843	74.69
595.053	82.69
595.262	97.69
595.472	80.69
595.681	72.69
595.89	90.69
596.1	92.69
596.309	89.69
596.518	82.69
596.727	75.69
596.937	85.69
597.146	81.69
597.355	85.69
597.564	83.69
597.774	89.69
597.983	88.69
598.192	83.69
598.401	92.69
598.61	91.69
598.819	99.69
599.028	87.69
599.237	88.69
599.446	95.69
599.655	87.69
599.864	83.69
600.073	85.69
600.282	89.69
600.491	88.69
600.7	72.69
600.909	88.69
601.118	91.69
601.327	101.69
601.536	90.69
601.745	97.69
601.953	90.69
602.162	86.69
602.371	67.69
602.58	84.69
602.789	91.69
602.997	83.69
603.206	90.69
603.415	78.69
603.623	91.69
603.832	94.69
604.041	80.69
604.249	90.69
604.458	81.69
604.666	104.69
604.875	86.69
605.084	81.69
605.292	74.69
605.501	89.69
605.709	83.69
605.918	77.69
606.126	94.69
606.334	77.69
606.543	79.69
606.751	88.69
606.96	100.69
607.168	86.69
607.376	87.69
607.585	95.69
607.793	89.69
608.001	93.69
608.21	86.69
608.418	77.69
608.626	97.69
608.834	84.69
609.043	97.69
609.251	88.69
609.459	85.69
609.667	85.69
609.875	84.69
610.083	79.69
610.291	83.69
610.499	96.69
610.707	81.69
610.916	88.69
611.124	82.69
611.332	81.69
611.54	87.69
611.748	103.69
611.955	83.69
612.163	96.69
612.371	86.69
612.579	86.69
612.787	77.69
612.995	89.69
613.203	80.69
613.411	85.69
613.618	79.69
613.826	85.69
614.034	72.69
614.242	98.69
614.449	87.69
614.657	84.69
614.865	82.69
615.072	75.69
615.28	91.69
615.488	97.69
615.695	107.69
615.903	75.69
616.111	82.69
616.318	84.69
616.526	86.69
616.733	87.69
616.941	95.69
617.148	85.69
617.356	81.69
617.563	80.69
617.771	87.69
617.978	85.69
618.185	94.69
618.393	87.69
618.6	95.69
618.807	87.69
619.015	75.69
619.222	74.69
619.429	84.69
619.637	82.69
619.844	81.69
620.051	72.69
620.258	85.69
620.466	98.69
620.673	74.69
620.88	74.69
621.087	78.69
621.294	84.69
621.501	85.69
621.708	109.69
621.915	77.69
622.122	95.69
622.329	85.69
622.536	85.69
622.743	84.69
622.95	85.69
623.157	97.69
623.364	97.69
623.571	78.69
623.778	84.69
623.985	90.69
624.192	87.69
624.399	87.69
624.606	78.69
624.812	76.69
625.019	98.69
625.226	87.69
625.433	101.69
625.639	77.69
625.846	95.69
626.053	71.69
626.259	89.69
626.466	81.69
626.673	99.69
626.879	93.69
627.086	96.69
627.293	75.69
627.499	81.69
627.706	73.69
627.912	70.69
628.119	85.69
628.325	81.69
628.532	96.69
628.738	90.69
628.945	81.69
629.151	75.69
629.357	77.69
629.564	87.69
629.77	62.69
629.976	79.69
630.183	79.69
630.389	94.69
630.595	75.69
630.802	90.69
631.008	77.69
631.214	83.69
631.42	87.69
631.627	69.69
631.833	77.69
632.039	91.69
632.245	85.69
632.451	79.69
632.657	82.69
632.863	99.69
633.069	88.69
633.275	81.69
633.481	85.69
633.688	81.69
633.893	90.69
634.099	93.69
634.305	89.69
634.511	96.69
634.717	86.69
634.923	71.69
635.129	78.69
635.335	83.69
635.541	83.69
635.747	84.69
635.952	91.69
636.158	73.69
636.364	89.69
636.57	89.69
636.775	75.69
636.981	81.69
637.187	93.69
637.392	88.69
637.598	91.69
637.804	84.69
638.009	72.69
638.215	83.69
638.421	84.69
638.626	89.69
638.832	95.69
639.037	95.69
639.243	87.69
639.448	81.69
639.654	82.69
639.859	86.69
640.065	89.69
640.27	100.69
640.475	95.69
640.681	82.69
640.886	83.69
641.091	81.69
641.297	94.69
641.502	84.69
641.707	77.69
641.913	93.69
642.118	75.69
642.323	86.69
642.528	82.69
642.733	86.69
642.939	93.69
643.144	77.69
643.349	81.69
643.554	81.69
643.759	75.69
643.964	97.69
644.169	83.69
644.374	70.69
644.579	85.69
644.784	79.69
644.989	85.69
645.194	87.69
645.399	72.69
645.604	79.69
645.809	89.69
646.014	83.69
646.219	85.69
646.423	75.69
646.628	90.69
646.833	94.69
647.038	71.69
647.243	92.69
647.447	88.69
647.652	83.69
647.857	90.69
648.062	98.69
648.266	93.69
648.471	77.69
648.676	73.69
648.88	80.69
649.085	82.69
649.289	91.69
649.494	94.69
649.698	82.69
649.903	72.69
650.107	80.69
650.312	75.69
650.516	95.69
650.721	85.69
650.925	69.69
651.13	80.69
651.334	81.69
651.539	68.69
651.743	83.69
651.947	85.69
652.152	89.69
652.356	81.69
652.56	75.69
652.764	85.69
652.969	80.69
653.173	81.69
653.377	64.69
653.581	78.69
653.785	91.69
653.99	81.69
654.194	74.69
654.398	71.69
654.602	86.69
654.806	90.69
655.01	83.69
655.214	54.69
655.418	74.69
655.622	81.69
655.826	78.69
656.03	83.69
656.234	69.69
656.438	83.69
656.642	79.69
656.846	69.69
657.049	88.69
657.253	86.69
657.457	68.69
657.661	70.69
657.865	80.69
658.068	82.69
658.272	96.69
658.476	87.69
658.68	76.69
658.883	79.69
659.087	93.69
659.291	93.69
659.494	84.69
659.698	80.69
659.901	89.69
660.105	79.69
660.309	89.69
660.512	83.69
660.716	87.69
660.919	76.69
661.123	89.69
661.326	90.69
661.53	86.69
661.733	85.69
661.936	82.69
662.14	75.69
662.343	84.69
662.546	76.69
662.75	89.69
662.953	110.69
663.156	89.69
663.36	78.69
663.563	97.69
663.766	94.69
663.969	79.69
664.173	74.69
664.376	74.69
664.579	87.69
664.782	87.69
664.985	106.69
665.188	85.69
665.391	75.69
665.594	93.69
665.797	65.69
666	67.69
666.203	100.69
666.406	71.69
666.609	93.69
666.812	85.69
667.015	75.69
667.218	74.69
667.421	87.69
667.624	79.69
667.827	82.69
668.03	73.69
668.232	87.69
668.435	93.69
668.638	83.69
668.841	70.69
669.043	86.69
669.246	91.69
669.449	82.69
669.651	82.69
669.854	84.69
670.057	87.69
670.259	79.69
670.462	87.69
670.665	94.69
670.867	97.69
671.07	100.69
671.272	90.69
671.475	88.69
671.677	88.69
671.88	83.69
672.082	86.69
672.284	93.69
672.487	95.69
672.689	90.69
672.892	82.69
