Data from Super_Dry_Prop_50_3_HRD10591_00014.txt Node
Date: Wed Dec 03 14:59:27 EST 2025
User: Yrep
Spectrometer: HR+D1059
Trigger mode: 1
Integration Time (sec): 1.000000E-1
Scans to average: 1
Electric dark correction enabled: true
Nonlinearity correction enabled: false
Boxcar width: 0
XAxis mode: Wavelengths
Number of Pixels in Spectrum: 2048
>>>>>Begin Spectral Data<<<<<
223.165	-17.25
223.4	-17.25
223.635	-17.25
223.869	-10.25
224.104	-19.25
224.338	-16.25
224.573	-19.25
224.808	-18.25
225.042	-3.25
225.277	5.75
225.511	-9.25
225.746	8.75
225.98	-1.25
226.215	9.75
226.449	7.75
226.683	17.75
226.918	26.75
227.152	37.75
227.387	39.75
227.621	35.75
227.856	49.75
228.09	40.75
228.324	49.75
228.559	41.75
228.793	61.75
229.027	44.75
229.262	57.75
229.496	68.75
229.73	64.75
229.964	67.75
230.199	74.75
230.433	63.75
230.667	83.75
230.901	74.75
231.136	79.75
231.37	77.75
231.604	94.75
231.838	69.75
232.072	54.75
232.306	80.75
232.541	69.75
232.775	75.75
233.009	74.75
233.243	77.75
233.477	74.75
233.711	77.75
233.945	76.75
234.179	75.75
234.413	82.75
234.647	81.75
234.881	80.75
235.115	87.75
235.349	80.75
235.583	83.75
235.817	69.75
236.051	72.75
236.285	81.75
236.519	78.75
236.753	76.75
236.987	68.75
237.221	75.75
237.455	82.75
237.689	74.75
237.922	70.75
238.156	74.75
238.39	71.75
238.624	80.75
238.858	80.75
239.091	68.75
239.325	59.75
239.559	87.75
239.793	65.75
240.027	69.75
240.26	68.75
240.494	76.75
240.728	66.75
240.961	68.75
241.195	74.75
241.429	76.75
241.662	59.75
241.896	63.75
242.13	68.75
242.363	73.75
242.597	73.75
242.83	82.75
243.064	67.75
243.298	63.75
243.531	48.75
243.765	75.75
243.998	63.75
244.232	81.75
244.465	76.75
244.699	69.75
244.932	77.75
245.166	72.75
245.399	76.75
245.633	91.75
245.866	73.75
246.099	81.75
246.333	73.75
246.566	66.75
246.8	68.75
247.033	85.75
247.266	89.75
247.5	65.75
247.733	68.75
247.966	84.75
248.2	81.75
248.433	63.75
248.666	71.75
248.899	68.75
249.133	73.75
249.366	88.75
249.599	71.75
249.832	71.75
250.066	83.75
250.299	84.75
250.532	80.75
250.765	76.75
250.998	71.75
251.231	75.75
251.465	73.75
251.698	82.75
251.931	74.75
252.164	71.75
252.397	93.75
252.63	71.75
252.863	71.75
253.096	81.75
253.329	63.75
253.562	65.75
253.795	75.75
254.028	84.75
254.261	74.75
254.494	75.75
254.727	68.75
254.96	76.75
255.193	76.75
255.426	83.75
255.659	71.75
255.892	80.75
256.124	65.75
256.357	81.75
256.59	74.75
256.823	92.75
257.056	76.75
257.289	78.75
257.521	66.75
257.754	81.75
257.987	75.75
258.22	84.75
258.452	64.75
258.685	70.75
258.918	82.75
259.151	81.75
259.383	76.75
259.616	87.75
259.849	51.75
260.081	88.75
260.314	81.75
260.547	75.75
260.779	90.75
261.012	72.75
261.244	68.75
261.477	85.75
261.71	78.75
261.942	69.75
262.175	71.75
262.407	71.75
262.64	85.75
262.872	73.75
263.105	80.75
263.337	77.75
263.57	81.75
263.802	76.75
264.035	57.75
264.267	73.75
264.499	63.75
264.732	81.75
264.964	63.75
265.197	70.75
265.429	73.75
265.661	74.75
265.894	73.75
266.126	74.75
266.358	72.75
266.591	91.75
266.823	83.75
267.055	81.75
267.287	88.75
267.52	79.75
267.752	63.75
267.984	73.75
268.216	67.75
268.448	75.75
268.681	68.75
268.913	77.75
269.145	92.75
269.377	95.75
269.609	83.75
269.841	75.75
270.073	68.75
270.306	83.75
270.538	61.75
270.77	68.75
271.002	72.75
271.234	71.75
271.466	74.75
271.698	78.75
271.93	79.75
272.162	89.75
272.394	91.75
272.626	52.75
272.858	74.75
273.09	82.75
273.322	88.75
273.553	64.75
273.785	75.75
274.017	72.75
274.249	87.75
274.481	74.75
274.713	82.75
274.945	91.75
275.176	83.75
275.408	83.75
275.64	67.75
275.872	72.75
276.104	75.75
276.335	89.75
276.567	75.75
276.799	64.75
277.031	76.75
277.262	84.75
277.494	76.75
277.726	80.75
277.957	80.75
278.189	76.75
278.421	84.75
278.652	69.75
278.884	60.75
279.115	86.75
279.347	81.75
279.579	83.75
279.81	71.75
280.042	92.75
280.273	79.75
280.505	80.75
280.736	70.75
280.968	73.75
281.199	80.75
281.431	83.75
281.662	71.75
281.894	75.75
282.125	76.75
282.356	74.75
282.588	79.75
282.819	73.75
283.051	74.75
283.282	96.75
283.513	77.75
283.745	72.75
283.976	87.75
284.207	84.75
284.439	82.75
284.67	76.75
284.901	80.75
285.132	81.75
285.364	84.75
285.595	81.75
285.826	76.75
286.057	82.75
286.288	75.75
286.52	69.75
286.751	81.75
286.982	81.75
287.213	83.75
287.444	74.75
287.675	83.75
287.906	96.75
288.138	82.75
288.369	80.75
288.6	78.75
288.831	83.75
289.062	86.75
289.293	82.75
289.524	73.75
289.755	91.75
289.986	72.75
290.217	73.75
290.448	75.75
290.679	93.75
290.91	71.75
291.141	66.75
291.371	69.75
291.602	75.75
291.833	67.75
292.064	79.75
292.295	87.75
292.526	79.75
292.757	87.75
292.987	93.75
293.218	83.75
293.449	69.75
293.68	68.75
293.91	68.75
294.141	92.75
294.372	69.75
294.603	76.75
294.833	78.75
295.064	76.75
295.295	87.75
295.525	94.75
295.756	80.75
295.987	88.75
296.217	75.75
296.448	91.75
296.679	84.75
296.909	83.75
297.14	89.75
297.37	61.75
297.601	94.75
297.831	80.75
298.062	79.75
298.292	81.75
298.523	87.75
298.753	78.75
298.984	83.75
299.214	79.75
299.445	80.75
299.675	80.75
299.905	78.75
300.136	64.75
300.366	95.75
300.597	77.75
300.827	87.75
301.057	91.75
301.288	90.75
301.518	84.75
301.748	70.75
301.979	93.75
302.209	78.75
302.439	67.75
302.669	77.75
302.9	89.75
303.13	58.75
303.36	84.75
303.59	80.75
303.82	78.75
304.051	88.75
304.281	67.75
304.511	87.75
304.741	69.75
304.971	89.75
305.201	85.75
305.431	81.75
305.661	84.75
305.891	73.75
306.121	83.75
306.352	74.75
306.582	73.75
306.812	90.75
307.042	86.75
307.272	81.75
307.502	67.75
307.731	69.75
307.961	96.75
308.191	81.75
308.421	69.75
308.651	71.75
308.881	80.75
309.111	77.75
309.341	93.75
309.571	76.75
309.8	76.75
310.03	88.75
310.26	87.75
310.49	85.75
310.72	91.75
310.949	82.75
311.179	67.75
311.409	89.75
311.639	77.75
311.868	72.75
312.098	78.75
312.328	74.75
312.557	77.75
312.787	66.75
313.017	73.75
313.246	76.75
313.476	87.75
313.706	89.75
313.935	85.75
314.165	76.75
314.394	78.75
314.624	84.75
314.853	77.75
315.083	76.75
315.312	87.75
315.542	81.75
315.771	77.75
316.001	80.75
316.23	64.75
316.46	77.75
316.689	74.75
316.919	90.75
317.148	88.75
317.377	100.75
317.607	75.75
317.836	84.75
318.065	67.75
318.295	96.75
318.524	74.75
318.753	84.75
318.983	85.75
319.212	83.75
319.441	66.75
319.67	83.75
319.9	72.75
320.129	83.75
320.358	85.75
320.587	89.75
320.816	73.75
321.046	98.75
321.275	71.75
321.504	76.75
321.733	85.75
321.962	86.75
322.191	72.75
322.42	80.75
322.649	80.75
322.878	88.75
323.108	71.75
323.337	84.75
323.566	75.75
323.795	77.75
324.024	73.75
324.253	78.75
324.482	75.75
324.71	97.75
324.939	94.75
325.168	98.75
325.397	81.75
325.626	68.75
325.855	80.75
326.084	80.75
326.313	70.75
326.542	77.75
326.77	77.75
326.999	87.75
327.228	76.75
327.457	83.75
327.686	93.75
327.914	81.75
328.143	88.75
328.372	81.75
328.6	73.75
328.829	85.75
329.058	85.75
329.287	79.75
329.515	84.75
329.744	84.75
329.972	79.75
330.201	91.75
330.43	81.75
330.658	94.75
330.887	77.75
331.115	79.75
331.344	63.75
331.572	78.75
331.801	83.75
332.03	81.75
332.258	89.75
332.486	87.75
332.715	87.75
332.943	90.75
333.172	77.75
333.4	87.75
333.629	89.75
333.857	80.75
334.085	77.75
334.314	90.75
334.542	88.75
334.771	80.75
334.999	71.75
335.227	84.75
335.455	71.75
335.684	84.75
335.912	93.75
336.14	80.75
336.369	63.75
336.597	88.75
336.825	75.75
337.053	82.75
337.281	77.75
337.51	91.75
337.738	80.75
337.966	73.75
338.194	87.75
338.422	83.75
338.65	75.75
338.878	82.75
339.106	80.75
339.334	105.75
339.562	87.75
339.79	80.75
340.018	81.75
340.246	74.75
340.474	71.75
340.702	76.75
340.93	83.75
341.158	77.75
341.386	95.75
341.614	87.75
341.842	72.75
342.07	79.75
342.298	75.75
342.526	91.75
342.754	79.75
342.981	73.75
343.209	74.75
343.437	99.75
343.665	90.75
343.893	85.75
344.12	76.75
344.348	82.75
344.576	80.75
344.804	80.75
345.031	79.75
345.259	66.75
345.487	68.75
345.714	82.75
345.942	85.75
346.17	81.75
346.397	74.75
346.625	84.75
346.853	93.75
347.08	74.75
347.308	82.75
347.535	80.75
347.763	77.75
347.99	72.75
348.218	77.75
348.445	75.75
348.673	71.75
348.9	86.75
349.128	71.75
349.355	89.75
349.583	84.75
349.81	91.75
350.037	91.75
350.265	74.75
350.492	77.75
350.72	83.75
350.947	83.75
351.174	87.75
351.402	78.75
351.629	89.75
351.856	92.75
352.083	71.75
352.311	80.75
352.538	80.75
352.765	75.75
352.992	91.75
353.22	76.75
353.447	74.75
353.674	77.75
353.901	73.75
354.128	78.75
354.355	73.75
354.583	95.75
354.81	91.75
355.037	76.75
355.264	81.75
355.491	78.75
355.718	74.75
355.945	81.75
356.172	57.75
356.399	88.75
356.626	71.75
356.853	74.75
357.08	88.75
357.307	80.75
357.534	80.75
357.761	88.75
357.988	91.75
358.215	83.75
358.441	80.75
358.668	87.75
358.895	71.75
359.122	87.75
359.349	80.75
359.576	72.75
359.802	66.75
360.029	87.75
360.256	83.75
360.483	67.75
360.709	80.75
360.936	63.75
361.163	80.75
361.39	79.75
361.616	69.75
361.843	78.75
362.07	79.75
362.296	79.75
362.523	80.75
362.749	75.75
362.976	97.75
363.203	80.75
363.429	83.75
363.656	98.75
363.882	68.75
364.109	74.75
364.335	87.75
364.562	77.75
364.788	73.75
365.015	79.75
365.241	76.75
365.468	86.75
365.694	77.75
365.92	76.75
366.147	91.75
366.373	83.75
366.599	76.75
366.826	80.75
367.052	87.75
367.278	91.75
367.505	79.75
367.731	81.75
367.957	96.75
368.184	88.75
368.41	68.75
368.636	68.75
368.862	81.75
369.089	85.75
369.315	73.75
369.541	65.75
369.767	76.75
369.993	74.75
370.219	76.75
370.445	80.75
370.672	78.75
370.898	84.75
371.124	78.75
371.35	75.75
371.576	72.75
371.802	83.75
372.028	84.75
372.254	73.75
372.48	85.75
372.706	69.75
372.932	80.75
373.158	86.75
373.384	95.75
373.61	87.75
373.835	76.75
374.061	76.75
374.287	74.75
374.513	90.75
374.739	83.75
374.965	72.75
375.191	81.75
375.416	76.75
375.642	87.75
375.868	87.75
376.094	66.75
376.319	83.75
376.545	78.75
376.771	79.75
376.997	79.75
377.222	93.75
377.448	82.75
377.674	71.75
377.899	79.75
378.125	77.75
378.35	84.75
378.576	74.75
378.802	77.75
379.027	85.75
379.253	73.75
379.478	66.75
379.704	73.75
379.929	74.75
380.155	83.75
380.38	80.75
380.606	79.75
380.831	81.75
381.057	78.75
381.282	89.75
381.507	76.75
381.733	78.75
381.958	84.75
382.184	67.75
382.409	82.75
382.634	76.75
382.86	83.75
383.085	82.75
383.31	76.75
383.535	88.75
383.761	84.75
383.986	93.75
384.211	86.75
384.436	89.75
384.662	74.75
384.887	81.75
385.112	85.75
385.337	91.75
385.562	86.75
385.787	87.75
386.013	75.75
386.238	89.75
386.463	75.75
386.688	89.75
386.913	91.75
387.138	103.75
387.363	88.75
387.588	97.75
387.813	79.75
388.038	93.75
388.263	90.75
388.488	80.75
388.713	73.75
388.938	67.75
389.163	75.75
389.387	83.75
389.612	88.75
389.837	81.75
390.062	88.75
390.287	78.75
390.512	73.75
390.736	87.75
390.961	83.75
391.186	82.75
391.411	81.75
391.636	81.75
391.86	81.75
392.085	73.75
392.31	77.75
392.534	69.75
392.759	53.75
392.984	92.75
393.208	93.75
393.433	117.75
393.658	100.75
393.882	77.75
394.107	87.75
394.331	89.75
394.556	74.75
394.78	81.75
395.005	74.75
395.229	92.75
395.454	89.75
395.678	74.75
395.903	85.75
396.127	79.75
396.352	82.75
396.576	73.75
396.801	100.75
397.025	99.75
397.249	74.75
397.474	81.75
397.698	66.75
397.922	89.75
398.147	72.75
398.371	84.75
398.595	75.75
398.82	77.75
399.044	82.75
399.268	80.75
399.492	71.75
399.717	74.75
399.941	75.75
400.165	90.75
400.389	71.75
400.613	81.75
400.837	67.75
401.062	69.75
401.286	79.75
401.51	76.75
401.734	72.75
401.958	78.75
402.182	76.75
402.406	85.75
402.63	73.75
402.854	69.75
403.078	76.75
403.302	75.75
403.526	89.75
403.75	74.75
403.974	95.75
404.198	105.75
404.422	115.75
404.645	129.75
404.869	120.75
405.093	103.75
405.317	89.75
405.541	67.75
405.765	79.75
405.988	82.75
406.212	69.75
406.436	92.75
406.66	91.75
406.883	89.75
407.107	89.75
407.331	70.75
407.555	59.75
407.778	67.75
408.002	88.75
408.226	79.75
408.449	80.75
408.673	83.75
408.896	71.75
409.12	74.75
409.344	84.75
409.567	81.75
409.791	70.75
410.014	96.75
410.238	84.75
410.461	75.75
410.685	87.75
410.908	75.75
411.132	76.75
411.355	87.75
411.578	71.75
411.802	79.75
412.025	71.75
412.249	74.75
412.472	81.75
412.695	89.75
412.919	75.75
413.142	78.75
413.365	77.75
413.589	71.75
413.812	73.75
414.035	92.75
414.258	89.75
414.482	81.75
414.705	65.75
414.928	79.75
415.151	79.75
415.374	75.75
415.597	77.75
415.821	72.75
416.044	77.75
416.267	80.75
416.49	79.75
416.713	73.75
416.936	80.75
417.159	69.75
417.382	87.75
417.605	75.75
417.828	79.75
418.051	83.75
418.274	94.75
418.497	72.75
418.72	83.75
418.943	81.75
419.166	81.75
419.389	75.75
419.611	75.75
419.834	84.75
420.057	84.75
420.28	85.75
420.503	64.75
420.726	75.75
420.948	69.75
421.171	76.75
421.394	73.75
421.617	78.75
421.839	79.75
422.062	92.75
422.285	81.75
422.507	102.75
422.73	121.75
422.953	110.75
423.175	80.75
423.398	98.75
423.621	89.75
423.843	70.75
424.066	75.75
424.288	87.75
424.511	76.75
424.733	77.75
424.956	79.75
425.178	85.75
425.401	79.75
425.623	85.75
425.846	76.75
426.068	78.75
426.291	55.75
426.513	75.75
426.735	79.75
426.958	80.75
427.18	91.75
427.402	71.75
427.625	79.75
427.847	63.75
428.069	81.75
428.292	72.75
428.514	69.75
428.736	77.75
428.958	78.75
429.181	81.75
429.403	75.75
429.625	91.75
429.847	75.75
430.069	88.75
430.292	76.75
430.514	83.75
430.736	79.75
430.958	69.75
431.18	82.75
431.402	73.75
431.624	74.75
431.846	84.75
432.068	84.75
432.29	73.75
432.512	80.75
432.734	75.75
432.956	77.75
433.178	87.75
433.4	68.75
433.622	71.75
433.844	74.75
434.066	82.75
434.287	74.75
434.509	69.75
434.731	87.75
434.953	74.75
435.175	82.75
435.397	77.75
435.618	84.75
435.84	89.75
436.062	69.75
436.284	89.75
436.505	59.75
436.727	75.75
436.949	83.75
437.17	72.75
437.392	95.75
437.614	86.75
437.835	73.75
438.057	80.75
438.278	75.75
438.5	68.75
438.721	95.75
438.943	76.75
439.165	79.75
439.386	82.75
439.608	78.75
439.829	79.75
440.05	91.75
440.272	65.75
440.493	62.75
440.715	72.75
440.936	72.75
441.158	63.75
441.379	83.75
441.6	74.75
441.822	77.75
442.043	76.75
442.264	74.75
442.486	81.75
442.707	93.75
442.928	92.75
443.149	64.75
443.371	72.75
443.592	82.75
443.813	76.75
444.034	87.75
444.255	78.75
444.476	83.75
444.698	82.75
444.919	84.75
445.14	156.75
445.361	109.75
445.582	93.75
445.803	79.75
446.024	90.75
446.245	82.75
446.466	63.75
446.687	80.75
446.908	91.75
447.129	86.75
447.35	75.75
447.571	78.75
447.792	71.75
448.013	85.75
448.234	81.75
448.455	73.75
448.675	89.75
448.896	97.75
449.117	91.75
449.338	67.75
449.559	83.75
449.779	88.75
450	88.75
450.221	97.75
450.442	79.75
450.662	79.75
450.883	72.75
451.104	67.75
451.324	73.75
451.545	70.75
451.766	62.75
451.986	66.75
452.207	75.75
452.428	66.75
452.648	64.75
452.869	76.75
453.089	78.75
453.31	91.75
453.53	80.75
453.751	82.75
453.971	87.75
454.192	71.75
454.412	83.75
454.633	92.75
454.853	86.75
455.073	92.75
455.294	67.75
455.514	80.75
455.734	78.75
455.955	74.75
456.175	73.75
456.395	80.75
456.616	67.75
456.836	81.75
457.056	75.75
457.276	73.75
457.497	87.75
457.717	80.75
457.937	63.75
458.157	74.75
458.377	80.75
458.598	84.75
458.818	66.75
459.038	80.75
459.258	80.75
459.478	74.75
459.698	76.75
459.918	83.75
460.138	79.75
460.358	75.75
460.578	73.75
460.798	83.75
461.018	80.75
461.238	69.75
461.458	88.75
461.678	71.75
461.898	76.75
462.118	68.75
462.338	79.75
462.558	71.75
462.777	81.75
462.997	69.75
463.217	73.75
463.437	82.75
463.657	79.75
463.876	81.75
464.096	69.75
464.316	83.75
464.536	65.75
464.755	76.75
464.975	77.75
465.195	78.75
465.414	79.75
465.634	71.75
465.854	88.75
466.073	80.75
466.293	71.75
466.512	88.75
466.732	73.75
466.951	83.75
467.171	91.75
467.391	87.75
467.61	94.75
467.829	76.75
468.049	83.75
468.268	81.75
468.488	93.75
468.707	69.75
468.927	79.75
469.146	72.75
469.365	76.75
469.585	91.75
469.804	76.75
470.023	77.75
470.243	78.75
470.462	71.75
470.681	80.75
470.901	75.75
471.12	82.75
471.339	79.75
471.558	95.75
471.777	84.75
471.997	68.75
472.216	79.75
472.435	99.75
472.654	73.75
472.873	79.75
473.092	75.75
473.311	66.75
473.53	88.75
473.749	84.75
473.968	71.75
474.187	88.75
474.406	92.75
474.625	82.75
474.844	101.75
475.063	80.75
475.282	67.75
475.501	84.75
475.72	87.75
475.939	82.75
476.158	76.75
476.377	87.75
476.596	73.75
476.814	83.75
477.033	82.75
477.252	80.75
477.471	74.75
477.69	70.75
477.908	80.75
478.127	90.75
478.346	70.75
478.564	75.75
478.783	73.75
479.002	70.75
479.22	84.75
479.439	72.75
479.658	89.75
479.876	84.75
480.095	81.75
480.313	76.75
480.532	70.75
480.751	74.75
480.969	66.75
481.188	69.75
481.406	83.75
481.624	77.75
481.843	67.75
482.061	88.75
482.28	62.75
482.498	72.75
482.717	84.75
482.935	77.75
483.153	79.75
483.372	92.75
483.59	79.75
483.808	89.75
484.027	87.75
484.245	83.75
484.463	77.75
484.681	78.75
484.9	83.75
485.118	81.75
485.336	76.75
485.554	89.75
485.772	77.75
485.99	84.75
486.209	82.75
486.427	67.75
486.645	75.75
486.863	84.75
487.081	83.75
487.299	83.75
487.517	74.75
487.735	98.75
487.953	77.75
488.171	79.75
488.389	73.75
488.607	89.75
488.825	89.75
489.043	76.75
489.261	78.75
489.479	99.75
489.696	73.75
489.914	81.75
490.132	74.75
490.35	83.75
490.568	74.75
490.786	81.75
491.003	80.75
491.221	72.75
491.439	77.75
491.657	81.75
491.874	76.75
492.092	79.75
492.31	71.75
492.527	75.75
492.745	83.75
492.963	82.75
493.18	71.75
493.398	85.75
493.615	85.75
493.833	70.75
494.05	75.75
494.268	79.75
494.485	75.75
494.703	80.75
494.92	73.75
495.138	88.75
495.355	77.75
495.573	87.75
495.79	77.75
496.008	91.75
496.225	84.75
496.442	76.75
496.66	87.75
496.877	84.75
497.094	84.75
497.312	79.75
497.529	87.75
497.746	77.75
497.963	88.75
498.181	73.75
498.398	78.75
498.615	80.75
498.832	75.75
499.049	85.75
499.267	64.75
499.484	65.75
499.701	90.75
499.918	75.75
500.135	81.75
500.352	77.75
500.569	90.75
500.786	101.75
501.003	90.75
501.22	79.75
501.437	83.75
501.654	87.75
501.871	85.75
502.088	72.75
502.305	93.75
502.522	79.75
502.739	80.75
502.956	74.75
503.172	88.75
503.389	73.75
503.606	71.75
503.823	75.75
504.04	84.75
504.256	81.75
504.473	84.75
504.69	92.75
504.907	100.75
505.123	84.75
505.34	79.75
505.557	79.75
505.773	86.75
505.99	88.75
506.207	91.75
506.423	78.75
506.64	83.75
506.856	72.75
507.073	87.75
507.289	72.75
507.506	83.75
507.722	83.75
507.939	92.75
508.155	93.75
508.372	79.75
508.588	83.75
508.805	70.75
509.021	79.75
509.238	76.75
509.454	82.75
509.67	86.75
509.887	79.75
510.103	75.75
510.319	75.75
510.536	69.75
510.752	84.75
510.968	75.75
511.184	84.75
511.401	91.75
511.617	82.75
511.833	76.75
512.049	81.75
512.265	82.75
512.481	83.75
512.698	76.75
512.914	76.75
513.13	81.75
513.346	76.75
513.562	77.75
513.778	88.75
513.994	78.75
514.21	87.75
514.426	88.75
514.642	68.75
514.858	80.75
515.074	72.75
515.29	82.75
515.506	76.75
515.721	83.75
515.937	81.75
516.153	68.75
516.369	77.75
516.585	73.75
516.801	73.75
517.016	84.75
517.232	85.75
517.448	93.75
517.664	77.75
517.879	83.75
518.095	99.75
518.311	85.75
518.527	104.75
518.742	57.75
518.958	87.75
519.173	91.75
519.389	82.75
519.605	74.75
519.82	84.75
520.036	79.75
520.251	89.75
520.467	81.75
520.682	73.75
520.898	71.75
521.113	80.75
521.329	71.75
521.544	77.75
521.76	88.75
521.975	90.75
522.19	90.75
522.406	84.75
522.621	61.75
522.836	74.75
523.052	68.75
523.267	72.75
523.482	81.75
523.698	76.75
523.913	93.75
524.128	82.75
524.343	74.75
524.559	88.75
524.774	75.75
524.989	75.75
525.204	83.75
525.419	75.75
525.634	87.75
525.849	86.75
526.064	84.75
526.28	81.75
526.495	82.75
526.71	82.75
526.925	87.75
527.14	89.75
527.355	80.75
527.57	81.75
527.785	77.75
527.999	82.75
528.214	86.75
528.429	67.75
528.644	76.75
528.859	90.75
529.074	87.75
529.289	82.75
529.503	75.75
529.718	82.75
529.933	74.75
530.148	77.75
530.363	73.75
530.577	77.75
530.792	68.75
531.007	74.75
531.221	87.75
531.436	106.75
531.651	93.75
531.865	75.75
532.08	76.75
532.295	80.75
532.509	93.75
532.724	73.75
532.938	84.75
533.153	79.75
533.367	80.75
533.582	97.75
533.796	95.75
534.011	99.75
534.225	97.75
534.44	79.75
534.654	103.75
534.868	82.75
535.083	88.75
535.297	84.75
535.511	85.75
535.726	84.75
535.94	78.75
536.154	85.75
536.369	80.75
536.583	97.75
536.797	93.75
537.011	94.75
537.225	82.75
537.44	93.75
537.654	89.75
537.868	82.75
538.082	87.75
538.296	83.75
538.51	79.75
538.724	92.75
538.938	87.75
539.153	72.75
539.367	84.75
539.581	55.75
539.795	85.75
540.009	87.75
540.222	89.75
540.436	88.75
540.65	80.75
540.864	66.75
541.078	84.75
541.292	87.75
541.506	79.75
541.72	91.75
541.934	91.75
542.147	75.75
542.361	80.75
542.575	87.75
542.789	93.75
543.002	81.75
543.216	79.75
543.43	66.75
543.644	85.75
543.857	74.75
544.071	78.75
544.285	84.75
544.498	77.75
544.712	75.75
544.925	71.75
545.139	81.75
545.352	71.75
545.566	93.75
545.779	93.75
545.993	80.75
546.206	74.75
546.42	79.75
546.633	69.75
546.847	82.75
547.06	84.75
547.274	75.75
547.487	79.75
547.7	78.75
547.914	87.75
548.127	105.75
548.34	81.75
548.554	69.75
548.767	78.75
548.98	69.75
549.193	68.75
549.407	90.75
549.62	76.75
549.833	76.75
550.046	69.75
550.259	81.75
550.473	75.75
550.686	77.75
550.899	103.75
551.112	81.75
551.325	82.75
551.538	89.75
551.751	68.75
551.964	74.75
552.177	71.75
552.39	77.75
552.603	81.75
552.816	79.75
553.029	74.75
553.242	78.75
553.455	75.75
553.667	87.75
553.88	85.75
554.093	93.75
554.306	85.75
554.519	75.75
554.732	74.75
554.944	97.75
555.157	87.75
555.37	78.75
555.583	84.75
555.795	71.75
556.008	91.75
556.221	88.75
556.433	75.75
556.646	73.75
556.859	68.75
557.071	76.75
557.284	71.75
557.496	82.75
557.709	77.75
557.921	95.75
558.134	78.75
558.346	93.75
558.559	69.75
558.771	95.75
558.984	93.75
559.196	78.75
559.409	85.75
559.621	75.75
559.833	80.75
560.046	97.75
560.258	63.75
560.47	76.75
560.683	84.75
560.895	67.75
561.107	81.75
561.32	83.75
561.532	91.75
561.744	86.75
561.956	73.75
562.168	79.75
562.381	78.75
562.593	80.75
562.805	83.75
563.017	76.75
563.229	75.75
563.441	83.75
563.653	87.75
563.865	83.75
564.077	88.75
564.289	84.75
564.501	90.75
564.713	80.75
564.925	91.75
565.137	90.75
565.349	96.75
565.561	69.75
565.773	85.75
565.985	84.75
566.197	72.75
566.408	76.75
566.62	81.75
566.832	72.75
567.044	82.75
567.255	76.75
567.467	79.75
567.679	98.75
567.891	95.75
568.102	76.75
568.314	99.75
568.526	83.75
568.737	95.75
568.949	83.75
569.161	91.75
569.372	91.75
569.584	75.75
569.795	84.75
570.007	82.75
570.218	87.75
570.43	87.75
570.641	81.75
570.853	89.75
571.064	91.75
571.276	67.75
571.487	80.75
571.698	76.75
571.91	74.75
572.121	80.75
572.333	84.75
572.544	92.75
572.755	84.75
572.966	74.75
573.178	71.75
573.389	76.75
573.6	79.75
573.811	71.75
574.023	88.75
574.234	85.75
574.445	85.75
574.656	91.75
574.867	88.75
575.078	84.75
575.289	77.75
575.501	81.75
575.712	82.75
575.923	77.75
576.134	87.75
576.345	95.75
576.556	103.75
576.767	81.75
576.978	99.75
577.188	91.75
577.399	67.75
577.61	74.75
577.821	70.75
578.032	84.75
578.243	97.75
578.454	91.75
578.665	78.75
578.875	79.75
579.086	91.75
579.297	87.75
579.508	77.75
579.718	72.75
579.929	93.75
580.14	91.75
580.35	100.75
580.561	92.75
580.772	80.75
580.982	84.75
581.193	81.75
581.403	99.75
581.614	68.75
581.825	80.75
582.035	90.75
582.246	93.75
582.456	77.75
582.667	71.75
582.877	76.75
583.087	74.75
583.298	76.75
583.508	107.75
583.719	95.75
583.929	99.75
584.139	101.75
584.35	80.75
584.56	75.75
584.77	75.75
584.981	81.75
585.191	72.75
585.401	91.75
585.611	76.75
585.821	74.75
586.032	71.75
586.242	74.75
586.452	84.75
586.662	82.75
586.872	79.75
587.082	84.75
587.292	88.75
587.502	93.75
587.713	86.75
587.923	83.75
588.133	101.75
588.343	87.75
588.553	108.75
588.762	146.75
588.972	281.75
589.182	747.75
589.392	430.75
589.602	338.75
589.812	599.75
590.022	262.75
590.232	128.75
590.441	88.75
590.651	110.75
590.861	91.75
591.071	90.75
591.281	81.75
591.49	85.75
591.7	71.75
591.91	75.75
592.119	79.75
592.329	65.75
592.539	83.75
592.748	76.75
592.958	79.75
593.167	75.75
593.377	84.75
593.587	83.75
593.796	79.75
594.006	81.75
594.215	75.75
594.424	72.75
594.634	80.75
594.843	105.75
595.053	99.75
595.262	83.75
595.472	77.75
595.681	73.75
595.89	80.75
596.1	81.75
596.309	99.75
596.518	85.75
596.727	83.75
596.937	78.75
597.146	82.75
597.355	72.75
597.564	90.75
597.774	76.75
597.983	83.75
598.192	86.75
598.401	77.75
598.61	77.75
598.819	66.75
599.028	77.75
599.237	76.75
599.446	78.75
599.655	79.75
599.864	81.75
600.073	81.75
600.282	81.75
600.491	89.75
600.7	69.75
600.909	83.75
601.118	88.75
601.327	63.75
601.536	75.75
601.745	82.75
601.953	75.75
602.162	84.75
602.371	75.75
602.58	84.75
602.789	81.75
602.997	77.75
603.206	85.75
603.415	103.75
603.623	74.75
603.832	84.75
604.041	73.75
604.249	77.75
604.458	77.75
604.666	74.75
604.875	80.75
605.084	96.75
605.292	90.75
605.501	90.75
605.709	86.75
605.918	76.75
606.126	76.75
606.334	76.75
606.543	79.75
606.751	80.75
606.96	91.75
607.168	77.75
607.376	80.75
607.585	75.75
607.793	63.75
608.001	69.75
608.21	75.75
608.418	77.75
608.626	86.75
608.834	95.75
609.043	87.75
609.251	82.75
609.459	75.75
609.667	81.75
609.875	75.75
610.083	79.75
610.291	74.75
610.499	75.75
610.707	90.75
610.916	94.75
611.124	87.75
611.332	75.75
611.54	79.75
611.748	72.75
611.955	81.75
612.163	84.75
612.371	103.75
612.579	83.75
612.787	90.75
612.995	83.75
613.203	89.75
613.411	74.75
613.618	64.75
613.826	78.75
614.034	70.75
614.242	82.75
614.449	84.75
614.657	78.75
614.865	72.75
615.072	85.75
615.28	86.75
615.488	75.75
615.695	78.75
615.903	92.75
616.111	85.75
616.318	81.75
616.526	95.75
616.733	74.75
616.941	80.75
617.148	90.75
617.356	63.75
617.563	80.75
617.771	76.75
617.978	77.75
618.185	81.75
618.393	92.75
618.6	95.75
618.807	82.75
619.015	95.75
619.222	90.75
619.429	80.75
619.637	66.75
619.844	80.75
620.051	87.75
620.258	73.75
620.466	85.75
620.673	80.75
620.88	87.75
621.087	82.75
621.294	64.75
621.501	80.75
621.708	85.75
621.915	82.75
622.122	81.75
622.329	91.75
622.536	62.75
622.743	73.75
622.95	87.75
623.157	82.75
623.364	75.75
623.571	89.75
623.778	90.75
623.985	97.75
624.192	78.75
624.399	79.75
624.606	84.75
624.812	77.75
625.019	70.75
625.226	70.75
625.433	79.75
625.639	87.75
625.846	72.75
626.053	85.75
626.259	85.75
626.466	73.75
626.673	89.75
626.879	93.75
627.086	87.75
627.293	79.75
627.499	96.75
627.706	68.75
627.912	99.75
628.119	76.75
628.325	64.75
628.532	83.75
628.738	75.75
628.945	72.75
629.151	76.75
629.357	78.75
629.564	88.75
629.77	91.75
629.976	67.75
630.183	82.75
630.389	72.75
630.595	76.75
630.802	78.75
631.008	94.75
631.214	89.75
631.42	68.75
631.627	97.75
631.833	75.75
632.039	87.75
632.245	75.75
632.451	89.75
632.657	72.75
632.863	95.75
633.069	89.75
633.275	75.75
633.481	77.75
633.688	68.75
633.893	68.75
634.099	81.75
634.305	69.75
634.511	73.75
634.717	70.75
634.923	84.75
635.129	77.75
635.335	80.75
635.541	82.75
635.747	88.75
635.952	72.75
636.158	70.75
636.364	65.75
636.57	76.75
636.775	68.75
636.981	79.75
637.187	73.75
637.392	86.75
637.598	79.75
637.804	92.75
638.009	73.75
638.215	85.75
638.421	59.75
638.626	80.75
638.832	85.75
639.037	80.75
639.243	68.75
639.448	83.75
639.654	83.75
639.859	76.75
640.065	84.75
640.27	74.75
640.475	80.75
640.681	89.75
640.886	81.75
641.091	76.75
641.297	69.75
641.502	91.75
641.707	83.75
641.913	69.75
642.118	82.75
642.323	89.75
642.528	99.75
642.733	75.75
642.939	78.75
643.144	72.75
643.349	81.75
643.554	97.75
643.759	87.75
643.964	74.75
644.169	84.75
644.374	75.75
644.579	58.75
644.784	72.75
644.989	75.75
645.194	91.75
645.399	75.75
645.604	74.75
645.809	83.75
646.014	77.75
646.219	75.75
646.423	63.75
646.628	85.75
646.833	82.75
647.038	67.75
647.243	88.75
647.447	95.75
647.652	76.75
647.857	69.75
648.062	76.75
648.266	75.75
648.471	67.75
648.676	73.75
648.88	75.75
649.085	67.75
649.289	77.75
649.494	72.75
649.698	82.75
649.903	76.75
650.107	83.75
650.312	73.75
650.516	79.75
650.721	82.75
650.925	83.75
651.13	79.75
651.334	86.75
651.539	96.75
651.743	88.75
651.947	82.75
652.152	75.75
652.356	81.75
652.56	88.75
652.764	75.75
652.969	83.75
653.173	73.75
653.377	80.75
653.581	82.75
653.785	67.75
653.99	80.75
654.194	68.75
654.398	79.75
654.602	78.75
654.806	84.75
655.01	80.75
655.214	84.75
655.418	84.75
655.622	77.75
655.826	75.75
656.03	94.75
656.234	76.75
656.438	79.75
656.642	78.75
656.846	92.75
657.049	76.75
657.253	74.75
657.457	53.75
657.661	66.75
657.865	68.75
658.068	80.75
658.272	83.75
658.476	72.75
658.68	69.75
658.883	75.75
659.087	71.75
659.291	88.75
659.494	69.75
659.698	74.75
659.901	96.75
660.105	74.75
660.309	84.75
660.512	87.75
660.716	92.75
660.919	74.75
661.123	75.75
661.326	76.75
661.53	75.75
661.733	77.75
661.936	97.75
662.14	84.75
662.343	78.75
662.546	73.75
662.75	81.75
662.953	75.75
663.156	90.75
663.36	84.75
663.563	81.75
663.766	76.75
663.969	76.75
664.173	77.75
664.376	79.75
664.579	78.75
664.782	60.75
664.985	68.75
665.188	80.75
665.391	71.75
665.594	75.75
665.797	76.75
666	68.75
666.203	78.75
666.406	67.75
666.609	74.75
666.812	84.75
667.015	72.75
667.218	85.75
667.421	77.75
667.624	73.75
667.827	82.75
668.03	66.75
668.232	58.75
668.435	94.75
668.638	76.75
668.841	79.75
669.043	85.75
669.246	79.75
669.449	81.75
669.651	85.75
669.854	75.75
670.057	81.75
670.259	75.75
670.462	81.75
670.665	73.75
670.867	81.75
671.07	84.75
671.272	72.75
671.475	70.75
671.677	94.75
671.88	89.75
672.082	87.75
672.284	72.75
672.487	75.75
672.689	69.75
672.892	72.75
