Data from Super_Dry_Prop_50_3_HRD10591_00018.txt Node
Date: Wed Dec 03 14:59:29 EST 2025
User: Yrep
Spectrometer: HR+D1059
Trigger mode: 1
Integration Time (sec): 1.000000E-1
Scans to average: 1
Electric dark correction enabled: true
Nonlinearity correction enabled: false
Boxcar width: 0
XAxis mode: Wavelengths
Number of Pixels in Spectrum: 2048
>>>>>Begin Spectral Data<<<<<
223.165	-6.75
223.4	-6.75
223.635	-6.75
223.869	-12.75
224.104	-16.75
224.338	-17.75
224.573	-24.75
224.808	-24.75
225.042	-5.75
225.277	-1.75
225.511	4.25
225.746	-1.75
225.98	7.25
226.215	16.25
226.449	16.25
226.683	17.25
226.918	25.25
227.152	26.25
227.387	41.25
227.621	55.25
227.856	43.25
228.09	52.25
228.324	40.25
228.559	70.25
228.793	64.25
229.027	61.25
229.262	71.25
229.496	73.25
229.73	53.25
229.964	74.25
230.199	76.25
230.433	83.25
230.667	83.25
230.901	77.25
231.136	81.25
231.37	75.25
231.604	76.25
231.838	79.25
232.072	85.25
232.306	97.25
232.541	67.25
232.775	94.25
233.009	85.25
233.243	86.25
233.477	74.25
233.711	82.25
233.945	88.25
234.179	77.25
234.413	89.25
234.647	65.25
234.881	96.25
235.115	80.25
235.349	75.25
235.583	88.25
235.817	83.25
236.051	68.25
236.285	78.25
236.519	88.25
236.753	82.25
236.987	80.25
237.221	81.25
237.455	70.25
237.689	84.25
237.922	82.25
238.156	89.25
238.39	94.25
238.624	82.25
238.858	75.25
239.091	86.25
239.325	93.25
239.559	84.25
239.793	79.25
240.027	79.25
240.26	62.25
240.494	89.25
240.728	72.25
240.961	90.25
241.195	74.25
241.429	87.25
241.662	73.25
241.896	81.25
242.13	67.25
242.363	79.25
242.597	86.25
242.83	84.25
243.064	65.25
243.298	74.25
243.531	55.25
243.765	98.25
243.998	81.25
244.232	71.25
244.465	80.25
244.699	84.25
244.932	77.25
245.166	75.25
245.399	84.25
245.633	88.25
245.866	77.25
246.099	75.25
246.333	90.25
246.566	81.25
246.8	97.25
247.033	85.25
247.266	79.25
247.5	79.25
247.733	74.25
247.966	74.25
248.2	95.25
248.433	81.25
248.666	86.25
248.899	83.25
249.133	72.25
249.366	86.25
249.599	91.25
249.832	85.25
250.066	85.25
250.299	72.25
250.532	83.25
250.765	90.25
250.998	76.25
251.231	80.25
251.465	69.25
251.698	75.25
251.931	96.25
252.164	81.25
252.397	83.25
252.63	86.25
252.863	70.25
253.096	75.25
253.329	76.25
253.562	81.25
253.795	77.25
254.028	93.25
254.261	93.25
254.494	85.25
254.727	75.25
254.96	79.25
255.193	59.25
255.426	67.25
255.659	79.25
255.892	77.25
256.124	90.25
256.357	90.25
256.59	77.25
256.823	97.25
257.056	74.25
257.289	93.25
257.521	71.25
257.754	84.25
257.987	82.25
258.22	79.25
258.452	87.25
258.685	87.25
258.918	84.25
259.151	76.25
259.383	89.25
259.616	87.25
259.849	81.25
260.081	76.25
260.314	71.25
260.547	79.25
260.779	74.25
261.012	87.25
261.244	89.25
261.477	92.25
261.71	84.25
261.942	97.25
262.175	82.25
262.407	79.25
262.64	84.25
262.872	83.25
263.105	84.25
263.337	86.25
263.57	89.25
263.802	87.25
264.035	90.25
264.267	81.25
264.499	96.25
264.732	89.25
264.964	77.25
265.197	91.25
265.429	81.25
265.661	65.25
265.894	80.25
266.126	86.25
266.358	91.25
266.591	77.25
266.823	89.25
267.055	88.25
267.287	90.25
267.52	80.25
267.752	76.25
267.984	71.25
268.216	93.25
268.448	77.25
268.681	69.25
268.913	90.25
269.145	93.25
269.377	85.25
269.609	79.25
269.841	83.25
270.073	88.25
270.306	82.25
270.538	78.25
270.77	72.25
271.002	94.25
271.234	94.25
271.466	84.25
271.698	86.25
271.93	82.25
272.162	88.25
272.394	81.25
272.626	89.25
272.858	98.25
273.09	88.25
273.322	89.25
273.553	82.25
273.785	77.25
274.017	75.25
274.249	88.25
274.481	79.25
274.713	89.25
274.945	85.25
275.176	84.25
275.408	81.25
275.64	85.25
275.872	90.25
276.104	84.25
276.335	86.25
276.567	92.25
276.799	85.25
277.031	93.25
277.262	85.25
277.494	79.25
277.726	94.25
277.957	79.25
278.189	81.25
278.421	88.25
278.652	84.25
278.884	91.25
279.115	85.25
279.347	90.25
279.579	87.25
279.81	78.25
280.042	74.25
280.273	82.25
280.505	99.25
280.736	84.25
280.968	75.25
281.199	72.25
281.431	81.25
281.662	84.25
281.894	78.25
282.125	97.25
282.356	97.25
282.588	81.25
282.819	87.25
283.051	82.25
283.282	80.25
283.513	78.25
283.745	74.25
283.976	89.25
284.207	89.25
284.439	80.25
284.67	97.25
284.901	84.25
285.132	83.25
285.364	75.25
285.595	87.25
285.826	84.25
286.057	88.25
286.288	87.25
286.52	86.25
286.751	97.25
286.982	90.25
287.213	81.25
287.444	89.25
287.675	83.25
287.906	82.25
288.138	91.25
288.369	86.25
288.6	81.25
288.831	81.25
289.062	88.25
289.293	80.25
289.524	83.25
289.755	78.25
289.986	81.25
290.217	97.25
290.448	76.25
290.679	89.25
290.91	88.25
291.141	83.25
291.371	85.25
291.602	82.25
291.833	97.25
292.064	87.25
292.295	72.25
292.526	73.25
292.757	101.25
292.987	90.25
293.218	93.25
293.449	94.25
293.68	79.25
293.91	84.25
294.141	71.25
294.372	85.25
294.603	98.25
294.833	84.25
295.064	79.25
295.295	90.25
295.525	78.25
295.756	80.25
295.987	81.25
296.217	89.25
296.448	80.25
296.679	98.25
296.909	81.25
297.14	81.25
297.37	99.25
297.601	87.25
297.831	85.25
298.062	70.25
298.292	78.25
298.523	88.25
298.753	95.25
298.984	81.25
299.214	91.25
299.445	79.25
299.675	103.25
299.905	79.25
300.136	88.25
300.366	81.25
300.597	79.25
300.827	87.25
301.057	99.25
301.288	81.25
301.518	84.25
301.748	95.25
301.979	105.25
302.209	79.25
302.439	90.25
302.669	86.25
302.9	70.25
303.13	81.25
303.36	83.25
303.59	81.25
303.82	96.25
304.051	93.25
304.281	91.25
304.511	89.25
304.741	74.25
304.971	84.25
305.201	85.25
305.431	90.25
305.661	93.25
305.891	73.25
306.121	72.25
306.352	87.25
306.582	74.25
306.812	85.25
307.042	88.25
307.272	88.25
307.502	100.25
307.731	77.25
307.961	85.25
308.191	104.25
308.421	97.25
308.651	97.25
308.881	97.25
309.111	89.25
309.341	90.25
309.571	88.25
309.8	78.25
310.03	79.25
310.26	101.25
310.49	74.25
310.72	93.25
310.949	78.25
311.179	88.25
311.409	83.25
311.639	82.25
311.868	81.25
312.098	77.25
312.328	95.25
312.557	107.25
312.787	80.25
313.017	90.25
313.246	79.25
313.476	88.25
313.706	99.25
313.935	81.25
314.165	90.25
314.394	82.25
314.624	76.25
314.853	95.25
315.083	84.25
315.312	78.25
315.542	97.25
315.771	99.25
316.001	88.25
316.23	82.25
316.46	84.25
316.689	89.25
316.919	96.25
317.148	79.25
317.377	83.25
317.607	80.25
317.836	83.25
318.065	82.25
318.295	79.25
318.524	96.25
318.753	82.25
318.983	83.25
319.212	84.25
319.441	86.25
319.67	83.25
319.9	89.25
320.129	82.25
320.358	81.25
320.587	88.25
320.816	86.25
321.046	91.25
321.275	82.25
321.504	96.25
321.733	100.25
321.962	91.25
322.191	70.25
322.42	81.25
322.649	75.25
322.878	83.25
323.108	75.25
323.337	90.25
323.566	89.25
323.795	96.25
324.024	89.25
324.253	80.25
324.482	89.25
324.71	89.25
324.939	90.25
325.168	85.25
325.397	78.25
325.626	89.25
325.855	89.25
326.084	88.25
326.313	87.25
326.542	88.25
326.77	81.25
326.999	93.25
327.228	77.25
327.457	97.25
327.686	101.25
327.914	84.25
328.143	96.25
328.372	81.25
328.6	93.25
328.829	84.25
329.058	84.25
329.287	79.25
329.515	84.25
329.744	100.25
329.972	72.25
330.201	83.25
330.43	96.25
330.658	82.25
330.887	89.25
331.115	95.25
331.344	93.25
331.572	88.25
331.801	85.25
332.03	93.25
332.258	93.25
332.486	81.25
332.715	89.25
332.943	102.25
333.172	89.25
333.4	76.25
333.629	97.25
333.857	93.25
334.085	77.25
334.314	89.25
334.542	100.25
334.771	88.25
334.999	71.25
335.227	82.25
335.455	97.25
335.684	85.25
335.912	93.25
336.14	72.25
336.369	92.25
336.597	93.25
336.825	88.25
337.053	89.25
337.281	78.25
337.51	73.25
337.738	87.25
337.966	82.25
338.194	96.25
338.422	79.25
338.65	82.25
338.878	91.25
339.106	88.25
339.334	90.25
339.562	91.25
339.79	82.25
340.018	96.25
340.246	92.25
340.474	80.25
340.702	86.25
340.93	73.25
341.158	78.25
341.386	98.25
341.614	93.25
341.842	84.25
342.07	93.25
342.298	91.25
342.526	71.25
342.754	80.25
342.981	87.25
343.209	97.25
343.437	103.25
343.665	78.25
343.893	79.25
344.12	90.25
344.348	86.25
344.576	85.25
344.804	69.25
345.031	91.25
345.259	86.25
345.487	86.25
345.714	75.25
345.942	85.25
346.17	89.25
346.397	83.25
346.625	95.25
346.853	89.25
347.08	83.25
347.308	97.25
347.535	75.25
347.763	89.25
347.99	86.25
348.218	89.25
348.445	85.25
348.673	74.25
348.9	79.25
349.128	100.25
349.355	88.25
349.583	79.25
349.81	86.25
350.037	94.25
350.265	67.25
350.492	81.25
350.72	71.25
350.947	94.25
351.174	103.25
351.402	88.25
351.629	90.25
351.856	94.25
352.083	90.25
352.311	86.25
352.538	95.25
352.765	89.25
352.992	111.25
353.22	98.25
353.447	93.25
353.674	108.25
353.901	89.25
354.128	79.25
354.355	82.25
354.583	85.25
354.81	83.25
355.037	101.25
355.264	87.25
355.491	82.25
355.718	97.25
355.945	71.25
356.172	76.25
356.399	75.25
356.626	84.25
356.853	85.25
357.08	88.25
357.307	91.25
357.534	99.25
357.761	82.25
357.988	77.25
358.215	98.25
358.441	95.25
358.668	92.25
358.895	86.25
359.122	93.25
359.349	86.25
359.576	77.25
359.802	85.25
360.029	89.25
360.256	89.25
360.483	76.25
360.709	99.25
360.936	96.25
361.163	91.25
361.39	88.25
361.616	90.25
361.843	83.25
362.07	96.25
362.296	84.25
362.523	73.25
362.749	94.25
362.976	90.25
363.203	91.25
363.429	73.25
363.656	84.25
363.882	84.25
364.109	96.25
364.335	81.25
364.562	72.25
364.788	83.25
365.015	80.25
365.241	95.25
365.468	65.25
365.694	75.25
365.92	86.25
366.147	96.25
366.373	89.25
366.599	74.25
366.826	83.25
367.052	88.25
367.278	88.25
367.505	86.25
367.731	101.25
367.957	94.25
368.184	88.25
368.41	104.25
368.636	73.25
368.862	89.25
369.089	85.25
369.315	90.25
369.541	79.25
369.767	69.25
369.993	75.25
370.219	97.25
370.445	90.25
370.672	77.25
370.898	86.25
371.124	80.25
371.35	88.25
371.576	80.25
371.802	75.25
372.028	93.25
372.254	92.25
372.48	98.25
372.706	72.25
372.932	82.25
373.158	79.25
373.384	77.25
373.61	101.25
373.835	80.25
374.061	97.25
374.287	98.25
374.513	91.25
374.739	78.25
374.965	84.25
375.191	83.25
375.416	92.25
375.642	83.25
375.868	80.25
376.094	87.25
376.319	80.25
376.545	81.25
376.771	91.25
376.997	83.25
377.222	86.25
377.448	82.25
377.674	77.25
377.899	81.25
378.125	86.25
378.35	82.25
378.576	93.25
378.802	84.25
379.027	85.25
379.253	91.25
379.478	91.25
379.704	83.25
379.929	65.25
380.155	90.25
380.38	95.25
380.606	90.25
380.831	78.25
381.057	93.25
381.282	85.25
381.507	85.25
381.733	86.25
381.958	84.25
382.184	89.25
382.409	83.25
382.634	73.25
382.86	81.25
383.085	99.25
383.31	82.25
383.535	94.25
383.761	85.25
383.986	95.25
384.211	95.25
384.436	85.25
384.662	98.25
384.887	87.25
385.112	76.25
385.337	94.25
385.562	84.25
385.787	101.25
386.013	104.25
386.238	81.25
386.463	88.25
386.688	93.25
386.913	77.25
387.138	85.25
387.363	90.25
387.588	90.25
387.813	104.25
388.038	88.25
388.263	91.25
388.488	83.25
388.713	80.25
388.938	82.25
389.163	93.25
389.387	80.25
389.612	89.25
389.837	82.25
390.062	86.25
390.287	93.25
390.512	87.25
390.736	93.25
390.961	86.25
391.186	84.25
391.411	83.25
391.636	81.25
391.86	80.25
392.085	71.25
392.31	78.25
392.534	78.25
392.759	81.25
392.984	89.25
393.208	101.25
393.433	125.25
393.658	103.25
393.882	80.25
394.107	95.25
394.331	84.25
394.556	76.25
394.78	74.25
395.005	95.25
395.229	90.25
395.454	88.25
395.678	87.25
395.903	78.25
396.127	89.25
396.352	90.25
396.576	91.25
396.801	101.25
397.025	109.25
397.249	91.25
397.474	81.25
397.698	80.25
397.922	90.25
398.147	85.25
398.371	95.25
398.595	89.25
398.82	87.25
399.044	90.25
399.268	88.25
399.492	86.25
399.717	82.25
399.941	95.25
400.165	71.25
400.389	84.25
400.613	80.25
400.837	90.25
401.062	79.25
401.286	89.25
401.51	85.25
401.734	77.25
401.958	72.25
402.182	89.25
402.406	87.25
402.63	88.25
402.854	84.25
403.078	74.25
403.302	74.25
403.526	87.25
403.75	97.25
403.974	77.25
404.198	86.25
404.422	105.25
404.645	81.25
404.869	86.25
405.093	84.25
405.317	91.25
405.541	81.25
405.765	85.25
405.988	82.25
406.212	88.25
406.436	85.25
406.66	83.25
406.883	78.25
407.107	83.25
407.331	98.25
407.555	87.25
407.778	81.25
408.002	89.25
408.226	78.25
408.449	90.25
408.673	72.25
408.896	81.25
409.12	78.25
409.344	83.25
409.567	82.25
409.791	91.25
410.014	91.25
410.238	91.25
410.461	75.25
410.685	89.25
410.908	65.25
411.132	104.25
411.355	86.25
411.578	71.25
411.802	82.25
412.025	94.25
412.249	92.25
412.472	91.25
412.695	76.25
412.919	83.25
413.142	84.25
413.365	88.25
413.589	74.25
413.812	88.25
414.035	87.25
414.258	86.25
414.482	77.25
414.705	83.25
414.928	95.25
415.151	87.25
415.374	76.25
415.597	91.25
415.821	89.25
416.044	79.25
416.267	76.25
416.49	89.25
416.713	85.25
416.936	102.25
417.159	99.25
417.382	81.25
417.605	90.25
417.828	87.25
418.051	86.25
418.274	78.25
418.497	87.25
418.72	94.25
418.943	83.25
419.166	83.25
419.389	81.25
419.611	94.25
419.834	88.25
420.057	79.25
420.28	94.25
420.503	78.25
420.726	95.25
420.948	89.25
421.171	77.25
421.394	88.25
421.617	84.25
421.839	80.25
422.062	91.25
422.285	94.25
422.507	93.25
422.73	103.25
422.953	87.25
423.175	87.25
423.398	73.25
423.621	85.25
423.843	89.25
424.066	85.25
424.288	88.25
424.511	86.25
424.733	86.25
424.956	86.25
425.178	81.25
425.401	82.25
425.623	80.25
425.846	86.25
426.068	85.25
426.291	84.25
426.513	78.25
426.735	70.25
426.958	79.25
427.18	83.25
427.402	90.25
427.625	72.25
427.847	66.25
428.069	76.25
428.292	85.25
428.514	78.25
428.736	95.25
428.958	82.25
429.181	81.25
429.403	79.25
429.625	75.25
429.847	84.25
430.069	78.25
430.292	84.25
430.514	98.25
430.736	84.25
430.958	88.25
431.18	90.25
431.402	82.25
431.624	78.25
431.846	82.25
432.068	71.25
432.29	88.25
432.512	85.25
432.734	71.25
432.956	80.25
433.178	90.25
433.4	88.25
433.622	80.25
433.844	75.25
434.066	98.25
434.287	75.25
434.509	76.25
434.731	88.25
434.953	85.25
435.175	73.25
435.397	85.25
435.618	89.25
435.84	73.25
436.062	91.25
436.284	71.25
436.505	87.25
436.727	85.25
436.949	90.25
437.17	81.25
437.392	79.25
437.614	73.25
437.835	77.25
438.057	86.25
438.278	79.25
438.5	77.25
438.721	69.25
438.943	94.25
439.165	84.25
439.386	80.25
439.608	69.25
439.829	87.25
440.05	79.25
440.272	80.25
440.493	76.25
440.715	82.25
440.936	80.25
441.158	81.25
441.379	73.25
441.6	80.25
441.822	73.25
442.043	88.25
442.264	97.25
442.486	81.25
442.707	89.25
442.928	83.25
443.149	86.25
443.371	83.25
443.592	81.25
443.813	75.25
444.034	81.25
444.255	83.25
444.476	79.25
444.698	85.25
444.919	90.25
445.14	140.25
445.361	117.25
445.582	75.25
445.803	75.25
446.024	81.25
446.245	86.25
446.466	85.25
446.687	98.25
446.908	76.25
447.129	83.25
447.35	80.25
447.571	80.25
447.792	81.25
448.013	89.25
448.234	84.25
448.455	79.25
448.675	59.25
448.896	73.25
449.117	73.25
449.338	87.25
449.559	91.25
449.779	100.25
450	84.25
450.221	84.25
450.442	76.25
450.662	87.25
450.883	100.25
451.104	70.25
451.324	71.25
451.545	69.25
451.766	82.25
451.986	72.25
452.207	87.25
452.428	75.25
452.648	62.25
452.869	74.25
453.089	88.25
453.31	82.25
453.53	106.25
453.751	94.25
453.971	80.25
454.192	83.25
454.412	83.25
454.633	75.25
454.853	93.25
455.073	69.25
455.294	60.25
455.514	96.25
455.734	87.25
455.955	73.25
456.175	81.25
456.395	78.25
456.616	70.25
456.836	82.25
457.056	93.25
457.276	91.25
457.497	90.25
457.717	75.25
457.937	78.25
458.157	90.25
458.377	66.25
458.598	68.25
458.818	82.25
459.038	71.25
459.258	74.25
459.478	71.25
459.698	73.25
459.918	96.25
460.138	83.25
460.358	79.25
460.578	78.25
460.798	84.25
461.018	71.25
461.238	99.25
461.458	89.25
461.678	78.25
461.898	80.25
462.118	93.25
462.338	72.25
462.558	88.25
462.777	61.25
462.997	84.25
463.217	81.25
463.437	81.25
463.657	85.25
463.876	77.25
464.096	93.25
464.316	86.25
464.536	89.25
464.755	80.25
464.975	82.25
465.195	82.25
465.414	81.25
465.634	90.25
465.854	51.25
466.073	84.25
466.293	91.25
466.512	67.25
466.732	85.25
466.951	84.25
467.171	79.25
467.391	75.25
467.61	80.25
467.829	81.25
468.049	82.25
468.268	88.25
468.488	88.25
468.707	77.25
468.927	80.25
469.146	89.25
469.365	70.25
469.585	88.25
469.804	89.25
470.023	86.25
470.243	71.25
470.462	85.25
470.681	83.25
470.901	85.25
471.12	97.25
471.339	81.25
471.558	87.25
471.777	87.25
471.997	74.25
472.216	75.25
472.435	74.25
472.654	76.25
472.873	79.25
473.092	75.25
473.311	72.25
473.53	74.25
473.749	71.25
473.968	92.25
474.187	85.25
474.406	82.25
474.625	85.25
474.844	80.25
475.063	89.25
475.282	78.25
475.501	75.25
475.72	86.25
475.939	85.25
476.158	83.25
476.377	87.25
476.596	95.25
476.814	73.25
477.033	72.25
477.252	98.25
477.471	74.25
477.69	90.25
477.908	79.25
478.127	100.25
478.346	74.25
478.564	84.25
478.783	71.25
479.002	86.25
479.22	89.25
479.439	85.25
479.658	77.25
479.876	88.25
480.095	86.25
480.313	86.25
480.532	80.25
480.751	94.25
480.969	93.25
481.188	85.25
481.406	86.25
481.624	95.25
481.843	84.25
482.061	82.25
482.28	82.25
482.498	76.25
482.717	79.25
482.935	83.25
483.153	92.25
483.372	86.25
483.59	84.25
483.808	91.25
484.027	95.25
484.245	93.25
484.463	72.25
484.681	91.25
484.9	91.25
485.118	81.25
485.336	94.25
485.554	91.25
485.772	93.25
485.99	87.25
486.209	69.25
486.427	88.25
486.645	81.25
486.863	80.25
487.081	96.25
487.299	88.25
487.517	88.25
487.735	90.25
487.953	90.25
488.171	82.25
488.389	80.25
488.607	81.25
488.825	81.25
489.043	82.25
489.261	80.25
489.479	78.25
489.696	91.25
489.914	81.25
490.132	83.25
490.35	95.25
490.568	85.25
490.786	86.25
491.003	87.25
491.221	96.25
491.439	87.25
491.657	85.25
491.874	87.25
492.092	88.25
492.31	95.25
492.527	79.25
492.745	79.25
492.963	97.25
493.18	96.25
493.398	88.25
493.615	86.25
493.833	75.25
494.05	69.25
494.268	86.25
494.485	86.25
494.703	89.25
494.92	76.25
495.138	91.25
495.355	76.25
495.573	93.25
495.79	80.25
496.008	89.25
496.225	92.25
496.442	79.25
496.66	84.25
496.877	88.25
497.094	90.25
497.312	85.25
497.529	77.25
497.746	71.25
497.963	90.25
498.181	75.25
498.398	82.25
498.615	86.25
498.832	88.25
499.049	86.25
499.267	95.25
499.484	85.25
499.701	86.25
499.918	69.25
500.135	96.25
500.352	77.25
500.569	71.25
500.786	90.25
501.003	83.25
501.22	101.25
501.437	90.25
501.654	62.25
501.871	89.25
502.088	73.25
502.305	88.25
502.522	76.25
502.739	96.25
502.956	73.25
503.172	86.25
503.389	81.25
503.606	91.25
503.823	89.25
504.04	82.25
504.256	96.25
504.473	78.25
504.69	90.25
504.907	88.25
505.123	74.25
505.34	81.25
505.557	85.25
505.773	76.25
505.99	74.25
506.207	72.25
506.423	87.25
506.64	95.25
506.856	95.25
507.073	68.25
507.289	81.25
507.506	69.25
507.722	91.25
507.939	81.25
508.155	77.25
508.372	87.25
508.588	82.25
508.805	82.25
509.021	94.25
509.238	89.25
509.454	99.25
509.67	74.25
509.887	80.25
510.103	77.25
510.319	87.25
510.536	94.25
510.752	73.25
510.968	79.25
511.184	97.25
511.401	89.25
511.617	77.25
511.833	91.25
512.049	88.25
512.265	90.25
512.481	79.25
512.698	83.25
512.914	77.25
513.13	87.25
513.346	80.25
513.562	75.25
513.778	93.25
513.994	78.25
514.21	82.25
514.426	85.25
514.642	93.25
514.858	97.25
515.074	78.25
515.29	89.25
515.506	84.25
515.721	65.25
515.937	87.25
516.153	80.25
516.369	86.25
516.585	91.25
516.801	69.25
517.016	90.25
517.232	99.25
517.448	73.25
517.664	89.25
517.879	85.25
518.095	83.25
518.311	88.25
518.527	90.25
518.742	91.25
518.958	88.25
519.173	86.25
519.389	97.25
519.605	84.25
519.82	89.25
520.036	87.25
520.251	96.25
520.467	83.25
520.682	92.25
520.898	85.25
521.113	80.25
521.329	84.25
521.544	93.25
521.76	95.25
521.975	87.25
522.19	78.25
522.406	73.25
522.621	69.25
522.836	83.25
523.052	80.25
523.267	88.25
523.482	78.25
523.698	88.25
523.913	83.25
524.128	93.25
524.343	95.25
524.559	87.25
524.774	87.25
524.989	94.25
525.204	90.25
525.419	81.25
525.634	90.25
525.849	81.25
526.064	95.25
526.28	93.25
526.495	91.25
526.71	79.25
526.925	72.25
527.14	77.25
527.355	77.25
527.57	88.25
527.785	82.25
527.999	83.25
528.214	99.25
528.429	79.25
528.644	86.25
528.859	76.25
529.074	97.25
529.289	89.25
529.503	91.25
529.718	77.25
529.933	81.25
530.148	88.25
530.363	78.25
530.577	86.25
530.792	90.25
531.007	96.25
531.221	98.25
531.436	85.25
531.651	84.25
531.865	90.25
532.08	85.25
532.295	85.25
532.509	78.25
532.724	93.25
532.938	101.25
533.153	91.25
533.367	88.25
533.582	97.25
533.796	91.25
534.011	84.25
534.225	75.25
534.44	81.25
534.654	83.25
534.868	87.25
535.083	96.25
535.297	86.25
535.511	101.25
535.726	83.25
535.94	93.25
536.154	77.25
536.369	90.25
536.583	89.25
536.797	90.25
537.011	89.25
537.225	69.25
537.44	75.25
537.654	81.25
537.868	90.25
538.082	77.25
538.296	77.25
538.51	79.25
538.724	99.25
538.938	93.25
539.153	90.25
539.367	74.25
539.581	79.25
539.795	84.25
540.009	81.25
540.222	93.25
540.436	85.25
540.65	82.25
540.864	81.25
541.078	84.25
541.292	87.25
541.506	72.25
541.72	74.25
541.934	94.25
542.147	82.25
542.361	102.25
542.575	82.25
542.789	87.25
543.002	71.25
543.216	83.25
543.43	83.25
543.644	79.25
543.857	91.25
544.071	74.25
544.285	85.25
544.498	92.25
544.712	84.25
544.925	81.25
545.139	79.25
545.352	95.25
545.566	86.25
545.779	87.25
545.993	91.25
546.206	80.25
546.42	94.25
546.633	93.25
546.847	93.25
547.06	87.25
547.274	85.25
547.487	104.25
547.7	93.25
547.914	81.25
548.127	94.25
548.34	90.25
548.554	87.25
548.767	87.25
548.98	95.25
549.193	81.25
549.407	84.25
549.62	90.25
549.833	95.25
550.046	80.25
550.259	84.25
550.473	83.25
550.686	79.25
550.899	91.25
551.112	79.25
551.325	81.25
551.538	102.25
551.751	90.25
551.964	78.25
552.177	93.25
552.39	73.25
552.603	67.25
552.816	78.25
553.029	95.25
553.242	89.25
553.455	93.25
553.667	85.25
553.88	87.25
554.093	94.25
554.306	93.25
554.519	86.25
554.732	86.25
554.944	86.25
555.157	80.25
555.37	89.25
555.583	88.25
555.795	87.25
556.008	99.25
556.221	72.25
556.433	99.25
556.646	89.25
556.859	78.25
557.071	82.25
557.284	87.25
557.496	91.25
557.709	83.25
557.921	87.25
558.134	80.25
558.346	101.25
558.559	87.25
558.771	88.25
558.984	86.25
559.196	90.25
559.409	87.25
559.621	83.25
559.833	78.25
560.046	91.25
560.258	77.25
560.47	100.25
560.683	77.25
560.895	79.25
561.107	82.25
561.32	92.25
561.532	81.25
561.744	89.25
561.956	86.25
562.168	95.25
562.381	84.25
562.593	86.25
562.805	95.25
563.017	85.25
563.229	92.25
563.441	85.25
563.653	84.25
563.865	77.25
564.077	89.25
564.289	86.25
564.501	85.25
564.713	86.25
564.925	84.25
565.137	90.25
565.349	88.25
565.561	87.25
565.773	75.25
565.985	106.25
566.197	81.25
566.408	89.25
566.62	80.25
566.832	85.25
567.044	97.25
567.255	77.25
567.467	89.25
567.679	96.25
567.891	103.25
568.102	98.25
568.314	93.25
568.526	88.25
568.737	105.25
568.949	88.25
569.161	97.25
569.372	77.25
569.584	77.25
569.795	81.25
570.007	93.25
570.218	90.25
570.43	81.25
570.641	86.25
570.853	88.25
571.064	81.25
571.276	83.25
571.487	70.25
571.698	86.25
571.91	90.25
572.121	90.25
572.333	82.25
572.544	109.25
572.755	81.25
572.966	86.25
573.178	90.25
573.389	83.25
573.6	90.25
573.811	85.25
574.023	87.25
574.234	80.25
574.445	90.25
574.656	88.25
574.867	81.25
575.078	84.25
575.289	79.25
575.501	95.25
575.712	93.25
575.923	89.25
576.134	77.25
576.345	87.25
576.556	97.25
576.767	88.25
576.978	90.25
577.188	74.25
577.399	82.25
577.61	91.25
577.821	88.25
578.032	82.25
578.243	81.25
578.454	72.25
578.665	69.25
578.875	89.25
579.086	93.25
579.297	95.25
579.508	91.25
579.718	90.25
579.929	89.25
580.14	85.25
580.35	87.25
580.561	90.25
580.772	85.25
580.982	86.25
581.193	86.25
581.403	96.25
581.614	87.25
581.825	75.25
582.035	95.25
582.246	95.25
582.456	93.25
582.667	81.25
582.877	82.25
583.087	84.25
583.298	97.25
583.508	90.25
583.719	84.25
583.929	87.25
584.139	80.25
584.35	86.25
584.56	65.25
584.77	81.25
584.981	80.25
585.191	74.25
585.401	91.25
585.611	93.25
585.821	87.25
586.032	90.25
586.242	78.25
586.452	88.25
586.662	91.25
586.872	99.25
587.082	90.25
587.292	95.25
587.502	81.25
587.713	97.25
587.923	100.25
588.133	89.25
588.343	93.25
588.553	112.25
588.762	138.25
588.972	241.25
589.182	566.25
589.392	311.25
589.602	238.25
589.812	450.25
590.022	218.25
590.232	116.25
590.441	101.25
590.651	91.25
590.861	97.25
591.071	86.25
591.281	83.25
591.49	83.25
591.7	82.25
591.91	95.25
592.119	93.25
592.329	86.25
592.539	65.25
592.748	101.25
592.958	105.25
593.167	91.25
593.377	94.25
593.587	94.25
593.796	89.25
594.006	84.25
594.215	101.25
594.424	77.25
594.634	85.25
594.843	75.25
595.053	90.25
595.262	90.25
595.472	91.25
595.681	88.25
595.89	85.25
596.1	77.25
596.309	94.25
596.518	93.25
596.727	92.25
596.937	80.25
597.146	80.25
597.355	91.25
597.564	78.25
597.774	88.25
597.983	82.25
598.192	88.25
598.401	90.25
598.61	77.25
598.819	81.25
599.028	97.25
599.237	82.25
599.446	75.25
599.655	74.25
599.864	80.25
600.073	92.25
600.282	85.25
600.491	87.25
600.7	84.25
600.909	91.25
601.118	75.25
601.327	75.25
601.536	79.25
601.745	90.25
601.953	79.25
602.162	80.25
602.371	78.25
602.58	98.25
602.789	80.25
602.997	75.25
603.206	79.25
603.415	100.25
603.623	90.25
603.832	86.25
604.041	85.25
604.249	103.25
604.458	92.25
604.666	87.25
604.875	70.25
605.084	84.25
605.292	78.25
605.501	88.25
605.709	76.25
605.918	89.25
606.126	81.25
606.334	82.25
606.543	91.25
606.751	90.25
606.96	85.25
607.168	93.25
607.376	89.25
607.585	82.25
607.793	93.25
608.001	91.25
608.21	80.25
608.418	95.25
608.626	77.25
608.834	90.25
609.043	95.25
609.251	82.25
609.459	83.25
609.667	100.25
609.875	85.25
610.083	82.25
610.291	68.25
610.499	87.25
610.707	80.25
610.916	89.25
611.124	91.25
611.332	97.25
611.54	72.25
611.748	78.25
611.955	97.25
612.163	93.25
612.371	80.25
612.579	89.25
612.787	93.25
612.995	78.25
613.203	91.25
613.411	94.25
613.618	87.25
613.826	84.25
614.034	73.25
614.242	69.25
614.449	94.25
614.657	83.25
614.865	89.25
615.072	78.25
615.28	102.25
615.488	89.25
615.695	73.25
615.903	79.25
616.111	91.25
616.318	91.25
616.526	93.25
616.733	88.25
616.941	84.25
617.148	80.25
617.356	80.25
617.563	90.25
617.771	75.25
617.978	74.25
618.185	85.25
618.393	87.25
618.6	86.25
618.807	89.25
619.015	97.25
619.222	93.25
619.429	107.25
619.637	102.25
619.844	89.25
620.051	81.25
620.258	91.25
620.466	86.25
620.673	91.25
620.88	85.25
621.087	86.25
621.294	85.25
621.501	88.25
621.708	94.25
621.915	89.25
622.122	87.25
622.329	90.25
622.536	81.25
622.743	86.25
622.95	98.25
623.157	86.25
623.364	81.25
623.571	82.25
623.778	73.25
623.985	81.25
624.192	89.25
624.399	107.25
624.606	88.25
624.812	85.25
625.019	89.25
625.226	88.25
625.433	81.25
625.639	93.25
625.846	87.25
626.053	91.25
626.259	94.25
626.466	79.25
626.673	92.25
626.879	82.25
627.086	82.25
627.293	85.25
627.499	93.25
627.706	71.25
627.912	75.25
628.119	82.25
628.325	89.25
628.532	79.25
628.738	82.25
628.945	104.25
629.151	96.25
629.357	79.25
629.564	93.25
629.77	83.25
629.976	85.25
630.183	74.25
630.389	100.25
630.595	97.25
630.802	87.25
631.008	69.25
631.214	83.25
631.42	91.25
631.627	90.25
631.833	87.25
632.039	89.25
632.245	90.25
632.451	90.25
632.657	105.25
632.863	80.25
633.069	93.25
633.275	103.25
633.481	93.25
633.688	78.25
633.893	93.25
634.099	72.25
634.305	90.25
634.511	78.25
634.717	92.25
634.923	86.25
635.129	93.25
635.335	95.25
635.541	91.25
635.747	99.25
635.952	93.25
636.158	74.25
636.364	85.25
636.57	100.25
636.775	91.25
636.981	89.25
637.187	102.25
637.392	87.25
637.598	72.25
637.804	94.25
638.009	76.25
638.215	83.25
638.421	77.25
638.626	76.25
638.832	78.25
639.037	85.25
639.243	86.25
639.448	81.25
639.654	86.25
639.859	82.25
640.065	89.25
640.27	97.25
640.475	96.25
640.681	70.25
640.886	97.25
641.091	80.25
641.297	69.25
641.502	91.25
641.707	78.25
641.913	77.25
642.118	78.25
642.323	97.25
642.528	97.25
642.733	102.25
642.939	89.25
643.144	75.25
643.349	82.25
643.554	77.25
643.759	88.25
643.964	96.25
644.169	96.25
644.374	85.25
644.579	82.25
644.784	83.25
644.989	81.25
645.194	101.25
645.399	82.25
645.604	90.25
645.809	79.25
646.014	89.25
646.219	93.25
646.423	87.25
646.628	82.25
646.833	67.25
647.038	73.25
647.243	100.25
647.447	101.25
647.652	93.25
647.857	94.25
648.062	98.25
648.266	96.25
648.471	88.25
648.676	78.25
648.88	76.25
649.085	94.25
649.289	79.25
649.494	87.25
649.698	98.25
649.903	97.25
650.107	93.25
650.312	71.25
650.516	90.25
650.721	102.25
650.925	78.25
651.13	80.25
651.334	75.25
651.539	81.25
651.743	83.25
651.947	84.25
652.152	93.25
652.356	84.25
652.56	75.25
652.764	79.25
652.969	107.25
653.173	74.25
653.377	77.25
653.581	75.25
653.785	80.25
653.99	78.25
654.194	97.25
654.398	80.25
654.602	72.25
654.806	89.25
655.01	97.25
655.214	78.25
655.418	74.25
655.622	76.25
655.826	74.25
656.03	84.25
656.234	72.25
656.438	77.25
656.642	98.25
656.846	85.25
657.049	81.25
657.253	82.25
657.457	79.25
657.661	74.25
657.865	74.25
658.068	87.25
658.272	85.25
658.476	71.25
658.68	77.25
658.883	74.25
659.087	84.25
659.291	86.25
659.494	78.25
659.698	90.25
659.901	82.25
660.105	80.25
660.309	88.25
660.512	86.25
660.716	73.25
660.919	95.25
661.123	70.25
661.326	83.25
661.53	74.25
661.733	91.25
661.936	90.25
662.14	63.25
662.343	75.25
662.546	91.25
662.75	81.25
662.953	92.25
663.156	93.25
663.36	81.25
663.563	73.25
663.766	91.25
663.969	88.25
664.173	85.25
664.376	73.25
664.579	77.25
664.782	77.25
664.985	81.25
665.188	83.25
665.391	87.25
665.594	92.25
665.797	86.25
666	75.25
666.203	87.25
666.406	85.25
666.609	81.25
666.812	77.25
667.015	81.25
667.218	77.25
667.421	73.25
667.624	80.25
667.827	81.25
668.03	77.25
668.232	73.25
668.435	82.25
668.638	83.25
668.841	93.25
669.043	97.25
669.246	90.25
669.449	97.25
669.651	87.25
669.854	93.25
670.057	77.25
670.259	73.25
670.462	94.25
670.665	80.25
670.867	85.25
671.07	79.25
671.272	95.25
671.475	80.25
671.677	82.25
671.88	98.25
672.082	101.25
672.284	75.25
672.487	96.25
672.689	88.25
672.892	89.25
