Data from Lead_25_1_HRD10591_00020.txt Node
Date: Fri Feb 20 10:59:06 EST 2026
User: Yrep
Spectrometer: HR+D1059
Trigger mode: 1
Integration Time (sec): 1.000000E-1
Scans to average: 1
Electric dark correction enabled: true
Nonlinearity correction enabled: false
Boxcar width: 0
XAxis mode: Wavelengths
Number of Pixels in Spectrum: 2048
>>>>>Begin Spectral Data<<<<<
223.165	-2.94
223.4	-2.94
223.635	-2.94
223.869	-22.94
224.104	-14.94
224.338	-15.94
224.573	-8.94
224.808	-23.94
225.042	-14.94
225.277	-14.94
225.511	-4.94
225.746	11.06
225.98	16.06
226.215	7.06
226.449	17.06
226.683	21.06
226.918	20.06
227.152	32.06
227.387	40.06
227.621	33.06
227.856	44.06
228.09	34.06
228.324	47.06
228.559	45.06
228.793	64.06
229.027	64.06
229.262	63.06
229.496	72.06
229.73	70.06
229.964	71.06
230.199	77.06
230.433	80.06
230.667	73.06
230.901	83.06
231.136	86.06
231.37	86.06
231.604	86.06
231.838	71.06
232.072	73.06
232.306	94.06
232.541	86.06
232.775	69.06
233.009	83.06
233.243	76.06
233.477	76.06
233.711	88.06
233.945	85.06
234.179	87.06
234.413	73.06
234.647	83.06
234.881	89.06
235.115	83.06
235.349	88.06
235.583	75.06
235.817	79.06
236.051	79.06
236.285	77.06
236.519	88.06
236.753	76.06
236.987	66.06
237.221	86.06
237.455	77.06
237.689	92.06
237.922	76.06
238.156	77.06
238.39	79.06
238.624	80.06
238.858	78.06
239.091	92.06
239.325	91.06
239.559	83.06
239.793	86.06
240.027	98.06
240.26	62.06
240.494	91.06
240.728	74.06
240.961	89.06
241.195	87.06
241.429	102.06
241.662	74.06
241.896	85.06
242.13	72.06
242.363	69.06
242.597	80.06
242.83	71.06
243.064	79.06
243.298	87.06
243.531	80.06
243.765	85.06
243.998	84.06
244.232	87.06
244.465	74.06
244.699	96.06
244.932	94.06
245.166	77.06
245.399	77.06
245.633	85.06
245.866	91.06
246.099	71.06
246.333	80.06
246.566	83.06
246.8	83.06
247.033	86.06
247.266	84.06
247.5	73.06
247.733	93.06
247.966	91.06
248.2	104.06
248.433	85.06
248.666	78.06
248.899	83.06
249.133	63.06
249.366	99.06
249.599	85.06
249.832	73.06
250.066	91.06
250.299	79.06
250.532	94.06
250.765	88.06
250.998	107.06
251.231	99.06
251.465	97.06
251.698	107.06
251.931	107.06
252.164	109.06
252.397	101.06
252.63	113.06
252.863	93.06
253.096	100.06
253.329	96.06
253.562	85.06
253.795	87.06
254.028	92.06
254.261	92.06
254.494	80.06
254.727	89.06
254.96	111.06
255.193	99.06
255.426	73.06
255.659	85.06
255.892	103.06
256.124	82.06
256.357	86.06
256.59	98.06
256.823	89.06
257.056	91.06
257.289	92.06
257.521	92.06
257.754	92.06
257.987	101.06
258.22	101.06
258.452	100.06
258.685	91.06
258.918	93.06
259.151	88.06
259.383	92.06
259.616	88.06
259.849	85.06
260.081	85.06
260.314	104.06
260.547	96.06
260.779	98.06
261.012	108.06
261.244	127.06
261.477	143.06
261.71	135.06
261.942	104.06
262.175	99.06
262.407	97.06
262.64	85.06
262.872	108.06
263.105	104.06
263.337	102.06
263.57	86.06
263.802	93.06
264.035	91.06
264.267	103.06
264.499	93.06
264.732	99.06
264.964	101.06
265.197	98.06
265.429	98.06
265.661	103.06
265.894	94.06
266.126	91.06
266.358	109.06
266.591	116.06
266.823	112.06
267.055	96.06
267.287	96.06
267.52	108.06
267.752	91.06
267.984	87.06
268.216	102.06
268.448	99.06
268.681	99.06
268.913	94.06
269.145	86.06
269.377	92.06
269.609	87.06
269.841	100.06
270.073	99.06
270.306	97.06
270.538	94.06
270.77	95.06
271.002	102.06
271.234	100.06
271.466	91.06
271.698	89.06
271.93	104.06
272.162	108.06
272.394	101.06
272.626	91.06
272.858	91.06
273.09	101.06
273.322	97.06
273.553	88.06
273.785	93.06
274.017	90.06
274.249	86.06
274.481	96.06
274.713	104.06
274.945	105.06
275.176	102.06
275.408	103.06
275.64	105.06
275.872	83.06
276.104	99.06
276.335	91.06
276.567	96.06
276.799	91.06
277.031	95.06
277.262	100.06
277.494	100.06
277.726	109.06
277.957	97.06
278.189	93.06
278.421	101.06
278.652	95.06
278.884	105.06
279.115	93.06
279.347	115.06
279.579	133.06
279.81	141.06
280.042	172.06
280.273	185.06
280.505	167.06
280.736	134.06
280.968	115.06
281.199	112.06
281.431	116.06
281.662	99.06
281.894	107.06
282.125	111.06
282.356	132.06
282.588	126.06
282.819	114.06
283.051	123.06
283.282	144.06
283.513	154.06
283.745	132.06
283.976	121.06
284.207	107.06
284.439	111.06
284.67	111.06
284.901	102.06
285.132	107.06
285.364	91.06
285.595	99.06
285.826	94.06
286.057	103.06
286.288	106.06
286.52	97.06
286.751	120.06
286.982	110.06
287.213	131.06
287.444	118.06
287.675	130.06
287.906	113.06
288.138	140.06
288.369	129.06
288.6	120.06
288.831	103.06
289.062	109.06
289.293	108.06
289.524	97.06
289.755	99.06
289.986	101.06
290.217	91.06
290.448	103.06
290.679	103.06
290.91	118.06
291.141	98.06
291.371	103.06
291.602	116.06
291.833	104.06
292.064	105.06
292.295	98.06
292.526	95.06
292.757	113.06
292.987	104.06
293.218	83.06
293.449	102.06
293.68	115.06
293.91	107.06
294.141	95.06
294.372	88.06
294.603	87.06
294.833	114.06
295.064	103.06
295.295	106.06
295.525	100.06
295.756	101.06
295.987	100.06
296.217	88.06
296.448	105.06
296.679	98.06
296.909	118.06
297.14	96.06
297.37	104.06
297.601	105.06
297.831	113.06
298.062	107.06
298.292	105.06
298.523	110.06
298.753	100.06
298.984	95.06
299.214	107.06
299.445	96.06
299.675	99.06
299.905	99.06
300.136	97.06
300.366	115.06
300.597	117.06
300.827	101.06
301.057	102.06
301.288	114.06
301.518	110.06
301.748	96.06
301.979	127.06
302.209	106.06
302.439	93.06
302.669	107.06
302.9	113.06
303.13	109.06
303.36	110.06
303.59	126.06
303.82	94.06
304.051	114.06
304.281	109.06
304.511	116.06
304.741	117.06
304.971	112.06
305.201	113.06
305.431	99.06
305.661	115.06
305.891	111.06
306.121	101.06
306.352	115.06
306.582	99.06
306.812	109.06
307.042	112.06
307.272	116.06
307.502	104.06
307.731	103.06
307.961	118.06
308.191	137.06
308.421	142.06
308.651	130.06
308.881	119.06
309.111	131.06
309.341	164.06
309.571	137.06
309.8	122.06
310.03	102.06
310.26	110.06
310.49	102.06
310.72	109.06
310.949	102.06
311.179	111.06
311.409	108.06
311.639	105.06
311.868	107.06
312.098	112.06
312.328	119.06
312.557	95.06
312.787	112.06
313.017	105.06
313.246	107.06
313.476	105.06
313.706	104.06
313.935	107.06
314.165	101.06
314.394	112.06
314.624	116.06
314.853	116.06
315.083	119.06
315.312	110.06
315.542	117.06
315.771	127.06
316.001	119.06
316.23	111.06
316.46	115.06
316.689	100.06
316.919	110.06
317.148	124.06
317.377	125.06
317.607	130.06
317.836	130.06
318.065	136.06
318.295	124.06
318.524	123.06
318.753	117.06
318.983	102.06
319.212	115.06
319.441	116.06
319.67	130.06
319.9	95.06
320.129	118.06
320.358	97.06
320.587	105.06
320.816	100.06
321.046	113.06
321.275	95.06
321.504	109.06
321.733	99.06
321.962	117.06
322.191	96.06
322.42	101.06
322.649	110.06
322.878	119.06
323.108	115.06
323.337	112.06
323.566	96.06
323.795	110.06
324.024	113.06
324.253	101.06
324.482	116.06
324.71	122.06
324.939	109.06
325.168	121.06
325.397	103.06
325.626	112.06
325.855	99.06
326.084	123.06
326.313	124.06
326.542	131.06
326.77	119.06
326.999	110.06
327.228	104.06
327.457	107.06
327.686	108.06
327.914	112.06
328.143	119.06
328.372	94.06
328.6	99.06
328.829	95.06
329.058	102.06
329.287	102.06
329.515	108.06
329.744	113.06
329.972	112.06
330.201	124.06
330.43	119.06
330.658	121.06
330.887	109.06
331.115	113.06
331.344	114.06
331.572	118.06
331.801	112.06
332.03	105.06
332.258	117.06
332.486	101.06
332.715	101.06
332.943	108.06
333.172	118.06
333.4	126.06
333.629	108.06
333.857	111.06
334.085	110.06
334.314	121.06
334.542	113.06
334.771	108.06
334.999	108.06
335.227	120.06
335.455	103.06
335.684	111.06
335.912	121.06
336.14	115.06
336.369	121.06
336.597	125.06
336.825	113.06
337.053	122.06
337.281	109.06
337.51	100.06
337.738	103.06
337.966	128.06
338.194	115.06
338.422	128.06
338.65	126.06
338.878	122.06
339.106	124.06
339.334	116.06
339.562	101.06
339.79	102.06
340.018	103.06
340.246	92.06
340.474	119.06
340.702	123.06
340.93	104.06
341.158	120.06
341.386	89.06
341.614	123.06
341.842	123.06
342.07	118.06
342.298	105.06
342.526	117.06
342.754	119.06
342.981	110.06
343.209	108.06
343.437	115.06
343.665	107.06
343.893	118.06
344.12	125.06
344.348	114.06
344.576	117.06
344.804	97.06
345.031	114.06
345.259	109.06
345.487	110.06
345.714	120.06
345.942	121.06
346.17	115.06
346.397	103.06
346.625	114.06
346.853	108.06
347.08	110.06
347.308	109.06
347.535	110.06
347.763	100.06
347.99	104.06
348.218	119.06
348.445	103.06
348.673	88.06
348.9	94.06
349.128	111.06
349.355	96.06
349.583	111.06
349.81	113.06
350.037	121.06
350.265	120.06
350.492	109.06
350.72	111.06
350.947	96.06
351.174	107.06
351.402	107.06
351.629	94.06
351.856	104.06
352.083	109.06
352.311	122.06
352.538	95.06
352.765	115.06
352.992	107.06
353.22	109.06
353.447	130.06
353.674	117.06
353.901	120.06
354.128	123.06
354.355	103.06
354.583	126.06
354.81	117.06
355.037	127.06
355.264	117.06
355.491	110.06
355.718	99.06
355.945	117.06
356.172	115.06
356.399	127.06
356.626	126.06
356.853	133.06
357.08	162.06
357.307	224.06
357.534	199.06
357.761	142.06
357.988	143.06
358.215	124.06
358.441	114.06
358.668	122.06
358.895	117.06
359.122	118.06
359.349	127.06
359.576	127.06
359.802	124.06
360.029	112.06
360.256	114.06
360.483	122.06
360.709	124.06
360.936	117.06
361.163	114.06
361.39	125.06
361.616	122.06
361.843	116.06
362.07	121.06
362.296	112.06
362.523	125.06
362.749	126.06
362.976	124.06
363.203	133.06
363.429	152.06
363.656	185.06
363.882	266.06
364.109	292.06
364.335	205.06
364.562	146.06
364.788	132.06
365.015	120.06
365.241	117.06
365.468	134.06
365.694	113.06
365.92	112.06
366.147	120.06
366.373	129.06
366.599	121.06
366.826	133.06
367.052	140.06
367.278	141.06
367.505	139.06
367.731	149.06
367.957	189.06
368.184	289.06
368.41	405.06
368.636	326.06
368.862	187.06
369.089	140.06
369.315	127.06
369.541	117.06
369.767	138.06
369.993	117.06
370.219	119.06
370.445	112.06
370.672	116.06
370.898	127.06
371.124	114.06
371.35	118.06
371.576	129.06
371.802	126.06
372.028	116.06
372.254	126.06
372.48	117.06
372.706	121.06
372.932	129.06
373.158	131.06
373.384	141.06
373.61	152.06
373.835	218.06
374.061	235.06
374.287	203.06
374.513	143.06
374.739	137.06
374.965	117.06
375.191	127.06
375.416	120.06
375.642	126.06
375.868	125.06
376.094	111.06
376.319	119.06
376.545	121.06
376.771	102.06
376.997	119.06
377.222	108.06
377.448	115.06
377.674	129.06
377.899	123.06
378.125	121.06
378.35	145.06
378.576	128.06
378.802	121.06
379.027	111.06
379.253	117.06
379.478	107.06
379.704	125.06
379.929	109.06
380.155	120.06
380.38	122.06
380.606	119.06
380.831	124.06
381.057	136.06
381.282	125.06
381.507	113.06
381.733	125.06
381.958	125.06
382.184	133.06
382.409	124.06
382.634	120.06
382.86	134.06
383.085	120.06
383.31	143.06
383.535	140.06
383.761	117.06
383.986	112.06
384.211	123.06
384.436	113.06
384.662	126.06
384.887	122.06
385.112	112.06
385.337	144.06
385.562	136.06
385.787	131.06
386.013	139.06
386.238	125.06
386.463	126.06
386.688	127.06
386.913	124.06
387.138	112.06
387.363	124.06
387.588	132.06
387.813	135.06
388.038	113.06
388.263	129.06
388.488	131.06
388.713	127.06
388.938	128.06
389.163	124.06
389.387	120.06
389.612	123.06
389.837	139.06
390.062	135.06
390.287	129.06
390.512	127.06
390.736	136.06
390.961	128.06
391.186	125.06
391.411	127.06
391.636	142.06
391.86	136.06
392.085	135.06
392.31	137.06
392.534	132.06
392.759	175.06
392.984	234.06
393.208	334.06
393.433	460.06
393.658	329.06
393.882	189.06
394.107	181.06
394.331	205.06
394.556	242.06
394.78	171.06
395.005	136.06
395.229	134.06
395.454	145.06
395.678	148.06
395.903	196.06
396.127	282.06
396.352	303.06
396.576	263.06
396.801	326.06
397.025	334.06
397.249	201.06
397.474	150.06
397.698	141.06
397.922	136.06
398.147	141.06
398.371	136.06
398.595	115.06
398.82	143.06
399.044	132.06
399.268	115.06
399.492	131.06
399.717	126.06
399.941	141.06
400.165	121.06
400.389	132.06
400.613	140.06
400.837	143.06
401.062	138.06
401.286	124.06
401.51	136.06
401.734	133.06
401.958	137.06
402.182	151.06
402.406	151.06
402.63	136.06
402.854	112.06
403.078	131.06
403.302	152.06
403.526	128.06
403.75	152.06
403.974	166.06
404.198	149.06
404.422	189.06
404.645	199.06
404.869	196.06
405.093	195.06
405.317	221.06
405.541	335.06
405.765	561.06
405.988	616.06
406.212	350.06
406.436	236.06
406.66	165.06
406.883	164.06
407.107	162.06
407.331	152.06
407.555	155.06
407.778	164.06
408.002	148.06
408.226	134.06
408.449	140.06
408.673	140.06
408.896	138.06
409.12	131.06
409.344	144.06
409.567	150.06
409.791	138.06
410.014	132.06
410.238	141.06
410.461	136.06
410.685	129.06
410.908	133.06
411.132	125.06
411.355	135.06
411.578	128.06
411.802	121.06
412.025	135.06
412.249	118.06
412.472	147.06
412.695	127.06
412.919	134.06
413.142	130.06
413.365	132.06
413.589	138.06
413.812	124.06
414.035	131.06
414.258	113.06
414.482	120.06
414.705	130.06
414.928	129.06
415.151	146.06
415.374	122.06
415.597	140.06
415.821	129.06
416.044	125.06
416.267	117.06
416.49	131.06
416.713	134.06
416.936	145.06
417.159	136.06
417.382	111.06
417.605	127.06
417.828	131.06
418.051	128.06
418.274	133.06
418.497	121.06
418.72	132.06
418.943	134.06
419.166	142.06
419.389	136.06
419.611	137.06
419.834	124.06
420.057	135.06
420.28	127.06
420.503	120.06
420.726	111.06
420.948	119.06
421.171	149.06
421.394	112.06
421.617	142.06
421.839	140.06
422.062	151.06
422.285	148.06
422.507	183.06
422.73	230.06
422.953	215.06
423.175	137.06
423.398	151.06
423.621	141.06
423.843	138.06
424.066	145.06
424.288	152.06
424.511	189.06
424.733	201.06
424.956	176.06
425.178	153.06
425.401	155.06
425.623	152.06
425.846	142.06
426.068	137.06
426.291	143.06
426.513	146.06
426.735	148.06
426.958	149.06
427.18	130.06
427.402	142.06
427.625	142.06
427.847	130.06
428.069	133.06
428.292	149.06
428.514	123.06
428.736	144.06
428.958	152.06
429.181	125.06
429.403	130.06
429.625	138.06
429.847	121.06
430.069	141.06
430.292	144.06
430.514	133.06
430.736	141.06
430.958	139.06
431.18	138.06
431.402	125.06
431.624	117.06
431.846	131.06
432.068	120.06
432.29	124.06
432.512	131.06
432.734	140.06
432.956	123.06
433.178	139.06
433.4	130.06
433.622	135.06
433.844	134.06
434.066	143.06
434.287	150.06
434.509	127.06
434.731	131.06
434.953	132.06
435.175	121.06
435.397	122.06
435.618	119.06
435.84	136.06
436.062	127.06
436.284	122.06
436.505	139.06
436.727	138.06
436.949	144.06
437.17	136.06
437.392	125.06
437.614	127.06
437.835	140.06
438.057	116.06
438.278	152.06
438.5	143.06
438.721	177.06
438.943	178.06
439.165	177.06
439.386	151.06
439.608	142.06
439.829	141.06
440.05	139.06
440.272	137.06
440.493	141.06
440.715	164.06
440.936	162.06
441.158	175.06
441.379	162.06
441.6	147.06
441.822	139.06
442.043	164.06
442.264	135.06
442.486	137.06
442.707	141.06
442.928	135.06
443.149	132.06
443.371	153.06
443.592	136.06
443.813	139.06
444.034	115.06
444.255	136.06
444.476	144.06
444.698	134.06
444.919	150.06
445.14	230.06
445.361	172.06
445.582	151.06
445.803	156.06
446.024	129.06
446.245	130.06
446.466	130.06
446.687	137.06
446.908	127.06
447.129	128.06
447.35	127.06
447.571	109.06
447.792	131.06
448.013	134.06
448.234	129.06
448.455	115.06
448.675	140.06
448.896	138.06
449.117	136.06
449.338	128.06
449.559	131.06
449.779	118.06
450	115.06
450.221	124.06
450.442	112.06
450.662	111.06
450.883	121.06
451.104	116.06
451.324	134.06
451.545	118.06
451.766	115.06
451.986	119.06
452.207	121.06
452.428	123.06
452.648	128.06
452.869	119.06
453.089	129.06
453.31	118.06
453.53	132.06
453.751	118.06
453.971	123.06
454.192	128.06
454.412	125.06
454.633	109.06
454.853	114.06
455.073	100.06
455.294	104.06
455.514	123.06
455.734	118.06
455.955	104.06
456.175	121.06
456.395	111.06
456.616	108.06
456.836	114.06
457.056	130.06
457.276	116.06
457.497	121.06
457.717	125.06
457.937	142.06
458.157	115.06
458.377	113.06
458.598	127.06
458.818	125.06
459.038	119.06
459.258	116.06
459.478	129.06
459.698	112.06
459.918	134.06
460.138	121.06
460.358	132.06
460.578	125.06
460.798	126.06
461.018	121.06
461.238	132.06
461.458	122.06
461.678	126.06
461.898	140.06
462.118	116.06
462.338	130.06
462.558	137.06
462.777	132.06
462.997	143.06
463.217	143.06
463.437	131.06
463.657	130.06
463.876	133.06
464.096	136.06
464.316	148.06
464.536	127.06
464.755	125.06
464.975	133.06
465.195	116.06
465.414	140.06
465.634	134.06
465.854	133.06
466.073	126.06
466.293	130.06
466.512	142.06
466.732	134.06
466.951	127.06
467.171	129.06
467.391	114.06
467.61	115.06
467.829	119.06
468.049	120.06
468.268	124.06
468.488	130.06
468.707	137.06
468.927	131.06
469.146	122.06
469.365	122.06
469.585	114.06
469.804	125.06
470.023	129.06
470.243	134.06
470.462	130.06
470.681	140.06
470.901	147.06
471.12	119.06
471.339	125.06
471.558	125.06
471.777	135.06
471.997	132.06
472.216	115.06
472.435	131.06
472.654	109.06
472.873	125.06
473.092	135.06
473.311	126.06
473.53	132.06
473.749	133.06
473.968	123.06
474.187	133.06
474.406	124.06
474.625	113.06
474.844	127.06
475.063	141.06
475.282	124.06
475.501	110.06
475.72	125.06
475.939	129.06
476.158	120.06
476.377	110.06
476.596	134.06
476.814	146.06
477.033	123.06
477.252	139.06
477.471	129.06
477.69	129.06
477.908	131.06
478.127	128.06
478.346	132.06
478.564	120.06
478.783	137.06
479.002	132.06
479.22	133.06
479.439	141.06
479.658	147.06
479.876	135.06
480.095	136.06
480.313	140.06
480.532	135.06
480.751	136.06
480.969	129.06
481.188	131.06
481.406	123.06
481.624	127.06
481.843	118.06
482.061	133.06
482.28	131.06
482.498	135.06
482.717	131.06
482.935	143.06
483.153	129.06
483.372	134.06
483.59	141.06
483.808	130.06
484.027	127.06
484.245	132.06
484.463	133.06
484.681	134.06
484.9	129.06
485.118	131.06
485.336	116.06
485.554	130.06
485.772	124.06
485.99	132.06
486.209	128.06
486.427	145.06
486.645	126.06
486.863	140.06
487.081	133.06
487.299	145.06
487.517	138.06
487.735	143.06
487.953	142.06
488.171	148.06
488.389	146.06
488.607	128.06
488.825	128.06
489.043	136.06
489.261	133.06
489.479	140.06
489.696	113.06
489.914	134.06
490.132	141.06
490.35	138.06
490.568	143.06
490.786	130.06
491.003	129.06
491.221	132.06
491.439	129.06
491.657	133.06
491.874	155.06
492.092	125.06
492.31	148.06
492.527	141.06
492.745	162.06
492.963	155.06
493.18	130.06
493.398	150.06
493.615	134.06
493.833	131.06
494.05	134.06
494.268	128.06
494.485	143.06
494.703	142.06
494.92	133.06
495.138	143.06
495.355	127.06
495.573	140.06
495.79	157.06
496.008	152.06
496.225	130.06
496.442	125.06
496.66	147.06
496.877	149.06
497.094	160.06
497.312	145.06
497.529	140.06
497.746	152.06
497.963	157.06
498.181	157.06
498.398	154.06
498.615	156.06
498.832	172.06
499.049	172.06
499.267	180.06
499.484	180.06
499.701	168.06
499.918	168.06
500.135	169.06
500.352	180.06
500.569	195.06
500.786	237.06
501.003	207.06
501.22	191.06
501.437	167.06
501.654	185.06
501.871	172.06
502.088	159.06
502.305	156.06
502.522	161.06
502.739	163.06
502.956	144.06
503.172	164.06
503.389	162.06
503.606	162.06
503.823	155.06
504.04	164.06
504.256	161.06
504.473	151.06
504.69	160.06
504.907	153.06
505.123	161.06
505.34	150.06
505.557	155.06
505.773	151.06
505.99	153.06
506.207	141.06
506.423	145.06
506.64	151.06
506.856	136.06
507.073	121.06
507.289	149.06
507.506	140.06
507.722	141.06
507.939	151.06
508.155	151.06
508.372	143.06
508.588	149.06
508.805	130.06
509.021	119.06
509.238	127.06
509.454	137.06
509.67	132.06
509.887	127.06
510.103	143.06
510.319	140.06
510.536	141.06
510.752	131.06
510.968	127.06
511.184	136.06
511.401	137.06
511.617	121.06
511.833	133.06
512.049	125.06
512.265	128.06
512.481	148.06
512.698	137.06
512.914	144.06
513.13	118.06
513.346	140.06
513.562	140.06
513.778	133.06
513.994	131.06
514.21	127.06
514.426	137.06
514.642	129.06
514.858	140.06
515.074	119.06
515.29	147.06
515.506	133.06
515.721	131.06
515.937	127.06
516.153	140.06
516.369	125.06
516.585	134.06
516.801	141.06
517.016	126.06
517.232	139.06
517.448	131.06
517.664	149.06
517.879	147.06
518.095	151.06
518.311	134.06
518.527	136.06
518.742	133.06
518.958	143.06
519.173	134.06
519.389	138.06
519.605	118.06
519.82	139.06
520.036	137.06
520.251	145.06
520.467	130.06
520.682	127.06
520.898	120.06
521.113	134.06
521.329	118.06
521.544	113.06
521.76	118.06
521.975	132.06
522.19	121.06
522.406	137.06
522.621	134.06
522.836	137.06
523.052	155.06
523.267	138.06
523.482	134.06
523.698	139.06
523.913	116.06
524.128	133.06
524.343	113.06
524.559	132.06
524.774	116.06
524.989	104.06
525.204	119.06
525.419	129.06
525.634	132.06
525.849	136.06
526.064	130.06
526.28	136.06
526.495	149.06
526.71	130.06
526.925	140.06
527.14	136.06
527.355	131.06
527.57	130.06
527.785	116.06
527.999	115.06
528.214	119.06
528.429	137.06
528.644	127.06
528.859	122.06
529.074	120.06
529.289	117.06
529.503	122.06
529.718	135.06
529.933	137.06
530.148	130.06
530.363	129.06
530.577	133.06
530.792	135.06
531.007	120.06
531.221	133.06
531.436	122.06
531.651	113.06
531.865	117.06
532.08	151.06
532.295	128.06
532.509	119.06
532.724	123.06
532.938	126.06
533.153	150.06
533.367	121.06
533.582	120.06
533.796	132.06
534.011	127.06
534.225	136.06
534.44	131.06
534.654	124.06
534.868	127.06
535.083	132.06
535.297	139.06
535.511	120.06
535.726	132.06
535.94	137.06
536.154	107.06
536.369	128.06
536.583	120.06
536.797	133.06
537.011	145.06
537.225	147.06
537.44	164.06
537.654	147.06
537.868	137.06
538.082	142.06
538.296	134.06
538.51	129.06
538.724	119.06
538.938	125.06
539.153	131.06
539.367	128.06
539.581	137.06
539.795	118.06
540.009	128.06
540.222	117.06
540.436	115.06
540.65	131.06
540.864	124.06
541.078	127.06
541.292	128.06
541.506	139.06
541.72	142.06
541.934	129.06
542.147	140.06
542.361	118.06
542.575	108.06
542.789	133.06
543.002	124.06
543.216	131.06
543.43	111.06
543.644	126.06
543.857	130.06
544.071	136.06
544.285	132.06
544.498	118.06
544.712	135.06
544.925	123.06
545.139	129.06
545.352	143.06
545.566	134.06
545.779	129.06
545.993	122.06
546.206	120.06
546.42	123.06
546.633	125.06
546.847	118.06
547.06	119.06
547.274	127.06
547.487	130.06
547.7	118.06
547.914	144.06
548.127	128.06
548.34	120.06
548.554	130.06
548.767	147.06
548.98	143.06
549.193	111.06
549.407	130.06
549.62	133.06
549.833	126.06
550.046	116.06
550.259	123.06
550.473	125.06
550.686	128.06
550.899	116.06
551.112	126.06
551.325	129.06
551.538	118.06
551.751	123.06
551.964	119.06
552.177	108.06
552.39	131.06
552.603	120.06
552.816	122.06
553.029	120.06
553.242	126.06
553.455	143.06
553.667	136.06
553.88	140.06
554.093	115.06
554.306	134.06
554.519	121.06
554.732	119.06
554.944	133.06
555.157	116.06
555.37	147.06
555.583	128.06
555.795	134.06
556.008	109.06
556.221	123.06
556.433	127.06
556.646	123.06
556.859	122.06
557.071	119.06
557.284	119.06
557.496	116.06
557.709	135.06
557.921	138.06
558.134	142.06
558.346	139.06
558.559	135.06
558.771	140.06
558.984	153.06
559.196	161.06
559.409	140.06
559.621	152.06
559.833	129.06
560.046	139.06
560.258	152.06
560.47	168.06
560.683	199.06
560.895	212.06
561.107	249.06
561.32	206.06
561.532	157.06
561.744	155.06
561.956	137.06
562.168	123.06
562.381	130.06
562.593	137.06
562.805	116.06
563.017	113.06
563.229	124.06
563.441	135.06
563.653	130.06
563.865	123.06
564.077	125.06
564.289	116.06
564.501	129.06
564.713	146.06
564.925	135.06
565.137	136.06
565.349	131.06
565.561	135.06
565.773	129.06
565.985	123.06
566.197	122.06
566.408	136.06
566.62	131.06
566.832	153.06
567.044	132.06
567.255	139.06
567.467	129.06
567.679	139.06
567.891	146.06
568.102	141.06
568.314	136.06
568.526	139.06
568.737	129.06
568.949	136.06
569.161	131.06
569.372	127.06
569.584	136.06
569.795	119.06
570.007	117.06
570.218	120.06
570.43	123.06
570.641	117.06
570.853	120.06
571.064	114.06
571.276	123.06
571.487	117.06
571.698	117.06
571.91	133.06
572.121	110.06
572.333	121.06
572.544	127.06
572.755	120.06
572.966	112.06
573.178	120.06
573.389	104.06
573.6	111.06
573.811	109.06
574.023	103.06
574.234	118.06
574.445	109.06
574.656	121.06
574.867	124.06
575.078	112.06
575.289	121.06
575.501	116.06
575.712	104.06
575.923	112.06
576.134	123.06
576.345	104.06
576.556	123.06
576.767	120.06
576.978	116.06
577.188	115.06
577.399	112.06
577.61	102.06
577.821	112.06
578.032	103.06
578.243	110.06
578.454	113.06
578.665	117.06
578.875	116.06
579.086	127.06
579.297	100.06
579.508	115.06
579.718	104.06
579.929	116.06
580.14	112.06
580.35	108.06
580.561	123.06
580.772	117.06
580.982	104.06
581.193	94.06
581.403	112.06
581.614	114.06
581.825	111.06
582.035	120.06
582.246	104.06
582.456	119.06
582.667	115.06
582.877	102.06
583.087	121.06
583.298	107.06
583.508	114.06
583.719	107.06
583.929	120.06
584.139	118.06
584.35	111.06
584.56	103.06
584.77	116.06
584.981	98.06
585.191	110.06
585.401	113.06
585.611	104.06
585.821	107.06
586.032	113.06
586.242	117.06
586.452	114.06
586.662	104.06
586.872	94.06
587.082	117.06
587.292	113.06
587.502	110.06
587.713	103.06
587.923	125.06
588.133	123.06
588.343	127.06
588.553	135.06
588.762	175.06
588.972	279.06
589.182	683.06
589.392	481.06
589.602	353.06
589.812	571.06
590.022	335.06
590.232	166.06
590.441	143.06
590.651	135.06
590.861	115.06
591.071	112.06
591.281	116.06
591.49	103.06
591.7	104.06
591.91	104.06
592.119	114.06
592.329	117.06
592.539	117.06
592.748	99.06
592.958	97.06
593.167	100.06
593.377	115.06
593.587	119.06
593.796	97.06
594.006	103.06
594.215	118.06
594.424	108.06
594.634	111.06
594.843	105.06
595.053	98.06
595.262	109.06
595.472	109.06
595.681	111.06
595.89	119.06
596.1	105.06
596.309	111.06
596.518	112.06
596.727	104.06
596.937	97.06
597.146	103.06
597.355	108.06
597.564	116.06
597.774	113.06
597.983	105.06
598.192	88.06
598.401	107.06
598.61	101.06
598.819	104.06
599.028	96.06
599.237	102.06
599.446	112.06
599.655	119.06
599.864	107.06
600.073	115.06
600.282	105.06
600.491	100.06
600.7	105.06
600.909	88.06
601.118	114.06
601.327	107.06
601.536	104.06
601.745	111.06
601.953	132.06
602.162	105.06
602.371	100.06
602.58	101.06
602.789	110.06
602.997	109.06
603.206	107.06
603.415	109.06
603.623	104.06
603.832	93.06
604.041	103.06
604.249	89.06
604.458	116.06
604.666	91.06
604.875	107.06
605.084	115.06
605.292	100.06
605.501	98.06
605.709	116.06
605.918	111.06
606.126	107.06
606.334	107.06
606.543	96.06
606.751	96.06
606.96	98.06
607.168	103.06
607.376	112.06
607.585	109.06
607.793	103.06
608.001	99.06
608.21	108.06
608.418	104.06
608.626	107.06
608.834	109.06
609.043	110.06
609.251	123.06
609.459	123.06
609.667	101.06
609.875	118.06
610.083	99.06
610.291	101.06
610.499	101.06
610.707	113.06
610.916	106.06
611.124	109.06
611.332	104.06
611.54	112.06
611.748	78.06
611.955	117.06
612.163	115.06
612.371	115.06
612.579	124.06
612.787	112.06
612.995	108.06
613.203	102.06
613.411	93.06
613.618	87.06
613.826	104.06
614.034	104.06
614.242	94.06
614.449	117.06
614.657	100.06
614.865	102.06
615.072	99.06
615.28	101.06
615.488	124.06
615.695	104.06
615.903	108.06
616.111	113.06
616.318	114.06
616.526	124.06
616.733	98.06
616.941	103.06
617.148	104.06
617.356	108.06
617.563	118.06
617.771	112.06
617.978	97.06
618.185	104.06
618.393	91.06
618.6	96.06
618.807	107.06
619.015	98.06
619.222	87.06
619.429	92.06
619.637	105.06
619.844	102.06
620.051	105.06
620.258	95.06
620.466	99.06
620.673	114.06
620.88	115.06
621.087	94.06
621.294	107.06
621.501	99.06
621.708	95.06
621.915	104.06
622.122	112.06
622.329	99.06
622.536	104.06
622.743	100.06
622.95	85.06
623.157	99.06
623.364	98.06
623.571	111.06
623.778	109.06
623.985	107.06
624.192	105.06
624.399	100.06
624.606	107.06
624.812	101.06
625.019	97.06
625.226	109.06
625.433	111.06
625.639	112.06
625.846	99.06
626.053	92.06
626.259	99.06
626.466	100.06
626.673	97.06
626.879	105.06
627.086	107.06
627.293	97.06
627.499	95.06
627.706	104.06
627.912	96.06
628.119	91.06
628.325	104.06
628.532	107.06
628.738	93.06
628.945	96.06
629.151	105.06
629.357	95.06
629.564	97.06
629.77	92.06
629.976	104.06
630.183	87.06
630.389	93.06
630.595	70.06
630.802	101.06
631.008	103.06
631.214	93.06
631.42	105.06
631.627	96.06
631.833	110.06
632.039	91.06
632.245	95.06
632.451	102.06
632.657	96.06
632.863	104.06
633.069	98.06
633.275	93.06
633.481	97.06
633.688	96.06
633.893	117.06
634.099	97.06
634.305	109.06
634.511	97.06
634.717	115.06
634.923	85.06
635.129	97.06
635.335	92.06
635.541	95.06
635.747	104.06
635.952	107.06
636.158	109.06
636.364	85.06
636.57	92.06
636.775	94.06
636.981	100.06
637.187	95.06
637.392	100.06
637.598	87.06
637.804	94.06
638.009	99.06
638.215	86.06
638.421	95.06
638.626	104.06
638.832	93.06
639.037	103.06
639.243	100.06
639.448	95.06
639.654	92.06
639.859	101.06
640.065	98.06
640.27	88.06
640.475	95.06
640.681	93.06
640.886	94.06
641.091	88.06
641.297	97.06
641.502	93.06
641.707	108.06
641.913	85.06
642.118	86.06
642.323	81.06
642.528	90.06
642.733	85.06
642.939	88.06
643.144	93.06
643.349	86.06
643.554	86.06
643.759	91.06
643.964	104.06
644.169	107.06
644.374	91.06
644.579	87.06
644.784	103.06
644.989	102.06
645.194	85.06
645.399	100.06
645.604	96.06
645.809	95.06
646.014	95.06
646.219	82.06
646.423	108.06
646.628	111.06
646.833	107.06
647.038	103.06
647.243	97.06
647.447	86.06
647.652	86.06
647.857	91.06
648.062	101.06
648.266	82.06
648.471	93.06
648.676	91.06
648.88	98.06
649.085	104.06
649.289	96.06
649.494	98.06
649.698	98.06
649.903	96.06
650.107	98.06
650.312	104.06
650.516	89.06
650.721	106.06
650.925	99.06
651.13	85.06
651.334	89.06
651.539	95.06
651.743	95.06
651.947	93.06
652.152	93.06
652.356	97.06
652.56	80.06
652.764	84.06
652.969	90.06
653.173	89.06
653.377	83.06
653.581	86.06
653.785	90.06
653.99	87.06
654.194	89.06
654.398	82.06
654.602	95.06
654.806	87.06
655.01	88.06
655.214	88.06
655.418	103.06
655.622	105.06
655.826	102.06
656.03	89.06
656.234	84.06
656.438	89.06
656.642	77.06
656.846	100.06
657.049	71.06
657.253	96.06
657.457	88.06
657.661	94.06
657.865	76.06
658.068	101.06
658.272	88.06
658.476	87.06
658.68	77.06
658.883	94.06
659.087	88.06
659.291	92.06
659.494	92.06
659.698	86.06
659.901	92.06
660.105	87.06
660.309	96.06
660.512	86.06
660.716	91.06
660.919	82.06
661.123	82.06
661.326	93.06
661.53	86.06
661.733	93.06
661.936	91.06
662.14	79.06
662.343	82.06
662.546	71.06
662.75	94.06
662.953	76.06
663.156	91.06
663.36	88.06
663.563	98.06
663.766	99.06
663.969	74.06
664.173	69.06
664.376	71.06
664.579	76.06
664.782	67.06
664.985	81.06
665.188	71.06
665.391	70.06
665.594	96.06
665.797	97.06
666	88.06
666.203	85.06
666.406	81.06
666.609	80.06
666.812	65.06
667.015	80.06
667.218	87.06
667.421	81.06
667.624	87.06
667.827	87.06
668.03	81.06
668.232	74.06
668.435	79.06
668.638	75.06
668.841	72.06
669.043	82.06
669.246	71.06
669.449	87.06
669.651	94.06
669.854	77.06
670.057	86.06
670.259	80.06
670.462	72.06
670.665	89.06
670.867	85.06
671.07	84.06
671.272	85.06
671.475	88.06
671.677	84.06
671.88	71.06
672.082	82.06
672.284	100.06
672.487	64.06
672.689	81.06
672.892	69.06
