Data from Lead_25_1_HRD10591_00079.txt Node
Date: Fri Feb 20 11:00:48 EST 2026
User: Yrep
Spectrometer: HR+D1059
Trigger mode: 1
Integration Time (sec): 1.000000E-1
Scans to average: 1
Electric dark correction enabled: true
Nonlinearity correction enabled: false
Boxcar width: 0
XAxis mode: Wavelengths
Number of Pixels in Spectrum: 2048
>>>>>Begin Spectral Data<<<<<
223.165	-13.06
223.4	-13.06
223.635	-13.06
223.869	-25.06
224.104	-37.06
224.338	-19.06
224.573	-15.06
224.808	-1.06
225.042	-1.06
225.277	-7.06
225.511	12.94
225.746	-2.06
225.98	10.94
226.215	1.94
226.449	9.94
226.683	17.94
226.918	26.94
227.152	39.94
227.387	22.94
227.621	37.94
227.856	43.94
228.09	50.94
228.324	43.94
228.559	56.94
228.793	54.94
229.027	53.94
229.262	67.94
229.496	54.94
229.73	63.94
229.964	55.94
230.199	72.94
230.433	77.94
230.667	67.94
230.901	78.94
231.136	63.94
231.37	103.94
231.604	86.94
231.838	73.94
232.072	73.94
232.306	84.94
232.541	88.94
232.775	73.94
233.009	75.94
233.243	79.94
233.477	81.94
233.711	83.94
233.945	83.94
234.179	67.94
234.413	79.94
234.647	76.94
234.881	71.94
235.115	71.94
235.349	83.94
235.583	75.94
235.817	78.94
236.051	89.94
236.285	79.94
236.519	81.94
236.753	74.94
236.987	76.94
237.221	88.94
237.455	55.94
237.689	70.94
237.922	73.94
238.156	76.94
238.39	60.94
238.624	75.94
238.858	72.94
239.091	78.94
239.325	91.94
239.559	82.94
239.793	74.94
240.027	83.94
240.26	76.94
240.494	64.94
240.728	75.94
240.961	72.94
241.195	62.94
241.429	67.94
241.662	72.94
241.896	70.94
242.13	79.94
242.363	82.94
242.597	66.94
242.83	83.94
243.064	67.94
243.298	70.94
243.531	60.94
243.765	71.94
243.998	68.94
244.232	82.94
244.465	81.94
244.699	91.94
244.932	76.94
245.166	78.94
245.399	80.94
245.633	82.94
245.866	79.94
246.099	84.94
246.333	86.94
246.566	76.94
246.8	73.94
247.033	78.94
247.266	75.94
247.5	79.94
247.733	79.94
247.966	83.94
248.2	75.94
248.433	64.94
248.666	69.94
248.899	77.94
249.133	79.94
249.366	68.94
249.599	86.94
249.832	60.94
250.066	93.94
250.299	78.94
250.532	80.94
250.765	70.94
250.998	73.94
251.231	80.94
251.465	78.94
251.698	89.94
251.931	76.94
252.164	83.94
252.397	74.94
252.63	90.94
252.863	73.94
253.096	76.94
253.329	76.94
253.562	81.94
253.795	82.94
254.028	78.94
254.261	75.94
254.494	81.94
254.727	89.94
254.96	86.94
255.193	79.94
255.426	75.94
255.659	72.94
255.892	80.94
256.124	71.94
256.357	75.94
256.59	72.94
256.823	99.94
257.056	98.94
257.289	73.94
257.521	84.94
257.754	82.94
257.987	73.94
258.22	76.94
258.452	82.94
258.685	80.94
258.918	70.94
259.151	78.94
259.383	90.94
259.616	71.94
259.849	69.94
260.081	93.94
260.314	70.94
260.547	75.94
260.779	77.94
261.012	102.94
261.244	91.94
261.477	93.94
261.71	92.94
261.942	65.94
262.175	81.94
262.407	72.94
262.64	76.94
262.872	76.94
263.105	79.94
263.337	82.94
263.57	91.94
263.802	73.94
264.035	80.94
264.267	87.94
264.499	87.94
264.732	81.94
264.964	83.94
265.197	89.94
265.429	81.94
265.661	95.94
265.894	72.94
266.126	85.94
266.358	85.94
266.591	86.94
266.823	82.94
267.055	79.94
267.287	90.94
267.52	75.94
267.752	80.94
267.984	78.94
268.216	72.94
268.448	68.94
268.681	79.94
268.913	87.94
269.145	79.94
269.377	84.94
269.609	79.94
269.841	90.94
270.073	84.94
270.306	76.94
270.538	84.94
270.77	84.94
271.002	91.94
271.234	84.94
271.466	93.94
271.698	85.94
271.93	76.94
272.162	92.94
272.394	71.94
272.626	78.94
272.858	69.94
273.09	73.94
273.322	82.94
273.553	80.94
273.785	87.94
274.017	102.94
274.249	72.94
274.481	88.94
274.713	92.94
274.945	75.94
275.176	79.94
275.408	79.94
275.64	75.94
275.872	79.94
276.104	100.94
276.335	84.94
276.567	75.94
276.799	79.94
277.031	83.94
277.262	89.94
277.494	98.94
277.726	91.94
277.957	88.94
278.189	72.94
278.421	78.94
278.652	92.94
278.884	89.94
279.115	92.94
279.347	81.94
279.579	82.94
279.81	87.94
280.042	85.94
280.273	107.94
280.505	96.94
280.736	80.94
280.968	73.94
281.199	80.94
281.431	79.94
281.662	91.94
281.894	85.94
282.125	97.94
282.356	88.94
282.588	101.94
282.819	87.94
283.051	91.94
283.282	95.94
283.513	118.94
283.745	82.94
283.976	78.94
284.207	80.94
284.439	95.94
284.67	88.94
284.901	100.94
285.132	87.94
285.364	77.94
285.595	86.94
285.826	91.94
286.057	84.94
286.288	77.94
286.52	72.94
286.751	76.94
286.982	81.94
287.213	93.94
287.444	93.94
287.675	94.94
287.906	94.94
288.138	79.94
288.369	81.94
288.6	78.94
288.831	87.94
289.062	81.94
289.293	87.94
289.524	99.94
289.755	78.94
289.986	83.94
290.217	80.94
290.448	81.94
290.679	93.94
290.91	84.94
291.141	87.94
291.371	79.94
291.602	93.94
291.833	88.94
292.064	86.94
292.295	76.94
292.526	80.94
292.757	90.94
292.987	94.94
293.218	70.94
293.449	83.94
293.68	90.94
293.91	79.94
294.141	84.94
294.372	85.94
294.603	93.94
294.833	100.94
295.064	73.94
295.295	78.94
295.525	83.94
295.756	92.94
295.987	97.94
296.217	88.94
296.448	71.94
296.679	90.94
296.909	80.94
297.14	83.94
297.37	91.94
297.601	86.94
297.831	72.94
298.062	82.94
298.292	83.94
298.523	82.94
298.753	86.94
298.984	76.94
299.214	92.94
299.445	96.94
299.675	83.94
299.905	78.94
300.136	75.94
300.366	77.94
300.597	71.94
300.827	85.94
301.057	82.94
301.288	92.94
301.518	91.94
301.748	77.94
301.979	100.94
302.209	70.94
302.439	84.94
302.669	81.94
302.9	84.94
303.13	94.94
303.36	84.94
303.59	87.94
303.82	85.94
304.051	87.94
304.281	89.94
304.511	90.94
304.741	92.94
304.971	84.94
305.201	78.94
305.431	99.94
305.661	77.94
305.891	71.94
306.121	112.94
306.352	85.94
306.582	82.94
306.812	77.94
307.042	88.94
307.272	88.94
307.502	77.94
307.731	79.94
307.961	96.94
308.191	100.94
308.421	111.94
308.651	80.94
308.881	93.94
309.111	112.94
309.341	107.94
309.571	110.94
309.8	92.94
310.03	100.94
310.26	72.94
310.49	91.94
310.72	82.94
310.949	86.94
311.179	79.94
311.409	79.94
311.639	70.94
311.868	86.94
312.098	88.94
312.328	83.94
312.557	86.94
312.787	90.94
313.017	89.94
313.246	99.94
313.476	97.94
313.706	82.94
313.935	82.94
314.165	76.94
314.394	81.94
314.624	80.94
314.853	78.94
315.083	79.94
315.312	88.94
315.542	86.94
315.771	94.94
316.001	81.94
316.23	92.94
316.46	90.94
316.689	83.94
316.919	82.94
317.148	64.94
317.377	96.94
317.607	77.94
317.836	109.94
318.065	99.94
318.295	86.94
318.524	81.94
318.753	93.94
318.983	78.94
319.212	89.94
319.441	92.94
319.67	69.94
319.9	97.94
320.129	78.94
320.358	78.94
320.587	83.94
320.816	87.94
321.046	87.94
321.275	95.94
321.504	90.94
321.733	76.94
321.962	91.94
322.191	76.94
322.42	89.94
322.649	97.94
322.878	77.94
323.108	74.94
323.337	71.94
323.566	83.94
323.795	75.94
324.024	87.94
324.253	94.94
324.482	96.94
324.71	82.94
324.939	98.94
325.168	88.94
325.397	78.94
325.626	81.94
325.855	90.94
326.084	99.94
326.313	90.94
326.542	85.94
326.77	95.94
326.999	81.94
327.228	105.94
327.457	95.94
327.686	78.94
327.914	84.94
328.143	90.94
328.372	95.94
328.6	92.94
328.829	82.94
329.058	79.94
329.287	81.94
329.515	72.94
329.744	82.94
329.972	82.94
330.201	92.94
330.43	97.94
330.658	96.94
330.887	83.94
331.115	80.94
331.344	78.94
331.572	66.94
331.801	81.94
332.03	94.94
332.258	72.94
332.486	96.94
332.715	85.94
332.943	91.94
333.172	87.94
333.4	72.94
333.629	78.94
333.857	75.94
334.085	88.94
334.314	93.94
334.542	84.94
334.771	88.94
334.999	104.94
335.227	84.94
335.455	80.94
335.684	88.94
335.912	77.94
336.14	88.94
336.369	86.94
336.597	94.94
336.825	77.94
337.053	82.94
337.281	82.94
337.51	82.94
337.738	87.94
337.966	90.94
338.194	73.94
338.422	80.94
338.65	91.94
338.878	94.94
339.106	87.94
339.334	80.94
339.562	78.94
339.79	90.94
340.018	90.94
340.246	86.94
340.474	97.94
340.702	79.94
340.93	90.94
341.158	83.94
341.386	82.94
341.614	73.94
341.842	90.94
342.07	101.94
342.298	78.94
342.526	92.94
342.754	88.94
342.981	77.94
343.209	78.94
343.437	78.94
343.665	81.94
343.893	101.94
344.12	95.94
344.348	80.94
344.576	118.94
344.804	93.94
345.031	90.94
345.259	85.94
345.487	86.94
345.714	93.94
345.942	75.94
346.17	82.94
346.397	81.94
346.625	77.94
346.853	99.94
347.08	81.94
347.308	91.94
347.535	86.94
347.763	106.94
347.99	90.94
348.218	64.94
348.445	86.94
348.673	85.94
348.9	92.94
349.128	99.94
349.355	92.94
349.583	92.94
349.81	83.94
350.037	85.94
350.265	90.94
350.492	77.94
350.72	80.94
350.947	89.94
351.174	85.94
351.402	85.94
351.629	79.94
351.856	92.94
352.083	76.94
352.311	85.94
352.538	84.94
352.765	84.94
352.992	88.94
353.22	93.94
353.447	76.94
353.674	72.94
353.901	87.94
354.128	75.94
354.355	87.94
354.583	91.94
354.81	98.94
355.037	97.94
355.264	71.94
355.491	78.94
355.718	76.94
355.945	88.94
356.172	91.94
356.399	95.94
356.626	76.94
356.853	104.94
357.08	123.94
357.307	143.94
357.534	130.94
357.761	98.94
357.988	76.94
358.215	84.94
358.441	81.94
358.668	80.94
358.895	81.94
359.122	94.94
359.349	60.94
359.576	91.94
359.802	76.94
360.029	87.94
360.256	83.94
360.483	81.94
360.709	72.94
360.936	75.94
361.163	82.94
361.39	97.94
361.616	92.94
361.843	73.94
362.07	78.94
362.296	76.94
362.523	68.94
362.749	82.94
362.976	93.94
363.203	88.94
363.429	98.94
363.656	131.94
363.882	167.94
364.109	192.94
364.335	120.94
364.562	95.94
364.788	96.94
365.015	91.94
365.241	92.94
365.468	90.94
365.694	83.94
365.92	81.94
366.147	88.94
366.373	92.94
366.599	80.94
366.826	93.94
367.052	95.94
367.278	113.94
367.505	93.94
367.731	123.94
367.957	131.94
368.184	175.94
368.41	248.94
368.636	171.94
368.862	117.94
369.089	101.94
369.315	82.94
369.541	89.94
369.767	84.94
369.993	80.94
370.219	91.94
370.445	76.94
370.672	81.94
370.898	91.94
371.124	80.94
371.35	73.94
371.576	90.94
371.802	96.94
372.028	91.94
372.254	102.94
372.48	91.94
372.706	82.94
372.932	80.94
373.158	80.94
373.384	97.94
373.61	114.94
373.835	129.94
374.061	130.94
374.287	112.94
374.513	81.94
374.739	84.94
374.965	96.94
375.191	84.94
375.416	91.94
375.642	87.94
375.868	98.94
376.094	80.94
376.319	82.94
376.545	80.94
376.771	70.94
376.997	80.94
377.222	90.94
377.448	83.94
377.674	86.94
377.899	89.94
378.125	82.94
378.35	89.94
378.576	95.94
378.802	78.94
379.027	92.94
379.253	88.94
379.478	92.94
379.704	86.94
379.929	82.94
380.155	94.94
380.38	86.94
380.606	89.94
380.831	84.94
381.057	88.94
381.282	82.94
381.507	89.94
381.733	104.94
381.958	94.94
382.184	88.94
382.409	69.94
382.634	70.94
382.86	87.94
383.085	96.94
383.31	96.94
383.535	87.94
383.761	94.94
383.986	95.94
384.211	83.94
384.436	77.94
384.662	76.94
384.887	78.94
385.112	87.94
385.337	76.94
385.562	84.94
385.787	81.94
386.013	94.94
386.238	88.94
386.463	94.94
386.688	87.94
386.913	76.94
387.138	73.94
387.363	92.94
387.588	84.94
387.813	100.94
388.038	92.94
388.263	79.94
388.488	90.94
388.713	85.94
388.938	86.94
389.163	76.94
389.387	72.94
389.612	75.94
389.837	85.94
390.062	86.94
390.287	95.94
390.512	90.94
390.736	92.94
390.961	85.94
391.186	87.94
391.411	82.94
391.636	94.94
391.86	81.94
392.085	67.94
392.31	81.94
392.534	85.94
392.759	94.94
392.984	94.94
393.208	119.94
393.433	135.94
393.658	106.94
393.882	100.94
394.107	114.94
394.331	141.94
394.556	159.94
394.78	109.94
395.005	94.94
395.229	71.94
395.454	87.94
395.678	92.94
395.903	129.94
396.127	160.94
396.352	182.94
396.576	123.94
396.801	108.94
397.025	120.94
397.249	101.94
397.474	71.94
397.698	87.94
397.922	82.94
398.147	84.94
398.371	78.94
398.595	86.94
398.82	86.94
399.044	80.94
399.268	89.94
399.492	77.94
399.717	86.94
399.941	85.94
400.165	83.94
400.389	78.94
400.613	89.94
400.837	64.94
401.062	80.94
401.286	98.94
401.51	90.94
401.734	84.94
401.958	92.94
402.182	109.94
402.406	96.94
402.63	85.94
402.854	76.94
403.078	78.94
403.302	76.94
403.526	87.94
403.75	103.94
403.974	98.94
404.198	128.94
404.422	211.94
404.645	219.94
404.869	183.94
405.093	124.94
405.317	137.94
405.541	201.94
405.765	355.94
405.988	358.94
406.212	194.94
406.436	127.94
406.66	93.94
406.883	90.94
407.107	87.94
407.331	88.94
407.555	73.94
407.778	92.94
408.002	76.94
408.226	77.94
408.449	92.94
408.673	74.94
408.896	86.94
409.12	83.94
409.344	86.94
409.567	81.94
409.791	76.94
410.014	91.94
410.238	84.94
410.461	89.94
410.685	90.94
410.908	87.94
411.132	94.94
411.355	76.94
411.578	59.94
411.802	86.94
412.025	72.94
412.249	84.94
412.472	79.94
412.695	79.94
412.919	75.94
413.142	77.94
413.365	83.94
413.589	70.94
413.812	87.94
414.035	89.94
414.258	78.94
414.482	78.94
414.705	93.94
414.928	94.94
415.151	87.94
415.374	90.94
415.597	96.94
415.821	98.94
416.044	76.94
416.267	77.94
416.49	71.94
416.713	78.94
416.936	85.94
417.159	73.94
417.382	82.94
417.605	93.94
417.828	89.94
418.051	71.94
418.274	58.94
418.497	92.94
418.72	79.94
418.943	83.94
419.166	92.94
419.389	81.94
419.611	83.94
419.834	83.94
420.057	75.94
420.28	84.94
420.503	92.94
420.726	103.94
420.948	86.94
421.171	66.94
421.394	70.94
421.617	78.94
421.839	85.94
422.062	84.94
422.285	72.94
422.507	122.94
422.73	144.94
422.953	138.94
423.175	99.94
423.398	88.94
423.621	94.94
423.843	88.94
424.066	72.94
424.288	82.94
424.511	87.94
424.733	83.94
424.956	75.94
425.178	75.94
425.401	72.94
425.623	87.94
425.846	80.94
426.068	96.94
426.291	82.94
426.513	78.94
426.735	83.94
426.958	77.94
427.18	70.94
427.402	80.94
427.625	80.94
427.847	88.94
428.069	78.94
428.292	83.94
428.514	88.94
428.736	81.94
428.958	89.94
429.181	86.94
429.403	87.94
429.625	83.94
429.847	77.94
430.069	98.94
430.292	97.94
430.514	85.94
430.736	75.94
430.958	80.94
431.18	82.94
431.402	73.94
431.624	77.94
431.846	85.94
432.068	86.94
432.29	84.94
432.512	77.94
432.734	88.94
432.956	81.94
433.178	60.94
433.4	90.94
433.622	93.94
433.844	77.94
434.066	77.94
434.287	82.94
434.509	88.94
434.731	83.94
434.953	73.94
435.175	97.94
435.397	85.94
435.618	67.94
435.84	83.94
436.062	78.94
436.284	81.94
436.505	81.94
436.727	77.94
436.949	71.94
437.17	88.94
437.392	64.94
437.614	103.94
437.835	75.94
438.057	64.94
438.278	78.94
438.5	91.94
438.721	87.94
438.943	82.94
439.165	71.94
439.386	90.94
439.608	84.94
439.829	78.94
440.05	88.94
440.272	83.94
440.493	82.94
440.715	70.94
440.936	88.94
441.158	81.94
441.379	63.94
441.6	79.94
441.822	93.94
442.043	90.94
442.264	79.94
442.486	90.94
442.707	92.94
442.928	91.94
443.149	87.94
443.371	83.94
443.592	109.94
443.813	86.94
444.034	78.94
444.255	88.94
444.476	78.94
444.698	88.94
444.919	80.94
445.14	157.94
445.361	116.94
445.582	92.94
445.803	90.94
446.024	76.94
446.245	87.94
446.466	90.94
446.687	70.94
446.908	80.94
447.129	78.94
447.35	84.94
447.571	86.94
447.792	80.94
448.013	99.94
448.234	80.94
448.455	87.94
448.675	60.94
448.896	98.94
449.117	80.94
449.338	78.94
449.559	74.94
449.779	84.94
450	80.94
450.221	90.94
450.442	83.94
450.662	86.94
450.883	87.94
451.104	97.94
451.324	82.94
451.545	81.94
451.766	82.94
451.986	82.94
452.207	61.94
452.428	87.94
452.648	75.94
452.869	75.94
453.089	75.94
453.31	95.94
453.53	88.94
453.751	76.94
453.971	78.94
454.192	84.94
454.412	85.94
454.633	87.94
454.853	84.94
455.073	81.94
455.294	91.94
455.514	73.94
455.734	79.94
455.955	78.94
456.175	87.94
456.395	93.94
456.616	75.94
456.836	92.94
457.056	92.94
457.276	82.94
457.497	71.94
457.717	80.94
457.937	82.94
458.157	58.94
458.377	92.94
458.598	87.94
458.818	81.94
459.038	87.94
459.258	78.94
459.478	82.94
459.698	89.94
459.918	86.94
460.138	83.94
460.358	91.94
460.578	91.94
460.798	84.94
461.018	93.94
461.238	96.94
461.458	100.94
461.678	94.94
461.898	70.94
462.118	77.94
462.338	91.94
462.558	81.94
462.777	90.94
462.997	90.94
463.217	70.94
463.437	86.94
463.657	72.94
463.876	84.94
464.096	75.94
464.316	71.94
464.536	83.94
464.755	86.94
464.975	95.94
465.195	86.94
465.414	86.94
465.634	78.94
465.854	78.94
466.073	86.94
466.293	84.94
466.512	88.94
466.732	75.94
466.951	95.94
467.171	84.94
467.391	70.94
467.61	79.94
467.829	81.94
468.049	86.94
468.268	86.94
468.488	84.94
468.707	71.94
468.927	77.94
469.146	71.94
469.365	74.94
469.585	70.94
469.804	80.94
470.023	87.94
470.243	83.94
470.462	80.94
470.681	71.94
470.901	90.94
471.12	82.94
471.339	88.94
471.558	77.94
471.777	76.94
471.997	84.94
472.216	81.94
472.435	87.94
472.654	97.94
472.873	86.94
473.092	85.94
473.311	85.94
473.53	77.94
473.749	77.94
473.968	91.94
474.187	79.94
474.406	76.94
474.625	90.94
474.844	80.94
475.063	85.94
475.282	100.94
475.501	90.94
475.72	84.94
475.939	95.94
476.158	82.94
476.377	75.94
476.596	94.94
476.814	96.94
477.033	96.94
477.252	76.94
477.471	80.94
477.69	95.94
477.908	97.94
478.127	93.94
478.346	88.94
478.564	84.94
478.783	78.94
479.002	82.94
479.22	87.94
479.439	91.94
479.658	87.94
479.876	87.94
480.095	72.94
480.313	84.94
480.532	86.94
480.751	84.94
480.969	70.94
481.188	87.94
481.406	80.94
481.624	76.94
481.843	78.94
482.061	83.94
482.28	88.94
482.498	91.94
482.717	85.94
482.935	101.94
483.153	80.94
483.372	97.94
483.59	89.94
483.808	93.94
484.027	78.94
484.245	96.94
484.463	106.94
484.681	86.94
484.9	75.94
485.118	96.94
485.336	73.94
485.554	80.94
485.772	82.94
485.99	80.94
486.209	94.94
486.427	86.94
486.645	93.94
486.863	94.94
487.081	86.94
487.299	84.94
487.517	90.94
487.735	80.94
487.953	76.94
488.171	90.94
488.389	75.94
488.607	75.94
488.825	79.94
489.043	82.94
489.261	84.94
489.479	88.94
489.696	82.94
489.914	92.94
490.132	77.94
490.35	86.94
490.568	86.94
490.786	74.94
491.003	96.94
491.221	92.94
491.439	95.94
491.657	96.94
491.874	90.94
492.092	92.94
492.31	89.94
492.527	84.94
492.745	88.94
492.963	86.94
493.18	77.94
493.398	81.94
493.615	94.94
493.833	93.94
494.05	71.94
494.268	100.94
494.485	83.94
494.703	88.94
494.92	90.94
495.138	86.94
495.355	91.94
495.573	100.94
495.79	73.94
496.008	92.94
496.225	99.94
496.442	80.94
496.66	93.94
496.877	84.94
497.094	87.94
497.312	74.94
497.529	98.94
497.746	79.94
497.963	72.94
498.181	78.94
498.398	82.94
498.615	93.94
498.832	91.94
499.049	92.94
499.267	98.94
499.484	84.94
499.701	89.94
499.918	94.94
500.135	82.94
500.352	80.94
500.569	80.94
500.786	94.94
501.003	90.94
501.22	83.94
501.437	86.94
501.654	79.94
501.871	74.94
502.088	75.94
502.305	69.94
502.522	101.94
502.739	93.94
502.956	80.94
503.172	76.94
503.389	92.94
503.606	94.94
503.823	89.94
504.04	86.94
504.256	91.94
504.473	78.94
504.69	96.94
504.907	78.94
505.123	85.94
505.34	81.94
505.557	90.94
505.773	102.94
505.99	74.94
506.207	82.94
506.423	90.94
506.64	84.94
506.856	90.94
507.073	72.94
507.289	82.94
507.506	89.94
507.722	81.94
507.939	87.94
508.155	87.94
508.372	91.94
508.588	87.94
508.805	90.94
509.021	86.94
509.238	90.94
509.454	68.94
509.67	82.94
509.887	85.94
510.103	82.94
510.319	102.94
510.536	99.94
510.752	92.94
510.968	91.94
511.184	80.94
511.401	80.94
511.617	87.94
511.833	98.94
512.049	92.94
512.265	85.94
512.481	102.94
512.698	83.94
512.914	97.94
513.13	95.94
513.346	86.94
513.562	90.94
513.778	74.94
513.994	78.94
514.21	92.94
514.426	84.94
514.642	99.94
514.858	86.94
515.074	78.94
515.29	81.94
515.506	91.94
515.721	79.94
515.937	97.94
516.153	95.94
516.369	84.94
516.585	94.94
516.801	86.94
517.016	92.94
517.232	92.94
517.448	86.94
517.664	87.94
517.879	73.94
518.095	70.94
518.311	88.94
518.527	72.94
518.742	79.94
518.958	82.94
519.173	87.94
519.389	82.94
519.605	73.94
519.82	81.94
520.036	102.94
520.251	99.94
520.467	101.94
520.682	79.94
520.898	98.94
521.113	82.94
521.329	95.94
521.544	84.94
521.76	86.94
521.975	87.94
522.19	98.94
522.406	80.94
522.621	84.94
522.836	85.94
523.052	92.94
523.267	85.94
523.482	80.94
523.698	86.94
523.913	86.94
524.128	83.94
524.343	90.94
524.559	84.94
524.774	77.94
524.989	91.94
525.204	93.94
525.419	85.94
525.634	80.94
525.849	96.94
526.064	87.94
526.28	84.94
526.495	91.94
526.71	85.94
526.925	89.94
527.14	77.94
527.355	79.94
527.57	77.94
527.785	79.94
527.999	89.94
528.214	86.94
528.429	78.94
528.644	89.94
528.859	85.94
529.074	84.94
529.289	88.94
529.503	78.94
529.718	66.94
529.933	88.94
530.148	87.94
530.363	87.94
530.577	75.94
530.792	85.94
531.007	86.94
531.221	96.94
531.436	82.94
531.651	73.94
531.865	97.94
532.08	90.94
532.295	78.94
532.509	94.94
532.724	99.94
532.938	90.94
533.153	79.94
533.367	91.94
533.582	77.94
533.796	98.94
534.011	99.94
534.225	94.94
534.44	88.94
534.654	111.94
534.868	102.94
535.083	96.94
535.297	93.94
535.511	98.94
535.726	86.94
535.94	99.94
536.154	91.94
536.369	105.94
536.583	100.94
536.797	86.94
537.011	82.94
537.225	91.94
537.44	91.94
537.654	96.94
537.868	82.94
538.082	88.94
538.296	86.94
538.51	95.94
538.724	88.94
538.938	83.94
539.153	90.94
539.367	85.94
539.581	102.94
539.795	75.94
540.009	83.94
540.222	85.94
540.436	92.94
540.65	100.94
540.864	79.94
541.078	76.94
541.292	97.94
541.506	80.94
541.72	71.94
541.934	77.94
542.147	85.94
542.361	85.94
542.575	98.94
542.789	82.94
543.002	84.94
543.216	78.94
543.43	84.94
543.644	83.94
543.857	93.94
544.071	95.94
544.285	71.94
544.498	82.94
544.712	90.94
544.925	78.94
545.139	89.94
545.352	101.94
545.566	91.94
545.779	86.94
545.993	76.94
546.206	74.94
546.42	87.94
546.633	93.94
546.847	85.94
547.06	84.94
547.274	85.94
547.487	92.94
547.7	92.94
547.914	94.94
548.127	96.94
548.34	101.94
548.554	84.94
548.767	80.94
548.98	79.94
549.193	87.94
549.407	94.94
549.62	83.94
549.833	79.94
550.046	81.94
550.259	84.94
550.473	76.94
550.686	95.94
550.899	88.94
551.112	91.94
551.325	92.94
551.538	80.94
551.751	85.94
551.964	86.94
552.177	90.94
552.39	84.94
552.603	79.94
552.816	86.94
553.029	97.94
553.242	86.94
553.455	90.94
553.667	84.94
553.88	76.94
554.093	82.94
554.306	93.94
554.519	86.94
554.732	77.94
554.944	87.94
555.157	75.94
555.37	86.94
555.583	81.94
555.795	93.94
556.008	81.94
556.221	83.94
556.433	83.94
556.646	73.94
556.859	91.94
557.071	96.94
557.284	101.94
557.496	88.94
557.709	80.94
557.921	72.94
558.134	92.94
558.346	85.94
558.559	86.94
558.771	87.94
558.984	87.94
559.196	91.94
559.409	75.94
559.621	93.94
559.833	98.94
560.046	91.94
560.258	107.94
560.47	93.94
560.683	104.94
560.895	84.94
561.107	113.94
561.32	88.94
561.532	87.94
561.744	93.94
561.956	84.94
562.168	83.94
562.381	106.94
562.593	67.94
562.805	89.94
563.017	91.94
563.229	87.94
563.441	90.94
563.653	74.94
563.865	84.94
564.077	87.94
564.289	88.94
564.501	77.94
564.713	74.94
564.925	76.94
565.137	92.94
565.349	79.94
565.561	80.94
565.773	85.94
565.985	77.94
566.197	91.94
566.408	86.94
566.62	83.94
566.832	84.94
567.044	94.94
567.255	80.94
567.467	82.94
567.679	83.94
567.891	88.94
568.102	87.94
568.314	93.94
568.526	95.94
568.737	87.94
568.949	88.94
569.161	91.94
569.372	109.94
569.584	82.94
569.795	75.94
570.007	90.94
570.218	88.94
570.43	95.94
570.641	84.94
570.853	80.94
571.064	92.94
571.276	87.94
571.487	90.94
571.698	93.94
571.91	82.94
572.121	73.94
572.333	77.94
572.544	80.94
572.755	73.94
572.966	63.94
573.178	85.94
573.389	91.94
573.6	72.94
573.811	70.94
574.023	86.94
574.234	86.94
574.445	80.94
574.656	106.94
574.867	82.94
575.078	91.94
575.289	77.94
575.501	93.94
575.712	87.94
575.923	91.94
576.134	90.94
576.345	85.94
576.556	91.94
576.767	92.94
576.978	73.94
577.188	75.94
577.399	80.94
577.61	82.94
577.821	109.94
578.032	91.94
578.243	95.94
578.454	103.94
578.665	116.94
578.875	85.94
579.086	98.94
579.297	90.94
579.508	86.94
579.718	89.94
579.929	90.94
580.14	106.94
580.35	101.94
580.561	117.94
580.772	102.94
580.982	108.94
581.193	88.94
581.403	115.94
581.614	92.94
581.825	90.94
582.035	90.94
582.246	87.94
582.456	80.94
582.667	87.94
582.877	99.94
583.087	98.94
583.298	98.94
583.508	90.94
583.719	82.94
583.929	100.94
584.139	94.94
584.35	84.94
584.56	99.94
584.77	86.94
584.981	95.94
585.191	109.94
585.401	80.94
585.611	83.94
585.821	92.94
586.032	83.94
586.242	100.94
586.452	90.94
586.662	73.94
586.872	86.94
587.082	91.94
587.292	80.94
587.502	81.94
587.713	88.94
587.923	84.94
588.133	88.94
588.343	103.94
588.553	122.94
588.762	141.94
588.972	269.94
589.182	664.94
589.392	457.94
589.602	307.94
589.812	572.94
590.022	305.94
590.232	147.94
590.441	111.94
590.651	116.94
590.861	112.94
591.071	99.94
591.281	86.94
591.49	74.94
591.7	91.94
591.91	91.94
592.119	78.94
592.329	84.94
592.539	86.94
592.748	94.94
592.958	80.94
593.167	84.94
593.377	89.94
593.587	93.94
593.796	84.94
594.006	72.94
594.215	69.94
594.424	84.94
594.634	92.94
594.843	70.94
595.053	90.94
595.262	72.94
595.472	91.94
595.681	84.94
595.89	87.94
596.1	81.94
596.309	86.94
596.518	91.94
596.727	83.94
596.937	84.94
597.146	88.94
597.355	86.94
597.564	90.94
597.774	80.94
597.983	79.94
598.192	71.94
598.401	92.94
598.61	75.94
598.819	101.94
599.028	90.94
599.237	88.94
599.446	97.94
599.655	89.94
599.864	83.94
600.073	86.94
600.282	82.94
600.491	79.94
600.7	87.94
600.909	83.94
601.118	76.94
601.327	85.94
601.536	90.94
601.745	74.94
601.953	91.94
602.162	76.94
602.371	75.94
602.58	89.94
602.789	98.94
602.997	79.94
603.206	84.94
603.415	85.94
603.623	97.94
603.832	99.94
604.041	83.94
604.249	90.94
604.458	80.94
604.666	90.94
604.875	85.94
605.084	78.94
605.292	73.94
605.501	76.94
605.709	83.94
605.918	80.94
606.126	80.94
606.334	81.94
606.543	93.94
606.751	76.94
606.96	103.94
607.168	93.94
607.376	75.94
607.585	78.94
607.793	87.94
608.001	98.94
608.21	80.94
608.418	84.94
608.626	85.94
608.834	88.94
609.043	93.94
609.251	86.94
609.459	80.94
609.667	95.94
609.875	81.94
610.083	90.94
610.291	91.94
610.499	99.94
610.707	98.94
610.916	77.94
611.124	87.94
611.332	88.94
611.54	91.94
611.748	84.94
611.955	89.94
612.163	101.94
612.371	98.94
612.579	82.94
612.787	85.94
612.995	88.94
613.203	94.94
613.411	95.94
613.618	76.94
613.826	77.94
614.034	72.94
614.242	101.94
614.449	67.94
614.657	80.94
614.865	73.94
615.072	78.94
615.28	80.94
615.488	77.94
615.695	86.94
615.903	93.94
616.111	86.94
616.318	105.94
616.526	90.94
616.733	96.94
616.941	75.94
617.148	94.94
617.356	100.94
617.563	88.94
617.771	76.94
617.978	90.94
618.185	86.94
618.393	90.94
618.6	103.94
618.807	103.94
619.015	84.94
619.222	83.94
619.429	87.94
619.637	91.94
619.844	84.94
620.051	90.94
620.258	88.94
620.466	96.94
620.673	84.94
620.88	73.94
621.087	91.94
621.294	90.94
621.501	86.94
621.708	88.94
621.915	82.94
622.122	90.94
622.329	95.94
622.536	74.94
622.743	95.94
622.95	100.94
623.157	83.94
623.364	82.94
623.571	78.94
623.778	84.94
623.985	84.94
624.192	84.94
624.399	86.94
624.606	85.94
624.812	79.94
625.019	77.94
625.226	88.94
625.433	80.94
625.639	83.94
625.846	78.94
626.053	78.94
626.259	85.94
626.466	85.94
626.673	79.94
626.879	88.94
627.086	88.94
627.293	63.94
627.499	84.94
627.706	92.94
627.912	91.94
628.119	78.94
628.325	86.94
628.532	83.94
628.738	76.94
628.945	76.94
629.151	96.94
629.357	81.94
629.564	81.94
629.77	81.94
629.976	93.94
630.183	77.94
630.389	97.94
630.595	82.94
630.802	88.94
631.008	78.94
631.214	83.94
631.42	81.94
631.627	96.94
631.833	84.94
632.039	75.94
632.245	90.94
632.451	80.94
632.657	68.94
632.863	80.94
633.069	88.94
633.275	87.94
633.481	88.94
633.688	86.94
633.893	82.94
634.099	67.94
634.305	82.94
634.511	70.94
634.717	87.94
634.923	85.94
635.129	78.94
635.335	73.94
635.541	81.94
635.747	92.94
635.952	64.94
636.158	73.94
636.364	80.94
636.57	82.94
636.775	88.94
636.981	87.94
637.187	82.94
637.392	87.94
637.598	80.94
637.804	90.94
638.009	78.94
638.215	84.94
638.421	83.94
638.626	85.94
638.832	89.94
639.037	71.94
639.243	79.94
639.448	80.94
639.654	84.94
639.859	88.94
640.065	84.94
640.27	90.94
640.475	77.94
640.681	56.94
640.886	76.94
641.091	84.94
641.297	91.94
641.502	86.94
641.707	85.94
641.913	84.94
642.118	76.94
642.323	68.94
642.528	87.94
642.733	93.94
642.939	92.94
643.144	80.94
643.349	93.94
643.554	88.94
643.759	78.94
643.964	80.94
644.169	82.94
644.374	76.94
644.579	72.94
644.784	89.94
644.989	66.94
645.194	85.94
645.399	96.94
645.604	84.94
645.809	80.94
646.014	86.94
646.219	88.94
646.423	73.94
646.628	77.94
646.833	94.94
647.038	95.94
647.243	83.94
647.447	79.94
647.652	88.94
647.857	80.94
648.062	84.94
648.266	84.94
648.471	87.94
648.676	79.94
648.88	85.94
649.085	87.94
649.289	83.94
649.494	98.94
649.698	85.94
649.903	84.94
650.107	85.94
650.312	93.94
650.516	84.94
650.721	92.94
650.925	85.94
651.13	94.94
651.334	90.94
651.539	88.94
651.743	74.94
651.947	91.94
652.152	80.94
652.356	82.94
652.56	87.94
652.764	71.94
652.969	67.94
653.173	76.94
653.377	86.94
653.581	92.94
653.785	82.94
653.99	76.94
654.194	90.94
654.398	86.94
654.602	96.94
654.806	72.94
655.01	94.94
655.214	84.94
655.418	90.94
655.622	79.94
655.826	84.94
656.03	73.94
656.234	81.94
656.438	84.94
656.642	90.94
656.846	81.94
657.049	83.94
657.253	79.94
657.457	96.94
657.661	86.94
657.865	84.94
658.068	88.94
658.272	69.94
658.476	90.94
658.68	82.94
658.883	72.94
659.087	74.94
659.291	80.94
659.494	78.94
659.698	88.94
659.901	81.94
660.105	76.94
660.309	82.94
660.512	94.94
660.716	90.94
660.919	94.94
661.123	76.94
661.326	94.94
661.53	84.94
661.733	98.94
661.936	81.94
662.14	73.94
662.343	72.94
662.546	80.94
662.75	76.94
662.953	97.94
663.156	90.94
663.36	90.94
663.563	82.94
663.766	82.94
663.969	79.94
664.173	73.94
664.376	77.94
664.579	72.94
664.782	74.94
664.985	83.94
665.188	79.94
665.391	84.94
665.594	64.94
665.797	79.94
666	84.94
666.203	89.94
666.406	83.94
666.609	80.94
666.812	86.94
667.015	88.94
667.218	96.94
667.421	78.94
667.624	80.94
667.827	86.94
668.03	84.94
668.232	71.94
668.435	78.94
668.638	76.94
668.841	85.94
669.043	82.94
669.246	81.94
669.449	97.94
669.651	79.94
669.854	76.94
670.057	86.94
670.259	60.94
670.462	72.94
670.665	88.94
670.867	79.94
671.07	83.94
671.272	79.94
671.475	89.94
671.677	75.94
671.88	73.94
672.082	84.94
672.284	68.94
672.487	75.94
672.689	65.94
672.892	78.94
