Data from Lead_25_1_HRD10591_00072.txt Node
Date: Fri Feb 20 11:00:46 EST 2026
User: Yrep
Spectrometer: HR+D1059
Trigger mode: 1
Integration Time (sec): 1.000000E-1
Scans to average: 1
Electric dark correction enabled: true
Nonlinearity correction enabled: false
Boxcar width: 0
XAxis mode: Wavelengths
Number of Pixels in Spectrum: 2048
>>>>>Begin Spectral Data<<<<<
223.165	-28.19
223.4	-28.19
223.635	-28.19
223.869	-11.19
224.104	-9.19
224.338	-21.19
224.573	-19.19
224.808	-12.19
225.042	-13.19
225.277	0.81
225.511	2.81
225.746	14.81
225.98	-0.19
226.215	12.81
226.449	9.81
226.683	18.81
226.918	19.81
227.152	34.81
227.387	34.81
227.621	44.81
227.856	47.81
228.09	37.81
228.324	57.81
228.559	43.81
228.793	60.81
229.027	63.81
229.262	67.81
229.496	78.81
229.73	72.81
229.964	60.81
230.199	77.81
230.433	70.81
230.667	81.81
230.901	85.81
231.136	62.81
231.37	67.81
231.604	78.81
231.838	64.81
232.072	79.81
232.306	73.81
232.541	71.81
232.775	89.81
233.009	86.81
233.243	78.81
233.477	78.81
233.711	80.81
233.945	85.81
234.179	83.81
234.413	78.81
234.647	78.81
234.881	82.81
235.115	80.81
235.349	73.81
235.583	84.81
235.817	71.81
236.051	87.81
236.285	75.81
236.519	76.81
236.753	75.81
236.987	78.81
237.221	75.81
237.455	70.81
237.689	80.81
237.922	72.81
238.156	88.81
238.39	78.81
238.624	79.81
238.858	65.81
239.091	78.81
239.325	70.81
239.559	65.81
239.793	62.81
240.027	69.81
240.26	82.81
240.494	67.81
240.728	76.81
240.961	89.81
241.195	70.81
241.429	73.81
241.662	85.81
241.896	82.81
242.13	72.81
242.363	87.81
242.597	85.81
242.83	81.81
243.064	94.81
243.298	83.81
243.531	68.81
243.765	79.81
243.998	72.81
244.232	65.81
244.465	78.81
244.699	84.81
244.932	73.81
245.166	79.81
245.399	75.81
245.633	69.81
245.866	67.81
246.099	59.81
246.333	77.81
246.566	71.81
246.8	78.81
247.033	64.81
247.266	83.81
247.5	80.81
247.733	61.81
247.966	82.81
248.2	70.81
248.433	75.81
248.666	66.81
248.899	73.81
249.133	68.81
249.366	84.81
249.599	79.81
249.832	64.81
250.066	73.81
250.299	92.81
250.532	78.81
250.765	83.81
250.998	64.81
251.231	51.81
251.465	72.81
251.698	70.81
251.931	76.81
252.164	78.81
252.397	86.81
252.63	72.81
252.863	71.81
253.096	78.81
253.329	80.81
253.562	89.81
253.795	87.81
254.028	83.81
254.261	77.81
254.494	90.81
254.727	72.81
254.96	88.81
255.193	61.81
255.426	89.81
255.659	71.81
255.892	86.81
256.124	65.81
256.357	80.81
256.59	76.81
256.823	78.81
257.056	82.81
257.289	83.81
257.521	72.81
257.754	73.81
257.987	73.81
258.22	95.81
258.452	82.81
258.685	81.81
258.918	76.81
259.151	83.81
259.383	78.81
259.616	86.81
259.849	80.81
260.081	82.81
260.314	82.81
260.547	71.81
260.779	92.81
261.012	89.81
261.244	83.81
261.477	95.81
261.71	80.81
261.942	80.81
262.175	89.81
262.407	88.81
262.64	91.81
262.872	82.81
263.105	86.81
263.337	87.81
263.57	97.81
263.802	78.81
264.035	78.81
264.267	91.81
264.499	88.81
264.732	93.81
264.964	85.81
265.197	86.81
265.429	84.81
265.661	77.81
265.894	73.81
266.126	71.81
266.358	76.81
266.591	75.81
266.823	95.81
267.055	111.81
267.287	93.81
267.52	85.81
267.752	73.81
267.984	75.81
268.216	70.81
268.448	99.81
268.681	84.81
268.913	79.81
269.145	89.81
269.377	76.81
269.609	93.81
269.841	74.81
270.073	73.81
270.306	96.81
270.538	92.81
270.77	86.81
271.002	84.81
271.234	86.81
271.466	87.81
271.698	76.81
271.93	82.81
272.162	84.81
272.394	71.81
272.626	85.81
272.858	79.81
273.09	78.81
273.322	73.81
273.553	82.81
273.785	83.81
274.017	64.81
274.249	86.81
274.481	85.81
274.713	66.81
274.945	83.81
275.176	83.81
275.408	88.81
275.64	80.81
275.872	76.81
276.104	80.81
276.335	95.81
276.567	91.81
276.799	87.81
277.031	77.81
277.262	86.81
277.494	79.81
277.726	90.81
277.957	100.81
278.189	78.81
278.421	85.81
278.652	80.81
278.884	91.81
279.115	74.81
279.347	88.81
279.579	101.81
279.81	90.81
280.042	81.81
280.273	93.81
280.505	90.81
280.736	97.81
280.968	90.81
281.199	84.81
281.431	75.81
281.662	83.81
281.894	87.81
282.125	86.81
282.356	66.81
282.588	72.81
282.819	89.81
283.051	88.81
283.282	96.81
283.513	97.81
283.745	72.81
283.976	80.81
284.207	90.81
284.439	68.81
284.67	84.81
284.901	82.81
285.132	87.81
285.364	87.81
285.595	77.81
285.826	81.81
286.057	98.81
286.288	78.81
286.52	82.81
286.751	91.81
286.982	90.81
287.213	95.81
287.444	84.81
287.675	80.81
287.906	81.81
288.138	90.81
288.369	92.81
288.6	63.81
288.831	94.81
289.062	85.81
289.293	85.81
289.524	68.81
289.755	84.81
289.986	83.81
290.217	80.81
290.448	80.81
290.679	76.81
290.91	94.81
291.141	78.81
291.371	91.81
291.602	91.81
291.833	73.81
292.064	76.81
292.295	80.81
292.526	87.81
292.757	70.81
292.987	87.81
293.218	71.81
293.449	81.81
293.68	83.81
293.91	68.81
294.141	82.81
294.372	87.81
294.603	82.81
294.833	83.81
295.064	81.81
295.295	82.81
295.525	87.81
295.756	86.81
295.987	79.81
296.217	86.81
296.448	87.81
296.679	89.81
296.909	84.81
297.14	80.81
297.37	75.81
297.601	87.81
297.831	91.81
298.062	87.81
298.292	84.81
298.523	88.81
298.753	88.81
298.984	94.81
299.214	84.81
299.445	85.81
299.675	84.81
299.905	85.81
300.136	72.81
300.366	76.81
300.597	87.81
300.827	72.81
301.057	85.81
301.288	82.81
301.518	79.81
301.748	91.81
301.979	99.81
302.209	76.81
302.439	90.81
302.669	87.81
302.9	86.81
303.13	87.81
303.36	84.81
303.59	71.81
303.82	85.81
304.051	86.81
304.281	85.81
304.511	77.81
304.741	93.81
304.971	88.81
305.201	96.81
305.431	76.81
305.661	87.81
305.891	91.81
306.121	95.81
306.352	96.81
306.582	85.81
306.812	91.81
307.042	86.81
307.272	79.81
307.502	81.81
307.731	77.81
307.961	87.81
308.191	89.81
308.421	94.81
308.651	86.81
308.881	76.81
309.111	114.81
309.341	98.81
309.571	103.81
309.8	106.81
310.03	70.81
310.26	85.81
310.49	78.81
310.72	82.81
310.949	79.81
311.179	68.81
311.409	84.81
311.639	92.81
311.868	84.81
312.098	86.81
312.328	83.81
312.557	83.81
312.787	95.81
313.017	78.81
313.246	88.81
313.476	77.81
313.706	85.81
313.935	91.81
314.165	99.81
314.394	84.81
314.624	83.81
314.853	88.81
315.083	82.81
315.312	81.81
315.542	82.81
315.771	71.81
316.001	64.81
316.23	79.81
316.46	92.81
316.689	87.81
316.919	79.81
317.148	84.81
317.377	86.81
317.607	90.81
317.836	90.81
318.065	91.81
318.295	82.81
318.524	84.81
318.753	85.81
318.983	73.81
319.212	86.81
319.441	83.81
319.67	91.81
319.9	80.81
320.129	71.81
320.358	90.81
320.587	87.81
320.816	86.81
321.046	87.81
321.275	78.81
321.504	78.81
321.733	90.81
321.962	82.81
322.191	91.81
322.42	83.81
322.649	82.81
322.878	76.81
323.108	111.81
323.337	91.81
323.566	82.81
323.795	94.81
324.024	91.81
324.253	88.81
324.482	106.81
324.71	86.81
324.939	89.81
325.168	78.81
325.397	80.81
325.626	77.81
325.855	76.81
326.084	84.81
326.313	99.81
326.542	91.81
326.77	88.81
326.999	82.81
327.228	85.81
327.457	93.81
327.686	93.81
327.914	77.81
328.143	88.81
328.372	86.81
328.6	78.81
328.829	74.81
329.058	90.81
329.287	85.81
329.515	86.81
329.744	78.81
329.972	95.81
330.201	97.81
330.43	90.81
330.658	80.81
330.887	83.81
331.115	94.81
331.344	76.81
331.572	96.81
331.801	99.81
332.03	90.81
332.258	84.81
332.486	64.81
332.715	74.81
332.943	85.81
333.172	91.81
333.4	94.81
333.629	81.81
333.857	98.81
334.085	87.81
334.314	89.81
334.542	87.81
334.771	84.81
334.999	73.81
335.227	84.81
335.455	91.81
335.684	75.81
335.912	90.81
336.14	78.81
336.369	87.81
336.597	74.81
336.825	81.81
337.053	84.81
337.281	92.81
337.51	77.81
337.738	88.81
337.966	74.81
338.194	84.81
338.422	82.81
338.65	97.81
338.878	90.81
339.106	84.81
339.334	93.81
339.562	87.81
339.79	91.81
340.018	84.81
340.246	74.81
340.474	88.81
340.702	95.81
340.93	93.81
341.158	79.81
341.386	86.81
341.614	78.81
341.842	72.81
342.07	89.81
342.298	83.81
342.526	88.81
342.754	95.81
342.981	98.81
343.209	97.81
343.437	99.81
343.665	94.81
343.893	84.81
344.12	88.81
344.348	89.81
344.576	87.81
344.804	94.81
345.031	79.81
345.259	80.81
345.487	73.81
345.714	81.81
345.942	76.81
346.17	70.81
346.397	94.81
346.625	66.81
346.853	79.81
347.08	76.81
347.308	91.81
347.535	70.81
347.763	87.81
347.99	90.81
348.218	87.81
348.445	85.81
348.673	87.81
348.9	91.81
349.128	88.81
349.355	92.81
349.583	73.81
349.81	92.81
350.037	85.81
350.265	95.81
350.492	86.81
350.72	84.81
350.947	92.81
351.174	90.81
351.402	80.81
351.629	88.81
351.856	87.81
352.083	74.81
352.311	90.81
352.538	77.81
352.765	91.81
352.992	102.81
353.22	85.81
353.447	72.81
353.674	87.81
353.901	87.81
354.128	74.81
354.355	91.81
354.583	84.81
354.81	76.81
355.037	89.81
355.264	86.81
355.491	70.81
355.718	81.81
355.945	81.81
356.172	78.81
356.399	94.81
356.626	103.81
356.853	103.81
357.08	118.81
357.307	137.81
357.534	99.81
357.761	95.81
357.988	89.81
358.215	68.81
358.441	83.81
358.668	84.81
358.895	94.81
359.122	78.81
359.349	77.81
359.576	84.81
359.802	87.81
360.029	89.81
360.256	99.81
360.483	71.81
360.709	87.81
360.936	88.81
361.163	82.81
361.39	67.81
361.616	73.81
361.843	88.81
362.07	90.81
362.296	91.81
362.523	85.81
362.749	90.81
362.976	91.81
363.203	83.81
363.429	93.81
363.656	114.81
363.882	136.81
364.109	160.81
364.335	118.81
364.562	85.81
364.788	92.81
365.015	72.81
365.241	81.81
365.468	70.81
365.694	77.81
365.92	78.81
366.147	85.81
366.373	86.81
366.599	106.81
366.826	101.81
367.052	85.81
367.278	104.81
367.505	87.81
367.731	110.81
367.957	128.81
368.184	163.81
368.41	219.81
368.636	160.81
368.862	96.81
369.089	94.81
369.315	87.81
369.541	78.81
369.767	85.81
369.993	69.81
370.219	86.81
370.445	68.81
370.672	91.81
370.898	74.81
371.124	84.81
371.35	73.81
371.576	75.81
371.802	80.81
372.028	77.81
372.254	91.81
372.48	86.81
372.706	92.81
372.932	83.81
373.158	84.81
373.384	91.81
373.61	94.81
373.835	102.81
374.061	119.81
374.287	105.81
374.513	87.81
374.739	96.81
374.965	89.81
375.191	78.81
375.416	84.81
375.642	69.81
375.868	79.81
376.094	88.81
376.319	90.81
376.545	80.81
376.771	93.81
376.997	88.81
377.222	78.81
377.448	87.81
377.674	85.81
377.899	94.81
378.125	74.81
378.35	89.81
378.576	92.81
378.802	85.81
379.027	70.81
379.253	85.81
379.478	77.81
379.704	82.81
379.929	83.81
380.155	67.81
380.38	84.81
380.606	88.81
380.831	79.81
381.057	95.81
381.282	76.81
381.507	87.81
381.733	115.81
381.958	92.81
382.184	80.81
382.409	88.81
382.634	85.81
382.86	83.81
383.085	91.81
383.31	86.81
383.535	86.81
383.761	90.81
383.986	87.81
384.211	94.81
384.436	82.81
384.662	83.81
384.887	72.81
385.112	78.81
385.337	92.81
385.562	78.81
385.787	83.81
386.013	85.81
386.238	99.81
386.463	87.81
386.688	91.81
386.913	83.81
387.138	79.81
387.363	83.81
387.588	93.81
387.813	84.81
388.038	76.81
388.263	91.81
388.488	88.81
388.713	75.81
388.938	96.81
389.163	81.81
389.387	66.81
389.612	86.81
389.837	88.81
390.062	82.81
390.287	82.81
390.512	76.81
390.736	85.81
390.961	78.81
391.186	91.81
391.411	76.81
391.636	91.81
391.86	71.81
392.085	95.81
392.31	81.81
392.534	82.81
392.759	86.81
392.984	83.81
393.208	115.81
393.433	120.81
393.658	97.81
393.882	88.81
394.107	100.81
394.331	116.81
394.556	142.81
394.78	107.81
395.005	91.81
395.229	76.81
395.454	94.81
395.678	88.81
395.903	96.81
396.127	143.81
396.352	157.81
396.576	106.81
396.801	104.81
397.025	110.81
397.249	102.81
397.474	89.81
397.698	90.81
397.922	82.81
398.147	86.81
398.371	87.81
398.595	79.81
398.82	80.81
399.044	78.81
399.268	91.81
399.492	93.81
399.717	74.81
399.941	74.81
400.165	91.81
400.389	80.81
400.613	85.81
400.837	76.81
401.062	94.81
401.286	87.81
401.51	92.81
401.734	74.81
401.958	91.81
402.182	83.81
402.406	86.81
402.63	99.81
402.854	87.81
403.078	105.81
403.302	92.81
403.526	86.81
403.75	84.81
403.974	92.81
404.198	131.81
404.422	164.81
404.645	199.81
404.869	164.81
405.093	138.81
405.317	117.81
405.541	188.81
405.765	293.81
405.988	312.81
406.212	188.81
406.436	116.81
406.66	93.81
406.883	80.81
407.107	72.81
407.331	94.81
407.555	82.81
407.778	103.81
408.002	88.81
408.226	86.81
408.449	97.81
408.673	75.81
408.896	96.81
409.12	78.81
409.344	106.81
409.567	80.81
409.791	79.81
410.014	89.81
410.238	85.81
410.461	76.81
410.685	80.81
410.908	86.81
411.132	85.81
411.355	78.81
411.578	87.81
411.802	84.81
412.025	94.81
412.249	76.81
412.472	80.81
412.695	83.81
412.919	98.81
413.142	80.81
413.365	91.81
413.589	67.81
413.812	86.81
414.035	88.81
414.258	87.81
414.482	80.81
414.705	73.81
414.928	87.81
415.151	67.81
415.374	82.81
415.597	70.81
415.821	77.81
416.044	78.81
416.267	69.81
416.49	77.81
416.713	76.81
416.936	86.81
417.159	104.81
417.382	90.81
417.605	86.81
417.828	87.81
418.051	87.81
418.274	99.81
418.497	70.81
418.72	66.81
418.943	86.81
419.166	82.81
419.389	75.81
419.611	82.81
419.834	77.81
420.057	82.81
420.28	72.81
420.503	94.81
420.726	84.81
420.948	84.81
421.171	85.81
421.394	87.81
421.617	98.81
421.839	85.81
422.062	85.81
422.285	98.81
422.507	101.81
422.73	119.81
422.953	112.81
423.175	79.81
423.398	85.81
423.621	86.81
423.843	89.81
424.066	76.81
424.288	96.81
424.511	92.81
424.733	86.81
424.956	74.81
425.178	77.81
425.401	87.81
425.623	88.81
425.846	71.81
426.068	81.81
426.291	90.81
426.513	92.81
426.735	101.81
426.958	90.81
427.18	83.81
427.402	90.81
427.625	99.81
427.847	80.81
428.069	80.81
428.292	78.81
428.514	85.81
428.736	82.81
428.958	79.81
429.181	81.81
429.403	86.81
429.625	84.81
429.847	69.81
430.069	84.81
430.292	84.81
430.514	77.81
430.736	85.81
430.958	81.81
431.18	92.81
431.402	88.81
431.624	90.81
431.846	90.81
432.068	94.81
432.29	86.81
432.512	90.81
432.734	85.81
432.956	78.81
433.178	100.81
433.4	82.81
433.622	83.81
433.844	93.81
434.066	75.81
434.287	72.81
434.509	74.81
434.731	82.81
434.953	84.81
435.175	87.81
435.397	83.81
435.618	85.81
435.84	80.81
436.062	69.81
436.284	76.81
436.505	76.81
436.727	88.81
436.949	87.81
437.17	80.81
437.392	72.81
437.614	75.81
437.835	87.81
438.057	73.81
438.278	93.81
438.5	74.81
438.721	66.81
438.943	84.81
439.165	84.81
439.386	76.81
439.608	84.81
439.829	64.81
440.05	76.81
440.272	78.81
440.493	90.81
440.715	82.81
440.936	78.81
441.158	81.81
441.379	89.81
441.6	94.81
441.822	90.81
442.043	80.81
442.264	91.81
442.486	86.81
442.707	88.81
442.928	87.81
443.149	83.81
443.371	80.81
443.592	85.81
443.813	85.81
444.034	87.81
444.255	87.81
444.476	85.81
444.698	82.81
444.919	80.81
445.14	150.81
445.361	123.81
445.582	86.81
445.803	85.81
446.024	87.81
446.245	86.81
446.466	82.81
446.687	92.81
446.908	79.81
447.129	84.81
447.35	94.81
447.571	78.81
447.792	97.81
448.013	82.81
448.234	96.81
448.455	82.81
448.675	98.81
448.896	71.81
449.117	77.81
449.338	76.81
449.559	78.81
449.779	67.81
450	82.81
450.221	72.81
450.442	79.81
450.662	86.81
450.883	85.81
451.104	81.81
451.324	78.81
451.545	95.81
451.766	84.81
451.986	80.81
452.207	87.81
452.428	78.81
452.648	88.81
452.869	92.81
453.089	83.81
453.31	85.81
453.53	84.81
453.751	84.81
453.971	75.81
454.192	63.81
454.412	88.81
454.633	85.81
454.853	90.81
455.073	82.81
455.294	75.81
455.514	71.81
455.734	81.81
455.955	79.81
456.175	83.81
456.395	87.81
456.616	84.81
456.836	92.81
457.056	91.81
457.276	77.81
457.497	82.81
457.717	86.81
457.937	76.81
458.157	72.81
458.377	97.81
458.598	76.81
458.818	98.81
459.038	84.81
459.258	82.81
459.478	79.81
459.698	84.81
459.918	77.81
460.138	73.81
460.358	85.81
460.578	89.81
460.798	81.81
461.018	78.81
461.238	84.81
461.458	95.81
461.678	85.81
461.898	81.81
462.118	83.81
462.338	71.81
462.558	92.81
462.777	94.81
462.997	94.81
463.217	91.81
463.437	81.81
463.657	95.81
463.876	83.81
464.096	87.81
464.316	87.81
464.536	88.81
464.755	83.81
464.975	76.81
465.195	84.81
465.414	85.81
465.634	77.81
465.854	87.81
466.073	83.81
466.293	95.81
466.512	88.81
466.732	78.81
466.951	83.81
467.171	80.81
467.391	83.81
467.61	79.81
467.829	84.81
468.049	85.81
468.268	76.81
468.488	71.81
468.707	73.81
468.927	79.81
469.146	81.81
469.365	73.81
469.585	86.81
469.804	72.81
470.023	75.81
470.243	82.81
470.462	92.81
470.681	77.81
470.901	103.81
471.12	94.81
471.339	73.81
471.558	82.81
471.777	87.81
471.997	71.81
472.216	71.81
472.435	85.81
472.654	94.81
472.873	84.81
473.092	69.81
473.311	91.81
473.53	89.81
473.749	85.81
473.968	79.81
474.187	72.81
474.406	88.81
474.625	85.81
474.844	86.81
475.063	84.81
475.282	88.81
475.501	68.81
475.72	83.81
475.939	87.81
476.158	79.81
476.377	89.81
476.596	82.81
476.814	80.81
477.033	80.81
477.252	84.81
477.471	95.81
477.69	96.81
477.908	84.81
478.127	85.81
478.346	92.81
478.564	82.81
478.783	81.81
479.002	92.81
479.22	88.81
479.439	88.81
479.658	90.81
479.876	89.81
480.095	90.81
480.313	77.81
480.532	94.81
480.751	94.81
480.969	83.81
481.188	87.81
481.406	89.81
481.624	84.81
481.843	95.81
482.061	85.81
482.28	80.81
482.498	78.81
482.717	87.81
482.935	81.81
483.153	92.81
483.372	103.81
483.59	85.81
483.808	89.81
484.027	83.81
484.245	75.81
484.463	83.81
484.681	105.81
484.9	90.81
485.118	91.81
485.336	87.81
485.554	78.81
485.772	92.81
485.99	75.81
486.209	86.81
486.427	92.81
486.645	93.81
486.863	86.81
487.081	94.81
487.299	94.81
487.517	83.81
487.735	110.81
487.953	80.81
488.171	89.81
488.389	86.81
488.607	93.81
488.825	86.81
489.043	91.81
489.261	91.81
489.479	80.81
489.696	83.81
489.914	85.81
490.132	97.81
490.35	84.81
490.568	76.81
490.786	96.81
491.003	88.81
491.221	83.81
491.439	93.81
491.657	86.81
491.874	86.81
492.092	83.81
492.31	94.81
492.527	94.81
492.745	92.81
492.963	95.81
493.18	80.81
493.398	73.81
493.615	88.81
493.833	75.81
494.05	91.81
494.268	88.81
494.485	84.81
494.703	80.81
494.92	95.81
495.138	94.81
495.355	76.81
495.573	90.81
495.79	91.81
496.008	94.81
496.225	111.81
496.442	91.81
496.66	85.81
496.877	88.81
497.094	76.81
497.312	62.81
497.529	87.81
497.746	91.81
497.963	90.81
498.181	96.81
498.398	87.81
498.615	82.81
498.832	94.81
499.049	76.81
499.267	80.81
499.484	92.81
499.701	96.81
499.918	77.81
500.135	98.81
500.352	96.81
500.569	99.81
500.786	120.81
501.003	98.81
501.22	68.81
501.437	85.81
501.654	65.81
501.871	77.81
502.088	82.81
502.305	81.81
502.522	86.81
502.739	89.81
502.956	101.81
503.172	93.81
503.389	96.81
503.606	82.81
503.823	81.81
504.04	91.81
504.256	102.81
504.473	66.81
504.69	93.81
504.907	89.81
505.123	90.81
505.34	101.81
505.557	82.81
505.773	83.81
505.99	87.81
506.207	78.81
506.423	102.81
506.64	83.81
506.856	86.81
507.073	96.81
507.289	97.81
507.506	80.81
507.722	82.81
507.939	78.81
508.155	90.81
508.372	104.81
508.588	99.81
508.805	92.81
509.021	85.81
509.238	106.81
509.454	88.81
509.67	89.81
509.887	84.81
510.103	73.81
510.319	92.81
510.536	86.81
510.752	82.81
510.968	96.81
511.184	94.81
511.401	90.81
511.617	88.81
511.833	88.81
512.049	85.81
512.265	95.81
512.481	96.81
512.698	87.81
512.914	97.81
513.13	75.81
513.346	84.81
513.562	94.81
513.778	96.81
513.994	83.81
514.21	86.81
514.426	95.81
514.642	72.81
514.858	72.81
515.074	88.81
515.29	94.81
515.506	82.81
515.721	81.81
515.937	79.81
516.153	90.81
516.369	107.81
516.585	79.81
516.801	69.81
517.016	80.81
517.232	76.81
517.448	75.81
517.664	93.81
517.879	93.81
518.095	86.81
518.311	83.81
518.527	95.81
518.742	87.81
518.958	84.81
519.173	76.81
519.389	69.81
519.605	96.81
519.82	80.81
520.036	72.81
520.251	83.81
520.467	74.81
520.682	83.81
520.898	91.81
521.113	82.81
521.329	87.81
521.544	86.81
521.76	95.81
521.975	90.81
522.19	78.81
522.406	78.81
522.621	85.81
522.836	86.81
523.052	82.81
523.267	96.81
523.482	87.81
523.698	89.81
523.913	96.81
524.128	96.81
524.343	86.81
524.559	94.81
524.774	88.81
524.989	89.81
525.204	109.81
525.419	99.81
525.634	90.81
525.849	88.81
526.064	82.81
526.28	95.81
526.495	104.81
526.71	82.81
526.925	79.81
527.14	80.81
527.355	82.81
527.57	87.81
527.785	80.81
527.999	94.81
528.214	83.81
528.429	86.81
528.644	83.81
528.859	85.81
529.074	91.81
529.289	96.81
529.503	79.81
529.718	101.81
529.933	94.81
530.148	90.81
530.363	86.81
530.577	90.81
530.792	74.81
531.007	71.81
531.221	82.81
531.436	66.81
531.651	87.81
531.865	78.81
532.08	76.81
532.295	101.81
532.509	88.81
532.724	92.81
532.938	84.81
533.153	83.81
533.367	78.81
533.582	85.81
533.796	87.81
534.011	93.81
534.225	98.81
534.44	94.81
534.654	72.81
534.868	71.81
535.083	93.81
535.297	90.81
535.511	103.81
535.726	93.81
535.94	96.81
536.154	87.81
536.369	103.81
536.583	81.81
536.797	88.81
537.011	67.81
537.225	88.81
537.44	80.81
537.654	84.81
537.868	77.81
538.082	77.81
538.296	84.81
538.51	92.81
538.724	88.81
538.938	83.81
539.153	87.81
539.367	80.81
539.581	80.81
539.795	75.81
540.009	82.81
540.222	91.81
540.436	82.81
540.65	92.81
540.864	82.81
541.078	77.81
541.292	96.81
541.506	91.81
541.72	89.81
541.934	81.81
542.147	88.81
542.361	73.81
542.575	79.81
542.789	79.81
543.002	81.81
543.216	91.81
543.43	92.81
543.644	92.81
543.857	93.81
544.071	76.81
544.285	92.81
544.498	88.81
544.712	101.81
544.925	82.81
545.139	83.81
545.352	81.81
545.566	80.81
545.779	89.81
545.993	88.81
546.206	86.81
546.42	98.81
546.633	83.81
546.847	94.81
547.06	87.81
547.274	71.81
547.487	94.81
547.7	80.81
547.914	90.81
548.127	84.81
548.34	94.81
548.554	84.81
548.767	84.81
548.98	92.81
549.193	81.81
549.407	85.81
549.62	84.81
549.833	80.81
550.046	93.81
550.259	90.81
550.473	75.81
550.686	77.81
550.899	90.81
551.112	97.81
551.325	71.81
551.538	84.81
551.751	78.81
551.964	74.81
552.177	82.81
552.39	73.81
552.603	86.81
552.816	82.81
553.029	88.81
553.242	100.81
553.455	91.81
553.667	82.81
553.88	65.81
554.093	78.81
554.306	87.81
554.519	90.81
554.732	86.81
554.944	98.81
555.157	81.81
555.37	89.81
555.583	87.81
555.795	87.81
556.008	92.81
556.221	77.81
556.433	86.81
556.646	93.81
556.859	84.81
557.071	91.81
557.284	93.81
557.496	90.81
557.709	100.81
557.921	76.81
558.134	85.81
558.346	68.81
558.559	96.81
558.771	94.81
558.984	93.81
559.196	91.81
559.409	83.81
559.621	86.81
559.833	82.81
560.046	67.81
560.258	78.81
560.47	82.81
560.683	108.81
560.895	92.81
561.107	87.81
561.32	91.81
561.532	80.81
561.744	95.81
561.956	90.81
562.168	82.81
562.381	87.81
562.593	94.81
562.805	97.81
563.017	91.81
563.229	73.81
563.441	93.81
563.653	79.81
563.865	84.81
564.077	91.81
564.289	91.81
564.501	80.81
564.713	81.81
564.925	86.81
565.137	80.81
565.349	70.81
565.561	82.81
565.773	95.81
565.985	77.81
566.197	86.81
566.408	84.81
566.62	94.81
566.832	86.81
567.044	89.81
567.255	95.81
567.467	85.81
567.679	90.81
567.891	86.81
568.102	82.81
568.314	95.81
568.526	87.81
568.737	93.81
568.949	100.81
569.161	98.81
569.372	79.81
569.584	76.81
569.795	83.81
570.007	88.81
570.218	103.81
570.43	90.81
570.641	91.81
570.853	90.81
571.064	90.81
571.276	95.81
571.487	80.81
571.698	80.81
571.91	85.81
572.121	90.81
572.333	86.81
572.544	88.81
572.755	70.81
572.966	84.81
573.178	93.81
573.389	85.81
573.6	94.81
573.811	90.81
574.023	87.81
574.234	76.81
574.445	81.81
574.656	84.81
574.867	95.81
575.078	106.81
575.289	83.81
575.501	89.81
575.712	88.81
575.923	76.81
576.134	96.81
576.345	95.81
576.556	88.81
576.767	88.81
576.978	73.81
577.188	86.81
577.399	95.81
577.61	89.81
577.821	87.81
578.032	94.81
578.243	94.81
578.454	100.81
578.665	102.81
578.875	84.81
579.086	96.81
579.297	82.81
579.508	93.81
579.718	91.81
579.929	110.81
580.14	104.81
580.35	107.81
580.561	110.81
580.772	108.81
580.982	99.81
581.193	99.81
581.403	83.81
581.614	86.81
581.825	82.81
582.035	76.81
582.246	97.81
582.456	90.81
582.667	87.81
582.877	88.81
583.087	95.81
583.298	105.81
583.508	99.81
583.719	92.81
583.929	95.81
584.139	95.81
584.35	107.81
584.56	87.81
584.77	74.81
584.981	84.81
585.191	96.81
585.401	91.81
585.611	81.81
585.821	88.81
586.032	104.81
586.242	101.81
586.452	73.81
586.662	87.81
586.872	82.81
587.082	82.81
587.292	81.81
587.502	92.81
587.713	83.81
587.923	95.81
588.133	101.81
588.343	111.81
588.553	101.81
588.762	124.81
588.972	224.81
589.182	542.81
589.392	348.81
589.602	271.81
589.812	475.81
590.022	254.81
590.232	124.81
590.441	92.81
590.651	92.81
590.861	93.81
591.071	82.81
591.281	100.81
591.49	88.81
591.7	80.81
591.91	90.81
592.119	92.81
592.329	101.81
592.539	96.81
592.748	83.81
592.958	80.81
593.167	87.81
593.377	85.81
593.587	90.81
593.796	88.81
594.006	90.81
594.215	95.81
594.424	90.81
594.634	84.81
594.843	94.81
595.053	99.81
595.262	95.81
595.472	101.81
595.681	99.81
595.89	82.81
596.1	79.81
596.309	78.81
596.518	78.81
596.727	83.81
596.937	76.81
597.146	91.81
597.355	85.81
597.564	97.81
597.774	79.81
597.983	84.81
598.192	94.81
598.401	86.81
598.61	86.81
598.819	98.81
599.028	86.81
599.237	101.81
599.446	68.81
599.655	97.81
599.864	87.81
600.073	99.81
600.282	85.81
600.491	93.81
600.7	84.81
600.909	72.81
601.118	82.81
601.327	98.81
601.536	72.81
601.745	79.81
601.953	87.81
602.162	94.81
602.371	112.81
602.58	101.81
602.789	92.81
602.997	84.81
603.206	93.81
603.415	90.81
603.623	82.81
603.832	93.81
604.041	88.81
604.249	81.81
604.458	79.81
604.666	80.81
604.875	94.81
605.084	98.81
605.292	75.81
605.501	83.81
605.709	86.81
605.918	94.81
606.126	86.81
606.334	94.81
606.543	93.81
606.751	89.81
606.96	83.81
607.168	89.81
607.376	89.81
607.585	77.81
607.793	90.81
608.001	93.81
608.21	88.81
608.418	80.81
608.626	78.81
608.834	83.81
609.043	68.81
609.251	80.81
609.459	73.81
609.667	73.81
609.875	71.81
610.083	76.81
610.291	81.81
610.499	101.81
610.707	87.81
610.916	96.81
611.124	94.81
611.332	95.81
611.54	73.81
611.748	86.81
611.955	85.81
612.163	87.81
612.371	94.81
612.579	86.81
612.787	91.81
612.995	112.81
613.203	80.81
613.411	82.81
613.618	85.81
613.826	84.81
614.034	69.81
614.242	87.81
614.449	81.81
614.657	72.81
614.865	95.81
615.072	79.81
615.28	85.81
615.488	80.81
615.695	94.81
615.903	83.81
616.111	95.81
616.318	110.81
616.526	94.81
616.733	85.81
616.941	86.81
617.148	94.81
617.356	91.81
617.563	75.81
617.771	79.81
617.978	92.81
618.185	92.81
618.393	84.81
618.6	84.81
618.807	80.81
619.015	76.81
619.222	70.81
619.429	81.81
619.637	82.81
619.844	91.81
620.051	90.81
620.258	92.81
620.466	95.81
620.673	83.81
620.88	90.81
621.087	85.81
621.294	87.81
621.501	94.81
621.708	78.81
621.915	92.81
622.122	86.81
622.329	85.81
622.536	72.81
622.743	78.81
622.95	85.81
623.157	97.81
623.364	85.81
623.571	77.81
623.778	83.81
623.985	89.81
624.192	82.81
624.399	84.81
624.606	83.81
624.812	84.81
625.019	71.81
625.226	80.81
625.433	78.81
625.639	86.81
625.846	97.81
626.053	80.81
626.259	82.81
626.466	91.81
626.673	82.81
626.879	84.81
627.086	76.81
627.293	95.81
627.499	74.81
627.706	84.81
627.912	75.81
628.119	92.81
628.325	90.81
628.532	70.81
628.738	67.81
628.945	81.81
629.151	94.81
629.357	78.81
629.564	77.81
629.77	77.81
629.976	88.81
630.183	89.81
630.389	80.81
630.595	82.81
630.802	76.81
631.008	78.81
631.214	84.81
631.42	95.81
631.627	86.81
631.833	80.81
632.039	93.81
632.245	74.81
632.451	74.81
632.657	76.81
632.863	87.81
633.069	83.81
633.275	93.81
633.481	85.81
633.688	78.81
633.893	89.81
634.099	76.81
634.305	66.81
634.511	77.81
634.717	86.81
634.923	85.81
635.129	84.81
635.335	98.81
635.541	90.81
635.747	83.81
635.952	80.81
636.158	80.81
636.364	80.81
636.57	67.81
636.775	84.81
636.981	77.81
637.187	90.81
637.392	72.81
637.598	71.81
637.804	75.81
638.009	85.81
638.215	72.81
638.421	82.81
638.626	78.81
638.832	80.81
639.037	86.81
639.243	85.81
639.448	80.81
639.654	90.81
639.859	91.81
640.065	90.81
640.27	86.81
640.475	96.81
640.681	88.81
640.886	88.81
641.091	86.81
641.297	89.81
641.502	84.81
641.707	85.81
641.913	74.81
642.118	83.81
642.323	79.81
642.528	81.81
642.733	75.81
642.939	78.81
643.144	85.81
643.349	78.81
643.554	82.81
643.759	86.81
643.964	76.81
644.169	87.81
644.374	78.81
644.579	78.81
644.784	77.81
644.989	101.81
645.194	82.81
645.399	76.81
645.604	83.81
645.809	79.81
646.014	82.81
646.219	84.81
646.423	95.81
646.628	86.81
646.833	88.81
647.038	84.81
647.243	67.81
647.447	72.81
647.652	67.81
647.857	83.81
648.062	93.81
648.266	84.81
648.471	78.81
648.676	96.81
648.88	85.81
649.085	77.81
649.289	86.81
649.494	82.81
649.698	81.81
649.903	75.81
650.107	79.81
650.312	86.81
650.516	80.81
650.721	90.81
650.925	94.81
651.13	84.81
651.334	80.81
651.539	81.81
651.743	88.81
651.947	94.81
652.152	85.81
652.356	85.81
652.56	76.81
652.764	75.81
652.969	81.81
653.173	71.81
653.377	86.81
653.581	86.81
653.785	89.81
653.99	79.81
654.194	76.81
654.398	74.81
654.602	69.81
654.806	92.81
655.01	84.81
655.214	90.81
655.418	90.81
655.622	74.81
655.826	81.81
656.03	88.81
656.234	86.81
656.438	85.81
656.642	92.81
656.846	66.81
657.049	84.81
657.253	80.81
657.457	71.81
657.661	80.81
657.865	92.81
658.068	84.81
658.272	86.81
658.476	89.81
658.68	88.81
658.883	78.81
659.087	83.81
659.291	64.81
659.494	77.81
659.698	79.81
659.901	97.81
660.105	71.81
660.309	77.81
660.512	66.81
660.716	72.81
660.919	82.81
661.123	84.81
661.326	88.81
661.53	66.81
661.733	87.81
661.936	90.81
662.14	90.81
662.343	82.81
662.546	76.81
662.75	88.81
662.953	86.81
663.156	88.81
663.36	83.81
663.563	87.81
663.766	71.81
663.969	63.81
664.173	82.81
664.376	78.81
664.579	88.81
664.782	86.81
664.985	90.81
665.188	71.81
665.391	83.81
665.594	86.81
665.797	81.81
666	81.81
666.203	93.81
666.406	84.81
666.609	92.81
666.812	93.81
667.015	73.81
667.218	85.81
667.421	93.81
667.624	78.81
667.827	77.81
668.03	67.81
668.232	80.81
668.435	90.81
668.638	74.81
668.841	95.81
669.043	81.81
669.246	84.81
669.449	82.81
669.651	72.81
669.854	70.81
670.057	79.81
670.259	66.81
670.462	83.81
670.665	80.81
670.867	94.81
671.07	78.81
671.272	80.81
671.475	75.81
671.677	72.81
671.88	79.81
672.082	91.81
672.284	88.81
672.487	77.81
672.689	76.81
672.892	89.81
