Data from Lead_25_1_HRD10591_00082.txt Node
Date: Fri Feb 20 11:00:49 EST 2026
User: Yrep
Spectrometer: HR+D1059
Trigger mode: 1
Integration Time (sec): 1.000000E-1
Scans to average: 1
Electric dark correction enabled: true
Nonlinearity correction enabled: false
Boxcar width: 0
XAxis mode: Wavelengths
Number of Pixels in Spectrum: 2048
>>>>>Begin Spectral Data<<<<<
223.165	-9.44
223.4	-9.44
223.635	-9.44
223.869	-23.44
224.104	-18.44
224.338	-16.44
224.573	-24.44
224.808	-16.44
225.042	-11.44
225.277	-13.44
225.511	8.56
225.746	13.56
225.98	25.56
226.215	1.56
226.449	13.56
226.683	21.56
226.918	28.56
227.152	20.56
227.387	27.56
227.621	38.56
227.856	50.56
228.09	49.56
228.324	55.56
228.559	58.56
228.793	71.56
229.027	67.56
229.262	83.56
229.496	81.56
229.73	72.56
229.964	67.56
230.199	81.56
230.433	61.56
230.667	84.56
230.901	66.56
231.136	80.56
231.37	75.56
231.604	85.56
231.838	83.56
232.072	93.56
232.306	87.56
232.541	92.56
232.775	91.56
233.009	85.56
233.243	88.56
233.477	88.56
233.711	84.56
233.945	70.56
234.179	78.56
234.413	79.56
234.647	80.56
234.881	81.56
235.115	72.56
235.349	80.56
235.583	74.56
235.817	65.56
236.051	76.56
236.285	72.56
236.519	72.56
236.753	85.56
236.987	80.56
237.221	75.56
237.455	78.56
237.689	75.56
237.922	67.56
238.156	65.56
238.39	82.56
238.624	70.56
238.858	76.56
239.091	79.56
239.325	63.56
239.559	76.56
239.793	88.56
240.027	81.56
240.26	89.56
240.494	82.56
240.728	69.56
240.961	73.56
241.195	80.56
241.429	84.56
241.662	81.56
241.896	68.56
242.13	89.56
242.363	83.56
242.597	78.56
242.83	78.56
243.064	64.56
243.298	82.56
243.531	75.56
243.765	64.56
243.998	69.56
244.232	71.56
244.465	93.56
244.699	68.56
244.932	83.56
245.166	67.56
245.399	77.56
245.633	75.56
245.866	72.56
246.099	79.56
246.333	76.56
246.566	76.56
246.8	64.56
247.033	77.56
247.266	78.56
247.5	71.56
247.733	73.56
247.966	84.56
248.2	87.56
248.433	72.56
248.666	83.56
248.899	73.56
249.133	63.56
249.366	84.56
249.599	85.56
249.832	79.56
250.066	71.56
250.299	77.56
250.532	91.56
250.765	89.56
250.998	65.56
251.231	72.56
251.465	79.56
251.698	73.56
251.931	87.56
252.164	94.56
252.397	80.56
252.63	79.56
252.863	68.56
253.096	63.56
253.329	67.56
253.562	78.56
253.795	83.56
254.028	79.56
254.261	82.56
254.494	71.56
254.727	89.56
254.96	73.56
255.193	68.56
255.426	75.56
255.659	77.56
255.892	81.56
256.124	78.56
256.357	80.56
256.59	89.56
256.823	75.56
257.056	87.56
257.289	74.56
257.521	78.56
257.754	84.56
257.987	77.56
258.22	87.56
258.452	73.56
258.685	85.56
258.918	81.56
259.151	66.56
259.383	78.56
259.616	81.56
259.849	80.56
260.081	95.56
260.314	69.56
260.547	72.56
260.779	74.56
261.012	71.56
261.244	69.56
261.477	83.56
261.71	84.56
261.942	99.56
262.175	75.56
262.407	80.56
262.64	86.56
262.872	97.56
263.105	91.56
263.337	87.56
263.57	75.56
263.802	75.56
264.035	86.56
264.267	92.56
264.499	96.56
264.732	92.56
264.964	87.56
265.197	83.56
265.429	77.56
265.661	83.56
265.894	91.56
266.126	66.56
266.358	85.56
266.591	92.56
266.823	82.56
267.055	63.56
267.287	88.56
267.52	74.56
267.752	67.56
267.984	98.56
268.216	65.56
268.448	63.56
268.681	94.56
268.913	75.56
269.145	75.56
269.377	86.56
269.609	84.56
269.841	77.56
270.073	79.56
270.306	73.56
270.538	96.56
270.77	87.56
271.002	77.56
271.234	96.56
271.466	90.56
271.698	87.56
271.93	77.56
272.162	89.56
272.394	91.56
272.626	89.56
272.858	77.56
273.09	81.56
273.322	86.56
273.553	67.56
273.785	91.56
274.017	74.56
274.249	73.56
274.481	91.56
274.713	77.56
274.945	81.56
275.176	85.56
275.408	82.56
275.64	81.56
275.872	91.56
276.104	85.56
276.335	70.56
276.567	64.56
276.799	73.56
277.031	77.56
277.262	82.56
277.494	95.56
277.726	79.56
277.957	70.56
278.189	82.56
278.421	79.56
278.652	87.56
278.884	82.56
279.115	98.56
279.347	84.56
279.579	91.56
279.81	84.56
280.042	98.56
280.273	86.56
280.505	88.56
280.736	79.56
280.968	87.56
281.199	76.56
281.431	85.56
281.662	89.56
281.894	85.56
282.125	84.56
282.356	90.56
282.588	101.56
282.819	83.56
283.051	101.56
283.282	100.56
283.513	84.56
283.745	98.56
283.976	81.56
284.207	84.56
284.439	84.56
284.67	88.56
284.901	73.56
285.132	85.56
285.364	80.56
285.595	77.56
285.826	92.56
286.057	93.56
286.288	78.56
286.52	85.56
286.751	92.56
286.982	91.56
287.213	99.56
287.444	93.56
287.675	87.56
287.906	79.56
288.138	83.56
288.369	76.56
288.6	85.56
288.831	81.56
289.062	95.56
289.293	75.56
289.524	79.56
289.755	87.56
289.986	86.56
290.217	85.56
290.448	89.56
290.679	93.56
290.91	79.56
291.141	74.56
291.371	86.56
291.602	98.56
291.833	87.56
292.064	91.56
292.295	85.56
292.526	81.56
292.757	77.56
292.987	69.56
293.218	82.56
293.449	77.56
293.68	91.56
293.91	88.56
294.141	87.56
294.372	87.56
294.603	80.56
294.833	96.56
295.064	85.56
295.295	80.56
295.525	75.56
295.756	79.56
295.987	79.56
296.217	73.56
296.448	81.56
296.679	91.56
296.909	100.56
297.14	81.56
297.37	72.56
297.601	95.56
297.831	79.56
298.062	88.56
298.292	88.56
298.523	80.56
298.753	87.56
298.984	86.56
299.214	92.56
299.445	88.56
299.675	77.56
299.905	87.56
300.136	86.56
300.366	87.56
300.597	81.56
300.827	89.56
301.057	86.56
301.288	79.56
301.518	73.56
301.748	96.56
301.979	110.56
302.209	81.56
302.439	86.56
302.669	91.56
302.9	79.56
303.13	102.56
303.36	92.56
303.59	77.56
303.82	100.56
304.051	91.56
304.281	81.56
304.511	93.56
304.741	77.56
304.971	85.56
305.201	87.56
305.431	75.56
305.661	78.56
305.891	71.56
306.121	89.56
306.352	101.56
306.582	89.56
306.812	88.56
307.042	87.56
307.272	104.56
307.502	81.56
307.731	85.56
307.961	80.56
308.191	96.56
308.421	80.56
308.651	88.56
308.881	88.56
309.111	81.56
309.341	88.56
309.571	95.56
309.8	95.56
310.03	86.56
310.26	91.56
310.49	75.56
310.72	95.56
310.949	77.56
311.179	86.56
311.409	97.56
311.639	89.56
311.868	89.56
312.098	89.56
312.328	80.56
312.557	72.56
312.787	67.56
313.017	78.56
313.246	80.56
313.476	84.56
313.706	91.56
313.935	82.56
314.165	74.56
314.394	79.56
314.624	85.56
314.853	82.56
315.083	87.56
315.312	89.56
315.542	97.56
315.771	91.56
316.001	81.56
316.23	96.56
316.46	85.56
316.689	91.56
316.919	86.56
317.148	83.56
317.377	99.56
317.607	101.56
317.836	100.56
318.065	93.56
318.295	85.56
318.524	81.56
318.753	91.56
318.983	95.56
319.212	76.56
319.441	57.56
319.67	86.56
319.9	72.56
320.129	78.56
320.358	84.56
320.587	79.56
320.816	77.56
321.046	91.56
321.275	81.56
321.504	75.56
321.733	87.56
321.962	95.56
322.191	79.56
322.42	74.56
322.649	80.56
322.878	87.56
323.108	77.56
323.337	80.56
323.566	76.56
323.795	85.56
324.024	90.56
324.253	87.56
324.482	81.56
324.71	96.56
324.939	91.56
325.168	83.56
325.397	95.56
325.626	82.56
325.855	86.56
326.084	91.56
326.313	93.56
326.542	97.56
326.77	99.56
326.999	84.56
327.228	97.56
327.457	87.56
327.686	77.56
327.914	96.56
328.143	101.56
328.372	78.56
328.6	87.56
328.829	65.56
329.058	72.56
329.287	90.56
329.515	93.56
329.744	81.56
329.972	91.56
330.201	79.56
330.43	83.56
330.658	81.56
330.887	88.56
331.115	90.56
331.344	77.56
331.572	67.56
331.801	84.56
332.03	76.56
332.258	89.56
332.486	77.56
332.715	69.56
332.943	73.56
333.172	85.56
333.4	87.56
333.629	98.56
333.857	77.56
334.085	68.56
334.314	81.56
334.542	75.56
334.771	74.56
334.999	85.56
335.227	85.56
335.455	90.56
335.684	90.56
335.912	74.56
336.14	89.56
336.369	88.56
336.597	86.56
336.825	78.56
337.053	75.56
337.281	75.56
337.51	80.56
337.738	81.56
337.966	87.56
338.194	99.56
338.422	95.56
338.65	81.56
338.878	96.56
339.106	78.56
339.334	76.56
339.562	78.56
339.79	96.56
340.018	78.56
340.246	84.56
340.474	82.56
340.702	91.56
340.93	66.56
341.158	90.56
341.386	84.56
341.614	80.56
341.842	83.56
342.07	91.56
342.298	85.56
342.526	90.56
342.754	79.56
342.981	78.56
343.209	76.56
343.437	90.56
343.665	100.56
343.893	76.56
344.12	86.56
344.348	87.56
344.576	97.56
344.804	99.56
345.031	87.56
345.259	80.56
345.487	89.56
345.714	76.56
345.942	92.56
346.17	89.56
346.397	88.56
346.625	74.56
346.853	85.56
347.08	98.56
347.308	83.56
347.535	83.56
347.763	91.56
347.99	69.56
348.218	78.56
348.445	84.56
348.673	97.56
348.9	96.56
349.128	92.56
349.355	75.56
349.583	80.56
349.81	83.56
350.037	80.56
350.265	71.56
350.492	87.56
350.72	90.56
350.947	85.56
351.174	91.56
351.402	77.56
351.629	74.56
351.856	83.56
352.083	91.56
352.311	90.56
352.538	80.56
352.765	81.56
352.992	84.56
353.22	81.56
353.447	87.56
353.674	81.56
353.901	87.56
354.128	85.56
354.355	69.56
354.583	98.56
354.81	86.56
355.037	84.56
355.264	89.56
355.491	70.56
355.718	84.56
355.945	93.56
356.172	91.56
356.399	94.56
356.626	85.56
356.853	95.56
357.08	105.56
357.307	106.56
357.534	116.56
357.761	86.56
357.988	85.56
358.215	88.56
358.441	93.56
358.668	73.56
358.895	87.56
359.122	90.56
359.349	75.56
359.576	72.56
359.802	71.56
360.029	63.56
360.256	87.56
360.483	79.56
360.709	78.56
360.936	94.56
361.163	84.56
361.39	85.56
361.616	78.56
361.843	91.56
362.07	79.56
362.296	93.56
362.523	82.56
362.749	79.56
362.976	93.56
363.203	89.56
363.429	98.56
363.656	113.56
363.882	132.56
364.109	135.56
364.335	100.56
364.562	96.56
364.788	86.56
365.015	86.56
365.241	80.56
365.468	84.56
365.694	77.56
365.92	83.56
366.147	68.56
366.373	87.56
366.599	85.56
366.826	66.56
367.052	100.56
367.278	104.56
367.505	82.56
367.731	95.56
367.957	98.56
368.184	129.56
368.41	155.56
368.636	109.56
368.862	77.56
369.089	81.56
369.315	83.56
369.541	87.56
369.767	80.56
369.993	97.56
370.219	85.56
370.445	78.56
370.672	91.56
370.898	85.56
371.124	86.56
371.35	97.56
371.576	86.56
371.802	94.56
372.028	85.56
372.254	77.56
372.48	81.56
372.706	91.56
372.932	79.56
373.158	85.56
373.384	98.56
373.61	97.56
373.835	99.56
374.061	130.56
374.287	105.56
374.513	91.56
374.739	71.56
374.965	78.56
375.191	87.56
375.416	75.56
375.642	73.56
375.868	79.56
376.094	71.56
376.319	88.56
376.545	79.56
376.771	78.56
376.997	89.56
377.222	83.56
377.448	86.56
377.674	68.56
377.899	92.56
378.125	93.56
378.35	84.56
378.576	84.56
378.802	79.56
379.027	85.56
379.253	85.56
379.478	85.56
379.704	72.56
379.929	89.56
380.155	89.56
380.38	88.56
380.606	93.56
380.831	65.56
381.057	90.56
381.282	91.56
381.507	84.56
381.733	79.56
381.958	85.56
382.184	96.56
382.409	87.56
382.634	83.56
382.86	83.56
383.085	92.56
383.31	77.56
383.535	86.56
383.761	82.56
383.986	80.56
384.211	85.56
384.436	90.56
384.662	95.56
384.887	70.56
385.112	76.56
385.337	89.56
385.562	78.56
385.787	74.56
386.013	78.56
386.238	84.56
386.463	76.56
386.688	83.56
386.913	81.56
387.138	83.56
387.363	91.56
387.588	80.56
387.813	84.56
388.038	92.56
388.263	92.56
388.488	84.56
388.713	84.56
388.938	80.56
389.163	92.56
389.387	87.56
389.612	88.56
389.837	81.56
390.062	82.56
390.287	91.56
390.512	90.56
390.736	83.56
390.961	75.56
391.186	84.56
391.411	80.56
391.636	83.56
391.86	80.56
392.085	91.56
392.31	89.56
392.534	88.56
392.759	93.56
392.984	87.56
393.208	98.56
393.433	93.56
393.658	92.56
393.882	92.56
394.107	89.56
394.331	113.56
394.556	96.56
394.78	98.56
395.005	78.56
395.229	91.56
395.454	85.56
395.678	94.56
395.903	97.56
396.127	112.56
396.352	111.56
396.576	100.56
396.801	91.56
397.025	77.56
397.249	98.56
397.474	95.56
397.698	73.56
397.922	80.56
398.147	83.56
398.371	84.56
398.595	81.56
398.82	70.56
399.044	65.56
399.268	81.56
399.492	85.56
399.717	72.56
399.941	77.56
400.165	85.56
400.389	80.56
400.613	90.56
400.837	91.56
401.062	92.56
401.286	85.56
401.51	96.56
401.734	86.56
401.958	88.56
402.182	91.56
402.406	80.56
402.63	77.56
402.854	84.56
403.078	80.56
403.302	76.56
403.526	88.56
403.75	85.56
403.974	101.56
404.198	144.56
404.422	166.56
404.645	201.56
404.869	155.56
405.093	124.56
405.317	103.56
405.541	146.56
405.765	218.56
405.988	244.56
406.212	139.56
406.436	93.56
406.66	100.56
406.883	80.56
407.107	84.56
407.331	94.56
407.555	89.56
407.778	101.56
408.002	84.56
408.226	95.56
408.449	87.56
408.673	88.56
408.896	90.56
409.12	79.56
409.344	86.56
409.567	81.56
409.791	88.56
410.014	87.56
410.238	76.56
410.461	93.56
410.685	77.56
410.908	86.56
411.132	70.56
411.355	72.56
411.578	80.56
411.802	84.56
412.025	83.56
412.249	88.56
412.472	81.56
412.695	83.56
412.919	81.56
413.142	85.56
413.365	76.56
413.589	85.56
413.812	83.56
414.035	82.56
414.258	90.56
414.482	80.56
414.705	85.56
414.928	84.56
415.151	81.56
415.374	89.56
415.597	76.56
415.821	87.56
416.044	110.56
416.267	83.56
416.49	76.56
416.713	85.56
416.936	84.56
417.159	70.56
417.382	81.56
417.605	79.56
417.828	86.56
418.051	92.56
418.274	80.56
418.497	74.56
418.72	86.56
418.943	87.56
419.166	77.56
419.389	82.56
419.611	83.56
419.834	68.56
420.057	74.56
420.28	80.56
420.503	84.56
420.726	95.56
420.948	87.56
421.171	86.56
421.394	95.56
421.617	89.56
421.839	87.56
422.062	80.56
422.285	81.56
422.507	102.56
422.73	109.56
422.953	102.56
423.175	81.56
423.398	74.56
423.621	73.56
423.843	98.56
424.066	75.56
424.288	69.56
424.511	69.56
424.733	95.56
424.956	82.56
425.178	75.56
425.401	82.56
425.623	88.56
425.846	73.56
426.068	73.56
426.291	92.56
426.513	70.56
426.735	80.56
426.958	73.56
427.18	80.56
427.402	79.56
427.625	71.56
427.847	72.56
428.069	80.56
428.292	78.56
428.514	86.56
428.736	74.56
428.958	85.56
429.181	83.56
429.403	76.56
429.625	78.56
429.847	86.56
430.069	72.56
430.292	77.56
430.514	87.56
430.736	70.56
430.958	78.56
431.18	84.56
431.402	73.56
431.624	86.56
431.846	71.56
432.068	93.56
432.29	75.56
432.512	82.56
432.734	72.56
432.956	82.56
433.178	87.56
433.4	91.56
433.622	76.56
433.844	83.56
434.066	95.56
434.287	81.56
434.509	79.56
434.731	88.56
434.953	74.56
435.175	80.56
435.397	78.56
435.618	92.56
435.84	81.56
436.062	83.56
436.284	91.56
436.505	68.56
436.727	78.56
436.949	90.56
437.17	77.56
437.392	69.56
437.614	78.56
437.835	81.56
438.057	87.56
438.278	78.56
438.5	77.56
438.721	82.56
438.943	81.56
439.165	85.56
439.386	68.56
439.608	81.56
439.829	92.56
440.05	80.56
440.272	87.56
440.493	91.56
440.715	85.56
440.936	93.56
441.158	84.56
441.379	75.56
441.6	72.56
441.822	76.56
442.043	79.56
442.264	80.56
442.486	89.56
442.707	85.56
442.928	95.56
443.149	83.56
443.371	92.56
443.592	87.56
443.813	88.56
444.034	69.56
444.255	70.56
444.476	76.56
444.698	79.56
444.919	77.56
445.14	157.56
445.361	122.56
445.582	78.56
445.803	76.56
446.024	68.56
446.245	89.56
446.466	71.56
446.687	78.56
446.908	95.56
447.129	88.56
447.35	80.56
447.571	81.56
447.792	89.56
448.013	80.56
448.234	70.56
448.455	83.56
448.675	90.56
448.896	89.56
449.117	76.56
449.338	76.56
449.559	87.56
449.779	81.56
450	85.56
450.221	79.56
450.442	69.56
450.662	76.56
450.883	88.56
451.104	94.56
451.324	87.56
451.545	70.56
451.766	75.56
451.986	73.56
452.207	83.56
452.428	85.56
452.648	86.56
452.869	94.56
453.089	94.56
453.31	78.56
453.53	71.56
453.751	91.56
453.971	75.56
454.192	83.56
454.412	75.56
454.633	72.56
454.853	79.56
455.073	91.56
455.294	76.56
455.514	81.56
455.734	77.56
455.955	85.56
456.175	71.56
456.395	78.56
456.616	71.56
456.836	93.56
457.056	81.56
457.276	99.56
457.497	71.56
457.717	77.56
457.937	71.56
458.157	81.56
458.377	81.56
458.598	80.56
458.818	83.56
459.038	89.56
459.258	82.56
459.478	81.56
459.698	84.56
459.918	87.56
460.138	80.56
460.358	84.56
460.578	84.56
460.798	81.56
461.018	88.56
461.238	84.56
461.458	77.56
461.678	81.56
461.898	80.56
462.118	80.56
462.338	94.56
462.558	79.56
462.777	65.56
462.997	82.56
463.217	81.56
463.437	72.56
463.657	69.56
463.876	75.56
464.096	71.56
464.316	87.56
464.536	85.56
464.755	78.56
464.975	69.56
465.195	93.56
465.414	72.56
465.634	84.56
465.854	87.56
466.073	78.56
466.293	79.56
466.512	78.56
466.732	69.56
466.951	91.56
467.171	74.56
467.391	88.56
467.61	81.56
467.829	73.56
468.049	75.56
468.268	78.56
468.488	81.56
468.707	93.56
468.927	77.56
469.146	92.56
469.365	86.56
469.585	92.56
469.804	79.56
470.023	78.56
470.243	82.56
470.462	76.56
470.681	78.56
470.901	84.56
471.12	88.56
471.339	93.56
471.558	78.56
471.777	75.56
471.997	82.56
472.216	90.56
472.435	80.56
472.654	76.56
472.873	72.56
473.092	88.56
473.311	91.56
473.53	87.56
473.749	85.56
473.968	85.56
474.187	86.56
474.406	83.56
474.625	91.56
474.844	92.56
475.063	83.56
475.282	80.56
475.501	71.56
475.72	87.56
475.939	94.56
476.158	77.56
476.377	96.56
476.596	98.56
476.814	81.56
477.033	74.56
477.252	78.56
477.471	66.56
477.69	91.56
477.908	81.56
478.127	96.56
478.346	85.56
478.564	89.56
478.783	88.56
479.002	84.56
479.22	79.56
479.439	93.56
479.658	76.56
479.876	86.56
480.095	77.56
480.313	85.56
480.532	90.56
480.751	88.56
480.969	83.56
481.188	72.56
481.406	83.56
481.624	63.56
481.843	80.56
482.061	84.56
482.28	89.56
482.498	78.56
482.717	64.56
482.935	87.56
483.153	93.56
483.372	83.56
483.59	83.56
483.808	74.56
484.027	74.56
484.245	88.56
484.463	93.56
484.681	84.56
484.9	90.56
485.118	72.56
485.336	81.56
485.554	71.56
485.772	79.56
485.99	73.56
486.209	99.56
486.427	77.56
486.645	80.56
486.863	93.56
487.081	85.56
487.299	80.56
487.517	63.56
487.735	99.56
487.953	86.56
488.171	75.56
488.389	89.56
488.607	89.56
488.825	69.56
489.043	79.56
489.261	72.56
489.479	84.56
489.696	83.56
489.914	72.56
490.132	93.56
490.35	94.56
490.568	80.56
490.786	91.56
491.003	79.56
491.221	72.56
491.439	90.56
491.657	82.56
491.874	82.56
492.092	93.56
492.31	84.56
492.527	74.56
492.745	85.56
492.963	83.56
493.18	95.56
493.398	89.56
493.615	95.56
493.833	85.56
494.05	81.56
494.268	84.56
494.485	81.56
494.703	96.56
494.92	86.56
495.138	81.56
495.355	88.56
495.573	89.56
495.79	98.56
496.008	91.56
496.225	88.56
496.442	87.56
496.66	94.56
496.877	89.56
497.094	99.56
497.312	96.56
497.529	93.56
497.746	97.56
497.963	91.56
498.181	93.56
498.398	80.56
498.615	86.56
498.832	85.56
499.049	82.56
499.267	85.56
499.484	85.56
499.701	92.56
499.918	91.56
500.135	96.56
500.352	83.56
500.569	89.56
500.786	98.56
501.003	101.56
501.22	76.56
501.437	92.56
501.654	75.56
501.871	81.56
502.088	78.56
502.305	106.56
502.522	86.56
502.739	92.56
502.956	80.56
503.172	85.56
503.389	82.56
503.606	71.56
503.823	80.56
504.04	97.56
504.256	86.56
504.473	91.56
504.69	77.56
504.907	80.56
505.123	94.56
505.34	84.56
505.557	77.56
505.773	95.56
505.99	69.56
506.207	91.56
506.423	83.56
506.64	85.56
506.856	88.56
507.073	83.56
507.289	90.56
507.506	87.56
507.722	92.56
507.939	89.56
508.155	96.56
508.372	88.56
508.588	86.56
508.805	89.56
509.021	77.56
509.238	78.56
509.454	71.56
509.67	84.56
509.887	99.56
510.103	79.56
510.319	107.56
510.536	67.56
510.752	85.56
510.968	91.56
511.184	79.56
511.401	82.56
511.617	79.56
511.833	88.56
512.049	84.56
512.265	97.56
512.481	85.56
512.698	86.56
512.914	92.56
513.13	93.56
513.346	81.56
513.562	95.56
513.778	95.56
513.994	88.56
514.21	92.56
514.426	89.56
514.642	87.56
514.858	88.56
515.074	95.56
515.29	88.56
515.506	88.56
515.721	69.56
515.937	79.56
516.153	81.56
516.369	82.56
516.585	87.56
516.801	78.56
517.016	79.56
517.232	71.56
517.448	89.56
517.664	93.56
517.879	77.56
518.095	81.56
518.311	85.56
518.527	90.56
518.742	70.56
518.958	87.56
519.173	83.56
519.389	85.56
519.605	70.56
519.82	74.56
520.036	73.56
520.251	78.56
520.467	97.56
520.682	97.56
520.898	74.56
521.113	83.56
521.329	78.56
521.544	80.56
521.76	89.56
521.975	74.56
522.19	72.56
522.406	81.56
522.621	89.56
522.836	89.56
523.052	85.56
523.267	92.56
523.482	89.56
523.698	75.56
523.913	95.56
524.128	89.56
524.343	91.56
524.559	104.56
524.774	86.56
524.989	80.56
525.204	76.56
525.419	76.56
525.634	88.56
525.849	82.56
526.064	99.56
526.28	94.56
526.495	87.56
526.71	85.56
526.925	97.56
527.14	83.56
527.355	91.56
527.57	92.56
527.785	87.56
527.999	83.56
528.214	99.56
528.429	89.56
528.644	83.56
528.859	88.56
529.074	86.56
529.289	94.56
529.503	92.56
529.718	91.56
529.933	84.56
530.148	85.56
530.363	82.56
530.577	95.56
530.792	84.56
531.007	86.56
531.221	84.56
531.436	75.56
531.651	84.56
531.865	81.56
532.08	81.56
532.295	93.56
532.509	93.56
532.724	91.56
532.938	96.56
533.153	103.56
533.367	97.56
533.582	88.56
533.796	100.56
534.011	95.56
534.225	95.56
534.44	89.56
534.654	96.56
534.868	86.56
535.083	77.56
535.297	79.56
535.511	94.56
535.726	85.56
535.94	91.56
536.154	101.56
536.369	87.56
536.583	99.56
536.797	95.56
537.011	96.56
537.225	91.56
537.44	80.56
537.654	97.56
537.868	85.56
538.082	92.56
538.296	75.56
538.51	102.56
538.724	87.56
538.938	67.56
539.153	84.56
539.367	88.56
539.581	75.56
539.795	83.56
540.009	76.56
540.222	80.56
540.436	88.56
540.65	81.56
540.864	95.56
541.078	105.56
541.292	83.56
541.506	79.56
541.72	94.56
541.934	85.56
542.147	88.56
542.361	83.56
542.575	80.56
542.789	79.56
543.002	92.56
543.216	77.56
543.43	88.56
543.644	97.56
543.857	89.56
544.071	91.56
544.285	81.56
544.498	89.56
544.712	101.56
544.925	77.56
545.139	74.56
545.352	85.56
545.566	98.56
545.779	97.56
545.993	91.56
546.206	96.56
546.42	86.56
546.633	87.56
546.847	94.56
547.06	93.56
547.274	90.56
547.487	91.56
547.7	89.56
547.914	73.56
548.127	80.56
548.34	99.56
548.554	88.56
548.767	78.56
548.98	93.56
549.193	89.56
549.407	71.56
549.62	94.56
549.833	101.56
550.046	86.56
550.259	88.56
550.473	94.56
550.686	98.56
550.899	92.56
551.112	89.56
551.325	73.56
551.538	77.56
551.751	103.56
551.964	93.56
552.177	101.56
552.39	89.56
552.603	87.56
552.816	86.56
553.029	80.56
553.242	99.56
553.455	103.56
553.667	95.56
553.88	88.56
554.093	80.56
554.306	75.56
554.519	90.56
554.732	70.56
554.944	83.56
555.157	85.56
555.37	84.56
555.583	88.56
555.795	83.56
556.008	97.56
556.221	90.56
556.433	91.56
556.646	85.56
556.859	78.56
557.071	83.56
557.284	100.56
557.496	86.56
557.709	95.56
557.921	84.56
558.134	85.56
558.346	85.56
558.559	75.56
558.771	64.56
558.984	103.56
559.196	84.56
559.409	94.56
559.621	88.56
559.833	104.56
560.046	103.56
560.258	75.56
560.47	81.56
560.683	90.56
560.895	77.56
561.107	82.56
561.32	88.56
561.532	104.56
561.744	80.56
561.956	80.56
562.168	97.56
562.381	89.56
562.593	112.56
562.805	89.56
563.017	74.56
563.229	86.56
563.441	76.56
563.653	82.56
563.865	85.56
564.077	72.56
564.289	67.56
564.501	83.56
564.713	88.56
564.925	91.56
565.137	84.56
565.349	79.56
565.561	83.56
565.773	95.56
565.985	79.56
566.197	85.56
566.408	75.56
566.62	86.56
566.832	80.56
567.044	87.56
567.255	92.56
567.467	79.56
567.679	81.56
567.891	86.56
568.102	65.56
568.314	83.56
568.526	80.56
568.737	79.56
568.949	77.56
569.161	75.56
569.372	88.56
569.584	96.56
569.795	96.56
570.007	74.56
570.218	65.56
570.43	75.56
570.641	95.56
570.853	90.56
571.064	84.56
571.276	91.56
571.487	91.56
571.698	78.56
571.91	61.56
572.121	77.56
572.333	94.56
572.544	82.56
572.755	101.56
572.966	97.56
573.178	82.56
573.389	95.56
573.6	81.56
573.811	84.56
574.023	87.56
574.234	92.56
574.445	94.56
574.656	79.56
574.867	88.56
575.078	91.56
575.289	89.56
575.501	77.56
575.712	73.56
575.923	81.56
576.134	86.56
576.345	79.56
576.556	95.56
576.767	95.56
576.978	97.56
577.188	86.56
577.399	93.56
577.61	89.56
577.821	74.56
578.032	93.56
578.243	92.56
578.454	104.56
578.665	102.56
578.875	93.56
579.086	90.56
579.297	77.56
579.508	92.56
579.718	100.56
579.929	98.56
580.14	103.56
580.35	97.56
580.561	117.56
580.772	107.56
580.982	92.56
581.193	95.56
581.403	98.56
581.614	90.56
581.825	89.56
582.035	107.56
582.246	87.56
582.456	86.56
582.667	79.56
582.877	77.56
583.087	76.56
583.298	92.56
583.508	109.56
583.719	94.56
583.929	99.56
584.139	88.56
584.35	81.56
584.56	77.56
584.77	95.56
584.981	96.56
585.191	79.56
585.401	85.56
585.611	82.56
585.821	72.56
586.032	101.56
586.242	89.56
586.452	84.56
586.662	74.56
586.872	87.56
587.082	90.56
587.292	101.56
587.502	81.56
587.713	84.56
587.923	89.56
588.133	86.56
588.343	79.56
588.553	104.56
588.762	119.56
588.972	144.56
589.182	399.56
589.392	251.56
589.602	170.56
589.812	340.56
590.022	194.56
590.232	113.56
590.441	105.56
590.651	98.56
590.861	86.56
591.071	87.56
591.281	87.56
591.49	81.56
591.7	98.56
591.91	94.56
592.119	76.56
592.329	82.56
592.539	87.56
592.748	102.56
592.958	72.56
593.167	88.56
593.377	113.56
593.587	102.56
593.796	91.56
594.006	101.56
594.215	78.56
594.424	77.56
594.634	83.56
594.843	90.56
595.053	84.56
595.262	100.56
595.472	92.56
595.681	82.56
595.89	77.56
596.1	74.56
596.309	92.56
596.518	87.56
596.727	77.56
596.937	87.56
597.146	85.56
597.355	82.56
597.564	85.56
597.774	75.56
597.983	80.56
598.192	82.56
598.401	79.56
598.61	88.56
598.819	88.56
599.028	97.56
599.237	79.56
599.446	83.56
599.655	85.56
599.864	83.56
600.073	89.56
600.282	86.56
600.491	75.56
600.7	83.56
600.909	87.56
601.118	79.56
601.327	89.56
601.536	100.56
601.745	89.56
601.953	88.56
602.162	90.56
602.371	80.56
602.58	89.56
602.789	91.56
602.997	84.56
603.206	85.56
603.415	87.56
603.623	92.56
603.832	71.56
604.041	91.56
604.249	85.56
604.458	87.56
604.666	95.56
604.875	77.56
605.084	77.56
605.292	82.56
605.501	70.56
605.709	92.56
605.918	95.56
606.126	94.56
606.334	86.56
606.543	73.56
606.751	85.56
606.96	84.56
607.168	76.56
607.376	96.56
607.585	92.56
607.793	84.56
608.001	78.56
608.21	73.56
608.418	86.56
608.626	85.56
608.834	88.56
609.043	85.56
609.251	107.56
609.459	97.56
609.667	86.56
609.875	92.56
610.083	83.56
610.291	83.56
610.499	87.56
610.707	97.56
610.916	81.56
611.124	77.56
611.332	74.56
611.54	80.56
611.748	78.56
611.955	67.56
612.163	79.56
612.371	74.56
612.579	84.56
612.787	95.56
612.995	74.56
613.203	69.56
613.411	81.56
613.618	79.56
613.826	98.56
614.034	99.56
614.242	99.56
614.449	74.56
614.657	69.56
614.865	88.56
615.072	96.56
615.28	88.56
615.488	96.56
615.695	82.56
615.903	83.56
616.111	84.56
616.318	87.56
616.526	75.56
616.733	71.56
616.941	82.56
617.148	91.56
617.356	96.56
617.563	80.56
617.771	97.56
617.978	86.56
618.185	91.56
618.393	113.56
618.6	100.56
618.807	94.56
619.015	81.56
619.222	81.56
619.429	83.56
619.637	96.56
619.844	78.56
620.051	78.56
620.258	93.56
620.466	96.56
620.673	78.56
620.88	86.56
621.087	89.56
621.294	88.56
621.501	98.56
621.708	91.56
621.915	83.56
622.122	95.56
622.329	91.56
622.536	88.56
622.743	92.56
622.95	63.56
623.157	78.56
623.364	86.56
623.571	80.56
623.778	71.56
623.985	88.56
624.192	87.56
624.399	80.56
624.606	69.56
624.812	86.56
625.019	98.56
625.226	87.56
625.433	82.56
625.639	79.56
625.846	71.56
626.053	84.56
626.259	82.56
626.466	98.56
626.673	92.56
626.879	81.56
627.086	82.56
627.293	94.56
627.499	86.56
627.706	74.56
627.912	88.56
628.119	79.56
628.325	91.56
628.532	83.56
628.738	71.56
628.945	69.56
629.151	69.56
629.357	77.56
629.564	71.56
629.77	96.56
629.976	88.56
630.183	64.56
630.389	85.56
630.595	89.56
630.802	77.56
631.008	82.56
631.214	84.56
631.42	84.56
631.627	97.56
631.833	103.56
632.039	92.56
632.245	84.56
632.451	97.56
632.657	88.56
632.863	74.56
633.069	77.56
633.275	87.56
633.481	95.56
633.688	78.56
633.893	89.56
634.099	77.56
634.305	79.56
634.511	85.56
634.717	84.56
634.923	93.56
635.129	78.56
635.335	91.56
635.541	80.56
635.747	92.56
635.952	80.56
636.158	92.56
636.364	87.56
636.57	76.56
636.775	87.56
636.981	74.56
637.187	94.56
637.392	84.56
637.598	79.56
637.804	74.56
638.009	78.56
638.215	89.56
638.421	79.56
638.626	81.56
638.832	78.56
639.037	91.56
639.243	85.56
639.448	88.56
639.654	87.56
639.859	81.56
640.065	88.56
640.27	72.56
640.475	98.56
640.681	77.56
640.886	82.56
641.091	78.56
641.297	88.56
641.502	90.56
641.707	95.56
641.913	86.56
642.118	83.56
642.323	84.56
642.528	89.56
642.733	95.56
642.939	80.56
643.144	76.56
643.349	82.56
643.554	86.56
643.759	80.56
643.964	89.56
644.169	87.56
644.374	82.56
644.579	78.56
644.784	78.56
644.989	95.56
645.194	89.56
645.399	95.56
645.604	91.56
645.809	93.56
646.014	77.56
646.219	78.56
646.423	85.56
646.628	77.56
646.833	84.56
647.038	91.56
647.243	92.56
647.447	91.56
647.652	79.56
647.857	76.56
648.062	70.56
648.266	81.56
648.471	73.56
648.676	79.56
648.88	85.56
649.085	90.56
649.289	71.56
649.494	79.56
649.698	89.56
649.903	74.56
650.107	83.56
650.312	83.56
650.516	66.56
650.721	89.56
650.925	88.56
651.13	82.56
651.334	88.56
651.539	90.56
651.743	75.56
651.947	84.56
652.152	87.56
652.356	81.56
652.56	82.56
652.764	77.56
652.969	84.56
653.173	78.56
653.377	78.56
653.581	91.56
653.785	88.56
653.99	84.56
654.194	87.56
654.398	92.56
654.602	63.56
654.806	86.56
655.01	72.56
655.214	81.56
655.418	80.56
655.622	86.56
655.826	72.56
656.03	76.56
656.234	82.56
656.438	87.56
656.642	84.56
656.846	78.56
657.049	61.56
657.253	83.56
657.457	72.56
657.661	81.56
657.865	72.56
658.068	83.56
658.272	87.56
658.476	73.56
658.68	80.56
658.883	77.56
659.087	64.56
659.291	81.56
659.494	78.56
659.698	78.56
659.901	87.56
660.105	72.56
660.309	81.56
660.512	93.56
660.716	75.56
660.919	63.56
661.123	72.56
661.326	86.56
661.53	78.56
661.733	87.56
661.936	93.56
662.14	83.56
662.343	79.56
662.546	80.56
662.75	83.56
662.953	93.56
663.156	97.56
663.36	83.56
663.563	81.56
663.766	75.56
663.969	80.56
664.173	79.56
664.376	80.56
664.579	71.56
664.782	74.56
664.985	80.56
665.188	93.56
665.391	91.56
665.594	71.56
665.797	88.56
666	79.56
666.203	77.56
666.406	76.56
666.609	95.56
666.812	79.56
667.015	90.56
667.218	88.56
667.421	79.56
667.624	87.56
667.827	89.56
668.03	83.56
668.232	74.56
668.435	95.56
668.638	72.56
668.841	95.56
669.043	87.56
669.246	80.56
669.449	94.56
669.651	81.56
669.854	80.56
670.057	88.56
670.259	77.56
670.462	71.56
670.665	84.56
670.867	96.56
671.07	87.56
671.272	96.56
671.475	91.56
671.677	83.56
671.88	80.56
672.082	82.56
672.284	80.56
672.487	78.56
672.689	68.56
672.892	72.56
