Data from Lead_25_1_HRD10591_00098.txt Node
Date: Fri Feb 20 11:00:55 EST 2026
User: Yrep
Spectrometer: HR+D1059
Trigger mode: 1
Integration Time (sec): 1.000000E-1
Scans to average: 1
Electric dark correction enabled: true
Nonlinearity correction enabled: false
Boxcar width: 0
XAxis mode: Wavelengths
Number of Pixels in Spectrum: 2048
>>>>>Begin Spectral Data<<<<<
223.165	-25
223.4	-25
223.635	-25
223.869	-11
224.104	-21
224.338	-24
224.573	-24
224.808	-5
225.042	-8
225.277	-8
225.511	-5
225.746	6
225.98	4
226.215	10
226.449	22
226.683	17
226.918	38
227.152	34
227.387	36
227.621	46
227.856	45
228.09	45
228.324	66
228.559	61
228.793	57
229.027	63
229.262	68
229.496	66
229.73	87
229.964	81
230.199	71
230.433	70
230.667	92
230.901	89
231.136	81
231.37	66
231.604	90
231.838	87
232.072	84
232.306	81
232.541	88
232.775	77
233.009	89
233.243	82
233.477	81
233.711	100
233.945	75
234.179	83
234.413	90
234.647	89
234.881	85
235.115	86
235.349	68
235.583	76
235.817	84
236.051	84
236.285	82
236.519	69
236.753	85
236.987	76
237.221	69
237.455	86
237.689	61
237.922	72
238.156	74
238.39	72
238.624	72
238.858	84
239.091	70
239.325	75
239.559	86
239.793	75
240.027	83
240.26	71
240.494	61
240.728	81
240.961	73
241.195	79
241.429	79
241.662	73
241.896	85
242.13	59
242.363	76
242.597	69
242.83	80
243.064	90
243.298	83
243.531	83
243.765	76
243.998	73
244.232	72
244.465	81
244.699	83
244.932	82
245.166	85
245.399	67
245.633	75
245.866	66
246.099	88
246.333	85
246.566	82
246.8	68
247.033	76
247.266	72
247.5	83
247.733	81
247.966	69
248.2	64
248.433	93
248.666	93
248.899	66
249.133	95
249.366	79
249.599	70
249.832	87
250.066	81
250.299	78
250.532	75
250.765	88
250.998	85
251.231	88
251.465	101
251.698	96
251.931	99
252.164	86
252.397	77
252.63	79
252.863	83
253.096	88
253.329	91
253.562	89
253.795	79
254.028	82
254.261	92
254.494	87
254.727	79
254.96	80
255.193	81
255.426	90
255.659	78
255.892	89
256.124	89
256.357	70
256.59	85
256.823	91
257.056	87
257.289	89
257.521	73
257.754	74
257.987	80
258.22	84
258.452	77
258.685	69
258.918	87
259.151	85
259.383	93
259.616	71
259.849	73
260.081	85
260.314	87
260.547	83
260.779	99
261.012	81
261.244	82
261.477	79
261.71	90
261.942	84
262.175	94
262.407	89
262.64	79
262.872	85
263.105	85
263.337	88
263.57	73
263.802	87
264.035	82
264.267	77
264.499	88
264.732	90
264.964	96
265.197	80
265.429	81
265.661	81
265.894	77
266.126	86
266.358	79
266.591	91
266.823	90
267.055	76
267.287	82
267.52	86
267.752	74
267.984	87
268.216	81
268.448	101
268.681	90
268.913	89
269.145	82
269.377	86
269.609	83
269.841	83
270.073	90
270.306	76
270.538	93
270.77	81
271.002	94
271.234	87
271.466	76
271.698	90
271.93	76
272.162	78
272.394	101
272.626	101
272.858	83
273.09	89
273.322	85
273.553	95
273.785	94
274.017	79
274.249	82
274.481	81
274.713	87
274.945	94
275.176	94
275.408	82
275.64	77
275.872	83
276.104	96
276.335	98
276.567	93
276.799	76
277.031	91
277.262	72
277.494	79
277.726	87
277.957	82
278.189	80
278.421	86
278.652	90
278.884	65
279.115	78
279.347	83
279.579	83
279.81	79
280.042	81
280.273	98
280.505	91
280.736	91
280.968	81
281.199	88
281.431	96
281.662	79
281.894	84
282.125	86
282.356	106
282.588	94
282.819	86
283.051	84
283.282	114
283.513	98
283.745	80
283.976	91
284.207	94
284.439	83
284.67	104
284.901	82
285.132	81
285.364	80
285.595	81
285.826	83
286.057	88
286.288	87
286.52	97
286.751	92
286.982	102
287.213	84
287.444	91
287.675	91
287.906	79
288.138	90
288.369	89
288.6	86
288.831	67
289.062	85
289.293	85
289.524	90
289.755	98
289.986	79
290.217	90
290.448	89
290.679	90
290.91	87
291.141	96
291.371	85
291.602	102
291.833	90
292.064	95
292.295	86
292.526	92
292.757	89
292.987	81
293.218	96
293.449	82
293.68	97
293.91	86
294.141	98
294.372	71
294.603	91
294.833	79
295.064	83
295.295	85
295.525	97
295.756	91
295.987	91
296.217	98
296.448	85
296.679	83
296.909	97
297.14	80
297.37	82
297.601	78
297.831	91
298.062	85
298.292	83
298.523	86
298.753	93
298.984	74
299.214	93
299.445	86
299.675	103
299.905	94
300.136	88
300.366	91
300.597	103
300.827	95
301.057	83
301.288	80
301.518	86
301.748	90
301.979	89
302.209	85
302.439	93
302.669	86
302.9	89
303.13	85
303.36	86
303.59	89
303.82	89
304.051	95
304.281	85
304.511	92
304.741	87
304.971	72
305.201	83
305.431	87
305.661	79
305.891	89
306.121	84
306.352	90
306.582	84
306.812	94
307.042	91
307.272	94
307.502	81
307.731	96
307.961	95
308.191	77
308.421	91
308.651	93
308.881	89
309.111	83
309.341	90
309.571	91
309.8	85
310.03	97
310.26	85
310.49	72
310.72	85
310.949	67
311.179	78
311.409	87
311.639	81
311.868	82
312.098	93
312.328	82
312.557	89
312.787	81
313.017	84
313.246	84
313.476	101
313.706	88
313.935	88
314.165	78
314.394	93
314.624	98
314.853	90
315.083	91
315.312	108
315.542	73
315.771	76
316.001	84
316.23	95
316.46	83
316.689	81
316.919	73
317.148	94
317.377	104
317.607	99
317.836	86
318.065	82
318.295	86
318.524	83
318.753	83
318.983	103
319.212	87
319.441	87
319.67	95
319.9	85
320.129	77
320.358	94
320.587	102
320.816	87
321.046	88
321.275	88
321.504	92
321.733	96
321.962	81
322.191	92
322.42	113
322.649	87
322.878	97
323.108	93
323.337	99
323.566	91
323.795	99
324.024	84
324.253	80
324.482	84
324.71	82
324.939	97
325.168	93
325.397	94
325.626	87
325.855	93
326.084	101
326.313	86
326.542	93
326.77	97
326.999	97
327.228	91
327.457	89
327.686	77
327.914	89
328.143	87
328.372	97
328.6	81
328.829	88
329.058	75
329.287	81
329.515	94
329.744	81
329.972	94
330.201	90
330.43	85
330.658	96
330.887	74
331.115	95
331.344	89
331.572	101
331.801	96
332.03	90
332.258	85
332.486	74
332.715	88
332.943	93
333.172	94
333.4	101
333.629	83
333.857	93
334.085	79
334.314	77
334.542	98
334.771	96
334.999	81
335.227	90
335.455	96
335.684	81
335.912	84
336.14	90
336.369	86
336.597	89
336.825	91
337.053	86
337.281	85
337.51	89
337.738	85
337.966	89
338.194	78
338.422	84
338.65	106
338.878	100
339.106	97
339.334	90
339.562	87
339.79	90
340.018	90
340.246	74
340.474	79
340.702	95
340.93	86
341.158	81
341.386	89
341.614	84
341.842	87
342.07	99
342.298	89
342.526	104
342.754	91
342.981	82
343.209	89
343.437	98
343.665	83
343.893	82
344.12	101
344.348	93
344.576	96
344.804	91
345.031	98
345.259	87
345.487	95
345.714	100
345.942	90
346.17	91
346.397	84
346.625	90
346.853	96
347.08	83
347.308	81
347.535	90
347.763	81
347.99	86
348.218	87
348.445	80
348.673	101
348.9	90
349.128	90
349.355	89
349.583	89
349.81	97
350.037	91
350.265	85
350.492	89
350.72	83
350.947	78
351.174	76
351.402	82
351.629	86
351.856	86
352.083	88
352.311	90
352.538	86
352.765	79
352.992	100
353.22	105
353.447	75
353.674	94
353.901	85
354.128	83
354.355	102
354.583	89
354.81	84
355.037	106
355.264	76
355.491	88
355.718	99
355.945	81
356.172	86
356.399	97
356.626	78
356.853	87
357.08	112
357.307	117
357.534	109
357.761	97
357.988	89
358.215	92
358.441	81
358.668	80
358.895	96
359.122	92
359.349	76
359.576	91
359.802	84
360.029	93
360.256	94
360.483	101
360.709	97
360.936	107
361.163	76
361.39	85
361.616	74
361.843	91
362.07	82
362.296	100
362.523	90
362.749	76
362.976	81
363.203	109
363.429	82
363.656	112
363.882	135
364.109	163
364.335	111
364.562	91
364.788	69
365.015	78
365.241	92
365.468	114
365.694	88
365.92	93
366.147	89
366.373	91
366.599	97
366.826	85
367.052	76
367.278	97
367.505	81
367.731	92
367.957	115
368.184	136
368.41	185
368.636	128
368.862	109
369.089	78
369.315	85
369.541	87
369.767	91
369.993	88
370.219	76
370.445	94
370.672	85
370.898	82
371.124	79
371.35	99
371.576	85
371.802	75
372.028	99
372.254	90
372.48	81
372.706	84
372.932	88
373.158	82
373.384	94
373.61	105
373.835	106
374.061	115
374.287	93
374.513	94
374.739	105
374.965	95
375.191	85
375.416	85
375.642	85
375.868	86
376.094	91
376.319	95
376.545	75
376.771	88
376.997	85
377.222	90
377.448	83
377.674	79
377.899	88
378.125	85
378.35	96
378.576	90
378.802	95
379.027	85
379.253	87
379.478	89
379.704	92
379.929	93
380.155	95
380.38	96
380.606	82
380.831	87
381.057	95
381.282	90
381.507	80
381.733	105
381.958	96
382.184	83
382.409	82
382.634	83
382.86	92
383.085	96
383.31	86
383.535	75
383.761	66
383.986	65
384.211	83
384.436	86
384.662	95
384.887	84
385.112	100
385.337	91
385.562	85
385.787	81
386.013	80
386.238	71
386.463	91
386.688	94
386.913	83
387.138	94
387.363	91
387.588	76
387.813	83
388.038	89
388.263	82
388.488	95
388.713	94
388.938	90
389.163	90
389.387	86
389.612	89
389.837	98
390.062	85
390.287	78
390.512	95
390.736	86
390.961	81
391.186	94
391.411	79
391.636	85
391.86	91
392.085	97
392.31	79
392.534	80
392.759	85
392.984	84
393.208	118
393.433	117
393.658	101
393.882	89
394.107	92
394.331	87
394.556	103
394.78	86
395.005	105
395.229	84
395.454	93
395.678	89
395.903	82
396.127	111
396.352	119
396.576	91
396.801	94
397.025	97
397.249	92
397.474	83
397.698	75
397.922	87
398.147	84
398.371	79
398.595	89
398.82	82
399.044	99
399.268	90
399.492	81
399.717	80
399.941	82
400.165	82
400.389	72
400.613	76
400.837	85
401.062	75
401.286	90
401.51	98
401.734	82
401.958	83
402.182	87
402.406	82
402.63	89
402.854	80
403.078	100
403.302	95
403.526	92
403.75	94
403.974	102
404.198	136
404.422	197
404.645	220
404.869	194
405.093	135
405.317	122
405.541	158
405.765	234
405.988	233
406.212	144
406.436	125
406.66	101
406.883	84
407.107	94
407.331	69
407.555	79
407.778	84
408.002	88
408.226	88
408.449	85
408.673	89
408.896	83
409.12	79
409.344	79
409.567	98
409.791	82
410.014	89
410.238	76
410.461	76
410.685	85
410.908	87
411.132	79
411.355	100
411.578	90
411.802	95
412.025	91
412.249	70
412.472	100
412.695	93
412.919	90
413.142	91
413.365	86
413.589	87
413.812	95
414.035	95
414.258	90
414.482	91
414.705	95
414.928	88
415.151	91
415.374	90
415.597	82
415.821	88
416.044	86
416.267	98
416.49	102
416.713	77
416.936	71
417.159	85
417.382	105
417.605	76
417.828	88
418.051	75
418.274	97
418.497	94
418.72	91
418.943	85
419.166	83
419.389	71
419.611	78
419.834	74
420.057	88
420.28	89
420.503	91
420.726	95
420.948	77
421.171	86
421.394	93
421.617	81
421.839	78
422.062	92
422.285	93
422.507	105
422.73	138
422.953	105
423.175	101
423.398	66
423.621	83
423.843	93
424.066	96
424.288	82
424.511	95
424.733	89
424.956	82
425.178	85
425.401	81
425.623	82
425.846	77
426.068	89
426.291	90
426.513	82
426.735	89
426.958	89
427.18	93
427.402	105
427.625	87
427.847	101
428.069	102
428.292	78
428.514	89
428.736	91
428.958	79
429.181	85
429.403	73
429.625	87
429.847	96
430.069	84
430.292	93
430.514	96
430.736	95
430.958	99
431.18	82
431.402	92
431.624	83
431.846	94
432.068	88
432.29	87
432.512	90
432.734	87
432.956	86
433.178	81
433.4	90
433.622	95
433.844	89
434.066	89
434.287	74
434.509	85
434.731	86
434.953	80
435.175	90
435.397	97
435.618	65
435.84	79
436.062	85
436.284	80
436.505	81
436.727	82
436.949	79
437.17	81
437.392	90
437.614	91
437.835	87
438.057	87
438.278	65
438.5	90
438.721	88
438.943	71
439.165	98
439.386	80
439.608	92
439.829	90
440.05	81
440.272	90
440.493	83
440.715	95
440.936	93
441.158	74
441.379	84
441.6	76
441.822	86
442.043	97
442.264	80
442.486	87
442.707	88
442.928	72
443.149	82
443.371	81
443.592	89
443.813	85
444.034	96
444.255	91
444.476	95
444.698	94
444.919	78
445.14	150
445.361	113
445.582	90
445.803	89
446.024	87
446.245	81
446.466	84
446.687	78
446.908	85
447.129	93
447.35	92
447.571	95
447.792	85
448.013	81
448.234	89
448.455	101
448.675	94
448.896	83
449.117	94
449.338	101
449.559	94
449.779	86
450	84
450.221	70
450.442	79
450.662	101
450.883	81
451.104	74
451.324	79
451.545	89
451.766	81
451.986	93
452.207	83
452.428	81
452.648	84
452.869	88
453.089	99
453.31	85
453.53	96
453.751	79
453.971	89
454.192	96
454.412	85
454.633	76
454.853	90
455.073	93
455.294	68
455.514	85
455.734	86
455.955	88
456.175	99
456.395	77
456.616	74
456.836	87
457.056	72
457.276	90
457.497	90
457.717	83
457.937	85
458.157	87
458.377	86
458.598	81
458.818	89
459.038	90
459.258	80
459.478	78
459.698	82
459.918	82
460.138	82
460.358	90
460.578	98
460.798	94
461.018	92
461.238	87
461.458	98
461.678	85
461.898	87
462.118	90
462.338	89
462.558	78
462.777	87
462.997	83
463.217	86
463.437	87
463.657	83
463.876	87
464.096	82
464.316	83
464.536	83
464.755	94
464.975	90
465.195	90
465.414	79
465.634	72
465.854	75
466.073	94
466.293	86
466.512	90
466.732	92
466.951	81
467.171	88
467.391	90
467.61	94
467.829	71
468.049	83
468.268	84
468.488	98
468.707	105
468.927	93
469.146	88
469.365	84
469.585	75
469.804	90
470.023	83
470.243	101
470.462	83
470.681	93
470.901	84
471.12	79
471.339	77
471.558	85
471.777	88
471.997	87
472.216	78
472.435	77
472.654	89
472.873	85
473.092	97
473.311	86
473.53	77
473.749	86
473.968	75
474.187	89
474.406	93
474.625	83
474.844	84
475.063	96
475.282	89
475.501	89
475.72	99
475.939	91
476.158	71
476.377	79
476.596	83
476.814	91
477.033	80
477.252	89
477.471	84
477.69	86
477.908	90
478.127	101
478.346	85
478.564	106
478.783	93
479.002	90
479.22	95
479.439	95
479.658	88
479.876	67
480.095	93
480.313	91
480.532	92
480.751	93
480.969	82
481.188	87
481.406	86
481.624	72
481.843	83
482.061	87
482.28	102
482.498	88
482.717	98
482.935	86
483.153	79
483.372	86
483.59	86
483.808	85
484.027	75
484.245	88
484.463	97
484.681	101
484.9	97
485.118	91
485.336	94
485.554	85
485.772	89
485.99	90
486.209	76
486.427	91
486.645	92
486.863	81
487.081	82
487.299	86
487.517	81
487.735	92
487.953	85
488.171	94
488.389	107
488.607	73
488.825	94
489.043	88
489.261	85
489.479	92
489.696	91
489.914	91
490.132	85
490.35	89
490.568	97
490.786	97
491.003	87
491.221	109
491.439	98
491.657	91
491.874	92
492.092	87
492.31	89
492.527	86
492.745	90
492.963	88
493.18	82
493.398	94
493.615	103
493.833	90
494.05	91
494.268	74
494.485	88
494.703	98
494.92	98
495.138	93
495.355	85
495.573	89
495.79	87
496.008	103
496.225	91
496.442	99
496.66	95
496.877	82
497.094	103
497.312	95
497.529	95
497.746	86
497.963	91
498.181	80
498.398	69
498.615	82
498.832	101
499.049	85
499.267	95
499.484	101
499.701	90
499.918	94
500.135	92
500.352	102
500.569	101
500.786	105
501.003	88
501.22	81
501.437	81
501.654	102
501.871	87
502.088	88
502.305	82
502.522	84
502.739	86
502.956	70
503.172	82
503.389	97
503.606	93
503.823	90
504.04	82
504.256	101
504.473	102
504.69	89
504.907	90
505.123	100
505.34	89
505.557	87
505.773	106
505.99	89
506.207	91
506.423	88
506.64	93
506.856	83
507.073	98
507.289	91
507.506	89
507.722	95
507.939	95
508.155	100
508.372	97
508.588	89
508.805	82
509.021	89
509.238	87
509.454	95
509.67	87
509.887	85
510.103	86
510.319	85
510.536	91
510.752	84
510.968	90
511.184	89
511.401	85
511.617	89
511.833	92
512.049	90
512.265	83
512.481	98
512.698	83
512.914	89
513.13	91
513.346	87
513.562	104
513.778	85
513.994	78
514.21	81
514.426	93
514.642	89
514.858	85
515.074	83
515.29	95
515.506	82
515.721	104
515.937	90
516.153	87
516.369	83
516.585	83
516.801	81
517.016	84
517.232	99
517.448	101
517.664	83
517.879	84
518.095	96
518.311	86
518.527	89
518.742	91
518.958	87
519.173	96
519.389	81
519.605	92
519.82	86
520.036	93
520.251	98
520.467	100
520.682	83
520.898	107
521.113	88
521.329	92
521.544	88
521.76	89
521.975	85
522.19	102
522.406	83
522.621	90
522.836	70
523.052	89
523.267	84
523.482	87
523.698	85
523.913	89
524.128	89
524.343	88
524.559	87
524.774	80
524.989	93
525.204	93
525.419	87
525.634	90
525.849	97
526.064	105
526.28	98
526.495	85
526.71	86
526.925	96
527.14	81
527.355	89
527.57	94
527.785	102
527.999	85
528.214	93
528.429	73
528.644	73
528.859	92
529.074	94
529.289	96
529.503	96
529.718	87
529.933	88
530.148	88
530.363	86
530.577	91
530.792	94
531.007	87
531.221	106
531.436	87
531.651	93
531.865	91
532.08	83
532.295	85
532.509	88
532.724	84
532.938	90
533.153	105
533.367	92
533.582	95
533.796	97
534.011	109
534.225	101
534.44	114
534.654	97
534.868	89
535.083	93
535.297	93
535.511	96
535.726	97
535.94	104
536.154	96
536.369	93
536.583	107
536.797	87
537.011	102
537.225	93
537.44	92
537.654	95
537.868	79
538.082	88
538.296	92
538.51	81
538.724	81
538.938	87
539.153	89
539.367	95
539.581	90
539.795	110
540.009	91
540.222	103
540.436	90
540.65	85
540.864	94
541.078	86
541.292	86
541.506	86
541.72	92
541.934	83
542.147	87
542.361	95
542.575	83
542.789	91
543.002	95
543.216	89
543.43	71
543.644	99
543.857	78
544.071	101
544.285	87
544.498	85
544.712	93
544.925	92
545.139	91
545.352	93
545.566	82
545.779	98
545.993	103
546.206	88
546.42	100
546.633	86
546.847	99
547.06	82
547.274	96
547.487	85
547.7	89
547.914	89
548.127	88
548.34	93
548.554	77
548.767	89
548.98	92
549.193	102
549.407	91
549.62	89
549.833	91
550.046	91
550.259	91
550.473	88
550.686	96
550.899	89
551.112	92
551.325	96
551.538	89
551.751	82
551.964	90
552.177	75
552.39	80
552.603	87
552.816	89
553.029	81
553.242	86
553.455	90
553.667	81
553.88	93
554.093	88
554.306	94
554.519	81
554.732	78
554.944	94
555.157	91
555.37	84
555.583	86
555.795	87
556.008	78
556.221	80
556.433	95
556.646	84
556.859	91
557.071	96
557.284	86
557.496	93
557.709	86
557.921	87
558.134	94
558.346	93
558.559	100
558.771	89
558.984	91
559.196	88
559.409	95
559.621	94
559.833	86
560.046	92
560.258	89
560.47	97
560.683	94
560.895	89
561.107	93
561.32	93
561.532	96
561.744	103
561.956	97
562.168	91
562.381	102
562.593	99
562.805	102
563.017	83
563.229	95
563.441	94
563.653	97
563.865	92
564.077	98
564.289	95
564.501	91
564.713	104
564.925	99
565.137	87
565.349	101
565.561	99
565.773	106
565.985	97
566.197	89
566.408	84
566.62	93
566.832	89
567.044	96
567.255	87
567.467	86
567.679	87
567.891	76
568.102	95
568.314	97
568.526	94
568.737	103
568.949	81
569.161	95
569.372	87
569.584	100
569.795	85
570.007	93
570.218	91
570.43	93
570.641	83
570.853	98
571.064	78
571.276	93
571.487	87
571.698	91
571.91	103
572.121	99
572.333	87
572.544	95
572.755	89
572.966	99
573.178	85
573.389	87
573.6	91
573.811	89
574.023	87
574.234	97
574.445	86
574.656	100
574.867	80
575.078	87
575.289	82
575.501	81
575.712	93
575.923	96
576.134	102
576.345	84
576.556	114
576.767	121
576.978	95
577.188	84
577.399	93
577.61	77
577.821	85
578.032	86
578.243	97
578.454	106
578.665	97
578.875	85
579.086	94
579.297	106
579.508	97
579.718	101
579.929	91
580.14	95
580.35	110
580.561	128
580.772	105
580.982	104
581.193	111
581.403	109
581.614	102
581.825	107
582.035	104
582.246	100
582.456	103
582.667	110
582.877	92
583.087	102
583.298	107
583.508	103
583.719	96
583.929	95
584.139	107
584.35	105
584.56	102
584.77	86
584.981	69
585.191	89
585.401	89
585.611	93
585.821	94
586.032	86
586.242	97
586.452	99
586.662	89
586.872	95
587.082	89
587.292	96
587.502	87
587.713	88
587.923	94
588.133	97
588.343	105
588.553	91
588.762	106
588.972	196
589.182	426
589.392	269
589.602	199
589.812	346
590.022	197
590.232	113
590.441	103
590.651	113
590.861	109
591.071	87
591.281	89
591.49	96
591.7	88
591.91	96
592.119	91
592.329	87
592.539	75
592.748	97
592.958	86
593.167	85
593.377	97
593.587	92
593.796	93
594.006	93
594.215	99
594.424	88
594.634	93
594.843	85
595.053	72
595.262	97
595.472	111
595.681	91
595.89	85
596.1	93
596.309	92
596.518	91
596.727	95
596.937	80
597.146	84
597.355	82
597.564	94
597.774	87
597.983	87
598.192	79
598.401	97
598.61	101
598.819	84
599.028	97
599.237	98
599.446	96
599.655	104
599.864	100
600.073	90
600.282	90
600.491	80
600.7	91
600.909	92
601.118	86
601.327	83
601.536	103
601.745	96
601.953	79
602.162	100
602.371	86
602.58	94
602.789	100
602.997	91
603.206	94
603.415	99
603.623	94
603.832	87
604.041	97
604.249	94
604.458	89
604.666	91
604.875	74
605.084	85
605.292	91
605.501	75
605.709	94
605.918	101
606.126	100
606.334	89
606.543	91
606.751	93
606.96	81
607.168	98
607.376	97
607.585	89
607.793	86
608.001	91
608.21	78
608.418	81
608.626	79
608.834	107
609.043	79
609.251	95
609.459	71
609.667	95
609.875	74
610.083	77
610.291	95
610.499	80
610.707	87
610.916	93
611.124	83
611.332	86
611.54	85
611.748	98
611.955	85
612.163	93
612.371	81
612.579	81
612.787	91
612.995	102
613.203	94
613.411	91
613.618	80
613.826	94
614.034	93
614.242	91
614.449	97
614.657	86
614.865	90
615.072	83
615.28	99
615.488	91
615.695	95
615.903	108
616.111	94
616.318	93
616.526	96
616.733	92
616.941	78
617.148	86
617.356	88
617.563	95
617.771	83
617.978	91
618.185	89
618.393	90
618.6	87
618.807	80
619.015	80
619.222	90
619.429	96
619.637	96
619.844	77
620.051	81
620.258	86
620.466	98
620.673	76
620.88	87
621.087	82
621.294	90
621.501	88
621.708	90
621.915	85
622.122	90
622.329	90
622.536	82
622.743	85
622.95	79
623.157	88
623.364	87
623.571	99
623.778	105
623.985	91
624.192	81
624.399	89
624.606	98
624.812	73
625.019	93
625.226	98
625.433	96
625.639	90
625.846	100
626.053	83
626.259	87
626.466	98
626.673	81
626.879	92
627.086	103
627.293	73
627.499	96
627.706	91
627.912	96
628.119	90
628.325	85
628.532	76
628.738	92
628.945	101
629.151	81
629.357	88
629.564	82
629.77	93
629.976	97
630.183	95
630.389	85
630.595	89
630.802	97
631.008	80
631.214	81
631.42	93
631.627	96
631.833	96
632.039	81
632.245	85
632.451	80
632.657	77
632.863	99
633.069	78
633.275	85
633.481	84
633.688	90
633.893	87
634.099	99
634.305	91
634.511	86
634.717	96
634.923	90
635.129	79
635.335	91
635.541	93
635.747	99
635.952	100
636.158	96
636.364	90
636.57	90
636.775	89
636.981	72
637.187	84
637.392	101
637.598	80
637.804	88
638.009	95
638.215	85
638.421	85
638.626	76
638.832	97
639.037	97
639.243	90
639.448	93
639.654	89
639.859	89
640.065	89
640.27	98
640.475	90
640.681	89
640.886	98
641.091	87
641.297	83
641.502	85
641.707	87
641.913	83
642.118	90
642.323	96
642.528	94
642.733	94
642.939	91
643.144	98
643.349	94
643.554	84
643.759	77
643.964	82
644.169	96
644.374	87
644.579	86
644.784	80
644.989	93
645.194	81
645.399	81
645.604	81
645.809	92
646.014	89
646.219	84
646.423	95
646.628	95
646.833	91
647.038	85
647.243	91
647.447	83
647.652	76
647.857	103
648.062	99
648.266	88
648.471	89
648.676	89
648.88	74
649.085	88
649.289	72
649.494	101
649.698	92
649.903	92
650.107	104
650.312	91
650.516	88
650.721	83
650.925	93
651.13	82
651.334	91
651.539	84
651.743	85
651.947	85
652.152	96
652.356	84
652.56	78
652.764	69
652.969	85
653.173	81
653.377	75
653.581	81
653.785	95
653.99	83
654.194	93
654.398	86
654.602	83
654.806	100
655.01	95
655.214	85
655.418	79
655.622	97
655.826	91
656.03	92
656.234	85
656.438	83
656.642	72
656.846	84
657.049	86
657.253	79
657.457	88
657.661	73
657.865	86
658.068	61
658.272	79
658.476	79
658.68	82
658.883	74
659.087	89
659.291	91
659.494	102
659.698	87
659.901	81
660.105	79
660.309	85
660.512	87
660.716	76
660.919	83
661.123	97
661.326	83
661.53	69
661.733	77
661.936	106
662.14	77
662.343	103
662.546	75
662.75	72
662.953	90
663.156	108
663.36	89
663.563	87
663.766	82
663.969	77
664.173	95
664.376	81
664.579	84
664.782	75
664.985	74
665.188	89
665.391	86
665.594	84
665.797	79
666	106
666.203	77
666.406	79
666.609	78
666.812	74
667.015	75
667.218	85
667.421	85
667.624	85
667.827	90
668.03	84
668.232	83
668.435	80
668.638	93
668.841	82
669.043	89
669.246	97
669.449	84
669.651	85
669.854	86
670.057	90
670.259	85
670.462	89
670.665	91
670.867	79
671.07	84
671.272	81
671.475	82
671.677	83
671.88	75
672.082	80
672.284	90
672.487	80
672.689	79
672.892	91
