Data from Circ_1983_H10_HRD10591_00059.txt Node
Date: Wed Jan 03 12:26:56 EST 2024
User: Yrep
Spectrometer: HR+D1059
Trigger mode: 1
Integration Time (sec): 1.000000E-1
Scans to average: 1
Electric dark correction enabled: true
Nonlinearity correction enabled: false
Boxcar width: 0
XAxis mode: Wavelengths
Number of Pixels in Spectrum: 2048
>>>>>Begin Spectral Data<<<<<
223.165	-14.31
223.4	-14.31
223.635	-14.31
223.869	-7.31
224.104	-20.31
224.338	0.69
224.573	-13.31
224.808	-14.31
225.042	-10.31
225.277	-20.31
225.511	-3.31
225.746	-0.31
225.98	0.69
226.215	7.69
226.449	18.69
226.683	19.69
226.918	21.69
227.152	34.69
227.387	43.69
227.621	41.69
227.856	42.69
228.09	38.69
228.324	49.69
228.559	65.69
228.793	57.69
229.027	69.69
229.262	61.69
229.496	68.69
229.73	75.69
229.964	70.69
230.199	58.69
230.433	73.69
230.667	72.69
230.901	77.69
231.136	67.69
231.37	75.69
231.604	68.69
231.838	82.69
232.072	90.69
232.306	89.69
232.541	89.69
232.775	71.69
233.009	92.69
233.243	69.69
233.477	85.69
233.711	84.69
233.945	84.69
234.179	89.69
234.413	98.69
234.647	81.69
234.881	79.69
235.115	82.69
235.349	68.69
235.583	74.69
235.817	74.69
236.051	87.69
236.285	69.69
236.519	73.69
236.753	62.69
236.987	84.69
237.221	85.69
237.455	71.69
237.689	88.69
237.922	88.69
238.156	80.69
238.39	82.69
238.624	84.69
238.858	76.69
239.091	76.69
239.325	83.69
239.559	87.69
239.793	85.69
240.027	87.69
240.26	84.69
240.494	81.69
240.728	67.69
240.961	87.69
241.195	83.69
241.429	72.69
241.662	81.69
241.896	77.69
242.13	79.69
242.363	86.69
242.597	79.69
242.83	87.69
243.064	66.69
243.298	67.69
243.531	71.69
243.765	84.69
243.998	70.69
244.232	71.69
244.465	85.69
244.699	91.69
244.932	85.69
245.166	76.69
245.399	79.69
245.633	75.69
245.866	78.69
246.099	77.69
246.333	87.69
246.566	77.69
246.8	76.69
247.033	74.69
247.266	78.69
247.5	83.69
247.733	83.69
247.966	89.69
248.2	77.69
248.433	79.69
248.666	69.69
248.899	81.69
249.133	79.69
249.366	90.69
249.599	77.69
249.832	75.69
250.066	83.69
250.299	74.69
250.532	76.69
250.765	88.69
250.998	71.69
251.231	61.69
251.465	77.69
251.698	77.69
251.931	82.69
252.164	76.69
252.397	90.69
252.63	88.69
252.863	76.69
253.096	75.69
253.329	78.69
253.562	74.69
253.795	73.69
254.028	81.69
254.261	72.69
254.494	84.69
254.727	82.69
254.96	68.69
255.193	74.69
255.426	88.69
255.659	80.69
255.892	79.69
256.124	80.69
256.357	79.69
256.59	90.69
256.823	82.69
257.056	87.69
257.289	90.69
257.521	93.69
257.754	62.69
257.987	79.69
258.22	83.69
258.452	84.69
258.685	91.69
258.918	66.69
259.151	86.69
259.383	83.69
259.616	78.69
259.849	88.69
260.081	92.69
260.314	82.69
260.547	81.69
260.779	84.69
261.012	76.69
261.244	91.69
261.477	84.69
261.71	90.69
261.942	108.69
262.175	106.69
262.407	91.69
262.64	80.69
262.872	80.69
263.105	87.69
263.337	90.69
263.57	84.69
263.802	81.69
264.035	83.69
264.267	75.69
264.499	88.69
264.732	73.69
264.964	91.69
265.197	81.69
265.429	73.69
265.661	69.69
265.894	75.69
266.126	80.69
266.358	78.69
266.591	96.69
266.823	91.69
267.055	83.69
267.287	77.69
267.52	92.69
267.752	85.69
267.984	80.69
268.216	79.69
268.448	87.69
268.681	95.69
268.913	87.69
269.145	91.69
269.377	82.69
269.609	60.69
269.841	77.69
270.073	85.69
270.306	85.69
270.538	84.69
270.77	85.69
271.002	87.69
271.234	77.69
271.466	90.69
271.698	75.69
271.93	83.69
272.162	82.69
272.394	77.69
272.626	77.69
272.858	90.69
273.09	85.69
273.322	71.69
273.553	90.69
273.785	97.69
274.017	81.69
274.249	81.69
274.481	88.69
274.713	77.69
274.945	89.69
275.176	89.69
275.408	83.69
275.64	96.69
275.872	89.69
276.104	83.69
276.335	82.69
276.567	95.69
276.799	106.69
277.031	100.69
277.262	100.69
277.494	95.69
277.726	82.69
277.957	80.69
278.189	90.69
278.421	88.69
278.652	86.69
278.884	79.69
279.115	76.69
279.347	90.69
279.579	88.69
279.81	66.69
280.042	81.69
280.273	102.69
280.505	76.69
280.736	80.69
280.968	76.69
281.199	80.69
281.431	73.69
281.662	84.69
281.894	90.69
282.125	79.69
282.356	111.69
282.588	122.69
282.819	91.69
283.051	90.69
283.282	92.69
283.513	85.69
283.745	74.69
283.976	79.69
284.207	89.69
284.439	80.69
284.67	85.69
284.901	83.69
285.132	88.69
285.364	80.69
285.595	79.69
285.826	73.69
286.057	85.69
286.288	98.69
286.52	90.69
286.751	81.69
286.982	93.69
287.213	82.69
287.444	85.69
287.675	95.69
287.906	88.69
288.138	89.69
288.369	89.69
288.6	89.69
288.831	96.69
289.062	80.69
289.293	77.69
289.524	92.69
289.755	85.69
289.986	87.69
290.217	76.69
290.448	78.69
290.679	92.69
290.91	77.69
291.141	101.69
291.371	99.69
291.602	89.69
291.833	74.69
292.064	90.69
292.295	91.69
292.526	81.69
292.757	88.69
292.987	86.69
293.218	95.69
293.449	95.69
293.68	83.69
293.91	81.69
294.141	90.69
294.372	100.69
294.603	88.69
294.833	97.69
295.064	80.69
295.295	73.69
295.525	93.69
295.756	101.69
295.987	100.69
296.217	127.69
296.448	120.69
296.679	97.69
296.909	95.69
297.14	93.69
297.37	81.69
297.601	100.69
297.831	109.69
298.062	84.69
298.292	88.69
298.523	87.69
298.753	97.69
298.984	82.69
299.214	102.69
299.445	100.69
299.675	84.69
299.905	95.69
300.136	92.69
300.366	97.69
300.597	84.69
300.827	86.69
301.057	113.69
301.288	96.69
301.518	77.69
301.748	99.69
301.979	104.69
302.209	71.69
302.439	94.69
302.669	84.69
302.9	88.69
303.13	92.69
303.36	93.69
303.59	104.69
303.82	103.69
304.051	115.69
304.281	91.69
304.511	101.69
304.741	89.69
304.971	79.69
305.201	96.69
305.431	100.69
305.661	108.69
305.891	88.69
306.121	93.69
306.352	91.69
306.582	79.69
306.812	93.69
307.042	103.69
307.272	99.69
307.502	87.69
307.731	88.69
307.961	87.69
308.191	82.69
308.421	97.69
308.651	95.69
308.881	92.69
309.111	92.69
309.341	85.69
309.571	91.69
309.8	108.69
310.03	102.69
310.26	96.69
310.49	76.69
310.72	103.69
310.949	84.69
311.179	103.69
311.409	102.69
311.639	88.69
311.868	85.69
312.098	99.69
312.328	93.69
312.557	97.69
312.787	101.69
313.017	105.69
313.246	90.69
313.476	95.69
313.706	102.69
313.935	101.69
314.165	95.69
314.394	83.69
314.624	99.69
314.853	101.69
315.083	91.69
315.312	93.69
315.542	90.69
315.771	92.69
316.001	71.69
316.23	77.69
316.46	84.69
316.689	84.69
316.919	82.69
317.148	106.69
317.377	90.69
317.607	80.69
317.836	102.69
318.065	84.69
318.295	83.69
318.524	100.69
318.753	96.69
318.983	98.69
319.212	94.69
319.441	96.69
319.67	101.69
319.9	88.69
320.129	95.69
320.358	83.69
320.587	89.69
320.816	91.69
321.046	100.69
321.275	103.69
321.504	88.69
321.733	82.69
321.962	99.69
322.191	80.69
322.42	95.69
322.649	112.69
322.878	94.69
323.108	105.69
323.337	112.69
323.566	103.69
323.795	140.69
324.024	182.69
324.253	291.69
324.482	619.69
324.71	1236.69
324.939	1619.69
325.168	617.69
325.397	202.69
325.626	137.69
325.855	112.69
326.084	121.69
326.313	125.69
326.542	121.69
326.77	179.69
326.999	351.69
327.228	689.69
327.457	1251.69
327.686	992.69
327.914	303.69
328.143	167.69
328.372	164.69
328.6	135.69
328.829	94.69
329.058	117.69
329.287	121.69
329.515	111.69
329.744	125.69
329.972	121.69
330.201	178.69
330.43	205.69
330.658	132.69
330.887	126.69
331.115	113.69
331.344	86.69
331.572	87.69
331.801	111.69
332.03	103.69
332.258	88.69
332.486	92.69
332.715	87.69
332.943	98.69
333.172	89.69
333.4	86.69
333.629	96.69
333.857	115.69
334.085	144.69
334.314	177.69
334.542	231.69
334.771	224.69
334.999	113.69
335.227	103.69
335.455	111.69
335.684	93.69
335.912	88.69
336.14	96.69
336.369	90.69
336.597	102.69
336.825	96.69
337.053	97.69
337.281	92.69
337.51	79.69
337.738	84.69
337.966	103.69
338.194	99.69
338.422	86.69
338.65	90.69
338.878	80.69
339.106	84.69
339.334	96.69
339.562	82.69
339.79	92.69
340.018	85.69
340.246	93.69
340.474	92.69
340.702	89.69
340.93	85.69
341.158	82.69
341.386	99.69
341.614	89.69
341.842	95.69
342.07	103.69
342.298	89.69
342.526	86.69
342.754	87.69
342.981	83.69
343.209	93.69
343.437	105.69
343.665	82.69
343.893	95.69
344.12	94.69
344.348	93.69
344.576	83.69
344.804	89.69
345.031	93.69
345.259	100.69
345.487	76.69
345.714	90.69
345.942	84.69
346.17	103.69
346.397	100.69
346.625	90.69
346.853	81.69
347.08	89.69
347.308	101.69
347.535	86.69
347.763	98.69
347.99	108.69
348.218	96.69
348.445	100.69
348.673	89.69
348.9	92.69
349.128	102.69
349.355	90.69
349.583	101.69
349.81	76.69
350.037	101.69
350.265	92.69
350.492	87.69
350.72	113.69
350.947	87.69
351.174	87.69
351.402	105.69
351.629	104.69
351.856	97.69
352.083	102.69
352.311	101.69
352.538	114.69
352.765	108.69
352.992	119.69
353.22	101.69
353.447	99.69
353.674	107.69
353.901	106.69
354.128	95.69
354.355	99.69
354.583	87.69
354.81	88.69
355.037	88.69
355.264	88.69
355.491	98.69
355.718	95.69
355.945	104.69
356.172	89.69
356.399	99.69
356.626	96.69
356.853	91.69
357.08	95.69
357.307	98.69
357.534	92.69
357.761	105.69
357.988	91.69
358.215	100.69
358.441	86.69
358.668	91.69
358.895	80.69
359.122	95.69
359.349	89.69
359.576	99.69
359.802	89.69
360.029	96.69
360.256	88.69
360.483	85.69
360.709	96.69
360.936	90.69
361.163	79.69
361.39	92.69
361.616	94.69
361.843	93.69
362.07	91.69
362.296	91.69
362.523	92.69
362.749	93.69
362.976	96.69
363.203	105.69
363.429	73.69
363.656	90.69
363.882	91.69
364.109	86.69
364.335	87.69
364.562	96.69
364.788	92.69
365.015	95.69
365.241	88.69
365.468	99.69
365.694	93.69
365.92	96.69
366.147	87.69
366.373	85.69
366.599	84.69
366.826	79.69
367.052	80.69
367.278	83.69
367.505	90.69
367.731	86.69
367.957	85.69
368.184	88.69
368.41	108.69
368.636	124.69
368.862	105.69
369.089	100.69
369.315	97.69
369.541	104.69
369.767	88.69
369.993	88.69
370.219	91.69
370.445	79.69
370.672	98.69
370.898	91.69
371.124	105.69
371.35	89.69
371.576	82.69
371.802	93.69
372.028	93.69
372.254	93.69
372.48	76.69
372.706	91.69
372.932	86.69
373.158	97.69
373.384	85.69
373.61	103.69
373.835	80.69
374.061	91.69
374.287	87.69
374.513	90.69
374.739	76.69
374.965	78.69
375.191	97.69
375.416	95.69
375.642	87.69
375.868	98.69
376.094	89.69
376.319	87.69
376.545	95.69
376.771	87.69
376.997	76.69
377.222	84.69
377.448	82.69
377.674	79.69
377.899	88.69
378.125	93.69
378.35	91.69
378.576	84.69
378.802	91.69
379.027	93.69
379.253	98.69
379.478	71.69
379.704	91.69
379.929	94.69
380.155	94.69
380.38	88.69
380.606	97.69
380.831	91.69
381.057	79.69
381.282	88.69
381.507	90.69
381.733	92.69
381.958	94.69
382.184	101.69
382.409	107.69
382.634	104.69
382.86	111.69
383.085	83.69
383.31	103.69
383.535	91.69
383.761	100.69
383.986	97.69
384.211	100.69
384.436	96.69
384.662	100.69
384.887	90.69
385.112	105.69
385.337	106.69
385.562	107.69
385.787	102.69
386.013	107.69
386.238	108.69
386.463	113.69
386.688	115.69
386.913	94.69
387.138	119.69
387.363	104.69
387.588	92.69
387.813	108.69
388.038	116.69
388.263	113.69
388.488	102.69
388.713	97.69
388.938	101.69
389.163	92.69
389.387	97.69
389.612	95.69
389.837	88.69
390.062	90.69
390.287	82.69
390.512	84.69
390.736	92.69
390.961	92.69
391.186	84.69
391.411	97.69
391.636	100.69
391.86	93.69
392.085	89.69
392.31	81.69
392.534	116.69
392.759	85.69
392.984	85.69
393.208	91.69
393.433	113.69
393.658	112.69
393.882	85.69
394.107	102.69
394.331	86.69
394.556	68.69
394.78	88.69
395.005	73.69
395.229	91.69
395.454	107.69
395.678	92.69
395.903	80.69
396.127	96.69
396.352	95.69
396.576	96.69
396.801	96.69
397.025	96.69
397.249	92.69
397.474	87.69
397.698	92.69
397.922	76.69
398.147	79.69
398.371	81.69
398.595	95.69
398.82	80.69
399.044	70.69
399.268	83.69
399.492	87.69
399.717	104.69
399.941	87.69
400.165	85.69
400.389	100.69
400.613	87.69
400.837	81.69
401.062	85.69
401.286	88.69
401.51	97.69
401.734	98.69
401.958	72.69
402.182	107.69
402.406	125.69
402.63	94.69
402.854	86.69
403.078	105.69
403.302	86.69
403.526	96.69
403.75	92.69
403.974	91.69
404.198	96.69
404.422	80.69
404.645	87.69
404.869	94.69
405.093	102.69
405.317	87.69
405.541	111.69
405.765	107.69
405.988	98.69
406.212	134.69
406.436	177.69
406.66	116.69
406.883	86.69
407.107	84.69
407.331	93.69
407.555	95.69
407.778	84.69
408.002	93.69
408.226	98.69
408.449	93.69
408.673	88.69
408.896	91.69
409.12	94.69
409.344	97.69
409.567	77.69
409.791	103.69
410.014	94.69
410.238	87.69
410.461	97.69
410.685	72.69
410.908	85.69
411.132	89.69
411.355	101.69
411.578	88.69
411.802	81.69
412.025	87.69
412.249	79.69
412.472	96.69
412.695	108.69
412.919	108.69
413.142	76.69
413.365	96.69
413.589	89.69
413.812	89.69
414.035	105.69
414.258	84.69
414.482	87.69
414.705	88.69
414.928	93.69
415.151	83.69
415.374	95.69
415.597	95.69
415.821	92.69
416.044	84.69
416.267	87.69
416.49	89.69
416.713	88.69
416.936	89.69
417.159	94.69
417.382	83.69
417.605	84.69
417.828	79.69
418.051	76.69
418.274	79.69
418.497	91.69
418.72	80.69
418.943	87.69
419.166	90.69
419.389	82.69
419.611	94.69
419.834	93.69
420.057	89.69
420.28	105.69
420.503	96.69
420.726	66.69
420.948	84.69
421.171	92.69
421.394	92.69
421.617	83.69
421.839	96.69
422.062	89.69
422.285	91.69
422.507	95.69
422.73	107.69
422.953	87.69
423.175	87.69
423.398	98.69
423.621	72.69
423.843	96.69
424.066	80.69
424.288	82.69
424.511	88.69
424.733	95.69
424.956	96.69
425.178	94.69
425.401	99.69
425.623	93.69
425.846	87.69
426.068	75.69
426.291	91.69
426.513	89.69
426.735	91.69
426.958	87.69
427.18	92.69
427.402	132.69
427.625	143.69
427.847	119.69
428.069	120.69
428.292	104.69
428.514	82.69
428.736	90.69
428.958	86.69
429.181	92.69
429.403	79.69
429.625	63.69
429.847	65.69
430.069	96.69
430.292	93.69
430.514	75.69
430.736	94.69
430.958	84.69
431.18	80.69
431.402	94.69
431.624	99.69
431.846	94.69
432.068	92.69
432.29	81.69
432.512	97.69
432.734	92.69
432.956	95.69
433.178	108.69
433.4	95.69
433.622	99.69
433.844	92.69
434.066	80.69
434.287	93.69
434.509	83.69
434.731	86.69
434.953	84.69
435.175	90.69
435.397	99.69
435.618	94.69
435.84	89.69
436.062	112.69
436.284	113.69
436.505	99.69
436.727	97.69
436.949	97.69
437.17	84.69
437.392	79.69
437.614	79.69
437.835	81.69
438.057	104.69
438.278	113.69
438.5	92.69
438.721	108.69
438.943	94.69
439.165	87.69
439.386	83.69
439.608	81.69
439.829	90.69
440.05	109.69
440.272	130.69
440.493	93.69
440.715	90.69
440.936	87.69
441.158	89.69
441.379	87.69
441.6	91.69
441.822	73.69
442.043	92.69
442.264	93.69
442.486	91.69
442.707	83.69
442.928	100.69
443.149	114.69
443.371	111.69
443.592	94.69
443.813	95.69
444.034	96.69
444.255	88.69
444.476	80.69
444.698	88.69
444.919	97.69
445.14	137.69
445.361	105.69
445.582	96.69
445.803	95.69
446.024	124.69
446.245	107.69
446.466	99.69
446.687	99.69
446.908	74.69
447.129	93.69
447.35	85.69
447.571	92.69
447.792	97.69
448.013	94.69
448.234	104.69
448.455	90.69
448.675	106.69
448.896	100.69
449.117	98.69
449.338	89.69
449.559	115.69
449.779	102.69
450	101.69
450.221	80.69
450.442	94.69
450.662	95.69
450.883	115.69
451.104	101.69
451.324	92.69
451.545	90.69
451.766	98.69
451.986	92.69
452.207	88.69
452.428	77.69
452.648	99.69
452.869	95.69
453.089	95.69
453.31	96.69
453.53	95.69
453.751	88.69
453.971	91.69
454.192	101.69
454.412	96.69
454.633	79.69
454.853	88.69
455.073	79.69
455.294	88.69
455.514	89.69
455.734	97.69
455.955	89.69
456.175	90.69
456.395	81.69
456.616	97.69
456.836	88.69
457.056	87.69
457.276	88.69
457.497	83.69
457.717	93.69
457.937	80.69
458.157	80.69
458.377	89.69
458.598	100.69
458.818	127.69
459.038	129.69
459.258	95.69
459.478	87.69
459.698	75.69
459.918	87.69
460.138	82.69
460.358	87.69
460.578	95.69
460.798	89.69
461.018	78.69
461.238	82.69
461.458	79.69
461.678	87.69
461.898	97.69
462.118	96.69
462.338	94.69
462.558	93.69
462.777	94.69
462.997	80.69
463.217	72.69
463.437	80.69
463.657	91.69
463.876	74.69
464.096	90.69
464.316	87.69
464.536	87.69
464.755	98.69
464.975	91.69
465.195	136.69
465.414	125.69
465.634	98.69
465.854	86.69
466.073	83.69
466.293	92.69
466.512	88.69
466.732	89.69
466.951	81.69
467.171	93.69
467.391	100.69
467.61	87.69
467.829	86.69
468.049	124.69
468.268	159.69
468.488	94.69
468.707	91.69
468.927	82.69
469.146	85.69
469.365	84.69
469.585	73.69
469.804	95.69
470.023	83.69
470.243	97.69
470.462	105.69
470.681	95.69
470.901	84.69
471.12	85.69
471.339	87.69
471.558	88.69
471.777	84.69
471.997	104.69
472.216	181.69
472.435	317.69
472.654	129.69
472.873	91.69
473.092	91.69
473.311	99.69
473.53	82.69
473.749	91.69
473.968	84.69
474.187	95.69
474.406	81.69
474.625	92.69
474.844	89.69
475.063	75.69
475.282	85.69
475.501	75.69
475.72	89.69
475.939	95.69
476.158	93.69
476.377	88.69
476.596	84.69
476.814	97.69
477.033	92.69
477.252	88.69
477.471	81.69
477.69	94.69
477.908	73.69
478.127	92.69
478.346	88.69
478.564	83.69
478.783	89.69
479.002	92.69
479.22	82.69
479.439	93.69
479.658	90.69
479.876	97.69
480.095	101.69
480.313	89.69
480.532	87.69
480.751	102.69
480.969	203.69
481.188	490.69
481.406	330.69
481.624	111.69
481.843	103.69
482.061	96.69
482.28	91.69
482.498	83.69
482.717	93.69
482.935	90.69
483.153	86.69
483.372	85.69
483.59	97.69
483.808	92.69
484.027	85.69
484.245	93.69
484.463	76.69
484.681	93.69
484.9	78.69
485.118	105.69
485.336	85.69
485.554	94.69
485.772	101.69
485.99	105.69
486.209	112.69
486.427	103.69
486.645	99.69
486.863	115.69
487.081	101.69
487.299	86.69
487.517	91.69
487.735	98.69
487.953	92.69
488.171	91.69
488.389	85.69
488.607	90.69
488.825	85.69
489.043	95.69
489.261	92.69
489.479	93.69
489.696	98.69
489.914	96.69
490.132	84.69
490.35	89.69
490.568	69.69
490.786	89.69
491.003	77.69
491.221	81.69
491.439	95.69
491.657	83.69
491.874	89.69
492.092	98.69
492.31	91.69
492.527	83.69
492.745	85.69
492.963	87.69
493.18	104.69
493.398	88.69
493.615	93.69
493.833	97.69
494.05	93.69
494.268	87.69
494.485	84.69
494.703	87.69
494.92	74.69
495.138	90.69
495.355	87.69
495.573	97.69
495.79	86.69
496.008	94.69
496.225	92.69
496.442	102.69
496.66	100.69
496.877	83.69
497.094	99.69
497.312	93.69
497.529	79.69
497.746	96.69
497.963	91.69
498.181	92.69
498.398	71.69
498.615	89.69
498.832	106.69
499.049	106.69
499.267	90.69
499.484	101.69
499.701	87.69
499.918	97.69
500.135	81.69
500.352	91.69
500.569	92.69
500.786	85.69
501.003	81.69
501.22	71.69
501.437	90.69
501.654	93.69
501.871	86.69
502.088	83.69
502.305	96.69
502.522	96.69
502.739	89.69
502.956	88.69
503.172	100.69
503.389	79.69
503.606	94.69
503.823	92.69
504.04	100.69
504.256	99.69
504.473	84.69
504.69	85.69
504.907	98.69
505.123	83.69
505.34	92.69
505.557	88.69
505.773	92.69
505.99	87.69
506.207	98.69
506.423	88.69
506.64	76.69
506.856	84.69
507.073	94.69
507.289	81.69
507.506	85.69
507.722	109.69
507.939	110.69
508.155	93.69
508.372	103.69
508.588	88.69
508.805	94.69
509.021	87.69
509.238	101.69
509.454	101.69
509.67	80.69
509.887	83.69
510.103	125.69
510.319	192.69
510.536	561.69
510.752	1681.69
510.968	489.69
511.184	149.69
511.401	115.69
511.617	99.69
511.833	102.69
512.049	92.69
512.265	95.69
512.481	110.69
512.698	85.69
512.914	93.69
513.13	96.69
513.346	81.69
513.562	95.69
513.778	102.69
513.994	92.69
514.21	92.69
514.426	107.69
514.642	105.69
514.858	99.69
515.074	141.69
515.29	343.69
515.506	995.69
515.721	383.69
515.937	141.69
516.153	97.69
516.369	104.69
516.585	97.69
516.801	90.69
517.016	97.69
517.232	92.69
517.448	101.69
517.664	88.69
517.879	76.69
518.095	93.69
518.311	87.69
518.527	93.69
518.742	100.69
518.958	91.69
519.173	84.69
519.389	83.69
519.605	96.69
519.82	95.69
520.036	100.69
520.251	108.69
520.467	97.69
520.682	92.69
520.898	87.69
521.113	101.69
521.329	127.69
521.544	169.69
521.76	403.69
521.975	1617.69
522.19	979.69
522.406	228.69
522.621	108.69
522.836	106.69
523.052	99.69
523.267	92.69
523.482	92.69
523.698	94.69
523.913	106.69
524.128	104.69
524.343	73.69
524.559	92.69
524.774	97.69
524.989	91.69
525.204	95.69
525.419	105.69
525.634	93.69
525.849	99.69
526.064	97.69
526.28	90.69
526.495	87.69
526.71	92.69
526.925	84.69
527.14	85.69
527.355	89.69
527.57	89.69
527.785	91.69
527.999	81.69
528.214	93.69
528.429	83.69
528.644	88.69
528.859	83.69
529.074	90.69
529.289	114.69
529.503	154.69
529.718	101.69
529.933	98.69
530.148	84.69
530.363	71.69
530.577	81.69
530.792	102.69
531.007	103.69
531.221	83.69
531.436	85.69
531.651	92.69
531.865	86.69
532.08	86.69
532.295	83.69
532.509	95.69
532.724	94.69
532.938	93.69
533.153	86.69
533.367	81.69
533.582	79.69
533.796	85.69
534.011	83.69
534.225	88.69
534.44	91.69
534.654	96.69
534.868	87.69
535.083	88.69
535.297	98.69
535.511	108.69
535.726	86.69
535.94	94.69
536.154	93.69
536.369	103.69
536.583	92.69
536.797	112.69
537.011	97.69
537.225	88.69
537.44	96.69
537.654	76.69
537.868	93.69
538.082	85.69
538.296	90.69
538.51	89.69
538.724	88.69
538.938	77.69
539.153	92.69
539.367	103.69
539.581	98.69
539.795	79.69
540.009	86.69
540.222	85.69
540.436	96.69
540.65	91.69
540.864	92.69
541.078	86.69
541.292	97.69
541.506	89.69
541.72	85.69
541.934	89.69
542.147	74.69
542.361	96.69
542.575	94.69
542.789	83.69
543.002	91.69
543.216	92.69
543.43	97.69
543.644	85.69
543.857	83.69
544.071	103.69
544.285	85.69
544.498	76.69
544.712	85.69
544.925	80.69
545.139	79.69
545.352	93.69
545.566	86.69
545.779	81.69
545.993	87.69
546.206	94.69
546.42	80.69
546.633	84.69
546.847	87.69
547.06	98.69
547.274	89.69
547.487	89.69
547.7	92.69
547.914	91.69
548.127	86.69
548.34	96.69
548.554	93.69
548.767	83.69
548.98	84.69
549.193	88.69
549.407	100.69
549.62	85.69
549.833	93.69
550.046	87.69
550.259	85.69
550.473	104.69
550.686	95.69
550.899	71.69
551.112	74.69
551.325	88.69
551.538	89.69
551.751	83.69
551.964	90.69
552.177	70.69
552.39	63.69
552.603	85.69
552.816	88.69
553.029	75.69
553.242	88.69
553.455	97.69
553.667	92.69
553.88	76.69
554.093	95.69
554.306	98.69
554.519	90.69
554.732	99.69
554.944	85.69
555.157	91.69
555.37	95.69
555.583	84.69
555.795	87.69
556.008	91.69
556.221	93.69
556.433	100.69
556.646	75.69
556.859	66.69
557.071	93.69
557.284	100.69
557.496	93.69
557.709	87.69
557.921	90.69
558.134	97.69
558.346	85.69
558.559	85.69
558.771	77.69
558.984	96.69
559.196	84.69
559.409	89.69
559.621	92.69
559.833	99.69
560.046	81.69
560.258	85.69
560.47	89.69
560.683	81.69
560.895	99.69
561.107	85.69
561.32	91.69
561.532	96.69
561.744	79.69
561.956	81.69
562.168	91.69
562.381	91.69
562.593	100.69
562.805	93.69
563.017	90.69
563.229	92.69
563.441	84.69
563.653	85.69
563.865	83.69
564.077	82.69
564.289	94.69
564.501	77.69
564.713	85.69
564.925	83.69
565.137	82.69
565.349	85.69
565.561	102.69
565.773	84.69
565.985	79.69
566.197	87.69
566.408	80.69
566.62	70.69
566.832	92.69
567.044	81.69
567.255	89.69
567.467	87.69
567.679	76.69
567.891	90.69
568.102	89.69
568.314	98.69
568.526	81.69
568.737	92.69
568.949	84.69
569.161	77.69
569.372	93.69
569.584	75.69
569.795	96.69
570.007	118.69
570.218	195.69
570.43	113.69
570.641	84.69
570.853	82.69
571.064	79.69
571.276	93.69
571.487	86.69
571.698	93.69
571.91	81.69
572.121	84.69
572.333	95.69
572.544	84.69
572.755	79.69
572.966	87.69
573.178	87.69
573.389	83.69
573.6	93.69
573.811	87.69
574.023	88.69
574.234	90.69
574.445	97.69
574.656	87.69
574.867	85.69
575.078	92.69
575.289	91.69
575.501	73.69
575.712	92.69
575.923	84.69
576.134	79.69
576.345	88.69
576.556	99.69
576.767	95.69
576.978	96.69
577.188	79.69
577.399	86.69
577.61	95.69
577.821	100.69
578.032	103.69
578.243	202.69
578.454	529.69
578.665	166.69
578.875	87.69
579.086	101.69
579.297	82.69
579.508	84.69
579.718	91.69
579.929	96.69
580.14	89.69
580.35	86.69
580.561	99.69
580.772	91.69
580.982	91.69
581.193	81.69
581.403	88.69
581.614	90.69
581.825	72.69
582.035	85.69
582.246	84.69
582.456	88.69
582.667	83.69
582.877	90.69
583.087	92.69
583.298	91.69
583.508	77.69
583.719	83.69
583.929	95.69
584.139	91.69
584.35	76.69
584.56	92.69
584.77	75.69
584.981	74.69
585.191	88.69
585.401	89.69
585.611	74.69
585.821	85.69
586.032	88.69
586.242	82.69
586.452	81.69
586.662	89.69
586.872	83.69
587.082	88.69
587.292	89.69
587.502	88.69
587.713	79.69
587.923	88.69
588.133	95.69
588.343	87.69
588.553	77.69
588.762	94.69
588.972	126.69
589.182	244.69
589.392	134.69
589.602	107.69
589.812	169.69
590.022	117.69
590.232	102.69
590.441	105.69
590.651	83.69
590.861	87.69
591.071	88.69
591.281	76.69
591.49	99.69
591.7	87.69
591.91	97.69
592.119	92.69
592.329	100.69
592.539	87.69
592.748	94.69
592.958	87.69
593.167	80.69
593.377	79.69
593.587	91.69
593.796	102.69
594.006	88.69
594.215	76.69
594.424	94.69
594.634	83.69
594.843	79.69
595.053	82.69
595.262	93.69
595.472	83.69
595.681	89.69
595.89	64.69
596.1	85.69
596.309	90.69
596.518	97.69
596.727	90.69
596.937	97.69
597.146	93.69
597.355	105.69
597.564	92.69
597.774	82.69
597.983	88.69
598.192	87.69
598.401	93.69
598.61	75.69
598.819	86.69
599.028	79.69
599.237	83.69
599.446	85.69
599.655	83.69
599.864	88.69
600.073	65.69
600.282	88.69
600.491	84.69
600.7	84.69
600.909	75.69
601.118	87.69
601.327	95.69
601.536	79.69
601.745	98.69
601.953	80.69
602.162	90.69
602.371	79.69
602.58	86.69
602.789	82.69
602.997	83.69
603.206	81.69
603.415	68.69
603.623	95.69
603.832	81.69
604.041	94.69
604.249	86.69
604.458	93.69
604.666	74.69
604.875	81.69
605.084	84.69
605.292	85.69
605.501	81.69
605.709	80.69
605.918	87.69
606.126	86.69
606.334	99.69
606.543	87.69
606.751	76.69
606.96	91.69
607.168	79.69
607.376	92.69
607.585	87.69
607.793	99.69
608.001	93.69
608.21	90.69
608.418	84.69
608.626	75.69
608.834	74.69
609.043	83.69
609.251	83.69
609.459	80.69
609.667	95.69
609.875	83.69
610.083	92.69
610.291	77.69
610.499	75.69
610.707	91.69
610.916	79.69
611.124	82.69
611.332	95.69
611.54	81.69
611.748	105.69
611.955	81.69
612.163	97.69
612.371	60.69
612.579	85.69
612.787	81.69
612.995	92.69
613.203	95.69
613.411	90.69
613.618	89.69
613.826	79.69
614.034	90.69
614.242	72.69
614.449	89.69
614.657	83.69
614.865	73.69
615.072	88.69
615.28	96.69
615.488	92.69
615.695	94.69
615.903	101.69
616.111	83.69
616.318	101.69
616.526	99.69
616.733	80.69
616.941	88.69
617.148	81.69
617.356	72.69
617.563	80.69
617.771	87.69
617.978	79.69
618.185	81.69
618.393	97.69
618.6	104.69
618.807	82.69
619.015	91.69
619.222	87.69
619.429	80.69
619.637	91.69
619.844	89.69
620.051	76.69
620.258	92.69
620.466	106.69
620.673	83.69
620.88	83.69
621.087	76.69
621.294	82.69
621.501	82.69
621.708	84.69
621.915	93.69
622.122	67.69
622.329	81.69
622.536	95.69
622.743	78.69
622.95	73.69
623.157	85.69
623.364	84.69
623.571	80.69
623.778	90.69
623.985	81.69
624.192	87.69
624.399	88.69
624.606	99.69
624.812	81.69
625.019	72.69
625.226	74.69
625.433	75.69
625.639	79.69
625.846	72.69
626.053	85.69
626.259	75.69
626.466	91.69
626.673	83.69
626.879	85.69
627.086	93.69
627.293	90.69
627.499	78.69
627.706	87.69
627.912	76.69
628.119	90.69
628.325	81.69
628.532	87.69
628.738	83.69
628.945	81.69
629.151	69.69
629.357	82.69
629.564	79.69
629.77	88.69
629.976	76.69
630.183	80.69
630.389	76.69
630.595	81.69
630.802	92.69
631.008	74.69
631.214	88.69
631.42	95.69
631.627	79.69
631.833	90.69
632.039	93.69
632.245	77.69
632.451	91.69
632.657	87.69
632.863	84.69
633.069	80.69
633.275	88.69
633.481	85.69
633.688	89.69
633.893	73.69
634.099	92.69
634.305	91.69
634.511	81.69
634.717	90.69
634.923	85.69
635.129	75.69
635.335	86.69
635.541	79.69
635.747	81.69
635.952	87.69
636.158	93.69
636.364	123.69
636.57	110.69
636.775	72.69
636.981	87.69
637.187	88.69
637.392	93.69
637.598	94.69
637.804	79.69
638.009	89.69
638.215	92.69
638.421	75.69
638.626	83.69
638.832	75.69
639.037	88.69
639.243	79.69
639.448	88.69
639.654	97.69
639.859	67.69
640.065	87.69
640.27	97.69
640.475	74.69
640.681	85.69
640.886	91.69
641.091	85.69
641.297	85.69
641.502	77.69
641.707	83.69
641.913	91.69
642.118	91.69
642.323	78.69
642.528	88.69
642.733	97.69
642.939	79.69
643.144	87.69
643.349	108.69
643.554	91.69
643.759	74.69
643.964	81.69
644.169	77.69
644.374	85.69
644.579	85.69
644.784	82.69
644.989	81.69
645.194	84.69
645.399	72.69
645.604	99.69
645.809	80.69
646.014	87.69
646.219	94.69
646.423	97.69
646.628	88.69
646.833	87.69
647.038	88.69
647.243	98.69
647.447	83.69
647.652	86.69
647.857	90.69
648.062	89.69
648.266	79.69
648.471	83.69
648.676	80.69
648.88	88.69
649.085	86.69
649.289	90.69
649.494	104.69
649.698	108.69
649.903	103.69
650.107	84.69
650.312	86.69
650.516	81.69
650.721	90.69
650.925	92.69
651.13	75.69
651.334	88.69
651.539	87.69
651.743	84.69
651.947	90.69
652.152	79.69
652.356	87.69
652.56	82.69
652.764	86.69
652.969	83.69
653.173	85.69
653.377	92.69
653.581	77.69
653.785	92.69
653.99	94.69
654.194	97.69
654.398	83.69
654.602	87.69
654.806	93.69
655.01	96.69
655.214	87.69
655.418	101.69
655.622	88.69
655.826	74.69
656.03	83.69
656.234	94.69
656.438	84.69
656.642	99.69
656.846	104.69
657.049	83.69
657.253	97.69
657.457	96.69
657.661	72.69
657.865	76.69
658.068	86.69
658.272	83.69
658.476	81.69
658.68	88.69
658.883	89.69
659.087	85.69
659.291	91.69
659.494	83.69
659.698	65.69
659.901	91.69
660.105	86.69
660.309	79.69
660.512	89.69
660.716	80.69
660.919	92.69
661.123	81.69
661.326	71.69
661.53	77.69
661.733	82.69
661.936	80.69
662.14	70.69
662.343	80.69
662.546	79.69
662.75	73.69
662.953	85.69
663.156	87.69
663.36	87.69
663.563	80.69
663.766	75.69
663.969	93.69
664.173	76.69
664.376	79.69
664.579	65.69
664.782	67.69
664.985	91.69
665.188	64.69
665.391	77.69
665.594	98.69
665.797	97.69
666	87.69
666.203	70.69
666.406	89.69
666.609	83.69
666.812	83.69
667.015	90.69
667.218	83.69
667.421	93.69
667.624	79.69
667.827	95.69
668.03	80.69
668.232	76.69
668.435	85.69
668.638	88.69
668.841	85.69
669.043	81.69
669.246	73.69
669.449	80.69
669.651	77.69
669.854	83.69
670.057	91.69
670.259	74.69
670.462	96.69
670.665	74.69
670.867	100.69
671.07	89.69
671.272	83.69
671.475	95.69
671.677	80.69
671.88	79.69
672.082	85.69
672.284	88.69
672.487	85.69
672.689	75.69
672.892	88.69
