Data from Circ_1983_H10_HRD10591_00097.txt Node
Date: Wed Jan 03 12:27:04 EST 2024
User: Yrep
Spectrometer: HR+D1059
Trigger mode: 1
Integration Time (sec): 1.000000E-1
Scans to average: 1
Electric dark correction enabled: true
Nonlinearity correction enabled: false
Boxcar width: 0
XAxis mode: Wavelengths
Number of Pixels in Spectrum: 2048
>>>>>Begin Spectral Data<<<<<
223.165	-13.81
223.4	-13.81
223.635	-13.81
223.869	-18.81
224.104	-32.81
224.338	-19.81
224.573	-5.81
224.808	7.19
225.042	2.19
225.277	-16.81
225.511	-4.81
225.746	6.19
225.98	2.19
226.215	11.19
226.449	19.19
226.683	16.19
226.918	16.19
227.152	32.19
227.387	43.19
227.621	39.19
227.856	39.19
228.09	35.19
228.324	39.19
228.559	56.19
228.793	55.19
229.027	44.19
229.262	71.19
229.496	64.19
229.73	88.19
229.964	82.19
230.199	80.19
230.433	83.19
230.667	72.19
230.901	83.19
231.136	70.19
231.37	85.19
231.604	85.19
231.838	92.19
232.072	87.19
232.306	86.19
232.541	82.19
232.775	72.19
233.009	99.19
233.243	85.19
233.477	87.19
233.711	91.19
233.945	71.19
234.179	74.19
234.413	93.19
234.647	91.19
234.881	81.19
235.115	85.19
235.349	77.19
235.583	70.19
235.817	93.19
236.051	85.19
236.285	77.19
236.519	85.19
236.753	76.19
236.987	72.19
237.221	72.19
237.455	73.19
237.689	80.19
237.922	76.19
238.156	68.19
238.39	70.19
238.624	70.19
238.858	72.19
239.091	69.19
239.325	79.19
239.559	83.19
239.793	71.19
240.027	72.19
240.26	86.19
240.494	84.19
240.728	76.19
240.961	69.19
241.195	83.19
241.429	90.19
241.662	67.19
241.896	77.19
242.13	72.19
242.363	71.19
242.597	70.19
242.83	87.19
243.064	87.19
243.298	70.19
243.531	76.19
243.765	73.19
243.998	77.19
244.232	79.19
244.465	83.19
244.699	87.19
244.932	77.19
245.166	77.19
245.399	73.19
245.633	76.19
245.866	81.19
246.099	72.19
246.333	81.19
246.566	82.19
246.8	72.19
247.033	76.19
247.266	84.19
247.5	83.19
247.733	73.19
247.966	59.19
248.2	79.19
248.433	89.19
248.666	88.19
248.899	87.19
249.133	76.19
249.366	102.19
249.599	87.19
249.832	88.19
250.066	98.19
250.299	76.19
250.532	101.19
250.765	79.19
250.998	68.19
251.231	74.19
251.465	75.19
251.698	75.19
251.931	70.19
252.164	72.19
252.397	91.19
252.63	87.19
252.863	75.19
253.096	86.19
253.329	93.19
253.562	85.19
253.795	82.19
254.028	82.19
254.261	70.19
254.494	89.19
254.727	87.19
254.96	82.19
255.193	71.19
255.426	87.19
255.659	85.19
255.892	92.19
256.124	81.19
256.357	73.19
256.59	103.19
256.823	87.19
257.056	86.19
257.289	88.19
257.521	85.19
257.754	68.19
257.987	76.19
258.22	83.19
258.452	81.19
258.685	93.19
258.918	79.19
259.151	79.19
259.383	87.19
259.616	85.19
259.849	84.19
260.081	84.19
260.314	80.19
260.547	75.19
260.779	83.19
261.012	83.19
261.244	80.19
261.477	87.19
261.71	85.19
261.942	120.19
262.175	105.19
262.407	100.19
262.64	86.19
262.872	80.19
263.105	74.19
263.337	91.19
263.57	85.19
263.802	91.19
264.035	85.19
264.267	79.19
264.499	85.19
264.732	85.19
264.964	89.19
265.197	78.19
265.429	90.19
265.661	97.19
265.894	88.19
266.126	81.19
266.358	75.19
266.591	82.19
266.823	105.19
267.055	90.19
267.287	84.19
267.52	83.19
267.752	87.19
267.984	85.19
268.216	86.19
268.448	85.19
268.681	96.19
268.913	103.19
269.145	98.19
269.377	87.19
269.609	85.19
269.841	87.19
270.073	106.19
270.306	81.19
270.538	87.19
270.77	85.19
271.002	97.19
271.234	97.19
271.466	79.19
271.698	89.19
271.93	76.19
272.162	78.19
272.394	73.19
272.626	67.19
272.858	71.19
273.09	100.19
273.322	89.19
273.553	76.19
273.785	85.19
274.017	80.19
274.249	99.19
274.481	101.19
274.713	72.19
274.945	83.19
275.176	97.19
275.408	88.19
275.64	91.19
275.872	88.19
276.104	98.19
276.335	90.19
276.567	85.19
276.799	90.19
277.031	108.19
277.262	93.19
277.494	81.19
277.726	95.19
277.957	81.19
278.189	94.19
278.421	92.19
278.652	86.19
278.884	93.19
279.115	91.19
279.347	84.19
279.579	70.19
279.81	91.19
280.042	97.19
280.273	94.19
280.505	93.19
280.736	100.19
280.968	96.19
281.199	100.19
281.431	91.19
281.662	92.19
281.894	96.19
282.125	95.19
282.356	102.19
282.588	133.19
282.819	102.19
283.051	87.19
283.282	85.19
283.513	90.19
283.745	84.19
283.976	96.19
284.207	95.19
284.439	80.19
284.67	69.19
284.901	86.19
285.132	91.19
285.364	84.19
285.595	100.19
285.826	91.19
286.057	85.19
286.288	90.19
286.52	83.19
286.751	83.19
286.982	99.19
287.213	88.19
287.444	103.19
287.675	86.19
287.906	93.19
288.138	96.19
288.369	106.19
288.6	97.19
288.831	88.19
289.062	91.19
289.293	93.19
289.524	81.19
289.755	87.19
289.986	76.19
290.217	102.19
290.448	72.19
290.679	90.19
290.91	74.19
291.141	91.19
291.371	85.19
291.602	97.19
291.833	79.19
292.064	76.19
292.295	77.19
292.526	96.19
292.757	92.19
292.987	76.19
293.218	90.19
293.449	91.19
293.68	95.19
293.91	87.19
294.141	74.19
294.372	72.19
294.603	84.19
294.833	81.19
295.064	77.19
295.295	85.19
295.525	73.19
295.756	85.19
295.987	107.19
296.217	136.19
296.448	122.19
296.679	96.19
296.909	99.19
297.14	98.19
297.37	89.19
297.601	89.19
297.831	93.19
298.062	94.19
298.292	104.19
298.523	90.19
298.753	79.19
298.984	82.19
299.214	96.19
299.445	83.19
299.675	89.19
299.905	79.19
300.136	93.19
300.366	79.19
300.597	91.19
300.827	83.19
301.057	93.19
301.288	100.19
301.518	86.19
301.748	91.19
301.979	90.19
302.209	87.19
302.439	94.19
302.669	95.19
302.9	85.19
303.13	92.19
303.36	83.19
303.59	111.19
303.82	101.19
304.051	93.19
304.281	95.19
304.511	100.19
304.741	107.19
304.971	106.19
305.201	81.19
305.431	86.19
305.661	94.19
305.891	84.19
306.121	100.19
306.352	105.19
306.582	101.19
306.812	87.19
307.042	103.19
307.272	120.19
307.502	112.19
307.731	99.19
307.961	101.19
308.191	87.19
308.421	81.19
308.651	106.19
308.881	90.19
309.111	85.19
309.341	93.19
309.571	93.19
309.8	83.19
310.03	108.19
310.26	106.19
310.49	109.19
310.72	87.19
310.949	90.19
311.179	104.19
311.409	91.19
311.639	83.19
311.868	87.19
312.098	103.19
312.328	87.19
312.557	88.19
312.787	103.19
313.017	100.19
313.246	102.19
313.476	80.19
313.706	94.19
313.935	97.19
314.165	88.19
314.394	89.19
314.624	108.19
314.853	91.19
315.083	99.19
315.312	74.19
315.542	71.19
315.771	97.19
316.001	90.19
316.23	92.19
316.46	96.19
316.689	97.19
316.919	110.19
317.148	98.19
317.377	100.19
317.607	95.19
317.836	98.19
318.065	95.19
318.295	90.19
318.524	100.19
318.753	94.19
318.983	92.19
319.212	107.19
319.441	100.19
319.67	97.19
319.9	96.19
320.129	97.19
320.358	98.19
320.587	109.19
320.816	95.19
321.046	95.19
321.275	101.19
321.504	85.19
321.733	98.19
321.962	93.19
322.191	96.19
322.42	100.19
322.649	109.19
322.878	92.19
323.108	117.19
323.337	103.19
323.566	129.19
323.795	144.19
324.024	170.19
324.253	300.19
324.482	625.19
324.71	1257.19
324.939	1637.19
325.168	615.19
325.397	200.19
325.626	135.19
325.855	108.19
326.084	117.19
326.313	107.19
326.542	126.19
326.77	195.19
326.999	355.19
327.228	688.19
327.457	1260.19
327.686	992.19
327.914	304.19
328.143	187.19
328.372	196.19
328.6	143.19
328.829	118.19
329.058	109.19
329.287	131.19
329.515	111.19
329.744	120.19
329.972	142.19
330.201	225.19
330.43	270.19
330.658	175.19
330.887	129.19
331.115	105.19
331.344	83.19
331.572	88.19
331.801	104.19
332.03	90.19
332.258	98.19
332.486	91.19
332.715	100.19
332.943	99.19
333.172	87.19
333.4	106.19
333.629	111.19
333.857	124.19
334.085	139.19
334.314	217.19
334.542	358.19
334.771	324.19
334.999	145.19
335.227	117.19
335.455	87.19
335.684	94.19
335.912	106.19
336.14	111.19
336.369	108.19
336.597	98.19
336.825	105.19
337.053	104.19
337.281	80.19
337.51	84.19
337.738	92.19
337.966	81.19
338.194	93.19
338.422	94.19
338.65	90.19
338.878	89.19
339.106	92.19
339.334	102.19
339.562	98.19
339.79	80.19
340.018	96.19
340.246	97.19
340.474	93.19
340.702	79.19
340.93	94.19
341.158	107.19
341.386	100.19
341.614	95.19
341.842	110.19
342.07	90.19
342.298	83.19
342.526	87.19
342.754	79.19
342.981	89.19
343.209	96.19
343.437	103.19
343.665	85.19
343.893	86.19
344.12	96.19
344.348	88.19
344.576	99.19
344.804	80.19
345.031	98.19
345.259	82.19
345.487	96.19
345.714	99.19
345.942	91.19
346.17	84.19
346.397	95.19
346.625	89.19
346.853	94.19
347.08	85.19
347.308	100.19
347.535	104.19
347.763	94.19
347.99	108.19
348.218	99.19
348.445	98.19
348.673	103.19
348.9	96.19
349.128	121.19
349.355	82.19
349.583	99.19
349.81	92.19
350.037	96.19
350.265	92.19
350.492	92.19
350.72	89.19
350.947	104.19
351.174	98.19
351.402	92.19
351.629	87.19
351.856	105.19
352.083	103.19
352.311	90.19
352.538	100.19
352.765	109.19
352.992	106.19
353.22	102.19
353.447	107.19
353.674	106.19
353.901	97.19
354.128	94.19
354.355	83.19
354.583	90.19
354.81	107.19
355.037	100.19
355.264	109.19
355.491	92.19
355.718	92.19
355.945	96.19
356.172	86.19
356.399	100.19
356.626	97.19
356.853	109.19
357.08	106.19
357.307	90.19
357.534	80.19
357.761	95.19
357.988	83.19
358.215	89.19
358.441	100.19
358.668	93.19
358.895	89.19
359.122	82.19
359.349	91.19
359.576	76.19
359.802	83.19
360.029	95.19
360.256	95.19
360.483	94.19
360.709	89.19
360.936	93.19
361.163	87.19
361.39	94.19
361.616	95.19
361.843	84.19
362.07	97.19
362.296	81.19
362.523	93.19
362.749	95.19
362.976	106.19
363.203	98.19
363.429	92.19
363.656	92.19
363.882	89.19
364.109	85.19
364.335	91.19
364.562	88.19
364.788	87.19
365.015	94.19
365.241	94.19
365.468	96.19
365.694	99.19
365.92	103.19
366.147	74.19
366.373	87.19
366.599	76.19
366.826	75.19
367.052	93.19
367.278	92.19
367.505	89.19
367.731	95.19
367.957	88.19
368.184	90.19
368.41	97.19
368.636	101.19
368.862	115.19
369.089	104.19
369.315	91.19
369.541	102.19
369.767	89.19
369.993	87.19
370.219	85.19
370.445	94.19
370.672	81.19
370.898	83.19
371.124	87.19
371.35	79.19
371.576	80.19
371.802	91.19
372.028	92.19
372.254	87.19
372.48	105.19
372.706	84.19
372.932	92.19
373.158	89.19
373.384	83.19
373.61	83.19
373.835	85.19
374.061	93.19
374.287	99.19
374.513	82.19
374.739	85.19
374.965	92.19
375.191	85.19
375.416	98.19
375.642	73.19
375.868	79.19
376.094	82.19
376.319	89.19
376.545	77.19
376.771	89.19
376.997	88.19
377.222	84.19
377.448	105.19
377.674	88.19
377.899	82.19
378.125	93.19
378.35	88.19
378.576	89.19
378.802	93.19
379.027	90.19
379.253	96.19
379.478	102.19
379.704	98.19
379.929	92.19
380.155	92.19
380.38	103.19
380.606	110.19
380.831	98.19
381.057	99.19
381.282	96.19
381.507	79.19
381.733	108.19
381.958	85.19
382.184	91.19
382.409	96.19
382.634	101.19
382.86	99.19
383.085	100.19
383.31	89.19
383.535	112.19
383.761	102.19
383.986	103.19
384.211	102.19
384.436	86.19
384.662	92.19
384.887	100.19
385.112	113.19
385.337	113.19
385.562	104.19
385.787	101.19
386.013	106.19
386.238	119.19
386.463	99.19
386.688	107.19
386.913	85.19
387.138	104.19
387.363	105.19
387.588	92.19
387.813	95.19
388.038	99.19
388.263	98.19
388.488	105.19
388.713	99.19
388.938	103.19
389.163	105.19
389.387	110.19
389.612	86.19
389.837	80.19
390.062	100.19
390.287	92.19
390.512	105.19
390.736	89.19
390.961	85.19
391.186	91.19
391.411	104.19
391.636	85.19
391.86	87.19
392.085	91.19
392.31	89.19
392.534	74.19
392.759	111.19
392.984	93.19
393.208	94.19
393.433	103.19
393.658	87.19
393.882	71.19
394.107	92.19
394.331	99.19
394.556	94.19
394.78	81.19
395.005	80.19
395.229	71.19
395.454	83.19
395.678	80.19
395.903	97.19
396.127	100.19
396.352	87.19
396.576	100.19
396.801	93.19
397.025	96.19
397.249	80.19
397.474	100.19
397.698	102.19
397.922	97.19
398.147	89.19
398.371	89.19
398.595	90.19
398.82	90.19
399.044	87.19
399.268	74.19
399.492	78.19
399.717	83.19
399.941	99.19
400.165	103.19
400.389	95.19
400.613	69.19
400.837	77.19
401.062	85.19
401.286	81.19
401.51	97.19
401.734	87.19
401.958	99.19
402.182	115.19
402.406	135.19
402.63	105.19
402.854	80.19
403.078	76.19
403.302	87.19
403.526	85.19
403.75	81.19
403.974	86.19
404.198	89.19
404.422	90.19
404.645	91.19
404.869	91.19
405.093	107.19
405.317	97.19
405.541	97.19
405.765	95.19
405.988	103.19
406.212	141.19
406.436	191.19
406.66	123.19
406.883	95.19
407.107	87.19
407.331	76.19
407.555	103.19
407.778	73.19
408.002	85.19
408.226	88.19
408.449	84.19
408.673	93.19
408.896	103.19
409.12	95.19
409.344	96.19
409.567	88.19
409.791	86.19
410.014	95.19
410.238	99.19
410.461	100.19
410.685	106.19
410.908	93.19
411.132	103.19
411.355	86.19
411.578	107.19
411.802	90.19
412.025	85.19
412.249	98.19
412.472	95.19
412.695	97.19
412.919	108.19
413.142	95.19
413.365	65.19
413.589	88.19
413.812	83.19
414.035	94.19
414.258	95.19
414.482	92.19
414.705	103.19
414.928	84.19
415.151	91.19
415.374	99.19
415.597	91.19
415.821	95.19
416.044	93.19
416.267	88.19
416.49	72.19
416.713	94.19
416.936	91.19
417.159	96.19
417.382	85.19
417.605	90.19
417.828	94.19
418.051	98.19
418.274	75.19
418.497	85.19
418.72	87.19
418.943	96.19
419.166	84.19
419.389	83.19
419.611	89.19
419.834	72.19
420.057	83.19
420.28	92.19
420.503	83.19
420.726	82.19
420.948	85.19
421.171	82.19
421.394	84.19
421.617	87.19
421.839	87.19
422.062	87.19
422.285	80.19
422.507	99.19
422.73	96.19
422.953	98.19
423.175	104.19
423.398	90.19
423.621	72.19
423.843	75.19
424.066	85.19
424.288	98.19
424.511	98.19
424.733	96.19
424.956	91.19
425.178	101.19
425.401	81.19
425.623	96.19
425.846	104.19
426.068	80.19
426.291	106.19
426.513	86.19
426.735	98.19
426.958	87.19
427.18	101.19
427.402	127.19
427.625	132.19
427.847	139.19
428.069	122.19
428.292	101.19
428.514	83.19
428.736	71.19
428.958	71.19
429.181	80.19
429.403	65.19
429.625	95.19
429.847	96.19
430.069	91.19
430.292	85.19
430.514	84.19
430.736	95.19
430.958	79.19
431.18	91.19
431.402	83.19
431.624	83.19
431.846	104.19
432.068	85.19
432.29	75.19
432.512	80.19
432.734	91.19
432.956	83.19
433.178	98.19
433.4	93.19
433.622	92.19
433.844	91.19
434.066	103.19
434.287	90.19
434.509	104.19
434.731	86.19
434.953	86.19
435.175	90.19
435.397	85.19
435.618	101.19
435.84	104.19
436.062	114.19
436.284	100.19
436.505	109.19
436.727	94.19
436.949	85.19
437.17	82.19
437.392	93.19
437.614	98.19
437.835	96.19
438.057	103.19
438.278	96.19
438.5	104.19
438.721	104.19
438.943	102.19
439.165	90.19
439.386	84.19
439.608	88.19
439.829	101.19
440.05	99.19
440.272	135.19
440.493	91.19
440.715	82.19
440.936	92.19
441.158	81.19
441.379	88.19
441.6	100.19
441.822	96.19
442.043	73.19
442.264	91.19
442.486	70.19
442.707	75.19
442.928	101.19
443.149	111.19
443.371	128.19
443.592	94.19
443.813	96.19
444.034	93.19
444.255	90.19
444.476	83.19
444.698	84.19
444.919	89.19
445.14	128.19
445.361	127.19
445.582	98.19
445.803	110.19
446.024	132.19
446.245	107.19
446.466	99.19
446.687	71.19
446.908	92.19
447.129	98.19
447.35	97.19
447.571	93.19
447.792	92.19
448.013	106.19
448.234	105.19
448.455	101.19
448.675	106.19
448.896	105.19
449.117	89.19
449.338	87.19
449.559	116.19
449.779	113.19
450	88.19
450.221	98.19
450.442	72.19
450.662	101.19
450.883	94.19
451.104	105.19
451.324	94.19
451.545	84.19
451.766	86.19
451.986	98.19
452.207	82.19
452.428	83.19
452.648	98.19
452.869	106.19
453.089	99.19
453.31	114.19
453.53	87.19
453.751	79.19
453.971	109.19
454.192	102.19
454.412	91.19
454.633	88.19
454.853	87.19
455.073	91.19
455.294	77.19
455.514	97.19
455.734	97.19
455.955	87.19
456.175	80.19
456.395	88.19
456.616	87.19
456.836	91.19
457.056	91.19
457.276	89.19
457.497	83.19
457.717	79.19
457.937	80.19
458.157	83.19
458.377	72.19
458.598	108.19
458.818	129.19
459.038	133.19
459.258	107.19
459.478	83.19
459.698	84.19
459.918	84.19
460.138	97.19
460.358	72.19
460.578	97.19
460.798	76.19
461.018	85.19
461.238	83.19
461.458	87.19
461.678	76.19
461.898	98.19
462.118	91.19
462.338	85.19
462.558	91.19
462.777	79.19
462.997	93.19
463.217	88.19
463.437	85.19
463.657	99.19
463.876	100.19
464.096	104.19
464.316	79.19
464.536	97.19
464.755	88.19
464.975	104.19
465.195	140.19
465.414	141.19
465.634	88.19
465.854	83.19
466.073	90.19
466.293	81.19
466.512	78.19
466.732	89.19
466.951	85.19
467.171	85.19
467.391	84.19
467.61	89.19
467.829	125.19
468.049	163.19
468.268	192.19
468.488	107.19
468.707	91.19
468.927	98.19
469.146	85.19
469.365	106.19
469.585	91.19
469.804	82.19
470.023	99.19
470.243	91.19
470.462	83.19
470.681	111.19
470.901	88.19
471.12	99.19
471.339	96.19
471.558	91.19
471.777	88.19
471.997	135.19
472.216	255.19
472.435	477.19
472.654	163.19
472.873	97.19
473.092	104.19
473.311	99.19
473.53	103.19
473.749	91.19
473.968	82.19
474.187	105.19
474.406	98.19
474.625	97.19
474.844	83.19
475.063	89.19
475.282	88.19
475.501	72.19
475.72	89.19
475.939	91.19
476.158	92.19
476.377	89.19
476.596	94.19
476.814	88.19
477.033	80.19
477.252	87.19
477.471	85.19
477.69	96.19
477.908	99.19
478.127	83.19
478.346	89.19
478.564	92.19
478.783	87.19
479.002	74.19
479.22	91.19
479.439	97.19
479.658	95.19
479.876	91.19
480.095	88.19
480.313	97.19
480.532	120.19
480.751	120.19
480.969	260.19
481.188	817.19
481.406	505.19
481.624	133.19
481.843	97.19
482.061	78.19
482.28	99.19
482.498	74.19
482.717	80.19
482.935	79.19
483.153	106.19
483.372	97.19
483.59	99.19
483.808	92.19
484.027	90.19
484.245	82.19
484.463	83.19
484.681	105.19
484.9	87.19
485.118	99.19
485.336	87.19
485.554	92.19
485.772	87.19
485.99	112.19
486.209	111.19
486.427	107.19
486.645	122.19
486.863	107.19
487.081	90.19
487.299	88.19
487.517	91.19
487.735	98.19
487.953	86.19
488.171	88.19
488.389	93.19
488.607	98.19
488.825	98.19
489.043	76.19
489.261	89.19
489.479	79.19
489.696	93.19
489.914	76.19
490.132	90.19
490.35	86.19
490.568	106.19
490.786	92.19
491.003	93.19
491.221	93.19
491.439	84.19
491.657	83.19
491.874	103.19
492.092	91.19
492.31	87.19
492.527	86.19
492.745	72.19
492.963	82.19
493.18	84.19
493.398	84.19
493.615	86.19
493.833	93.19
494.05	88.19
494.268	87.19
494.485	99.19
494.703	81.19
494.92	92.19
495.138	91.19
495.355	90.19
495.573	88.19
495.79	99.19
496.008	75.19
496.225	91.19
496.442	76.19
496.66	82.19
496.877	89.19
497.094	98.19
497.312	87.19
497.529	104.19
497.746	91.19
497.963	92.19
498.181	89.19
498.398	85.19
498.615	88.19
498.832	114.19
499.049	89.19
499.267	86.19
499.484	90.19
499.701	102.19
499.918	75.19
500.135	80.19
500.352	88.19
500.569	87.19
500.786	91.19
501.003	74.19
501.22	80.19
501.437	98.19
501.654	97.19
501.871	109.19
502.088	87.19
502.305	91.19
502.522	88.19
502.739	83.19
502.956	92.19
503.172	95.19
503.389	100.19
503.606	97.19
503.823	111.19
504.04	102.19
504.256	109.19
504.473	93.19
504.69	83.19
504.907	109.19
505.123	95.19
505.34	89.19
505.557	91.19
505.773	89.19
505.99	80.19
506.207	83.19
506.423	89.19
506.64	87.19
506.856	99.19
507.073	92.19
507.289	90.19
507.506	92.19
507.722	106.19
507.939	104.19
508.155	79.19
508.372	91.19
508.588	84.19
508.805	88.19
509.021	85.19
509.238	99.19
509.454	104.19
509.67	107.19
509.887	109.19
510.103	115.19
510.319	177.19
510.536	596.19
510.752	1755.19
510.968	511.19
511.184	145.19
511.401	96.19
511.617	105.19
511.833	97.19
512.049	96.19
512.265	106.19
512.481	88.19
512.698	85.19
512.914	103.19
513.13	87.19
513.346	87.19
513.562	89.19
513.778	90.19
513.994	101.19
514.21	98.19
514.426	107.19
514.642	128.19
514.858	114.19
515.074	144.19
515.29	334.19
515.506	1097.19
515.721	410.19
515.937	145.19
516.153	95.19
516.369	88.19
516.585	98.19
516.801	113.19
517.016	100.19
517.232	105.19
517.448	96.19
517.664	85.19
517.879	90.19
518.095	93.19
518.311	94.19
518.527	103.19
518.742	84.19
518.958	81.19
519.173	83.19
519.389	103.19
519.605	98.19
519.82	83.19
520.036	100.19
520.251	92.19
520.467	89.19
520.682	112.19
520.898	107.19
521.113	116.19
521.329	116.19
521.544	178.19
521.76	424.19
521.975	1710.19
522.19	1049.19
522.406	259.19
522.621	109.19
522.836	99.19
523.052	83.19
523.267	104.19
523.482	95.19
523.698	93.19
523.913	104.19
524.128	92.19
524.343	97.19
524.559	87.19
524.774	90.19
524.989	94.19
525.204	113.19
525.419	99.19
525.634	86.19
525.849	92.19
526.064	82.19
526.28	91.19
526.495	99.19
526.71	98.19
526.925	87.19
527.14	85.19
527.355	92.19
527.57	85.19
527.785	71.19
527.999	87.19
528.214	96.19
528.429	95.19
528.644	93.19
528.859	84.19
529.074	78.19
529.289	120.19
529.503	160.19
529.718	102.19
529.933	106.19
530.148	100.19
530.363	84.19
530.577	96.19
530.792	87.19
531.007	72.19
531.221	98.19
531.436	81.19
531.651	96.19
531.865	84.19
532.08	77.19
532.295	87.19
532.509	104.19
532.724	95.19
532.938	92.19
533.153	105.19
533.367	101.19
533.582	99.19
533.796	95.19
534.011	83.19
534.225	97.19
534.44	86.19
534.654	99.19
534.868	95.19
535.083	87.19
535.297	90.19
535.511	95.19
535.726	92.19
535.94	91.19
536.154	93.19
536.369	97.19
536.583	83.19
536.797	97.19
537.011	88.19
537.225	90.19
537.44	96.19
537.654	95.19
537.868	74.19
538.082	92.19
538.296	75.19
538.51	88.19
538.724	90.19
538.938	84.19
539.153	99.19
539.367	104.19
539.581	92.19
539.795	95.19
540.009	106.19
540.222	88.19
540.436	88.19
540.65	77.19
540.864	83.19
541.078	94.19
541.292	101.19
541.506	85.19
541.72	90.19
541.934	107.19
542.147	91.19
542.361	75.19
542.575	81.19
542.789	88.19
543.002	90.19
543.216	98.19
543.43	110.19
543.644	84.19
543.857	80.19
544.071	85.19
544.285	91.19
544.498	82.19
544.712	95.19
544.925	107.19
545.139	84.19
545.352	99.19
545.566	96.19
545.779	93.19
545.993	87.19
546.206	75.19
546.42	91.19
546.633	86.19
546.847	96.19
547.06	96.19
547.274	89.19
547.487	96.19
547.7	88.19
547.914	83.19
548.127	92.19
548.34	83.19
548.554	83.19
548.767	92.19
548.98	101.19
549.193	91.19
549.407	99.19
549.62	102.19
549.833	99.19
550.046	77.19
550.259	104.19
550.473	89.19
550.686	82.19
550.899	81.19
551.112	109.19
551.325	93.19
551.538	98.19
551.751	80.19
551.964	89.19
552.177	91.19
552.39	93.19
552.603	88.19
552.816	90.19
553.029	90.19
553.242	92.19
553.455	97.19
553.667	99.19
553.88	89.19
554.093	87.19
554.306	93.19
554.519	81.19
554.732	86.19
554.944	80.19
555.157	92.19
555.37	84.19
555.583	108.19
555.795	92.19
556.008	88.19
556.221	82.19
556.433	87.19
556.646	96.19
556.859	87.19
557.071	101.19
557.284	93.19
557.496	94.19
557.709	98.19
557.921	91.19
558.134	85.19
558.346	87.19
558.559	86.19
558.771	89.19
558.984	85.19
559.196	93.19
559.409	88.19
559.621	90.19
559.833	82.19
560.046	89.19
560.258	85.19
560.47	103.19
560.683	99.19
560.895	108.19
561.107	81.19
561.32	76.19
561.532	84.19
561.744	99.19
561.956	93.19
562.168	84.19
562.381	87.19
562.593	95.19
562.805	107.19
563.017	100.19
563.229	90.19
563.441	86.19
563.653	86.19
563.865	81.19
564.077	102.19
564.289	108.19
564.501	101.19
564.713	114.19
564.925	85.19
565.137	111.19
565.349	89.19
565.561	83.19
565.773	87.19
565.985	85.19
566.197	93.19
566.408	93.19
566.62	94.19
566.832	89.19
567.044	89.19
567.255	83.19
567.467	87.19
567.679	89.19
567.891	96.19
568.102	88.19
568.314	88.19
568.526	92.19
568.737	90.19
568.949	99.19
569.161	91.19
569.372	94.19
569.584	82.19
569.795	101.19
570.007	106.19
570.218	193.19
570.43	127.19
570.641	106.19
570.853	101.19
571.064	99.19
571.276	89.19
571.487	93.19
571.698	89.19
571.91	90.19
572.121	99.19
572.333	80.19
572.544	84.19
572.755	80.19
572.966	93.19
573.178	87.19
573.389	83.19
573.6	81.19
573.811	91.19
574.023	90.19
574.234	88.19
574.445	98.19
574.656	78.19
574.867	81.19
575.078	95.19
575.289	97.19
575.501	99.19
575.712	88.19
575.923	97.19
576.134	92.19
576.345	85.19
576.556	81.19
576.767	84.19
576.978	102.19
577.188	97.19
577.399	93.19
577.61	76.19
577.821	97.19
578.032	106.19
578.243	213.19
578.454	551.19
578.665	173.19
578.875	104.19
579.086	93.19
579.297	81.19
579.508	83.19
579.718	87.19
579.929	86.19
580.14	82.19
580.35	96.19
580.561	97.19
580.772	96.19
580.982	95.19
581.193	88.19
581.403	99.19
581.614	92.19
581.825	90.19
582.035	83.19
582.246	93.19
582.456	94.19
582.667	102.19
582.877	92.19
583.087	83.19
583.298	90.19
583.508	81.19
583.719	82.19
583.929	84.19
584.139	91.19
584.35	98.19
584.56	82.19
584.77	81.19
584.981	90.19
585.191	87.19
585.401	93.19
585.611	88.19
585.821	93.19
586.032	81.19
586.242	91.19
586.452	108.19
586.662	77.19
586.872	91.19
587.082	89.19
587.292	79.19
587.502	68.19
587.713	80.19
587.923	79.19
588.133	81.19
588.343	86.19
588.553	79.19
588.762	96.19
588.972	84.19
589.182	104.19
589.392	112.19
589.602	100.19
589.812	96.19
590.022	87.19
590.232	85.19
590.441	82.19
590.651	105.19
590.861	85.19
591.071	88.19
591.281	82.19
591.49	92.19
591.7	84.19
591.91	88.19
592.119	91.19
592.329	103.19
592.539	91.19
592.748	84.19
592.958	85.19
593.167	74.19
593.377	79.19
593.587	93.19
593.796	85.19
594.006	80.19
594.215	82.19
594.424	97.19
594.634	81.19
594.843	85.19
595.053	75.19
595.262	83.19
595.472	95.19
595.681	95.19
595.89	89.19
596.1	91.19
596.309	89.19
596.518	68.19
596.727	75.19
596.937	91.19
597.146	85.19
597.355	90.19
597.564	82.19
597.774	86.19
597.983	79.19
598.192	85.19
598.401	82.19
598.61	79.19
598.819	76.19
599.028	83.19
599.237	95.19
599.446	92.19
599.655	92.19
599.864	81.19
600.073	77.19
600.282	88.19
600.491	77.19
600.7	77.19
600.909	114.19
601.118	107.19
601.327	97.19
601.536	89.19
601.745	85.19
601.953	89.19
602.162	92.19
602.371	70.19
602.58	94.19
602.789	89.19
602.997	98.19
603.206	95.19
603.415	86.19
603.623	76.19
603.832	84.19
604.041	91.19
604.249	83.19
604.458	77.19
604.666	81.19
604.875	93.19
605.084	92.19
605.292	73.19
605.501	77.19
605.709	88.19
605.918	79.19
606.126	92.19
606.334	82.19
606.543	78.19
606.751	90.19
606.96	99.19
607.168	80.19
607.376	87.19
607.585	88.19
607.793	78.19
608.001	79.19
608.21	84.19
608.418	96.19
608.626	99.19
608.834	101.19
609.043	86.19
609.251	85.19
609.459	88.19
609.667	83.19
609.875	99.19
610.083	68.19
610.291	90.19
610.499	86.19
610.707	82.19
610.916	80.19
611.124	89.19
611.332	81.19
611.54	90.19
611.748	105.19
611.955	95.19
612.163	98.19
612.371	90.19
612.579	83.19
612.787	83.19
612.995	98.19
613.203	84.19
613.411	89.19
613.618	96.19
613.826	76.19
614.034	81.19
614.242	95.19
614.449	87.19
614.657	100.19
614.865	87.19
615.072	96.19
615.28	77.19
615.488	92.19
615.695	83.19
615.903	91.19
616.111	113.19
616.318	96.19
616.526	112.19
616.733	91.19
616.941	85.19
617.148	84.19
617.356	86.19
617.563	101.19
617.771	77.19
617.978	85.19
618.185	83.19
618.393	80.19
618.6	85.19
618.807	88.19
619.015	87.19
619.222	90.19
619.429	76.19
619.637	84.19
619.844	94.19
620.051	85.19
620.258	83.19
620.466	82.19
620.673	102.19
620.88	99.19
621.087	90.19
621.294	95.19
621.501	93.19
621.708	108.19
621.915	95.19
622.122	79.19
622.329	84.19
622.536	77.19
622.743	84.19
622.95	83.19
623.157	87.19
623.364	104.19
623.571	88.19
623.778	79.19
623.985	93.19
624.192	83.19
624.399	73.19
624.606	89.19
624.812	83.19
625.019	93.19
625.226	85.19
625.433	103.19
625.639	87.19
625.846	93.19
626.053	92.19
626.259	89.19
626.466	89.19
626.673	81.19
626.879	105.19
627.086	85.19
627.293	97.19
627.499	93.19
627.706	77.19
627.912	82.19
628.119	90.19
628.325	90.19
628.532	87.19
628.738	90.19
628.945	81.19
629.151	88.19
629.357	93.19
629.564	85.19
629.77	83.19
629.976	83.19
630.183	88.19
630.389	93.19
630.595	73.19
630.802	97.19
631.008	78.19
631.214	83.19
631.42	75.19
631.627	89.19
631.833	84.19
632.039	73.19
632.245	82.19
632.451	79.19
632.657	91.19
632.863	87.19
633.069	93.19
633.275	92.19
633.481	100.19
633.688	90.19
633.893	101.19
634.099	75.19
634.305	89.19
634.511	90.19
634.717	87.19
634.923	83.19
635.129	83.19
635.335	80.19
635.541	78.19
635.747	81.19
635.952	86.19
636.158	96.19
636.364	122.19
636.57	111.19
636.775	85.19
636.981	91.19
637.187	89.19
637.392	83.19
637.598	91.19
637.804	83.19
638.009	85.19
638.215	102.19
638.421	81.19
638.626	79.19
638.832	89.19
639.037	88.19
639.243	87.19
639.448	70.19
639.654	92.19
639.859	89.19
640.065	68.19
640.27	94.19
640.475	95.19
640.681	85.19
640.886	69.19
641.091	83.19
641.297	75.19
641.502	96.19
641.707	75.19
641.913	99.19
642.118	87.19
642.323	78.19
642.528	90.19
642.733	85.19
642.939	86.19
643.144	87.19
643.349	80.19
643.554	80.19
643.759	100.19
643.964	80.19
644.169	97.19
644.374	88.19
644.579	90.19
644.784	69.19
644.989	96.19
645.194	77.19
645.399	89.19
645.604	92.19
645.809	85.19
646.014	85.19
646.219	89.19
646.423	86.19
646.628	71.19
646.833	82.19
647.038	103.19
647.243	88.19
647.447	80.19
647.652	83.19
647.857	75.19
648.062	81.19
648.266	88.19
648.471	91.19
648.676	91.19
648.88	99.19
649.085	103.19
649.289	90.19
649.494	92.19
649.698	113.19
649.903	93.19
650.107	91.19
650.312	82.19
650.516	82.19
650.721	87.19
650.925	86.19
651.13	88.19
651.334	65.19
651.539	57.19
651.743	82.19
651.947	91.19
652.152	81.19
652.356	81.19
652.56	86.19
652.764	91.19
652.969	92.19
653.173	83.19
653.377	71.19
653.581	71.19
653.785	59.19
653.99	73.19
654.194	81.19
654.398	87.19
654.602	88.19
654.806	84.19
655.01	100.19
655.214	84.19
655.418	79.19
655.622	87.19
655.826	80.19
656.03	74.19
656.234	98.19
656.438	100.19
656.642	81.19
656.846	90.19
657.049	78.19
657.253	88.19
657.457	86.19
657.661	83.19
657.865	81.19
658.068	87.19
658.272	75.19
658.476	77.19
658.68	92.19
658.883	86.19
659.087	76.19
659.291	85.19
659.494	89.19
659.698	80.19
659.901	83.19
660.105	75.19
660.309	76.19
660.512	91.19
660.716	91.19
660.919	91.19
661.123	94.19
661.326	80.19
661.53	77.19
661.733	79.19
661.936	85.19
662.14	83.19
662.343	78.19
662.546	87.19
662.75	79.19
662.953	88.19
663.156	77.19
663.36	81.19
663.563	85.19
663.766	71.19
663.969	69.19
664.173	75.19
664.376	73.19
664.579	76.19
664.782	90.19
664.985	83.19
665.188	95.19
665.391	88.19
665.594	75.19
665.797	91.19
666	81.19
666.203	76.19
666.406	85.19
666.609	79.19
666.812	66.19
667.015	77.19
667.218	87.19
667.421	83.19
667.624	70.19
667.827	87.19
668.03	76.19
668.232	76.19
668.435	68.19
668.638	86.19
668.841	81.19
669.043	69.19
669.246	96.19
669.449	95.19
669.651	75.19
669.854	79.19
670.057	90.19
670.259	87.19
670.462	88.19
670.665	90.19
670.867	84.19
671.07	85.19
671.272	73.19
671.475	69.19
671.677	78.19
671.88	82.19
672.082	82.19
672.284	75.19
672.487	91.19
672.689	84.19
672.892	81.19
