Data from Circ_1983_H10_HRD10591_00018.txt Node
Date: Wed Jan 03 12:26:48 EST 2024
User: Yrep
Spectrometer: HR+D1059
Trigger mode: 1
Integration Time (sec): 1.000000E-1
Scans to average: 1
Electric dark correction enabled: true
Nonlinearity correction enabled: false
Boxcar width: 0
XAxis mode: Wavelengths
Number of Pixels in Spectrum: 2048
>>>>>Begin Spectral Data<<<<<
223.165	-20.31
223.4	-20.31
223.635	-20.31
223.869	-10.31
224.104	-27.31
224.338	-20.31
224.573	-11.31
224.808	-14.31
225.042	-8.31
225.277	-13.31
225.511	1.69
225.746	6.69
225.98	22.69
226.215	16.69
226.449	0.69
226.683	26.69
226.918	15.69
227.152	34.69
227.387	28.69
227.621	35.69
227.856	37.69
228.09	39.69
228.324	46.69
228.559	57.69
228.793	58.69
229.027	75.69
229.262	56.69
229.496	67.69
229.73	57.69
229.964	81.69
230.199	73.69
230.433	66.69
230.667	73.69
230.901	83.69
231.136	67.69
231.37	93.69
231.604	65.69
231.838	80.69
232.072	83.69
232.306	75.69
232.541	96.69
232.775	71.69
233.009	75.69
233.243	73.69
233.477	77.69
233.711	76.69
233.945	78.69
234.179	69.69
234.413	77.69
234.647	84.69
234.881	78.69
235.115	89.69
235.349	71.69
235.583	68.69
235.817	73.69
236.051	85.69
236.285	62.69
236.519	71.69
236.753	90.69
236.987	77.69
237.221	69.69
237.455	88.69
237.689	75.69
237.922	87.69
238.156	80.69
238.39	82.69
238.624	67.69
238.858	67.69
239.091	77.69
239.325	80.69
239.559	74.69
239.793	57.69
240.027	74.69
240.26	77.69
240.494	79.69
240.728	62.69
240.961	68.69
241.195	87.69
241.429	77.69
241.662	73.69
241.896	65.69
242.13	86.69
242.363	73.69
242.597	81.69
242.83	75.69
243.064	83.69
243.298	75.69
243.531	67.69
243.765	66.69
243.998	61.69
244.232	83.69
244.465	69.69
244.699	61.69
244.932	71.69
245.166	77.69
245.399	68.69
245.633	71.69
245.866	73.69
246.099	73.69
246.333	71.69
246.566	80.69
246.8	77.69
247.033	71.69
247.266	76.69
247.5	81.69
247.733	74.69
247.966	64.69
248.2	79.69
248.433	67.69
248.666	69.69
248.899	78.69
249.133	86.69
249.366	90.69
249.599	93.69
249.832	73.69
250.066	81.69
250.299	73.69
250.532	68.69
250.765	83.69
250.998	79.69
251.231	82.69
251.465	74.69
251.698	74.69
251.931	75.69
252.164	84.69
252.397	67.69
252.63	77.69
252.863	71.69
253.096	72.69
253.329	80.69
253.562	89.69
253.795	77.69
254.028	74.69
254.261	65.69
254.494	75.69
254.727	78.69
254.96	77.69
255.193	81.69
255.426	81.69
255.659	86.69
255.892	93.69
256.124	69.69
256.357	84.69
256.59	62.69
256.823	65.69
257.056	89.69
257.289	66.69
257.521	75.69
257.754	84.69
257.987	83.69
258.22	79.69
258.452	68.69
258.685	78.69
258.918	84.69
259.151	93.69
259.383	85.69
259.616	75.69
259.849	87.69
260.081	89.69
260.314	78.69
260.547	80.69
260.779	66.69
261.012	79.69
261.244	79.69
261.477	84.69
261.71	99.69
261.942	99.69
262.175	96.69
262.407	71.69
262.64	89.69
262.872	83.69
263.105	91.69
263.337	76.69
263.57	73.69
263.802	79.69
264.035	77.69
264.267	73.69
264.499	71.69
264.732	69.69
264.964	72.69
265.197	78.69
265.429	82.69
265.661	75.69
265.894	74.69
266.126	96.69
266.358	80.69
266.591	71.69
266.823	84.69
267.055	84.69
267.287	74.69
267.52	81.69
267.752	100.69
267.984	85.69
268.216	70.69
268.448	90.69
268.681	73.69
268.913	97.69
269.145	79.69
269.377	70.69
269.609	88.69
269.841	97.69
270.073	74.69
270.306	75.69
270.538	91.69
270.77	70.69
271.002	70.69
271.234	99.69
271.466	77.69
271.698	80.69
271.93	91.69
272.162	76.69
272.394	82.69
272.626	64.69
272.858	79.69
273.09	82.69
273.322	86.69
273.553	81.69
273.785	76.69
274.017	69.69
274.249	73.69
274.481	85.69
274.713	87.69
274.945	94.69
275.176	75.69
275.408	88.69
275.64	88.69
275.872	80.69
276.104	87.69
276.335	89.69
276.567	90.69
276.799	100.69
277.031	86.69
277.262	90.69
277.494	93.69
277.726	89.69
277.957	79.69
278.189	88.69
278.421	82.69
278.652	88.69
278.884	90.69
279.115	79.69
279.347	81.69
279.579	73.69
279.81	71.69
280.042	98.69
280.273	91.69
280.505	89.69
280.736	59.69
280.968	79.69
281.199	69.69
281.431	75.69
281.662	95.69
281.894	99.69
282.125	85.69
282.356	90.69
282.588	117.69
282.819	108.69
283.051	89.69
283.282	74.69
283.513	82.69
283.745	96.69
283.976	96.69
284.207	83.69
284.439	80.69
284.67	66.69
284.901	83.69
285.132	81.69
285.364	84.69
285.595	97.69
285.826	79.69
286.057	87.69
286.288	86.69
286.52	75.69
286.751	86.69
286.982	79.69
287.213	80.69
287.444	78.69
287.675	84.69
287.906	83.69
288.138	69.69
288.369	75.69
288.6	91.69
288.831	82.69
289.062	85.69
289.293	90.69
289.524	78.69
289.755	83.69
289.986	105.69
290.217	82.69
290.448	85.69
290.679	89.69
290.91	96.69
291.141	89.69
291.371	85.69
291.602	87.69
291.833	89.69
292.064	99.69
292.295	78.69
292.526	88.69
292.757	83.69
292.987	79.69
293.218	84.69
293.449	78.69
293.68	93.69
293.91	73.69
294.141	92.69
294.372	87.69
294.603	99.69
294.833	75.69
295.064	85.69
295.295	99.69
295.525	78.69
295.756	102.69
295.987	120.69
296.217	109.69
296.448	99.69
296.679	91.69
296.909	82.69
297.14	94.69
297.37	85.69
297.601	81.69
297.831	87.69
298.062	81.69
298.292	82.69
298.523	82.69
298.753	90.69
298.984	81.69
299.214	88.69
299.445	83.69
299.675	87.69
299.905	96.69
300.136	69.69
300.366	86.69
300.597	87.69
300.827	80.69
301.057	91.69
301.288	99.69
301.518	88.69
301.748	87.69
301.979	113.69
302.209	85.69
302.439	82.69
302.669	92.69
302.9	78.69
303.13	88.69
303.36	95.69
303.59	104.69
303.82	87.69
304.051	93.69
304.281	85.69
304.511	92.69
304.741	83.69
304.971	80.69
305.201	89.69
305.431	80.69
305.661	95.69
305.891	87.69
306.121	98.69
306.352	99.69
306.582	78.69
306.812	93.69
307.042	90.69
307.272	99.69
307.502	81.69
307.731	99.69
307.961	97.69
308.191	93.69
308.421	100.69
308.651	83.69
308.881	86.69
309.111	77.69
309.341	94.69
309.571	88.69
309.8	81.69
310.03	93.69
310.26	84.69
310.49	74.69
310.72	90.69
310.949	94.69
311.179	90.69
311.409	92.69
311.639	90.69
311.868	84.69
312.098	88.69
312.328	103.69
312.557	106.69
312.787	78.69
313.017	85.69
313.246	96.69
313.476	84.69
313.706	75.69
313.935	89.69
314.165	90.69
314.394	94.69
314.624	95.69
314.853	88.69
315.083	94.69
315.312	102.69
315.542	89.69
315.771	83.69
316.001	79.69
316.23	89.69
316.46	86.69
316.689	98.69
316.919	79.69
317.148	83.69
317.377	99.69
317.607	105.69
317.836	104.69
318.065	103.69
318.295	85.69
318.524	87.69
318.753	96.69
318.983	79.69
319.212	93.69
319.441	100.69
319.67	97.69
319.9	85.69
320.129	99.69
320.358	92.69
320.587	96.69
320.816	91.69
321.046	101.69
321.275	95.69
321.504	85.69
321.733	95.69
321.962	93.69
322.191	94.69
322.42	103.69
322.649	91.69
322.878	97.69
323.108	113.69
323.337	104.69
323.566	106.69
323.795	138.69
324.024	176.69
324.253	328.69
324.482	673.69
324.71	1397.69
324.939	1794.69
325.168	661.69
325.397	212.69
325.626	131.69
325.855	102.69
326.084	103.69
326.313	122.69
326.542	142.69
326.77	198.69
326.999	371.69
327.228	798.69
327.457	1418.69
327.686	1149.69
327.914	304.69
328.143	169.69
328.372	151.69
328.6	120.69
328.829	120.69
329.058	114.69
329.287	121.69
329.515	104.69
329.744	100.69
329.972	112.69
330.201	118.69
330.43	160.69
330.658	135.69
330.887	119.69
331.115	122.69
331.344	95.69
331.572	95.69
331.801	106.69
332.03	97.69
332.258	89.69
332.486	85.69
332.715	90.69
332.943	89.69
333.172	101.69
333.4	97.69
333.629	100.69
333.857	114.69
334.085	109.69
334.314	132.69
334.542	142.69
334.771	138.69
334.999	97.69
335.227	81.69
335.455	104.69
335.684	94.69
335.912	92.69
336.14	105.69
336.369	100.69
336.597	109.69
336.825	94.69
337.053	89.69
337.281	96.69
337.51	95.69
337.738	80.69
337.966	85.69
338.194	77.69
338.422	98.69
338.65	96.69
338.878	77.69
339.106	88.69
339.334	84.69
339.562	94.69
339.79	81.69
340.018	93.69
340.246	109.69
340.474	91.69
340.702	101.69
340.93	83.69
341.158	69.69
341.386	81.69
341.614	95.69
341.842	92.69
342.07	85.69
342.298	94.69
342.526	78.69
342.754	84.69
342.981	93.69
343.209	88.69
343.437	101.69
343.665	73.69
343.893	87.69
344.12	82.69
344.348	93.69
344.576	69.69
344.804	95.69
345.031	92.69
345.259	81.69
345.487	93.69
345.714	100.69
345.942	83.69
346.17	98.69
346.397	83.69
346.625	94.69
346.853	94.69
347.08	97.69
347.308	94.69
347.535	98.69
347.763	101.69
347.99	96.69
348.218	108.69
348.445	112.69
348.673	103.69
348.9	101.69
349.128	111.69
349.355	100.69
349.583	101.69
349.81	102.69
350.037	88.69
350.265	90.69
350.492	103.69
350.72	104.69
350.947	102.69
351.174	105.69
351.402	102.69
351.629	84.69
351.856	95.69
352.083	91.69
352.311	107.69
352.538	100.69
352.765	97.69
352.992	114.69
353.22	113.69
353.447	104.69
353.674	98.69
353.901	87.69
354.128	84.69
354.355	81.69
354.583	86.69
354.81	90.69
355.037	96.69
355.264	94.69
355.491	98.69
355.718	90.69
355.945	86.69
356.172	88.69
356.399	102.69
356.626	106.69
356.853	89.69
357.08	89.69
357.307	91.69
357.534	98.69
357.761	99.69
357.988	95.69
358.215	98.69
358.441	107.69
358.668	103.69
358.895	87.69
359.122	82.69
359.349	92.69
359.576	95.69
359.802	101.69
360.029	115.69
360.256	99.69
360.483	90.69
360.709	98.69
360.936	78.69
361.163	80.69
361.39	83.69
361.616	94.69
361.843	80.69
362.07	81.69
362.296	90.69
362.523	81.69
362.749	89.69
362.976	84.69
363.203	94.69
363.429	78.69
363.656	94.69
363.882	70.69
364.109	79.69
364.335	101.69
364.562	91.69
364.788	90.69
365.015	101.69
365.241	83.69
365.468	92.69
365.694	81.69
365.92	88.69
366.147	82.69
366.373	86.69
366.599	88.69
366.826	82.69
367.052	105.69
367.278	94.69
367.505	79.69
367.731	79.69
367.957	91.69
368.184	90.69
368.41	90.69
368.636	101.69
368.862	107.69
369.089	110.69
369.315	87.69
369.541	81.69
369.767	82.69
369.993	78.69
370.219	75.69
370.445	91.69
370.672	83.69
370.898	88.69
371.124	80.69
371.35	92.69
371.576	86.69
371.802	78.69
372.028	83.69
372.254	91.69
372.48	88.69
372.706	88.69
372.932	91.69
373.158	102.69
373.384	96.69
373.61	90.69
373.835	89.69
374.061	86.69
374.287	93.69
374.513	99.69
374.739	92.69
374.965	88.69
375.191	87.69
375.416	94.69
375.642	79.69
375.868	89.69
376.094	102.69
376.319	102.69
376.545	89.69
376.771	88.69
376.997	94.69
377.222	101.69
377.448	89.69
377.674	90.69
377.899	99.69
378.125	93.69
378.35	96.69
378.576	91.69
378.802	96.69
379.027	103.69
379.253	109.69
379.478	95.69
379.704	98.69
379.929	98.69
380.155	98.69
380.38	86.69
380.606	106.69
380.831	91.69
381.057	88.69
381.282	100.69
381.507	99.69
381.733	88.69
381.958	111.69
382.184	93.69
382.409	113.69
382.634	103.69
382.86	111.69
383.085	109.69
383.31	117.69
383.535	101.69
383.761	113.69
383.986	107.69
384.211	101.69
384.436	120.69
384.662	99.69
384.887	111.69
385.112	124.69
385.337	106.69
385.562	111.69
385.787	103.69
386.013	124.69
386.238	119.69
386.463	123.69
386.688	118.69
386.913	125.69
387.138	118.69
387.363	118.69
387.588	96.69
387.813	114.69
388.038	112.69
388.263	129.69
388.488	119.69
388.713	84.69
388.938	94.69
389.163	104.69
389.387	102.69
389.612	83.69
389.837	94.69
390.062	98.69
390.287	105.69
390.512	96.69
390.736	74.69
390.961	87.69
391.186	86.69
391.411	82.69
391.636	89.69
391.86	97.69
392.085	87.69
392.31	104.69
392.534	101.69
392.759	82.69
392.984	88.69
393.208	102.69
393.433	173.69
393.658	133.69
393.882	85.69
394.107	82.69
394.331	81.69
394.556	88.69
394.78	90.69
395.005	89.69
395.229	103.69
395.454	82.69
395.678	81.69
395.903	84.69
396.127	94.69
396.352	90.69
396.576	102.69
396.801	116.69
397.025	114.69
397.249	93.69
397.474	96.69
397.698	91.69
397.922	94.69
398.147	85.69
398.371	96.69
398.595	101.69
398.82	106.69
399.044	83.69
399.268	85.69
399.492	73.69
399.717	95.69
399.941	81.69
400.165	99.69
400.389	94.69
400.613	92.69
400.837	81.69
401.062	85.69
401.286	90.69
401.51	91.69
401.734	87.69
401.958	94.69
402.182	103.69
402.406	157.69
402.63	116.69
402.854	99.69
403.078	85.69
403.302	97.69
403.526	87.69
403.75	82.69
403.974	101.69
404.198	81.69
404.422	88.69
404.645	92.69
404.869	91.69
405.093	87.69
405.317	98.69
405.541	92.69
405.765	106.69
405.988	105.69
406.212	163.69
406.436	189.69
406.66	126.69
406.883	107.69
407.107	93.69
407.331	95.69
407.555	80.69
407.778	89.69
408.002	88.69
408.226	79.69
408.449	93.69
408.673	102.69
408.896	88.69
409.12	95.69
409.344	101.69
409.567	91.69
409.791	86.69
410.014	91.69
410.238	85.69
410.461	102.69
410.685	79.69
410.908	82.69
411.132	109.69
411.355	101.69
411.578	80.69
411.802	90.69
412.025	81.69
412.249	92.69
412.472	99.69
412.695	95.69
412.919	87.69
413.142	98.69
413.365	81.69
413.589	77.69
413.812	112.69
414.035	93.69
414.258	79.69
414.482	87.69
414.705	94.69
414.928	93.69
415.151	95.69
415.374	104.69
415.597	90.69
415.821	96.69
416.044	93.69
416.267	95.69
416.49	88.69
416.713	92.69
416.936	81.69
417.159	83.69
417.382	100.69
417.605	88.69
417.828	85.69
418.051	110.69
418.274	97.69
418.497	90.69
418.72	89.69
418.943	88.69
419.166	91.69
419.389	90.69
419.611	96.69
419.834	96.69
420.057	87.69
420.28	91.69
420.503	93.69
420.726	79.69
420.948	96.69
421.171	102.69
421.394	94.69
421.617	86.69
421.839	96.69
422.062	89.69
422.285	98.69
422.507	104.69
422.73	105.69
422.953	99.69
423.175	91.69
423.398	84.69
423.621	93.69
423.843	82.69
424.066	87.69
424.288	98.69
424.511	93.69
424.733	97.69
424.956	99.69
425.178	91.69
425.401	98.69
425.623	85.69
425.846	90.69
426.068	87.69
426.291	108.69
426.513	89.69
426.735	89.69
426.958	94.69
427.18	96.69
427.402	127.69
427.625	138.69
427.847	119.69
428.069	128.69
428.292	98.69
428.514	86.69
428.736	85.69
428.958	79.69
429.181	72.69
429.403	86.69
429.625	71.69
429.847	89.69
430.069	91.69
430.292	95.69
430.514	85.69
430.736	87.69
430.958	70.69
431.18	82.69
431.402	86.69
431.624	82.69
431.846	86.69
432.068	96.69
432.29	93.69
432.512	103.69
432.734	90.69
432.956	72.69
433.178	95.69
433.4	104.69
433.622	97.69
433.844	89.69
434.066	96.69
434.287	91.69
434.509	87.69
434.731	92.69
434.953	81.69
435.175	77.69
435.397	98.69
435.618	77.69
435.84	89.69
436.062	101.69
436.284	106.69
436.505	93.69
436.727	104.69
436.949	87.69
437.17	74.69
437.392	93.69
437.614	83.69
437.835	105.69
438.057	118.69
438.278	105.69
438.5	97.69
438.721	108.69
438.943	92.69
439.165	76.69
439.386	89.69
439.608	84.69
439.829	80.69
440.05	95.69
440.272	131.69
440.493	89.69
440.715	79.69
440.936	79.69
441.158	84.69
441.379	95.69
441.6	88.69
441.822	95.69
442.043	92.69
442.264	90.69
442.486	91.69
442.707	88.69
442.928	115.69
443.149	104.69
443.371	113.69
443.592	88.69
443.813	102.69
444.034	95.69
444.255	90.69
444.476	71.69
444.698	91.69
444.919	88.69
445.14	137.69
445.361	125.69
445.582	103.69
445.803	114.69
446.024	125.69
446.245	117.69
446.466	102.69
446.687	74.69
446.908	87.69
447.129	87.69
447.35	93.69
447.571	82.69
447.792	94.69
448.013	102.69
448.234	98.69
448.455	88.69
448.675	94.69
448.896	96.69
449.117	95.69
449.338	102.69
449.559	123.69
449.779	114.69
450	98.69
450.221	109.69
450.442	81.69
450.662	74.69
450.883	99.69
451.104	101.69
451.324	93.69
451.545	95.69
451.766	93.69
451.986	83.69
452.207	73.69
452.428	85.69
452.648	106.69
452.869	115.69
453.089	109.69
453.31	108.69
453.53	93.69
453.751	88.69
453.971	102.69
454.192	103.69
454.412	88.69
454.633	91.69
454.853	80.69
455.073	74.69
455.294	95.69
455.514	82.69
455.734	86.69
455.955	95.69
456.175	80.69
456.395	95.69
456.616	83.69
456.836	80.69
457.056	96.69
457.276	88.69
457.497	85.69
457.717	86.69
457.937	82.69
458.157	91.69
458.377	91.69
458.598	96.69
458.818	123.69
459.038	123.69
459.258	119.69
459.478	94.69
459.698	79.69
459.918	90.69
460.138	79.69
460.358	69.69
460.578	88.69
460.798	81.69
461.018	83.69
461.238	83.69
461.458	81.69
461.678	88.69
461.898	80.69
462.118	86.69
462.338	93.69
462.558	83.69
462.777	77.69
462.997	79.69
463.217	81.69
463.437	92.69
463.657	73.69
463.876	87.69
464.096	75.69
464.316	89.69
464.536	88.69
464.755	98.69
464.975	103.69
465.195	155.69
465.414	115.69
465.634	97.69
465.854	72.69
466.073	82.69
466.293	90.69
466.512	71.69
466.732	90.69
466.951	97.69
467.171	81.69
467.391	89.69
467.61	77.69
467.829	101.69
468.049	98.69
468.268	105.69
468.488	70.69
468.707	95.69
468.927	90.69
469.146	95.69
469.365	81.69
469.585	94.69
469.804	91.69
470.023	96.69
470.243	80.69
470.462	101.69
470.681	112.69
470.901	93.69
471.12	96.69
471.339	85.69
471.558	98.69
471.777	92.69
471.997	89.69
472.216	125.69
472.435	173.69
472.654	94.69
472.873	91.69
473.092	82.69
473.311	81.69
473.53	88.69
473.749	88.69
473.968	105.69
474.187	102.69
474.406	87.69
474.625	85.69
474.844	91.69
475.063	89.69
475.282	82.69
475.501	83.69
475.72	82.69
475.939	85.69
476.158	77.69
476.377	87.69
476.596	86.69
476.814	85.69
477.033	99.69
477.252	73.69
477.471	86.69
477.69	89.69
477.908	102.69
478.127	84.69
478.346	91.69
478.564	85.69
478.783	91.69
479.002	82.69
479.22	84.69
479.439	89.69
479.658	101.69
479.876	102.69
480.095	86.69
480.313	98.69
480.532	85.69
480.751	101.69
480.969	137.69
481.188	265.69
481.406	185.69
481.624	95.69
481.843	76.69
482.061	87.69
482.28	86.69
482.498	77.69
482.717	95.69
482.935	93.69
483.153	92.69
483.372	79.69
483.59	85.69
483.808	83.69
484.027	94.69
484.245	106.69
484.463	109.69
484.681	91.69
484.9	98.69
485.118	100.69
485.336	92.69
485.554	93.69
485.772	100.69
485.99	111.69
486.209	112.69
486.427	99.69
486.645	105.69
486.863	112.69
487.081	97.69
487.299	90.69
487.517	93.69
487.735	95.69
487.953	88.69
488.171	94.69
488.389	88.69
488.607	105.69
488.825	93.69
489.043	91.69
489.261	96.69
489.479	83.69
489.696	88.69
489.914	87.69
490.132	98.69
490.35	91.69
490.568	91.69
490.786	82.69
491.003	79.69
491.221	88.69
491.439	87.69
491.657	99.69
491.874	88.69
492.092	92.69
492.31	92.69
492.527	74.69
492.745	79.69
492.963	84.69
493.18	81.69
493.398	91.69
493.615	89.69
493.833	90.69
494.05	86.69
494.268	94.69
494.485	93.69
494.703	82.69
494.92	85.69
495.138	93.69
495.355	90.69
495.573	102.69
495.79	75.69
496.008	98.69
496.225	97.69
496.442	102.69
496.66	82.69
496.877	86.69
497.094	85.69
497.312	83.69
497.529	94.69
497.746	95.69
497.963	100.69
498.181	91.69
498.398	91.69
498.615	103.69
498.832	99.69
499.049	93.69
499.267	93.69
499.484	83.69
499.701	78.69
499.918	90.69
500.135	88.69
500.352	85.69
500.569	73.69
500.786	85.69
501.003	83.69
501.22	73.69
501.437	81.69
501.654	94.69
501.871	97.69
502.088	91.69
502.305	91.69
502.522	89.69
502.739	82.69
502.956	77.69
503.172	86.69
503.389	96.69
503.606	100.69
503.823	81.69
504.04	87.69
504.256	91.69
504.473	82.69
504.69	83.69
504.907	86.69
505.123	86.69
505.34	87.69
505.557	84.69
505.773	95.69
505.99	85.69
506.207	83.69
506.423	90.69
506.64	91.69
506.856	88.69
507.073	87.69
507.289	90.69
507.506	98.69
507.722	94.69
507.939	109.69
508.155	81.69
508.372	95.69
508.588	88.69
508.805	88.69
509.021	87.69
509.238	101.69
509.454	98.69
509.67	96.69
509.887	106.69
510.103	116.69
510.319	175.69
510.536	653.69
510.752	1893.69
510.968	537.69
511.184	125.69
511.401	90.69
511.617	95.69
511.833	82.69
512.049	95.69
512.265	85.69
512.481	89.69
512.698	95.69
512.914	99.69
513.13	81.69
513.346	88.69
513.562	91.69
513.778	95.69
513.994	92.69
514.21	77.69
514.426	103.69
514.642	110.69
514.858	130.69
515.074	142.69
515.29	339.69
515.506	1101.69
515.721	421.69
515.937	129.69
516.153	105.69
516.369	90.69
516.585	95.69
516.801	90.69
517.016	81.69
517.232	93.69
517.448	89.69
517.664	80.69
517.879	78.69
518.095	72.69
518.311	87.69
518.527	83.69
518.742	90.69
518.958	102.69
519.173	92.69
519.389	85.69
519.605	103.69
519.82	99.69
520.036	83.69
520.251	105.69
520.467	88.69
520.682	89.69
520.898	106.69
521.113	114.69
521.329	120.69
521.544	173.69
521.76	440.69
521.975	1816.69
522.19	1085.69
522.406	247.69
522.621	107.69
522.836	91.69
523.052	96.69
523.267	82.69
523.482	95.69
523.698	81.69
523.913	105.69
524.128	97.69
524.343	99.69
524.559	79.69
524.774	87.69
524.989	91.69
525.204	104.69
525.419	104.69
525.634	85.69
525.849	93.69
526.064	94.69
526.28	101.69
526.495	76.69
526.71	89.69
526.925	94.69
527.14	93.69
527.355	84.69
527.57	102.69
527.785	69.69
527.999	72.69
528.214	96.69
528.429	89.69
528.644	103.69
528.859	95.69
529.074	91.69
529.289	115.69
529.503	158.69
529.718	92.69
529.933	89.69
530.148	86.69
530.363	95.69
530.577	89.69
530.792	91.69
531.007	103.69
531.221	91.69
531.436	103.69
531.651	85.69
531.865	89.69
532.08	75.69
532.295	89.69
532.509	101.69
532.724	99.69
532.938	89.69
533.153	94.69
533.367	97.69
533.582	91.69
533.796	86.69
534.011	77.69
534.225	80.69
534.44	81.69
534.654	86.69
534.868	91.69
535.083	83.69
535.297	97.69
535.511	93.69
535.726	90.69
535.94	97.69
536.154	91.69
536.369	80.69
536.583	77.69
536.797	82.69
537.011	86.69
537.225	90.69
537.44	90.69
537.654	76.69
537.868	89.69
538.082	97.69
538.296	87.69
538.51	109.69
538.724	75.69
538.938	90.69
539.153	98.69
539.367	104.69
539.581	87.69
539.795	78.69
540.009	84.69
540.222	89.69
540.436	100.69
540.65	84.69
540.864	90.69
541.078	105.69
541.292	84.69
541.506	90.69
541.72	86.69
541.934	84.69
542.147	88.69
542.361	81.69
542.575	86.69
542.789	67.69
543.002	69.69
543.216	97.69
543.43	88.69
543.644	88.69
543.857	83.69
544.071	80.69
544.285	84.69
544.498	96.69
544.712	88.69
544.925	74.69
545.139	84.69
545.352	85.69
545.566	88.69
545.779	89.69
545.993	85.69
546.206	81.69
546.42	96.69
546.633	93.69
546.847	81.69
547.06	93.69
547.274	79.69
547.487	88.69
547.7	76.69
547.914	84.69
548.127	83.69
548.34	84.69
548.554	81.69
548.767	85.69
548.98	83.69
549.193	73.69
549.407	97.69
549.62	99.69
549.833	89.69
550.046	89.69
550.259	95.69
550.473	83.69
550.686	87.69
550.899	93.69
551.112	88.69
551.325	94.69
551.538	82.69
551.751	86.69
551.964	69.69
552.177	83.69
552.39	73.69
552.603	89.69
552.816	91.69
553.029	85.69
553.242	83.69
553.455	91.69
553.667	91.69
553.88	100.69
554.093	91.69
554.306	96.69
554.519	91.69
554.732	91.69
554.944	92.69
555.157	95.69
555.37	93.69
555.583	86.69
555.795	92.69
556.008	95.69
556.221	73.69
556.433	87.69
556.646	88.69
556.859	79.69
557.071	88.69
557.284	85.69
557.496	91.69
557.709	98.69
557.921	78.69
558.134	86.69
558.346	81.69
558.559	88.69
558.771	93.69
558.984	88.69
559.196	93.69
559.409	89.69
559.621	76.69
559.833	86.69
560.046	83.69
560.258	87.69
560.47	93.69
560.683	89.69
560.895	91.69
561.107	98.69
561.32	88.69
561.532	86.69
561.744	88.69
561.956	88.69
562.168	91.69
562.381	82.69
562.593	81.69
562.805	87.69
563.017	89.69
563.229	93.69
563.441	76.69
563.653	66.69
563.865	89.69
564.077	82.69
564.289	86.69
564.501	97.69
564.713	89.69
564.925	89.69
565.137	90.69
565.349	87.69
565.561	78.69
565.773	88.69
565.985	94.69
566.197	78.69
566.408	89.69
566.62	88.69
566.832	71.69
567.044	82.69
567.255	85.69
567.467	85.69
567.679	86.69
567.891	80.69
568.102	95.69
568.314	91.69
568.526	96.69
568.737	81.69
568.949	98.69
569.161	80.69
569.372	83.69
569.584	90.69
569.795	81.69
570.007	120.69
570.218	209.69
570.43	126.69
570.641	90.69
570.853	98.69
571.064	91.69
571.276	87.69
571.487	83.69
571.698	93.69
571.91	85.69
572.121	78.69
572.333	92.69
572.544	100.69
572.755	86.69
572.966	87.69
573.178	79.69
573.389	101.69
573.6	73.69
573.811	80.69
574.023	93.69
574.234	94.69
574.445	87.69
574.656	81.69
574.867	92.69
575.078	89.69
575.289	90.69
575.501	107.69
575.712	99.69
575.923	81.69
576.134	96.69
576.345	82.69
576.556	89.69
576.767	95.69
576.978	91.69
577.188	93.69
577.399	99.69
577.61	87.69
577.821	94.69
578.032	97.69
578.243	229.69
578.454	580.69
578.665	175.69
578.875	102.69
579.086	93.69
579.297	90.69
579.508	97.69
579.718	81.69
579.929	74.69
580.14	81.69
580.35	72.69
580.561	61.69
580.772	89.69
580.982	77.69
581.193	89.69
581.403	94.69
581.614	96.69
581.825	83.69
582.035	75.69
582.246	84.69
582.456	91.69
582.667	79.69
582.877	90.69
583.087	97.69
583.298	89.69
583.508	90.69
583.719	75.69
583.929	89.69
584.139	81.69
584.35	85.69
584.56	92.69
584.77	96.69
584.981	87.69
585.191	80.69
585.401	85.69
585.611	87.69
585.821	70.69
586.032	94.69
586.242	90.69
586.452	79.69
586.662	88.69
586.872	87.69
587.082	71.69
587.292	80.69
587.502	96.69
587.713	87.69
587.923	80.69
588.133	68.69
588.343	91.69
588.553	78.69
588.762	82.69
588.972	115.69
589.182	249.69
589.392	129.69
589.602	110.69
589.812	170.69
590.022	110.69
590.232	74.69
590.441	79.69
590.651	83.69
590.861	88.69
591.071	75.69
591.281	90.69
591.49	89.69
591.7	80.69
591.91	69.69
592.119	86.69
592.329	87.69
592.539	74.69
592.748	87.69
592.958	81.69
593.167	79.69
593.377	78.69
593.587	99.69
593.796	94.69
594.006	82.69
594.215	84.69
594.424	92.69
594.634	88.69
594.843	101.69
595.053	77.69
595.262	68.69
595.472	81.69
595.681	89.69
595.89	85.69
596.1	68.69
596.309	90.69
596.518	85.69
596.727	71.69
596.937	88.69
597.146	81.69
597.355	88.69
597.564	91.69
597.774	88.69
597.983	78.69
598.192	89.69
598.401	80.69
598.61	67.69
598.819	81.69
599.028	84.69
599.237	87.69
599.446	100.69
599.655	81.69
599.864	66.69
600.073	89.69
600.282	95.69
600.491	71.69
600.7	90.69
600.909	81.69
601.118	90.69
601.327	95.69
601.536	85.69
601.745	90.69
601.953	77.69
602.162	89.69
602.371	67.69
602.58	80.69
602.789	79.69
602.997	99.69
603.206	90.69
603.415	87.69
603.623	74.69
603.832	91.69
604.041	86.69
604.249	72.69
604.458	81.69
604.666	79.69
604.875	81.69
605.084	91.69
605.292	84.69
605.501	87.69
605.709	77.69
605.918	69.69
606.126	79.69
606.334	78.69
606.543	92.69
606.751	91.69
606.96	89.69
607.168	90.69
607.376	92.69
607.585	94.69
607.793	96.69
608.001	86.69
608.21	81.69
608.418	82.69
608.626	92.69
608.834	87.69
609.043	93.69
609.251	84.69
609.459	95.69
609.667	90.69
609.875	82.69
610.083	81.69
610.291	86.69
610.499	80.69
610.707	89.69
610.916	97.69
611.124	82.69
611.332	85.69
611.54	89.69
611.748	81.69
611.955	82.69
612.163	91.69
612.371	87.69
612.579	78.69
612.787	84.69
612.995	90.69
613.203	94.69
613.411	86.69
613.618	81.69
613.826	86.69
614.034	85.69
614.242	88.69
614.449	94.69
614.657	97.69
614.865	88.69
615.072	83.69
615.28	87.69
615.488	89.69
615.695	87.69
615.903	90.69
616.111	95.69
616.318	102.69
616.526	86.69
616.733	91.69
616.941	95.69
617.148	101.69
617.356	81.69
617.563	71.69
617.771	87.69
617.978	89.69
618.185	73.69
618.393	99.69
618.6	87.69
618.807	70.69
619.015	93.69
619.222	71.69
619.429	79.69
619.637	81.69
619.844	86.69
620.051	85.69
620.258	71.69
620.466	72.69
620.673	69.69
620.88	71.69
621.087	90.69
621.294	95.69
621.501	81.69
621.708	90.69
621.915	75.69
622.122	90.69
622.329	97.69
622.536	84.69
622.743	84.69
622.95	80.69
623.157	73.69
623.364	91.69
623.571	87.69
623.778	89.69
623.985	90.69
624.192	89.69
624.399	73.69
624.606	85.69
624.812	74.69
625.019	90.69
625.226	90.69
625.433	93.69
625.639	80.69
625.846	62.69
626.053	78.69
626.259	79.69
626.466	90.69
626.673	72.69
626.879	80.69
627.086	93.69
627.293	98.69
627.499	81.69
627.706	86.69
627.912	79.69
628.119	88.69
628.325	86.69
628.532	66.69
628.738	85.69
628.945	97.69
629.151	93.69
629.357	94.69
629.564	88.69
629.77	79.69
629.976	71.69
630.183	73.69
630.389	92.69
630.595	93.69
630.802	84.69
631.008	96.69
631.214	85.69
631.42	79.69
631.627	91.69
631.833	92.69
632.039	87.69
632.245	79.69
632.451	86.69
632.657	93.69
632.863	87.69
633.069	80.69
633.275	78.69
633.481	93.69
633.688	82.69
633.893	78.69
634.099	89.69
634.305	83.69
634.511	70.69
634.717	79.69
634.923	75.69
635.129	88.69
635.335	85.69
635.541	85.69
635.747	82.69
635.952	84.69
636.158	91.69
636.364	84.69
636.57	93.69
636.775	103.69
636.981	87.69
637.187	110.69
637.392	80.69
637.598	86.69
637.804	75.69
638.009	68.69
638.215	74.69
638.421	99.69
638.626	82.69
638.832	91.69
639.037	83.69
639.243	72.69
639.448	81.69
639.654	90.69
639.859	80.69
640.065	83.69
640.27	92.69
640.475	81.69
640.681	103.69
640.886	86.69
641.091	87.69
641.297	95.69
641.502	85.69
641.707	95.69
641.913	82.69
642.118	74.69
642.323	71.69
642.528	77.69
642.733	75.69
642.939	85.69
643.144	77.69
643.349	86.69
643.554	86.69
643.759	94.69
643.964	91.69
644.169	93.69
644.374	70.69
644.579	91.69
644.784	81.69
644.989	74.69
645.194	85.69
645.399	74.69
645.604	73.69
645.809	86.69
646.014	83.69
646.219	97.69
646.423	81.69
646.628	81.69
646.833	81.69
647.038	86.69
647.243	87.69
647.447	93.69
647.652	86.69
647.857	67.69
648.062	89.69
648.266	84.69
648.471	80.69
648.676	84.69
648.88	92.69
649.085	96.69
649.289	91.69
649.494	89.69
649.698	128.69
649.903	94.69
650.107	91.69
650.312	83.69
650.516	89.69
650.721	77.69
650.925	89.69
651.13	74.69
651.334	89.69
651.539	72.69
651.743	77.69
651.947	81.69
652.152	88.69
652.356	79.69
652.56	85.69
652.764	89.69
652.969	73.69
653.173	75.69
653.377	69.69
653.581	75.69
653.785	73.69
653.99	83.69
654.194	81.69
654.398	78.69
654.602	79.69
654.806	81.69
655.01	104.69
655.214	94.69
655.418	83.69
655.622	68.69
655.826	91.69
656.03	93.69
656.234	95.69
656.438	100.69
656.642	88.69
656.846	79.69
657.049	100.69
657.253	96.69
657.457	74.69
657.661	77.69
657.865	88.69
658.068	90.69
658.272	81.69
658.476	86.69
658.68	65.69
658.883	85.69
659.087	77.69
659.291	79.69
659.494	79.69
659.698	96.69
659.901	90.69
660.105	70.69
660.309	85.69
660.512	76.69
660.716	73.69
660.919	90.69
661.123	88.69
661.326	82.69
661.53	75.69
661.733	81.69
661.936	70.69
662.14	79.69
662.343	77.69
662.546	79.69
662.75	70.69
662.953	85.69
663.156	83.69
663.36	85.69
663.563	61.69
663.766	74.69
663.969	77.69
664.173	91.69
664.376	72.69
664.579	68.69
664.782	66.69
664.985	86.69
665.188	78.69
665.391	71.69
665.594	88.69
665.797	83.69
666	79.69
666.203	78.69
666.406	84.69
666.609	73.69
666.812	77.69
667.015	85.69
667.218	87.69
667.421	78.69
667.624	82.69
667.827	85.69
668.03	81.69
668.232	79.69
668.435	73.69
668.638	83.69
668.841	77.69
669.043	78.69
669.246	80.69
669.449	79.69
669.651	83.69
669.854	88.69
670.057	83.69
670.259	83.69
670.462	72.69
670.665	67.69
670.867	89.69
671.07	70.69
671.272	79.69
671.475	89.69
671.677	82.69
671.88	77.69
672.082	86.69
672.284	87.69
672.487	79.69
672.689	82.69
672.892	73.69
