Data from SampA_HRD10591_00041.txt Node
Date: Mon Jan 19 11:27:00 EST 2026
User: Yrep
Spectrometer: HR+D1059
Trigger mode: 0
Integration Time (sec): 3.443000E-1
Scans to average: 1
Electric dark correction enabled: true
Nonlinearity correction enabled: false
Boxcar width: 0
XAxis mode: Wavelengths
Number of Pixels in Spectrum: 2048
>>>>>Begin Spectral Data<<<<<
223.165	-28.31
223.4	-28.31
223.635	-28.31
223.869	-34.31
224.104	-24.31
224.338	-11.31
224.573	-11.31
224.808	-0.31
225.042	-11.31
225.277	2.69
225.511	-8.31
225.746	19.69
225.98	10.69
226.215	7.69
226.449	0.69
226.683	26.69
226.918	30.69
227.152	30.69
227.387	29.69
227.621	44.69
227.856	48.69
228.09	50.69
228.324	66.69
228.559	58.69
228.793	50.69
229.027	66.69
229.262	69.69
229.496	65.69
229.73	72.69
229.964	96.69
230.199	86.69
230.433	73.69
230.667	81.69
230.901	91.69
231.136	83.69
231.37	84.69
231.604	86.69
231.838	88.69
232.072	72.69
232.306	86.69
232.541	83.69
232.775	87.69
233.009	87.69
233.243	83.69
233.477	93.69
233.711	80.69
233.945	87.69
234.179	82.69
234.413	95.69
234.647	82.69
234.881	98.69
235.115	88.69
235.349	87.69
235.583	89.69
235.817	91.69
236.051	71.69
236.285	83.69
236.519	83.69
236.753	84.69
236.987	78.69
237.221	89.69
237.455	88.69
237.689	77.69
237.922	87.69
238.156	78.69
238.39	77.69
238.624	82.69
238.858	96.69
239.091	71.69
239.325	81.69
239.559	79.69
239.793	73.69
240.027	96.69
240.26	93.69
240.494	100.69
240.728	86.69
240.961	82.69
241.195	74.69
241.429	80.69
241.662	84.69
241.896	73.69
242.13	72.69
242.363	86.69
242.597	73.69
242.83	72.69
243.064	80.69
243.298	85.69
243.531	82.69
243.765	88.69
243.998	94.69
244.232	81.69
244.465	87.69
244.699	92.69
244.932	85.69
245.166	89.69
245.399	84.69
245.633	93.69
245.866	95.69
246.099	80.69
246.333	92.69
246.566	95.69
246.8	89.69
247.033	107.69
247.266	86.69
247.5	93.69
247.733	83.69
247.966	84.69
248.2	95.69
248.433	94.69
248.666	90.69
248.899	100.69
249.133	87.69
249.366	90.69
249.599	93.69
249.832	87.69
250.066	103.69
250.299	97.69
250.532	90.69
250.765	87.69
250.998	93.69
251.231	90.69
251.465	100.69
251.698	98.69
251.931	88.69
252.164	103.69
252.397	101.69
252.63	93.69
252.863	92.69
253.096	101.69
253.329	111.69
253.562	84.69
253.795	92.69
254.028	100.69
254.261	100.69
254.494	87.69
254.727	94.69
254.96	107.69
255.193	95.69
255.426	72.69
255.659	96.69
255.892	113.69
256.124	95.69
256.357	96.69
256.59	97.69
256.823	97.69
257.056	99.69
257.289	96.69
257.521	109.69
257.754	77.69
257.987	95.69
258.22	108.69
258.452	97.69
258.685	100.69
258.918	108.69
259.151	87.69
259.383	105.69
259.616	87.69
259.849	82.69
260.081	102.69
260.314	86.69
260.547	106.69
260.779	89.69
261.012	109.69
261.244	92.69
261.477	109.69
261.71	97.69
261.942	91.69
262.175	87.69
262.407	104.69
262.64	106.69
262.872	109.69
263.105	100.69
263.337	114.69
263.57	108.69
263.802	110.69
264.035	99.69
264.267	117.69
264.499	97.69
264.732	106.69
264.964	92.69
265.197	92.69
265.429	116.69
265.661	93.69
265.894	106.69
266.126	102.69
266.358	90.69
266.591	119.69
266.823	88.69
267.055	100.69
267.287	104.69
267.52	98.69
267.752	93.69
267.984	92.69
268.216	109.69
268.448	111.69
268.681	96.69
268.913	101.69
269.145	106.69
269.377	118.69
269.609	108.69
269.841	109.69
270.073	117.69
270.306	98.69
270.538	103.69
270.77	107.69
271.002	96.69
271.234	106.69
271.466	116.69
271.698	106.69
271.93	104.69
272.162	108.69
272.394	104.69
272.626	111.69
272.858	93.69
273.09	106.69
273.322	103.69
273.553	100.69
273.785	120.69
274.017	104.69
274.249	97.69
274.481	109.69
274.713	100.69
274.945	120.69
275.176	120.69
275.408	103.69
275.64	110.69
275.872	115.69
276.104	112.69
276.335	122.69
276.567	89.69
276.799	111.69
277.031	103.69
277.262	105.69
277.494	100.69
277.726	112.69
277.957	121.69
278.189	111.69
278.421	95.69
278.652	114.69
278.884	105.69
279.115	120.69
279.347	117.69
279.579	101.69
279.81	104.69
280.042	116.69
280.273	112.69
280.505	130.69
280.736	125.69
280.968	120.69
281.199	117.69
281.431	108.69
281.662	122.69
281.894	107.69
282.125	102.69
282.356	116.69
282.588	103.69
282.819	112.69
283.051	99.69
283.282	114.69
283.513	125.69
283.745	99.69
283.976	121.69
284.207	124.69
284.439	115.69
284.67	119.69
284.901	122.69
285.132	110.69
285.364	123.69
285.595	123.69
285.826	99.69
286.057	115.69
286.288	110.69
286.52	107.69
286.751	115.69
286.982	109.69
287.213	126.69
287.444	122.69
287.675	102.69
287.906	120.69
288.138	118.69
288.369	131.69
288.6	114.69
288.831	111.69
289.062	131.69
289.293	118.69
289.524	125.69
289.755	117.69
289.986	116.69
290.217	111.69
290.448	112.69
290.679	126.69
290.91	122.69
291.141	135.69
291.371	126.69
291.602	115.69
291.833	125.69
292.064	132.69
292.295	117.69
292.526	124.69
292.757	115.69
292.987	126.69
293.218	130.69
293.449	122.69
293.68	133.69
293.91	110.69
294.141	122.69
294.372	115.69
294.603	123.69
294.833	119.69
295.064	107.69
295.295	126.69
295.525	135.69
295.756	143.69
295.987	130.69
296.217	118.69
296.448	126.69
296.679	123.69
296.909	118.69
297.14	129.69
297.37	133.69
297.601	131.69
297.831	124.69
298.062	137.69
298.292	136.69
298.523	130.69
298.753	118.69
298.984	131.69
299.214	149.69
299.445	131.69
299.675	122.69
299.905	132.69
300.136	118.69
300.366	122.69
300.597	132.69
300.827	120.69
301.057	130.69
301.288	132.69
301.518	123.69
301.748	139.69
301.979	150.69
302.209	127.69
302.439	120.69
302.669	114.69
302.9	120.69
303.13	133.69
303.36	132.69
303.59	114.69
303.82	133.69
304.051	120.69
304.281	121.69
304.511	139.69
304.741	130.69
304.971	120.69
305.201	128.69
305.431	116.69
305.661	125.69
305.891	109.69
306.121	134.69
306.352	130.69
306.582	132.69
306.812	125.69
307.042	124.69
307.272	126.69
307.502	133.69
307.731	136.69
307.961	139.69
308.191	142.69
308.421	132.69
308.651	144.69
308.881	128.69
309.111	132.69
309.341	128.69
309.571	125.69
309.8	127.69
310.03	134.69
310.26	131.69
310.49	122.69
310.72	114.69
310.949	133.69
311.179	136.69
311.409	127.69
311.639	127.69
311.868	127.69
312.098	140.69
312.328	135.69
312.557	137.69
312.787	118.69
313.017	122.69
313.246	134.69
313.476	128.69
313.706	128.69
313.935	130.69
314.165	127.69
314.394	121.69
314.624	137.69
314.853	140.69
315.083	130.69
315.312	125.69
315.542	134.69
315.771	136.69
316.001	116.69
316.23	136.69
316.46	135.69
316.689	135.69
316.919	133.69
317.148	130.69
317.377	119.69
317.607	138.69
317.836	124.69
318.065	126.69
318.295	137.69
318.524	121.69
318.753	124.69
318.983	121.69
319.212	136.69
319.441	143.69
319.67	123.69
319.9	127.69
320.129	130.69
320.358	123.69
320.587	134.69
320.816	139.69
321.046	136.69
321.275	156.69
321.504	124.69
321.733	131.69
321.962	130.69
322.191	122.69
322.42	121.69
322.649	127.69
322.878	120.69
323.108	142.69
323.337	132.69
323.566	151.69
323.795	141.69
324.024	136.69
324.253	138.69
324.482	151.69
324.71	130.69
324.939	133.69
325.168	132.69
325.397	120.69
325.626	145.69
325.855	132.69
326.084	140.69
326.313	149.69
326.542	130.69
326.77	135.69
326.999	136.69
327.228	137.69
327.457	153.69
327.686	137.69
327.914	140.69
328.143	130.69
328.372	127.69
328.6	144.69
328.829	136.69
329.058	130.69
329.287	142.69
329.515	133.69
329.744	148.69
329.972	132.69
330.201	128.69
330.43	124.69
330.658	142.69
330.887	132.69
331.115	134.69
331.344	143.69
331.572	152.69
331.801	147.69
332.03	142.69
332.258	146.69
332.486	156.69
332.715	132.69
332.943	160.69
333.172	167.69
333.4	175.69
333.629	159.69
333.857	169.69
334.085	181.69
334.314	160.69
334.542	148.69
334.771	149.69
334.999	154.69
335.227	172.69
335.455	139.69
335.684	152.69
335.912	147.69
336.14	153.69
336.369	140.69
336.597	136.69
336.825	137.69
337.053	155.69
337.281	146.69
337.51	164.69
337.738	147.69
337.966	132.69
338.194	123.69
338.422	138.69
338.65	168.69
338.878	164.69
339.106	145.69
339.334	143.69
339.562	135.69
339.79	141.69
340.018	121.69
340.246	135.69
340.474	139.69
340.702	154.69
340.93	150.69
341.158	127.69
341.386	151.69
341.614	134.69
341.842	127.69
342.07	139.69
342.298	140.69
342.526	138.69
342.754	143.69
342.981	127.69
343.209	150.69
343.437	170.69
343.665	166.69
343.893	165.69
344.12	162.69
344.348	149.69
344.576	154.69
344.804	135.69
345.031	149.69
345.259	146.69
345.487	155.69
345.714	152.69
345.942	125.69
346.17	117.69
346.397	132.69
346.625	135.69
346.853	143.69
347.08	147.69
347.308	133.69
347.535	144.69
347.763	138.69
347.99	146.69
348.218	140.69
348.445	131.69
348.673	129.69
348.9	146.69
349.128	164.69
349.355	132.69
349.583	146.69
349.81	135.69
350.037	126.69
350.265	131.69
350.492	138.69
350.72	141.69
350.947	134.69
351.174	136.69
351.402	138.69
351.629	132.69
351.856	119.69
352.083	124.69
352.311	142.69
352.538	148.69
352.765	136.69
352.992	151.69
353.22	135.69
353.447	139.69
353.674	147.69
353.901	137.69
354.128	142.69
354.355	128.69
354.583	138.69
354.81	135.69
355.037	125.69
355.264	151.69
355.491	147.69
355.718	129.69
355.945	151.69
356.172	134.69
356.399	146.69
356.626	131.69
356.853	131.69
357.08	146.69
357.307	148.69
357.534	130.69
357.761	133.69
357.988	133.69
358.215	147.69
358.441	135.69
358.668	139.69
358.895	151.69
359.122	130.69
359.349	140.69
359.576	141.69
359.802	129.69
360.029	139.69
360.256	127.69
360.483	127.69
360.709	134.69
360.936	150.69
361.163	132.69
361.39	122.69
361.616	148.69
361.843	136.69
362.07	132.69
362.296	138.69
362.523	125.69
362.749	143.69
362.976	131.69
363.203	132.69
363.429	131.69
363.656	143.69
363.882	142.69
364.109	133.69
364.335	131.69
364.562	128.69
364.788	144.69
365.015	138.69
365.241	139.69
365.468	157.69
365.694	138.69
365.92	147.69
366.147	139.69
366.373	135.69
366.599	133.69
366.826	135.69
367.052	131.69
367.278	144.69
367.505	136.69
367.731	153.69
367.957	150.69
368.184	139.69
368.41	142.69
368.636	130.69
368.862	131.69
369.089	145.69
369.315	150.69
369.541	139.69
369.767	136.69
369.993	130.69
370.219	139.69
370.445	124.69
370.672	136.69
370.898	142.69
371.124	134.69
371.35	150.69
371.576	152.69
371.802	135.69
372.028	154.69
372.254	133.69
372.48	151.69
372.706	158.69
372.932	165.69
373.158	146.69
373.384	154.69
373.61	157.69
373.835	149.69
374.061	143.69
374.287	165.69
374.513	134.69
374.739	140.69
374.965	153.69
375.191	169.69
375.416	147.69
375.642	159.69
375.868	152.69
376.094	152.69
376.319	142.69
376.545	149.69
376.771	133.69
376.997	133.69
377.222	152.69
377.448	147.69
377.674	147.69
377.899	141.69
378.125	140.69
378.35	152.69
378.576	146.69
378.802	146.69
379.027	148.69
379.253	150.69
379.478	148.69
379.704	127.69
379.929	142.69
380.155	144.69
380.38	157.69
380.606	138.69
380.831	152.69
381.057	155.69
381.282	154.69
381.507	144.69
381.733	157.69
381.958	147.69
382.184	152.69
382.409	152.69
382.634	160.69
382.86	137.69
383.085	167.69
383.31	148.69
383.535	155.69
383.761	171.69
383.986	157.69
384.211	161.69
384.436	177.69
384.662	154.69
384.887	159.69
385.112	163.69
385.337	162.69
385.562	170.69
385.787	145.69
386.013	158.69
386.238	164.69
386.463	171.69
386.688	207.69
386.913	171.69
387.138	159.69
387.363	179.69
387.588	176.69
387.813	165.69
388.038	165.69
388.263	163.69
388.488	179.69
388.713	170.69
388.938	159.69
389.163	149.69
389.387	159.69
389.612	156.69
389.837	166.69
390.062	183.69
390.287	160.69
390.512	167.69
390.736	178.69
390.961	182.69
391.186	179.69
391.411	178.69
391.636	199.69
391.86	189.69
392.085	180.69
392.31	195.69
392.534	191.69
392.759	178.69
392.984	173.69
393.208	186.69
393.433	187.69
393.658	179.69
393.882	191.69
394.107	185.69
394.331	188.69
394.556	189.69
394.78	199.69
395.005	187.69
395.229	184.69
395.454	204.69
395.678	202.69
395.903	197.69
396.127	207.69
396.352	189.69
396.576	178.69
396.801	189.69
397.025	182.69
397.249	207.69
397.474	212.69
397.698	208.69
397.922	208.69
398.147	217.69
398.371	218.69
398.595	216.69
398.82	229.69
399.044	237.69
399.268	259.69
399.492	274.69
399.717	292.69
399.941	281.69
400.165	267.69
400.389	253.69
400.613	230.69
400.837	225.69
401.062	225.69
401.286	231.69
401.51	223.69
401.734	224.69
401.958	228.69
402.182	230.69
402.406	230.69
402.63	230.69
402.854	246.69
403.078	259.69
403.302	246.69
403.526	262.69
403.75	249.69
403.974	242.69
404.198	260.69
404.422	264.69
404.645	270.69
404.869	247.69
405.093	246.69
405.317	246.69
405.541	253.69
405.765	235.69
405.988	267.69
406.212	276.69
406.436	273.69
406.66	268.69
406.883	274.69
407.107	284.69
407.331	289.69
407.555	304.69
407.778	284.69
408.002	290.69
408.226	271.69
408.449	271.69
408.673	265.69
408.896	279.69
409.12	255.69
409.344	268.69
409.567	272.69
409.791	266.69
410.014	285.69
410.238	262.69
410.461	279.69
410.685	273.69
410.908	281.69
411.132	266.69
411.355	259.69
411.578	271.69
411.802	274.69
412.025	252.69
412.249	272.69
412.472	262.69
412.695	240.69
412.919	248.69
413.142	268.69
413.365	236.69
413.589	249.69
413.812	243.69
414.035	264.69
414.258	249.69
414.482	266.69
414.705	253.69
414.928	260.69
415.151	258.69
415.374	266.69
415.597	258.69
415.821	242.69
416.044	246.69
416.267	267.69
416.49	263.69
416.713	251.69
416.936	268.69
417.159	267.69
417.382	253.69
417.605	264.69
417.828	270.69
418.051	276.69
418.274	272.69
418.497	271.69
418.72	280.69
418.943	273.69
419.166	301.69
419.389	300.69
419.611	299.69
419.834	286.69
420.057	283.69
420.28	260.69
420.503	245.69
420.726	274.69
420.948	267.69
421.171	268.69
421.394	279.69
421.617	278.69
421.839	263.69
422.062	284.69
422.285	258.69
422.507	282.69
422.73	277.69
422.953	282.69
423.175	293.69
423.398	280.69
423.621	273.69
423.843	277.69
424.066	277.69
424.288	265.69
424.511	271.69
424.733	285.69
424.956	281.69
425.178	262.69
425.401	272.69
425.623	274.69
425.846	262.69
426.068	266.69
426.291	261.69
426.513	251.69
426.735	258.69
426.958	263.69
427.18	258.69
427.402	273.69
427.625	248.69
427.847	260.69
428.069	240.69
428.292	264.69
428.514	251.69
428.736	260.69
428.958	248.69
429.181	258.69
429.403	253.69
429.625	250.69
429.847	240.69
430.069	259.69
430.292	247.69
430.514	237.69
430.736	252.69
430.958	233.69
431.18	251.69
431.402	243.69
431.624	231.69
431.846	220.69
432.068	232.69
432.29	228.69
432.512	239.69
432.734	220.69
432.956	245.69
433.178	271.69
433.4	268.69
433.622	256.69
433.844	258.69
434.066	250.69
434.287	228.69
434.509	239.69
434.731	227.69
434.953	260.69
435.175	268.69
435.397	256.69
435.618	250.69
435.84	230.69
436.062	252.69
436.284	247.69
436.505	247.69
436.727	253.69
436.949	254.69
437.17	245.69
437.392	239.69
437.614	232.69
437.835	220.69
438.057	227.69
438.278	235.69
438.5	227.69
438.721	245.69
438.943	252.69
439.165	262.69
439.386	257.69
439.608	280.69
439.829	274.69
440.05	252.69
440.272	272.69
440.493	267.69
440.715	269.69
440.936	286.69
441.158	262.69
441.379	276.69
441.6	285.69
441.822	293.69
442.043	299.69
442.264	279.69
442.486	281.69
442.707	271.69
442.928	280.69
443.149	269.69
443.371	296.69
443.592	259.69
443.813	275.69
444.034	301.69
444.255	304.69
444.476	284.69
444.698	303.69
444.919	310.69
445.14	540.69
445.361	416.69
445.582	294.69
445.803	288.69
446.024	285.69
446.245	288.69
446.466	282.69
446.687	270.69
446.908	276.69
447.129	265.69
447.35	268.69
447.571	279.69
447.792	253.69
448.013	252.69
448.234	246.69
448.455	261.69
448.675	256.69
448.896	253.69
449.117	240.69
449.338	258.69
449.559	250.69
449.779	237.69
450	247.69
450.221	260.69
450.442	248.69
450.662	248.69
450.883	270.69
451.104	242.69
451.324	241.69
451.545	235.69
451.766	251.69
451.986	235.69
452.207	226.69
452.428	223.69
452.648	233.69
452.869	230.69
453.089	234.69
453.31	218.69
453.53	195.69
453.751	213.69
453.971	218.69
454.192	208.69
454.412	220.69
454.633	223.69
454.853	224.69
455.073	216.69
455.294	217.69
455.514	250.69
455.734	220.69
455.955	220.69
456.175	212.69
456.395	201.69
456.616	203.69
456.836	201.69
457.056	212.69
457.276	190.69
457.497	201.69
457.717	206.69
457.937	191.69
458.157	205.69
458.377	216.69
458.598	196.69
458.818	187.69
459.038	191.69
459.258	200.69
459.478	227.69
459.698	212.69
459.918	231.69
460.138	239.69
460.358	260.69
460.578	261.69
460.798	275.69
461.018	258.69
461.238	253.69
461.458	255.69
461.678	274.69
461.898	260.69
462.118	254.69
462.338	284.69
462.558	276.69
462.777	286.69
462.997	303.69
463.217	308.69
463.437	308.69
463.657	287.69
463.876	272.69
464.096	268.69
464.316	277.69
464.536	290.69
464.755	291.69
464.975	274.69
465.195	270.69
465.414	251.69
465.634	237.69
465.854	230.69
466.073	237.69
466.293	250.69
466.512	248.69
466.732	233.69
466.951	247.69
467.171	252.69
467.391	247.69
467.61	246.69
467.829	243.69
468.049	253.69
468.268	242.69
468.488	230.69
468.707	246.69
468.927	234.69
469.146	233.69
469.365	243.69
469.585	252.69
469.804	238.69
470.023	247.69
470.243	270.69
470.462	256.69
470.681	255.69
470.901	263.69
471.12	258.69
471.339	259.69
471.558	252.69
471.777	262.69
471.997	234.69
472.216	231.69
472.435	218.69
472.654	203.69
472.873	214.69
473.092	230.69
473.311	232.69
473.53	235.69
473.749	235.69
473.968	235.69
474.187	228.69
474.406	227.69
474.625	229.69
474.844	235.69
475.063	239.69
475.282	240.69
475.501	218.69
475.72	239.69
475.939	227.69
476.158	223.69
476.377	231.69
476.596	238.69
476.814	225.69
477.033	223.69
477.252	238.69
477.471	245.69
477.69	254.69
477.908	249.69
478.127	267.69
478.346	276.69
478.564	274.69
478.783	264.69
479.002	288.69
479.22	285.69
479.439	259.69
479.658	252.69
479.876	260.69
480.095	244.69
480.313	276.69
480.532	276.69
480.751	261.69
480.969	234.69
481.188	212.69
481.406	221.69
481.624	227.69
481.843	224.69
482.061	228.69
482.28	229.69
482.498	240.69
482.717	235.69
482.935	245.69
483.153	254.69
483.372	270.69
483.59	262.69
483.808	258.69
484.027	255.69
484.245	254.69
484.463	266.69
484.681	295.69
484.9	272.69
485.118	261.69
485.336	250.69
485.554	238.69
485.772	236.69
485.99	223.69
486.209	243.69
486.427	229.69
486.645	262.69
486.863	258.69
487.081	250.69
487.299	248.69
487.517	265.69
487.735	292.69
487.953	301.69
488.171	316.69
488.389	283.69
488.607	269.69
488.825	254.69
489.043	250.69
489.261	272.69
489.479	254.69
489.696	264.69
489.914	259.69
490.132	281.69
490.35	286.69
490.568	296.69
490.786	293.69
491.003	285.69
491.221	297.69
491.439	324.69
491.657	310.69
491.874	346.69
492.092	348.69
492.31	371.69
492.527	328.69
492.745	326.69
492.963	315.69
493.18	318.69
493.398	319.69
493.615	317.69
493.833	318.69
494.05	330.69
494.268	314.69
494.485	328.69
494.703	307.69
494.92	300.69
495.138	298.69
495.355	324.69
495.573	302.69
495.79	314.69
496.008	307.69
496.225	310.69
496.442	292.69
496.66	346.69
496.877	306.69
497.094	316.69
497.312	313.69
497.529	325.69
497.746	303.69
497.963	306.69
498.181	322.69
498.398	310.69
498.615	309.69
498.832	318.69
499.049	355.69
499.267	394.69
499.484	420.69
499.701	444.69
499.918	502.69
500.135	559.69
500.352	600.69
500.569	633.69
500.786	650.69
501.003	561.69
501.22	532.69
501.437	479.69
501.654	398.69
501.871	391.69
502.088	349.69
502.305	358.69
502.522	339.69
502.739	336.69
502.956	332.69
503.172	299.69
503.389	281.69
503.606	295.69
503.823	293.69
504.04	303.69
504.256	298.69
504.473	298.69
504.69	287.69
504.907	310.69
505.123	287.69
505.34	263.69
505.557	271.69
505.773	266.69
505.99	271.69
506.207	262.69
506.423	249.69
506.64	258.69
506.856	255.69
507.073	250.69
507.289	246.69
507.506	236.69
507.722	221.69
507.939	235.69
508.155	226.69
508.372	229.69
508.588	224.69
508.805	233.69
509.021	224.69
509.238	210.69
509.454	218.69
509.67	207.69
509.887	210.69
510.103	201.69
510.319	213.69
510.536	216.69
510.752	201.69
510.968	213.69
511.184	220.69
511.401	210.69
511.617	210.69
511.833	198.69
512.049	194.69
512.265	208.69
512.481	214.69
512.698	205.69
512.914	203.69
513.13	221.69
513.346	205.69
513.562	227.69
513.778	223.69
513.994	218.69
514.21	204.69
514.426	220.69
514.642	210.69
514.858	200.69
515.074	211.69
515.29	234.69
515.506	197.69
515.721	206.69
515.937	206.69
516.153	209.69
516.369	220.69
516.585	221.69
516.801	221.69
517.016	231.69
517.232	266.69
517.448	272.69
517.664	281.69
517.879	279.69
518.095	264.69
518.311	262.69
518.527	255.69
518.742	249.69
518.958	246.69
519.173	256.69
519.389	230.69
519.605	222.69
519.82	228.69
520.036	221.69
520.251	218.69
520.467	212.69
520.682	206.69
520.898	187.69
521.113	189.69
521.329	211.69
521.544	210.69
521.76	214.69
521.975	207.69
522.19	211.69
522.406	207.69
522.621	215.69
522.836	204.69
523.052	226.69
523.267	204.69
523.482	198.69
523.698	219.69
523.913	228.69
524.128	210.69
524.343	222.69
524.559	233.69
524.774	238.69
524.989	233.69
525.204	232.69
525.419	217.69
525.634	210.69
525.849	205.69
526.064	200.69
526.28	209.69
526.495	198.69
526.71	185.69
526.925	193.69
527.14	180.69
527.355	190.69
527.57	192.69
527.785	202.69
527.999	190.69
528.214	202.69
528.429	222.69
528.644	227.69
528.859	237.69
529.074	235.69
529.289	254.69
529.503	251.69
529.718	231.69
529.933	230.69
530.148	212.69
530.363	198.69
530.577	170.69
530.792	174.69
531.007	176.69
531.221	205.69
531.436	181.69
531.651	182.69
531.865	198.69
532.08	200.69
532.295	195.69
532.509	202.69
532.724	184.69
532.938	206.69
533.153	211.69
533.367	223.69
533.582	238.69
533.796	222.69
534.011	217.69
534.225	205.69
534.44	188.69
534.654	189.69
534.868	187.69
535.083	221.69
535.297	206.69
535.511	192.69
535.726	201.69
535.94	185.69
536.154	189.69
536.369	198.69
536.583	175.69
536.797	188.69
537.011	181.69
537.225	185.69
537.44	190.69
537.654	210.69
537.868	174.69
538.082	198.69
538.296	179.69
538.51	191.69
538.724	213.69
538.938	213.69
539.153	231.69
539.367	228.69
539.581	229.69
539.795	175.69
540.009	197.69
540.222	199.69
540.436	209.69
540.65	187.69
540.864	198.69
541.078	224.69
541.292	247.69
541.506	259.69
541.72	258.69
541.934	274.69
542.147	280.69
542.361	252.69
542.575	251.69
542.789	227.69
543.002	234.69
543.216	220.69
543.43	194.69
543.644	228.69
543.857	236.69
544.071	237.69
544.285	249.69
544.498	248.69
544.712	242.69
544.925	264.69
545.139	248.69
545.352	246.69
545.566	260.69
545.779	247.69
545.993	256.69
546.206	255.69
546.42	249.69
546.633	278.69
546.847	267.69
547.06	271.69
547.274	271.69
547.487	271.69
547.7	287.69
547.914	269.69
548.127	254.69
548.34	263.69
548.554	258.69
548.767	264.69
548.98	236.69
549.193	237.69
549.407	239.69
549.62	258.69
549.833	272.69
550.046	245.69
550.259	258.69
550.473	235.69
550.686	254.69
550.899	252.69
551.112	239.69
551.325	228.69
551.538	215.69
551.751	216.69
551.964	202.69
552.177	234.69
552.39	254.69
552.603	255.69
552.816	240.69
553.029	252.69
553.242	268.69
553.455	277.69
553.667	268.69
553.88	264.69
554.093	248.69
554.306	260.69
554.519	250.69
554.732	220.69
554.944	239.69
555.157	236.69
555.37	237.69
555.583	238.69
555.795	221.69
556.008	210.69
556.221	213.69
556.433	210.69
556.646	227.69
556.859	223.69
557.071	224.69
557.284	232.69
557.496	223.69
557.709	218.69
557.921	224.69
558.134	213.69
558.346	222.69
558.559	222.69
558.771	228.69
558.984	214.69
559.196	211.69
559.409	204.69
559.621	202.69
559.833	204.69
560.046	192.69
560.258	198.69
560.47	188.69
560.683	210.69
560.895	214.69
561.107	196.69
561.32	206.69
561.532	202.69
561.744	214.69
561.956	221.69
562.168	210.69
562.381	191.69
562.593	216.69
562.805	201.69
563.017	207.69
563.229	211.69
563.441	202.69
563.653	212.69
563.865	194.69
564.077	214.69
564.289	186.69
564.501	213.69
564.713	213.69
564.925	207.69
565.137	204.69
565.349	216.69
565.561	204.69
565.773	212.69
565.985	223.69
566.197	220.69
566.408	255.69
566.62	272.69
566.832	270.69
567.044	264.69
567.255	249.69
567.467	278.69
567.679	258.69
567.891	285.69
568.102	288.69
568.314	285.69
568.526	249.69
568.737	244.69
568.949	206.69
569.161	202.69
569.372	196.69
569.584	189.69
569.795	185.69
570.007	175.69
570.218	180.69
570.43	170.69
570.641	173.69
570.853	176.69
571.064	178.69
571.276	196.69
571.487	171.69
571.698	190.69
571.91	174.69
572.121	158.69
572.333	178.69
572.544	167.69
572.755	143.69
572.966	153.69
573.178	145.69
573.389	151.69
573.6	150.69
573.811	152.69
574.023	130.69
574.234	144.69
574.445	166.69
574.656	159.69
574.867	148.69
575.078	159.69
575.289	171.69
575.501	158.69
575.712	154.69
575.923	166.69
576.134	162.69
576.345	151.69
576.556	166.69
576.767	167.69
576.978	166.69
577.188	151.69
577.399	165.69
577.61	146.69
577.821	161.69
578.032	154.69
578.243	151.69
578.454	147.69
578.665	144.69
578.875	143.69
579.086	154.69
579.297	139.69
579.508	118.69
579.718	148.69
579.929	142.69
580.14	145.69
580.35	160.69
580.561	136.69
580.772	135.69
580.982	150.69
581.193	131.69
581.403	165.69
581.614	141.69
581.825	140.69
582.035	140.69
582.246	152.69
582.456	152.69
582.667	143.69
582.877	146.69
583.087	135.69
583.298	141.69
583.508	140.69
583.719	135.69
583.929	149.69
584.139	149.69
584.35	143.69
584.56	152.69
584.77	136.69
584.981	136.69
585.191	150.69
585.401	141.69
585.611	148.69
585.821	136.69
586.032	140.69
586.242	116.69
586.452	133.69
586.662	152.69
586.872	131.69
587.082	132.69
587.292	156.69
587.502	133.69
587.713	131.69
587.923	140.69
588.133	121.69
588.343	142.69
588.553	135.69
588.762	146.69
588.972	153.69
589.182	143.69
589.392	149.69
589.602	145.69
589.812	132.69
590.022	146.69
590.232	129.69
590.441	144.69
590.651	142.69
590.861	145.69
591.071	135.69
591.281	125.69
591.49	134.69
591.7	140.69
591.91	151.69
592.119	156.69
592.329	153.69
592.539	163.69
592.748	155.69
592.958	155.69
593.167	164.69
593.377	179.69
593.587	168.69
593.796	146.69
594.006	151.69
594.215	163.69
594.424	173.69
594.634	165.69
594.843	156.69
595.053	161.69
595.262	148.69
595.472	154.69
595.681	148.69
595.89	148.69
596.1	138.69
596.309	149.69
596.518	154.69
596.727	148.69
596.937	160.69
597.146	134.69
597.355	140.69
597.564	134.69
597.774	135.69
597.983	121.69
598.192	128.69
598.401	120.69
598.61	131.69
598.819	125.69
599.028	140.69
599.237	132.69
599.446	138.69
599.655	146.69
599.864	142.69
600.073	128.69
600.282	127.69
600.491	142.69
600.7	130.69
600.909	147.69
601.118	136.69
601.327	143.69
601.536	132.69
601.745	130.69
601.953	144.69
602.162	146.69
602.371	130.69
602.58	140.69
602.789	158.69
602.997	139.69
603.206	146.69
603.415	144.69
603.623	151.69
603.832	138.69
604.041	136.69
604.249	124.69
604.458	139.69
604.666	126.69
604.875	150.69
605.084	125.69
605.292	134.69
605.501	143.69
605.709	143.69
605.918	150.69
606.126	155.69
606.334	146.69
606.543	150.69
606.751	142.69
606.96	151.69
607.168	149.69
607.376	146.69
607.585	147.69
607.793	160.69
608.001	141.69
608.21	147.69
608.418	130.69
608.626	133.69
608.834	155.69
609.043	135.69
609.251	143.69
609.459	151.69
609.667	137.69
609.875	151.69
610.083	142.69
610.291	130.69
610.499	133.69
610.707	143.69
610.916	146.69
611.124	154.69
611.332	154.69
611.54	148.69
611.748	149.69
611.955	138.69
612.163	142.69
612.371	140.69
612.579	140.69
612.787	136.69
612.995	143.69
613.203	147.69
613.411	138.69
613.618	132.69
613.826	154.69
614.034	134.69
614.242	150.69
614.449	154.69
614.657	162.69
614.865	142.69
615.072	155.69
615.28	147.69
615.488	139.69
615.695	139.69
615.903	152.69
616.111	133.69
616.318	155.69
616.526	144.69
616.733	164.69
616.941	152.69
617.148	145.69
617.356	136.69
617.563	140.69
617.771	136.69
617.978	139.69
618.185	152.69
618.393	134.69
618.6	146.69
618.807	123.69
619.015	132.69
619.222	148.69
619.429	157.69
619.637	136.69
619.844	133.69
620.051	142.69
620.258	134.69
620.466	142.69
620.673	132.69
620.88	130.69
621.087	146.69
621.294	131.69
621.501	134.69
621.708	134.69
621.915	139.69
622.122	139.69
622.329	133.69
622.536	142.69
622.743	143.69
622.95	125.69
623.157	138.69
623.364	134.69
623.571	143.69
623.778	146.69
623.985	136.69
624.192	134.69
624.399	134.69
624.606	149.69
624.812	141.69
625.019	133.69
625.226	139.69
625.433	146.69
625.639	110.69
625.846	123.69
626.053	138.69
626.259	116.69
626.466	130.69
626.673	125.69
626.879	110.69
627.086	122.69
627.293	122.69
627.499	110.69
627.706	132.69
627.912	132.69
628.119	126.69
628.325	146.69
628.532	121.69
628.738	124.69
628.945	129.69
629.151	120.69
629.357	130.69
629.564	116.69
629.77	136.69
629.976	115.69
630.183	123.69
630.389	120.69
630.595	114.69
630.802	127.69
631.008	133.69
631.214	126.69
631.42	124.69
631.627	140.69
631.833	141.69
632.039	108.69
632.245	117.69
632.451	138.69
632.657	146.69
632.863	125.69
633.069	122.69
633.275	131.69
633.481	112.69
633.688	118.69
633.893	132.69
634.099	117.69
634.305	122.69
634.511	115.69
634.717	122.69
634.923	127.69
635.129	122.69
635.335	115.69
635.541	123.69
635.747	116.69
635.952	115.69
636.158	117.69
636.364	114.69
636.57	119.69
636.775	118.69
636.981	116.69
637.187	107.69
637.392	107.69
637.598	132.69
637.804	126.69
638.009	117.69
638.215	122.69
638.421	124.69
638.626	107.69
638.832	102.69
639.037	110.69
639.243	111.69
639.448	116.69
639.654	133.69
639.859	113.69
640.065	115.69
640.27	127.69
640.475	108.69
640.681	110.69
640.886	126.69
641.091	126.69
641.297	136.69
641.502	124.69
641.707	127.69
641.913	120.69
642.118	109.69
642.323	110.69
642.528	120.69
642.733	119.69
642.939	125.69
643.144	120.69
643.349	119.69
643.554	114.69
643.759	108.69
643.964	120.69
644.169	110.69
644.374	102.69
644.579	116.69
644.784	101.69
644.989	109.69
645.194	123.69
645.399	110.69
645.604	108.69
645.809	122.69
646.014	125.69
646.219	117.69
646.423	107.69
646.628	119.69
646.833	121.69
647.038	116.69
647.243	117.69
647.447	118.69
647.652	125.69
647.857	110.69
648.062	115.69
648.266	104.69
648.471	121.69
648.676	111.69
648.88	125.69
649.085	119.69
649.289	93.69
649.494	104.69
649.698	114.69
649.903	131.69
650.107	107.69
650.312	126.69
650.516	106.69
650.721	98.69
650.925	107.69
651.13	113.69
651.334	121.69
651.539	126.69
651.743	106.69
651.947	114.69
652.152	105.69
652.356	120.69
652.56	115.69
652.764	94.69
652.969	97.69
653.173	101.69
653.377	106.69
653.581	119.69
653.785	116.69
653.99	110.69
654.194	104.69
654.398	109.69
654.602	102.69
654.806	83.69
655.01	95.69
655.214	93.69
655.418	93.69
655.622	107.69
655.826	106.69
656.03	100.69
656.234	109.69
656.438	109.69
656.642	99.69
656.846	93.69
657.049	109.69
657.253	94.69
657.457	89.69
657.661	104.69
657.865	98.69
658.068	83.69
658.272	86.69
658.476	99.69
658.68	93.69
658.883	86.69
659.087	81.69
659.291	87.69
659.494	90.69
659.698	73.69
659.901	100.69
660.105	101.69
660.309	92.69
660.512	86.69
660.716	88.69
660.919	72.69
661.123	94.69
661.326	88.69
661.53	79.69
661.733	96.69
661.936	76.69
662.14	78.69
662.343	85.69
662.546	77.69
662.75	89.69
662.953	76.69
663.156	108.69
663.36	80.69
663.563	101.69
663.766	86.69
663.969	84.69
664.173	93.69
664.376	77.69
664.579	72.69
664.782	83.69
664.985	79.69
665.188	69.69
665.391	87.69
665.594	80.69
665.797	83.69
666	85.69
666.203	96.69
666.406	81.69
666.609	87.69
666.812	104.69
667.015	86.69
667.218	80.69
667.421	76.69
667.624	76.69
667.827	82.69
668.03	80.69
668.232	73.69
668.435	76.69
668.638	79.69
668.841	77.69
669.043	69.69
669.246	91.69
669.449	71.69
669.651	79.69
669.854	73.69
670.057	84.69
670.259	84.69
670.462	83.69
670.665	74.69
670.867	95.69
671.07	90.69
671.272	86.69
671.475	89.69
671.677	63.69
671.88	78.69
672.082	72.69
672.284	82.69
672.487	84.69
672.689	72.69
672.892	73.69
