Data from SampA_HRD10591_00052.txt Node
Date: Mon Jan 19 11:27:04 EST 2026
User: Yrep
Spectrometer: HR+D1059
Trigger mode: 0
Integration Time (sec): 3.443000E-1
Scans to average: 1
Electric dark correction enabled: true
Nonlinearity correction enabled: false
Boxcar width: 0
XAxis mode: Wavelengths
Number of Pixels in Spectrum: 2048
>>>>>Begin Spectral Data<<<<<
223.165	-24.12
223.4	-24.12
223.635	-24.12
223.869	-19.12
224.104	-12.12
224.338	-15.12
224.573	-21.12
224.808	-25.12
225.042	-1.12
225.277	0.88
225.511	-4.12
225.746	10.88
225.98	10.88
226.215	12.88
226.449	18.88
226.683	14.88
226.918	18.88
227.152	33.88
227.387	39.88
227.621	40.88
227.856	55.88
228.09	43.88
228.324	40.88
228.559	47.88
228.793	56.88
229.027	48.88
229.262	71.88
229.496	58.88
229.73	59.88
229.964	77.88
230.199	62.88
230.433	80.88
230.667	88.88
230.901	88.88
231.136	74.88
231.37	79.88
231.604	102.88
231.838	98.88
232.072	75.88
232.306	79.88
232.541	73.88
232.775	53.88
233.009	86.88
233.243	89.88
233.477	83.88
233.711	98.88
233.945	92.88
234.179	86.88
234.413	91.88
234.647	82.88
234.881	84.88
235.115	82.88
235.349	89.88
235.583	88.88
235.817	84.88
236.051	71.88
236.285	91.88
236.519	86.88
236.753	84.88
236.987	65.88
237.221	87.88
237.455	76.88
237.689	88.88
237.922	79.88
238.156	78.88
238.39	81.88
238.624	80.88
238.858	82.88
239.091	85.88
239.325	86.88
239.559	80.88
239.793	86.88
240.027	78.88
240.26	83.88
240.494	89.88
240.728	75.88
240.961	79.88
241.195	65.88
241.429	83.88
241.662	77.88
241.896	76.88
242.13	77.88
242.363	91.88
242.597	83.88
242.83	82.88
243.064	75.88
243.298	70.88
243.531	81.88
243.765	97.88
243.998	76.88
244.232	74.88
244.465	79.88
244.699	83.88
244.932	89.88
245.166	71.88
245.399	89.88
245.633	76.88
245.866	79.88
246.099	85.88
246.333	86.88
246.566	78.88
246.8	90.88
247.033	80.88
247.266	89.88
247.5	87.88
247.733	92.88
247.966	88.88
248.2	83.88
248.433	77.88
248.666	79.88
248.899	87.88
249.133	99.88
249.366	91.88
249.599	85.88
249.832	88.88
250.066	104.88
250.299	75.88
250.532	93.88
250.765	88.88
250.998	82.88
251.231	87.88
251.465	96.88
251.698	104.88
251.931	100.88
252.164	92.88
252.397	94.88
252.63	108.88
252.863	72.88
253.096	93.88
253.329	84.88
253.562	83.88
253.795	71.88
254.028	92.88
254.261	87.88
254.494	85.88
254.727	100.88
254.96	96.88
255.193	97.88
255.426	89.88
255.659	95.88
255.892	93.88
256.124	95.88
256.357	93.88
256.59	92.88
256.823	84.88
257.056	84.88
257.289	100.88
257.521	99.88
257.754	87.88
257.987	92.88
258.22	91.88
258.452	105.88
258.685	107.88
258.918	95.88
259.151	100.88
259.383	98.88
259.616	99.88
259.849	86.88
260.081	80.88
260.314	94.88
260.547	107.88
260.779	97.88
261.012	96.88
261.244	81.88
261.477	111.88
261.71	99.88
261.942	91.88
262.175	107.88
262.407	88.88
262.64	96.88
262.872	95.88
263.105	85.88
263.337	106.88
263.57	82.88
263.802	97.88
264.035	89.88
264.267	87.88
264.499	95.88
264.732	100.88
264.964	103.88
265.197	106.88
265.429	93.88
265.661	77.88
265.894	90.88
266.126	91.88
266.358	110.88
266.591	100.88
266.823	98.88
267.055	103.88
267.287	97.88
267.52	112.88
267.752	97.88
267.984	113.88
268.216	116.88
268.448	99.88
268.681	106.88
268.913	93.88
269.145	108.88
269.377	104.88
269.609	96.88
269.841	101.88
270.073	90.88
270.306	107.88
270.538	107.88
270.77	88.88
271.002	101.88
271.234	112.88
271.466	122.88
271.698	106.88
271.93	106.88
272.162	115.88
272.394	120.88
272.626	107.88
272.858	106.88
273.09	96.88
273.322	101.88
273.553	91.88
273.785	103.88
274.017	106.88
274.249	103.88
274.481	105.88
274.713	98.88
274.945	115.88
275.176	106.88
275.408	105.88
275.64	110.88
275.872	98.88
276.104	104.88
276.335	111.88
276.567	114.88
276.799	93.88
277.031	106.88
277.262	107.88
277.494	110.88
277.726	98.88
277.957	99.88
278.189	119.88
278.421	106.88
278.652	88.88
278.884	101.88
279.115	117.88
279.347	114.88
279.579	99.88
279.81	101.88
280.042	113.88
280.273	96.88
280.505	111.88
280.736	111.88
280.968	115.88
281.199	108.88
281.431	105.88
281.662	115.88
281.894	118.88
282.125	110.88
282.356	122.88
282.588	104.88
282.819	120.88
283.051	98.88
283.282	95.88
283.513	108.88
283.745	115.88
283.976	109.88
284.207	114.88
284.439	113.88
284.67	107.88
284.901	111.88
285.132	112.88
285.364	122.88
285.595	122.88
285.826	107.88
286.057	121.88
286.288	122.88
286.52	112.88
286.751	105.88
286.982	112.88
287.213	112.88
287.444	129.88
287.675	117.88
287.906	105.88
288.138	106.88
288.369	115.88
288.6	127.88
288.831	129.88
289.062	119.88
289.293	106.88
289.524	96.88
289.755	119.88
289.986	106.88
290.217	126.88
290.448	115.88
290.679	114.88
290.91	110.88
291.141	101.88
291.371	118.88
291.602	124.88
291.833	103.88
292.064	107.88
292.295	115.88
292.526	101.88
292.757	107.88
292.987	103.88
293.218	120.88
293.449	116.88
293.68	114.88
293.91	97.88
294.141	125.88
294.372	111.88
294.603	110.88
294.833	107.88
295.064	111.88
295.295	120.88
295.525	116.88
295.756	121.88
295.987	118.88
296.217	107.88
296.448	106.88
296.679	105.88
296.909	120.88
297.14	119.88
297.37	130.88
297.601	112.88
297.831	113.88
298.062	127.88
298.292	122.88
298.523	130.88
298.753	108.88
298.984	108.88
299.214	127.88
299.445	113.88
299.675	134.88
299.905	119.88
300.136	118.88
300.366	111.88
300.597	135.88
300.827	124.88
301.057	119.88
301.288	144.88
301.518	117.88
301.748	119.88
301.979	147.88
302.209	113.88
302.439	112.88
302.669	127.88
302.9	121.88
303.13	117.88
303.36	136.88
303.59	142.88
303.82	118.88
304.051	118.88
304.281	129.88
304.511	137.88
304.741	123.88
304.971	114.88
305.201	132.88
305.431	133.88
305.661	115.88
305.891	120.88
306.121	117.88
306.352	117.88
306.582	118.88
306.812	121.88
307.042	123.88
307.272	128.88
307.502	125.88
307.731	123.88
307.961	123.88
308.191	142.88
308.421	126.88
308.651	127.88
308.881	132.88
309.111	115.88
309.341	135.88
309.571	123.88
309.8	125.88
310.03	122.88
310.26	121.88
310.49	103.88
310.72	124.88
310.949	129.88
311.179	137.88
311.409	123.88
311.639	128.88
311.868	121.88
312.098	141.88
312.328	133.88
312.557	130.88
312.787	119.88
313.017	129.88
313.246	138.88
313.476	128.88
313.706	138.88
313.935	133.88
314.165	110.88
314.394	115.88
314.624	123.88
314.853	117.88
315.083	106.88
315.312	131.88
315.542	127.88
315.771	121.88
316.001	126.88
316.23	130.88
316.46	127.88
316.689	115.88
316.919	126.88
317.148	128.88
317.377	135.88
317.607	126.88
317.836	133.88
318.065	130.88
318.295	132.88
318.524	121.88
318.753	136.88
318.983	138.88
319.212	124.88
319.441	129.88
319.67	128.88
319.9	112.88
320.129	115.88
320.358	129.88
320.587	134.88
320.816	140.88
321.046	138.88
321.275	122.88
321.504	114.88
321.733	116.88
321.962	129.88
322.191	117.88
322.42	115.88
322.649	124.88
322.878	140.88
323.108	130.88
323.337	148.88
323.566	132.88
323.795	124.88
324.024	137.88
324.253	121.88
324.482	123.88
324.71	128.88
324.939	128.88
325.168	119.88
325.397	128.88
325.626	129.88
325.855	118.88
326.084	133.88
326.313	140.88
326.542	144.88
326.77	119.88
326.999	140.88
327.228	130.88
327.457	146.88
327.686	135.88
327.914	130.88
328.143	141.88
328.372	122.88
328.6	136.88
328.829	116.88
329.058	130.88
329.287	140.88
329.515	131.88
329.744	118.88
329.972	133.88
330.201	127.88
330.43	148.88
330.658	133.88
330.887	140.88
331.115	132.88
331.344	144.88
331.572	131.88
331.801	142.88
332.03	130.88
332.258	142.88
332.486	138.88
332.715	136.88
332.943	148.88
333.172	142.88
333.4	150.88
333.629	155.88
333.857	148.88
334.085	148.88
334.314	156.88
334.542	145.88
334.771	163.88
334.999	150.88
335.227	147.88
335.455	140.88
335.684	158.88
335.912	153.88
336.14	146.88
336.369	147.88
336.597	140.88
336.825	158.88
337.053	152.88
337.281	139.88
337.51	130.88
337.738	134.88
337.966	136.88
338.194	122.88
338.422	120.88
338.65	142.88
338.878	148.88
339.106	134.88
339.334	146.88
339.562	126.88
339.79	137.88
340.018	121.88
340.246	133.88
340.474	142.88
340.702	122.88
340.93	129.88
341.158	119.88
341.386	135.88
341.614	159.88
341.842	129.88
342.07	132.88
342.298	131.88
342.526	130.88
342.754	148.88
342.981	146.88
343.209	130.88
343.437	171.88
343.665	152.88
343.893	142.88
344.12	153.88
344.348	146.88
344.576	146.88
344.804	119.88
345.031	123.88
345.259	132.88
345.487	140.88
345.714	135.88
345.942	128.88
346.17	133.88
346.397	143.88
346.625	134.88
346.853	132.88
347.08	159.88
347.308	150.88
347.535	149.88
347.763	131.88
347.99	145.88
348.218	128.88
348.445	123.88
348.673	143.88
348.9	133.88
349.128	136.88
349.355	135.88
349.583	139.88
349.81	125.88
350.037	144.88
350.265	121.88
350.492	137.88
350.72	124.88
350.947	132.88
351.174	127.88
351.402	136.88
351.629	119.88
351.856	144.88
352.083	122.88
352.311	134.88
352.538	120.88
352.765	140.88
352.992	142.88
353.22	133.88
353.447	131.88
353.674	132.88
353.901	145.88
354.128	139.88
354.355	124.88
354.583	146.88
354.81	126.88
355.037	147.88
355.264	134.88
355.491	133.88
355.718	139.88
355.945	146.88
356.172	114.88
356.399	137.88
356.626	134.88
356.853	141.88
357.08	123.88
357.307	147.88
357.534	132.88
357.761	139.88
357.988	126.88
358.215	126.88
358.441	127.88
358.668	108.88
358.895	126.88
359.122	120.88
359.349	132.88
359.576	133.88
359.802	115.88
360.029	130.88
360.256	119.88
360.483	118.88
360.709	128.88
360.936	150.88
361.163	121.88
361.39	142.88
361.616	130.88
361.843	121.88
362.07	129.88
362.296	136.88
362.523	116.88
362.749	122.88
362.976	133.88
363.203	143.88
363.429	137.88
363.656	135.88
363.882	135.88
364.109	136.88
364.335	134.88
364.562	128.88
364.788	142.88
365.015	134.88
365.241	118.88
365.468	154.88
365.694	141.88
365.92	131.88
366.147	121.88
366.373	129.88
366.599	132.88
366.826	120.88
367.052	121.88
367.278	131.88
367.505	134.88
367.731	153.88
367.957	118.88
368.184	142.88
368.41	130.88
368.636	126.88
368.862	145.88
369.089	135.88
369.315	126.88
369.541	137.88
369.767	130.88
369.993	120.88
370.219	142.88
370.445	130.88
370.672	132.88
370.898	137.88
371.124	131.88
371.35	121.88
371.576	143.88
371.802	123.88
372.028	152.88
372.254	131.88
372.48	151.88
372.706	147.88
372.932	139.88
373.158	159.88
373.384	155.88
373.61	155.88
373.835	133.88
374.061	142.88
374.287	150.88
374.513	125.88
374.739	142.88
374.965	147.88
375.191	161.88
375.416	138.88
375.642	142.88
375.868	145.88
376.094	145.88
376.319	133.88
376.545	140.88
376.771	152.88
376.997	143.88
377.222	156.88
377.448	167.88
377.674	136.88
377.899	143.88
378.125	150.88
378.35	122.88
378.576	141.88
378.802	140.88
379.027	145.88
379.253	142.88
379.478	156.88
379.704	144.88
379.929	137.88
380.155	142.88
380.38	159.88
380.606	139.88
380.831	142.88
381.057	158.88
381.282	121.88
381.507	140.88
381.733	127.88
381.958	121.88
382.184	148.88
382.409	146.88
382.634	159.88
382.86	145.88
383.085	148.88
383.31	143.88
383.535	163.88
383.761	140.88
383.986	159.88
384.211	141.88
384.436	143.88
384.662	173.88
384.887	163.88
385.112	169.88
385.337	166.88
385.562	166.88
385.787	155.88
386.013	158.88
386.238	146.88
386.463	153.88
386.688	178.88
386.913	156.88
387.138	172.88
387.363	157.88
387.588	166.88
387.813	162.88
388.038	166.88
388.263	168.88
388.488	160.88
388.713	180.88
388.938	170.88
389.163	150.88
389.387	144.88
389.612	149.88
389.837	148.88
390.062	175.88
390.287	161.88
390.512	168.88
390.736	163.88
390.961	175.88
391.186	164.88
391.411	170.88
391.636	200.88
391.86	165.88
392.085	201.88
392.31	197.88
392.534	184.88
392.759	199.88
392.984	183.88
393.208	174.88
393.433	176.88
393.658	177.88
393.882	190.88
394.107	192.88
394.331	175.88
394.556	163.88
394.78	169.88
395.005	190.88
395.229	182.88
395.454	190.88
395.678	195.88
395.903	187.88
396.127	170.88
396.352	176.88
396.576	190.88
396.801	192.88
397.025	193.88
397.249	193.88
397.474	197.88
397.698	198.88
397.922	196.88
398.147	183.88
398.371	192.88
398.595	203.88
398.82	204.88
399.044	226.88
399.268	249.88
399.492	268.88
399.717	283.88
399.941	273.88
400.165	251.88
400.389	230.88
400.613	219.88
400.837	234.88
401.062	206.88
401.286	216.88
401.51	219.88
401.734	202.88
401.958	222.88
402.182	223.88
402.406	223.88
402.63	225.88
402.854	234.88
403.078	251.88
403.302	250.88
403.526	263.88
403.75	264.88
403.974	266.88
404.198	260.88
404.422	252.88
404.645	266.88
404.869	250.88
405.093	245.88
405.317	255.88
405.541	242.88
405.765	258.88
405.988	268.88
406.212	259.88
406.436	251.88
406.66	273.88
406.883	267.88
407.107	292.88
407.331	283.88
407.555	284.88
407.778	289.88
408.002	278.88
408.226	266.88
408.449	269.88
408.673	267.88
408.896	261.88
409.12	271.88
409.344	269.88
409.567	270.88
409.791	273.88
410.014	268.88
410.238	272.88
410.461	270.88
410.685	263.88
410.908	264.88
411.132	260.88
411.355	246.88
411.578	254.88
411.802	250.88
412.025	255.88
412.249	262.88
412.472	264.88
412.695	259.88
412.919	245.88
413.142	250.88
413.365	263.88
413.589	238.88
413.812	248.88
414.035	264.88
414.258	251.88
414.482	252.88
414.705	270.88
414.928	266.88
415.151	267.88
415.374	267.88
415.597	259.88
415.821	253.88
416.044	268.88
416.267	249.88
416.49	248.88
416.713	263.88
416.936	278.88
417.159	261.88
417.382	263.88
417.605	250.88
417.828	265.88
418.051	271.88
418.274	261.88
418.497	252.88
418.72	265.88
418.943	272.88
419.166	273.88
419.389	309.88
419.611	259.88
419.834	275.88
420.057	274.88
420.28	276.88
420.503	271.88
420.726	251.88
420.948	258.88
421.171	256.88
421.394	251.88
421.617	263.88
421.839	290.88
422.062	262.88
422.285	259.88
422.507	275.88
422.73	266.88
422.953	253.88
423.175	273.88
423.398	278.88
423.621	267.88
423.843	279.88
424.066	279.88
424.288	294.88
424.511	278.88
424.733	296.88
424.956	273.88
425.178	274.88
425.401	265.88
425.623	275.88
425.846	270.88
426.068	246.88
426.291	268.88
426.513	242.88
426.735	262.88
426.958	262.88
427.18	245.88
427.402	236.88
427.625	258.88
427.847	238.88
428.069	255.88
428.292	248.88
428.514	238.88
428.736	249.88
428.958	243.88
429.181	238.88
429.403	249.88
429.625	257.88
429.847	230.88
430.069	240.88
430.292	229.88
430.514	233.88
430.736	250.88
430.958	236.88
431.18	218.88
431.402	239.88
431.624	232.88
431.846	224.88
432.068	214.88
432.29	226.88
432.512	247.88
432.734	220.88
432.956	243.88
433.178	236.88
433.4	258.88
433.622	262.88
433.844	256.88
434.066	245.88
434.287	233.88
434.509	225.88
434.731	230.88
434.953	229.88
435.175	247.88
435.397	272.88
435.618	244.88
435.84	229.88
436.062	240.88
436.284	249.88
436.505	244.88
436.727	240.88
436.949	246.88
437.17	255.88
437.392	231.88
437.614	218.88
437.835	217.88
438.057	228.88
438.278	211.88
438.5	234.88
438.721	238.88
438.943	247.88
439.165	253.88
439.386	250.88
439.608	248.88
439.829	256.88
440.05	256.88
440.272	266.88
440.493	260.88
440.715	271.88
440.936	273.88
441.158	260.88
441.379	264.88
441.6	270.88
441.822	287.88
442.043	283.88
442.264	264.88
442.486	252.88
442.707	270.88
442.928	282.88
443.149	283.88
443.371	284.88
443.592	281.88
443.813	271.88
444.034	270.88
444.255	285.88
444.476	300.88
444.698	311.88
444.919	315.88
445.14	482.88
445.361	391.88
445.582	292.88
445.803	258.88
446.024	270.88
446.245	273.88
446.466	287.88
446.687	263.88
446.908	284.88
447.129	256.88
447.35	261.88
447.571	260.88
447.792	249.88
448.013	254.88
448.234	258.88
448.455	260.88
448.675	246.88
448.896	230.88
449.117	256.88
449.338	223.88
449.559	245.88
449.779	237.88
450	242.88
450.221	232.88
450.442	231.88
450.662	250.88
450.883	256.88
451.104	248.88
451.324	232.88
451.545	217.88
451.766	237.88
451.986	224.88
452.207	235.88
452.428	226.88
452.648	229.88
452.869	231.88
453.089	233.88
453.31	216.88
453.53	217.88
453.751	203.88
453.971	201.88
454.192	212.88
454.412	213.88
454.633	206.88
454.853	215.88
455.073	220.88
455.294	207.88
455.514	226.88
455.734	224.88
455.955	208.88
456.175	193.88
456.395	207.88
456.616	216.88
456.836	204.88
457.056	204.88
457.276	206.88
457.497	206.88
457.717	207.88
457.937	208.88
458.157	199.88
458.377	193.88
458.598	191.88
458.818	211.88
459.038	209.88
459.258	199.88
459.478	209.88
459.698	206.88
459.918	227.88
460.138	227.88
460.358	265.88
460.578	262.88
460.798	264.88
461.018	247.88
461.238	249.88
461.458	258.88
461.678	244.88
461.898	256.88
462.118	260.88
462.338	287.88
462.558	249.88
462.777	278.88
462.997	282.88
463.217	299.88
463.437	282.88
463.657	283.88
463.876	263.88
464.096	269.88
464.316	279.88
464.536	284.88
464.755	293.88
464.975	268.88
465.195	266.88
465.414	246.88
465.634	248.88
465.854	235.88
466.073	228.88
466.293	230.88
466.512	227.88
466.732	246.88
466.951	255.88
467.171	235.88
467.391	248.88
467.61	236.88
467.829	247.88
468.049	232.88
468.268	233.88
468.488	239.88
468.707	230.88
468.927	236.88
469.146	239.88
469.365	248.88
469.585	240.88
469.804	266.88
470.023	249.88
470.243	240.88
470.462	258.88
470.681	268.88
470.901	257.88
471.12	239.88
471.339	248.88
471.558	242.88
471.777	250.88
471.997	235.88
472.216	229.88
472.435	217.88
472.654	209.88
472.873	215.88
473.092	221.88
473.311	225.88
473.53	235.88
473.749	223.88
473.968	242.88
474.187	227.88
474.406	210.88
474.625	216.88
474.844	243.88
475.063	225.88
475.282	224.88
475.501	209.88
475.72	248.88
475.939	237.88
476.158	235.88
476.377	239.88
476.596	218.88
476.814	205.88
477.033	200.88
477.252	237.88
477.471	223.88
477.69	261.88
477.908	255.88
478.127	278.88
478.346	266.88
478.564	271.88
478.783	257.88
479.002	275.88
479.22	262.88
479.439	270.88
479.658	245.88
479.876	252.88
480.095	244.88
480.313	251.88
480.532	265.88
480.751	258.88
480.969	233.88
481.188	220.88
481.406	228.88
481.624	208.88
481.843	207.88
482.061	227.88
482.28	232.88
482.498	224.88
482.717	243.88
482.935	228.88
483.153	258.88
483.372	270.88
483.59	266.88
483.808	242.88
484.027	246.88
484.245	259.88
484.463	270.88
484.681	260.88
484.9	249.88
485.118	262.88
485.336	235.88
485.554	224.88
485.772	239.88
485.99	243.88
486.209	224.88
486.427	248.88
486.645	250.88
486.863	267.88
487.081	256.88
487.299	266.88
487.517	286.88
487.735	284.88
487.953	312.88
488.171	298.88
488.389	280.88
488.607	267.88
488.825	257.88
489.043	244.88
489.261	276.88
489.479	292.88
489.696	247.88
489.914	262.88
490.132	261.88
490.35	266.88
490.568	291.88
490.786	292.88
491.003	294.88
491.221	295.88
491.439	307.88
491.657	307.88
491.874	338.88
492.092	351.88
492.31	362.88
492.527	345.88
492.745	333.88
492.963	310.88
493.18	328.88
493.398	334.88
493.615	329.88
493.833	329.88
494.05	319.88
494.268	304.88
494.485	318.88
494.703	311.88
494.92	301.88
495.138	296.88
495.355	307.88
495.573	300.88
495.79	299.88
496.008	294.88
496.225	310.88
496.442	293.88
496.66	330.88
496.877	301.88
497.094	334.88
497.312	309.88
497.529	320.88
497.746	306.88
497.963	290.88
498.181	279.88
498.398	302.88
498.615	312.88
498.832	346.88
499.049	360.88
499.267	400.88
499.484	394.88
499.701	463.88
499.918	480.88
500.135	545.88
500.352	609.88
500.569	628.88
500.786	611.88
501.003	555.88
501.22	509.88
501.437	450.88
501.654	418.88
501.871	391.88
502.088	360.88
502.305	357.88
502.522	328.88
502.739	339.88
502.956	294.88
503.172	298.88
503.389	290.88
503.606	271.88
503.823	274.88
504.04	296.88
504.256	286.88
504.473	280.88
504.69	296.88
504.907	296.88
505.123	289.88
505.34	257.88
505.557	260.88
505.773	264.88
505.99	248.88
506.207	239.88
506.423	233.88
506.64	227.88
506.856	238.88
507.073	217.88
507.289	243.88
507.506	245.88
507.722	226.88
507.939	220.88
508.155	225.88
508.372	225.88
508.588	219.88
508.805	210.88
509.021	225.88
509.238	219.88
509.454	192.88
509.67	192.88
509.887	211.88
510.103	207.88
510.319	207.88
510.536	216.88
510.752	200.88
510.968	202.88
511.184	202.88
511.401	190.88
511.617	197.88
511.833	181.88
512.049	204.88
512.265	201.88
512.481	211.88
512.698	204.88
512.914	207.88
513.13	202.88
513.346	195.88
513.562	186.88
513.778	195.88
513.994	206.88
514.21	200.88
514.426	193.88
514.642	199.88
514.858	214.88
515.074	201.88
515.29	206.88
515.506	210.88
515.721	212.88
515.937	216.88
516.153	217.88
516.369	208.88
516.585	223.88
516.801	210.88
517.016	241.88
517.232	239.88
517.448	252.88
517.664	266.88
517.879	273.88
518.095	263.88
518.311	239.88
518.527	261.88
518.742	249.88
518.958	234.88
519.173	231.88
519.389	219.88
519.605	228.88
519.82	224.88
520.036	228.88
520.251	238.88
520.467	214.88
520.682	207.88
520.898	200.88
521.113	184.88
521.329	204.88
521.544	189.88
521.76	206.88
521.975	199.88
522.19	210.88
522.406	200.88
522.621	194.88
522.836	209.88
523.052	218.88
523.267	217.88
523.482	202.88
523.698	200.88
523.913	220.88
524.128	217.88
524.343	230.88
524.559	236.88
524.774	238.88
524.989	223.88
525.204	227.88
525.419	218.88
525.634	212.88
525.849	203.88
526.064	207.88
526.28	208.88
526.495	196.88
526.71	211.88
526.925	180.88
527.14	175.88
527.355	174.88
527.57	183.88
527.785	165.88
527.999	185.88
528.214	202.88
528.429	208.88
528.644	210.88
528.859	227.88
529.074	245.88
529.289	248.88
529.503	265.88
529.718	231.88
529.933	197.88
530.148	185.88
530.363	190.88
530.577	186.88
530.792	200.88
531.007	199.88
531.221	180.88
531.436	177.88
531.651	195.88
531.865	190.88
532.08	184.88
532.295	201.88
532.509	188.88
532.724	174.88
532.938	193.88
533.153	198.88
533.367	216.88
533.582	211.88
533.796	225.88
534.011	218.88
534.225	187.88
534.44	186.88
534.654	192.88
534.868	189.88
535.083	197.88
535.297	195.88
535.511	198.88
535.726	196.88
535.94	198.88
536.154	185.88
536.369	174.88
536.583	179.88
536.797	192.88
537.011	174.88
537.225	184.88
537.44	175.88
537.654	196.88
537.868	189.88
538.082	201.88
538.296	195.88
538.51	194.88
538.724	199.88
538.938	192.88
539.153	207.88
539.367	220.88
539.581	207.88
539.795	185.88
540.009	185.88
540.222	187.88
540.436	209.88
540.65	198.88
540.864	209.88
541.078	235.88
541.292	226.88
541.506	238.88
541.72	256.88
541.934	272.88
542.147	285.88
542.361	252.88
542.575	230.88
542.789	239.88
543.002	212.88
543.216	214.88
543.43	209.88
543.644	220.88
543.857	217.88
544.071	245.88
544.285	271.88
544.498	235.88
544.712	257.88
544.925	249.88
545.139	251.88
545.352	238.88
545.566	246.88
545.779	231.88
545.993	254.88
546.206	272.88
546.42	245.88
546.633	260.88
546.847	266.88
547.06	262.88
547.274	265.88
547.487	288.88
547.7	256.88
547.914	247.88
548.127	246.88
548.34	261.88
548.554	250.88
548.767	233.88
548.98	236.88
549.193	241.88
549.407	250.88
549.62	256.88
549.833	266.88
550.046	247.88
550.259	253.88
550.473	243.88
550.686	241.88
550.899	255.88
551.112	238.88
551.325	241.88
551.538	224.88
551.751	217.88
551.964	212.88
552.177	243.88
552.39	233.88
552.603	229.88
552.816	274.88
553.029	262.88
553.242	251.88
553.455	250.88
553.667	268.88
553.88	259.88
554.093	257.88
554.306	258.88
554.519	255.88
554.732	237.88
554.944	238.88
555.157	242.88
555.37	231.88
555.583	224.88
555.795	220.88
556.008	227.88
556.221	198.88
556.433	219.88
556.646	218.88
556.859	221.88
557.071	221.88
557.284	208.88
557.496	224.88
557.709	214.88
557.921	226.88
558.134	213.88
558.346	194.88
558.559	207.88
558.771	204.88
558.984	201.88
559.196	212.88
559.409	200.88
559.621	220.88
559.833	220.88
560.046	213.88
560.258	203.88
560.47	207.88
560.683	215.88
560.895	198.88
561.107	206.88
561.32	193.88
561.532	204.88
561.744	224.88
561.956	218.88
562.168	187.88
562.381	201.88
562.593	195.88
562.805	196.88
563.017	203.88
563.229	208.88
563.441	207.88
563.653	189.88
563.865	196.88
564.077	198.88
564.289	207.88
564.501	190.88
564.713	189.88
564.925	210.88
565.137	181.88
565.349	206.88
565.561	195.88
565.773	206.88
565.985	214.88
566.197	216.88
566.408	239.88
566.62	261.88
566.832	268.88
567.044	275.88
567.255	241.88
567.467	254.88
567.679	260.88
567.891	258.88
568.102	281.88
568.314	275.88
568.526	233.88
568.737	206.88
568.949	214.88
569.161	183.88
569.372	169.88
569.584	192.88
569.795	196.88
570.007	163.88
570.218	181.88
570.43	176.88
570.641	173.88
570.853	190.88
571.064	180.88
571.276	190.88
571.487	199.88
571.698	165.88
571.91	164.88
572.121	159.88
572.333	176.88
572.544	155.88
572.755	162.88
572.966	163.88
573.178	156.88
573.389	166.88
573.6	152.88
573.811	141.88
574.023	159.88
574.234	146.88
574.445	158.88
574.656	163.88
574.867	150.88
575.078	137.88
575.289	158.88
575.501	152.88
575.712	153.88
575.923	146.88
576.134	149.88
576.345	143.88
576.556	166.88
576.767	175.88
576.978	162.88
577.188	150.88
577.399	156.88
577.61	155.88
577.821	156.88
578.032	155.88
578.243	149.88
578.454	130.88
578.665	132.88
578.875	136.88
579.086	144.88
579.297	132.88
579.508	137.88
579.718	144.88
579.929	146.88
580.14	134.88
580.35	132.88
580.561	153.88
580.772	139.88
580.982	126.88
581.193	124.88
581.403	142.88
581.614	148.88
581.825	153.88
582.035	131.88
582.246	128.88
582.456	128.88
582.667	146.88
582.877	139.88
583.087	138.88
583.298	130.88
583.508	144.88
583.719	144.88
583.929	145.88
584.139	140.88
584.35	128.88
584.56	151.88
584.77	146.88
584.981	152.88
585.191	134.88
585.401	128.88
585.611	128.88
585.821	135.88
586.032	133.88
586.242	144.88
586.452	123.88
586.662	116.88
586.872	138.88
587.082	144.88
587.292	147.88
587.502	128.88
587.713	126.88
587.923	118.88
588.133	138.88
588.343	131.88
588.553	126.88
588.762	127.88
588.972	149.88
589.182	143.88
589.392	143.88
589.602	117.88
589.812	132.88
590.022	134.88
590.232	135.88
590.441	119.88
590.651	139.88
590.861	138.88
591.071	143.88
591.281	142.88
591.49	136.88
591.7	127.88
591.91	148.88
592.119	135.88
592.329	151.88
592.539	155.88
592.748	157.88
592.958	145.88
593.167	145.88
593.377	145.88
593.587	163.88
593.796	151.88
594.006	149.88
594.215	170.88
594.424	162.88
594.634	154.88
594.843	162.88
595.053	149.88
595.262	146.88
595.472	128.88
595.681	143.88
595.89	130.88
596.1	147.88
596.309	137.88
596.518	134.88
596.727	118.88
596.937	152.88
597.146	121.88
597.355	142.88
597.564	135.88
597.774	140.88
597.983	112.88
598.192	107.88
598.401	130.88
598.61	116.88
598.819	141.88
599.028	118.88
599.237	120.88
599.446	132.88
599.655	144.88
599.864	138.88
600.073	142.88
600.282	132.88
600.491	142.88
600.7	127.88
600.909	111.88
601.118	129.88
601.327	137.88
601.536	113.88
601.745	137.88
601.953	146.88
602.162	145.88
602.371	128.88
602.58	134.88
602.789	150.88
602.997	132.88
603.206	146.88
603.415	129.88
603.623	144.88
603.832	138.88
604.041	133.88
604.249	123.88
604.458	120.88
604.666	135.88
604.875	137.88
605.084	136.88
605.292	132.88
605.501	129.88
605.709	151.88
605.918	129.88
606.126	138.88
606.334	130.88
606.543	157.88
606.751	140.88
606.96	115.88
607.168	131.88
607.376	138.88
607.585	153.88
607.793	135.88
608.001	137.88
608.21	135.88
608.418	126.88
608.626	126.88
608.834	145.88
609.043	138.88
609.251	143.88
609.459	135.88
609.667	131.88
609.875	145.88
610.083	145.88
610.291	120.88
610.499	146.88
610.707	146.88
610.916	148.88
611.124	140.88
611.332	128.88
611.54	141.88
611.748	134.88
611.955	133.88
612.163	117.88
612.371	153.88
612.579	142.88
612.787	151.88
612.995	147.88
613.203	142.88
613.411	120.88
613.618	127.88
613.826	113.88
614.034	144.88
614.242	148.88
614.449	150.88
614.657	124.88
614.865	144.88
615.072	151.88
615.28	112.88
615.488	134.88
615.695	146.88
615.903	150.88
616.111	129.88
616.318	143.88
616.526	143.88
616.733	142.88
616.941	146.88
617.148	136.88
617.356	143.88
617.563	117.88
617.771	148.88
617.978	131.88
618.185	143.88
618.393	130.88
618.6	146.88
618.807	146.88
619.015	140.88
619.222	122.88
619.429	126.88
619.637	130.88
619.844	140.88
620.051	139.88
620.258	139.88
620.466	141.88
620.673	129.88
620.88	117.88
621.087	130.88
621.294	130.88
621.501	128.88
621.708	140.88
621.915	126.88
622.122	134.88
622.329	134.88
622.536	120.88
622.743	115.88
622.95	133.88
623.157	140.88
623.364	144.88
623.571	142.88
623.778	134.88
623.985	139.88
624.192	126.88
624.399	134.88
624.606	121.88
624.812	123.88
625.019	122.88
625.226	122.88
625.433	143.88
625.639	144.88
625.846	125.88
626.053	125.88
626.259	112.88
626.466	118.88
626.673	119.88
626.879	113.88
627.086	121.88
627.293	131.88
627.499	118.88
627.706	115.88
627.912	123.88
628.119	123.88
628.325	126.88
628.532	130.88
628.738	117.88
628.945	117.88
629.151	110.88
629.357	129.88
629.564	134.88
629.77	129.88
629.976	128.88
630.183	118.88
630.389	112.88
630.595	115.88
630.802	97.88
631.008	117.88
631.214	118.88
631.42	126.88
631.627	136.88
631.833	116.88
632.039	124.88
632.245	109.88
632.451	102.88
632.657	121.88
632.863	135.88
633.069	138.88
633.275	113.88
633.481	104.88
633.688	113.88
633.893	107.88
634.099	108.88
634.305	115.88
634.511	111.88
634.717	111.88
634.923	114.88
635.129	109.88
635.335	125.88
635.541	99.88
635.747	124.88
635.952	116.88
636.158	122.88
636.364	123.88
636.57	128.88
636.775	118.88
636.981	116.88
637.187	106.88
637.392	122.88
637.598	106.88
637.804	100.88
638.009	115.88
638.215	122.88
638.421	95.88
638.626	118.88
638.832	119.88
639.037	113.88
639.243	110.88
639.448	121.88
639.654	131.88
639.859	118.88
640.065	116.88
640.27	127.88
640.475	107.88
640.681	114.88
640.886	107.88
641.091	112.88
641.297	119.88
641.502	116.88
641.707	118.88
641.913	100.88
642.118	122.88
642.323	99.88
642.528	114.88
642.733	118.88
642.939	106.88
643.144	119.88
643.349	102.88
643.554	112.88
643.759	104.88
643.964	112.88
644.169	113.88
644.374	105.88
644.579	121.88
644.784	107.88
644.989	108.88
645.194	95.88
645.399	120.88
645.604	113.88
645.809	115.88
646.014	124.88
646.219	109.88
646.423	107.88
646.628	103.88
646.833	116.88
647.038	105.88
647.243	114.88
647.447	108.88
647.652	105.88
647.857	87.88
648.062	126.88
648.266	116.88
648.471	123.88
648.676	116.88
648.88	114.88
649.085	112.88
649.289	115.88
649.494	106.88
649.698	121.88
649.903	114.88
650.107	107.88
650.312	105.88
650.516	119.88
650.721	107.88
650.925	102.88
651.13	115.88
651.334	98.88
651.539	105.88
651.743	100.88
651.947	110.88
652.152	105.88
652.356	113.88
652.56	104.88
652.764	110.88
652.969	105.88
653.173	98.88
653.377	106.88
653.581	102.88
653.785	100.88
653.99	102.88
654.194	97.88
654.398	87.88
654.602	98.88
654.806	94.88
655.01	105.88
655.214	107.88
655.418	93.88
655.622	99.88
655.826	94.88
656.03	91.88
656.234	107.88
656.438	109.88
656.642	116.88
656.846	107.88
657.049	82.88
657.253	97.88
657.457	97.88
657.661	84.88
657.865	90.88
658.068	94.88
658.272	90.88
658.476	88.88
658.68	94.88
658.883	96.88
659.087	87.88
659.291	89.88
659.494	89.88
659.698	79.88
659.901	85.88
660.105	86.88
660.309	73.88
660.512	79.88
660.716	90.88
660.919	75.88
661.123	90.88
661.326	86.88
661.53	72.88
661.733	91.88
661.936	99.88
662.14	65.88
662.343	73.88
662.546	74.88
662.75	91.88
662.953	76.88
663.156	85.88
663.36	70.88
663.563	67.88
663.766	80.88
663.969	68.88
664.173	71.88
664.376	78.88
664.579	82.88
664.782	70.88
664.985	73.88
665.188	76.88
665.391	84.88
665.594	85.88
665.797	62.88
666	71.88
666.203	94.88
666.406	78.88
666.609	78.88
666.812	80.88
667.015	65.88
667.218	73.88
667.421	97.88
667.624	76.88
667.827	67.88
668.03	84.88
668.232	82.88
668.435	81.88
668.638	66.88
668.841	74.88
669.043	76.88
669.246	91.88
669.449	80.88
669.651	86.88
669.854	74.88
670.057	75.88
670.259	59.88
670.462	66.88
670.665	66.88
670.867	82.88
671.07	78.88
671.272	84.88
671.475	77.88
671.677	84.88
671.88	71.88
672.082	70.88
672.284	84.88
672.487	75.88
672.689	79.88
672.892	62.88
