Data from SampA_HRD10591_00098.txt Node
Date: Mon Jan 19 11:27:20 EST 2026
User: Yrep
Spectrometer: HR+D1059
Trigger mode: 0
Integration Time (sec): 3.443000E-1
Scans to average: 1
Electric dark correction enabled: true
Nonlinearity correction enabled: false
Boxcar width: 0
XAxis mode: Wavelengths
Number of Pixels in Spectrum: 2048
>>>>>Begin Spectral Data<<<<<
223.165	-33.5
223.4	-33.5
223.635	-33.5
223.869	-26.5
224.104	-31.5
224.338	-7.5
224.573	-24.5
224.808	-0.5
225.042	-5.5
225.277	-3.5
225.511	-0.5
225.746	15.5
225.98	10.5
226.215	16.5
226.449	15.5
226.683	21.5
226.918	31.5
227.152	22.5
227.387	44.5
227.621	54.5
227.856	48.5
228.09	49.5
228.324	40.5
228.559	50.5
228.793	47.5
229.027	67.5
229.262	68.5
229.496	74.5
229.73	80.5
229.964	90.5
230.199	70.5
230.433	87.5
230.667	79.5
230.901	89.5
231.136	95.5
231.37	85.5
231.604	96.5
231.838	82.5
232.072	98.5
232.306	81.5
232.541	86.5
232.775	87.5
233.009	90.5
233.243	93.5
233.477	95.5
233.711	87.5
233.945	86.5
234.179	73.5
234.413	97.5
234.647	88.5
234.881	80.5
235.115	90.5
235.349	78.5
235.583	91.5
235.817	80.5
236.051	91.5
236.285	86.5
236.519	79.5
236.753	72.5
236.987	88.5
237.221	74.5
237.455	95.5
237.689	77.5
237.922	78.5
238.156	69.5
238.39	69.5
238.624	87.5
238.858	85.5
239.091	73.5
239.325	86.5
239.559	74.5
239.793	89.5
240.027	96.5
240.26	87.5
240.494	95.5
240.728	78.5
240.961	83.5
241.195	72.5
241.429	86.5
241.662	86.5
241.896	82.5
242.13	76.5
242.363	75.5
242.597	84.5
242.83	91.5
243.064	82.5
243.298	89.5
243.531	84.5
243.765	86.5
243.998	83.5
244.232	94.5
244.465	82.5
244.699	83.5
244.932	83.5
245.166	85.5
245.399	83.5
245.633	87.5
245.866	84.5
246.099	83.5
246.333	85.5
246.566	90.5
246.8	87.5
247.033	82.5
247.266	87.5
247.5	85.5
247.733	88.5
247.966	79.5
248.2	88.5
248.433	81.5
248.666	88.5
248.899	68.5
249.133	85.5
249.366	108.5
249.599	100.5
249.832	78.5
250.066	105.5
250.299	107.5
250.532	81.5
250.765	91.5
250.998	89.5
251.231	95.5
251.465	85.5
251.698	94.5
251.931	100.5
252.164	86.5
252.397	88.5
252.63	101.5
252.863	86.5
253.096	103.5
253.329	107.5
253.562	102.5
253.795	95.5
254.028	108.5
254.261	90.5
254.494	107.5
254.727	116.5
254.96	100.5
255.193	107.5
255.426	97.5
255.659	90.5
255.892	96.5
256.124	100.5
256.357	98.5
256.59	100.5
256.823	92.5
257.056	106.5
257.289	96.5
257.521	74.5
257.754	94.5
257.987	82.5
258.22	96.5
258.452	101.5
258.685	86.5
258.918	96.5
259.151	102.5
259.383	103.5
259.616	89.5
259.849	102.5
260.081	100.5
260.314	90.5
260.547	98.5
260.779	100.5
261.012	99.5
261.244	87.5
261.477	98.5
261.71	98.5
261.942	86.5
262.175	92.5
262.407	109.5
262.64	90.5
262.872	99.5
263.105	106.5
263.337	95.5
263.57	106.5
263.802	93.5
264.035	106.5
264.267	94.5
264.499	87.5
264.732	103.5
264.964	102.5
265.197	105.5
265.429	95.5
265.661	91.5
265.894	102.5
266.126	122.5
266.358	110.5
266.591	104.5
266.823	110.5
267.055	117.5
267.287	108.5
267.52	97.5
267.752	103.5
267.984	104.5
268.216	96.5
268.448	106.5
268.681	107.5
268.913	101.5
269.145	98.5
269.377	111.5
269.609	98.5
269.841	90.5
270.073	99.5
270.306	102.5
270.538	105.5
270.77	102.5
271.002	111.5
271.234	105.5
271.466	111.5
271.698	106.5
271.93	110.5
272.162	105.5
272.394	122.5
272.626	99.5
272.858	110.5
273.09	103.5
273.322	108.5
273.553	100.5
273.785	110.5
274.017	86.5
274.249	107.5
274.481	95.5
274.713	104.5
274.945	116.5
275.176	124.5
275.408	105.5
275.64	114.5
275.872	111.5
276.104	106.5
276.335	108.5
276.567	117.5
276.799	110.5
277.031	100.5
277.262	108.5
277.494	106.5
277.726	113.5
277.957	112.5
278.189	115.5
278.421	98.5
278.652	105.5
278.884	110.5
279.115	94.5
279.347	117.5
279.579	116.5
279.81	105.5
280.042	123.5
280.273	100.5
280.505	105.5
280.736	112.5
280.968	110.5
281.199	109.5
281.431	114.5
281.662	118.5
281.894	103.5
282.125	95.5
282.356	110.5
282.588	102.5
282.819	119.5
283.051	117.5
283.282	107.5
283.513	115.5
283.745	107.5
283.976	112.5
284.207	132.5
284.439	127.5
284.67	106.5
284.901	109.5
285.132	120.5
285.364	120.5
285.595	121.5
285.826	123.5
286.057	123.5
286.288	125.5
286.52	133.5
286.751	107.5
286.982	126.5
287.213	118.5
287.444	121.5
287.675	110.5
287.906	96.5
288.138	103.5
288.369	114.5
288.6	116.5
288.831	126.5
289.062	123.5
289.293	106.5
289.524	118.5
289.755	117.5
289.986	114.5
290.217	113.5
290.448	118.5
290.679	124.5
290.91	121.5
291.141	122.5
291.371	130.5
291.602	114.5
291.833	111.5
292.064	123.5
292.295	134.5
292.526	126.5
292.757	128.5
292.987	100.5
293.218	110.5
293.449	115.5
293.68	111.5
293.91	119.5
294.141	132.5
294.372	127.5
294.603	123.5
294.833	116.5
295.064	120.5
295.295	115.5
295.525	136.5
295.756	115.5
295.987	106.5
296.217	115.5
296.448	117.5
296.679	120.5
296.909	127.5
297.14	135.5
297.37	125.5
297.601	127.5
297.831	115.5
298.062	122.5
298.292	123.5
298.523	125.5
298.753	138.5
298.984	130.5
299.214	114.5
299.445	125.5
299.675	127.5
299.905	133.5
300.136	111.5
300.366	113.5
300.597	117.5
300.827	122.5
301.057	117.5
301.288	116.5
301.518	134.5
301.748	119.5
301.979	165.5
302.209	109.5
302.439	129.5
302.669	123.5
302.9	125.5
303.13	136.5
303.36	135.5
303.59	126.5
303.82	118.5
304.051	119.5
304.281	130.5
304.511	135.5
304.741	151.5
304.971	140.5
305.201	140.5
305.431	119.5
305.661	138.5
305.891	130.5
306.121	128.5
306.352	108.5
306.582	130.5
306.812	122.5
307.042	120.5
307.272	137.5
307.502	122.5
307.731	136.5
307.961	132.5
308.191	128.5
308.421	117.5
308.651	117.5
308.881	142.5
309.111	135.5
309.341	124.5
309.571	132.5
309.8	123.5
310.03	122.5
310.26	130.5
310.49	124.5
310.72	119.5
310.949	120.5
311.179	128.5
311.409	131.5
311.639	124.5
311.868	130.5
312.098	140.5
312.328	130.5
312.557	131.5
312.787	121.5
313.017	119.5
313.246	132.5
313.476	118.5
313.706	126.5
313.935	125.5
314.165	133.5
314.394	129.5
314.624	126.5
314.853	149.5
315.083	134.5
315.312	122.5
315.542	119.5
315.771	138.5
316.001	144.5
316.23	127.5
316.46	124.5
316.689	129.5
316.919	143.5
317.148	142.5
317.377	144.5
317.607	124.5
317.836	132.5
318.065	125.5
318.295	127.5
318.524	129.5
318.753	130.5
318.983	131.5
319.212	125.5
319.441	136.5
319.67	133.5
319.9	129.5
320.129	119.5
320.358	144.5
320.587	142.5
320.816	138.5
321.046	130.5
321.275	135.5
321.504	109.5
321.733	138.5
321.962	118.5
322.191	125.5
322.42	133.5
322.649	143.5
322.878	123.5
323.108	133.5
323.337	133.5
323.566	141.5
323.795	143.5
324.024	132.5
324.253	132.5
324.482	124.5
324.71	139.5
324.939	145.5
325.168	143.5
325.397	140.5
325.626	141.5
325.855	124.5
326.084	127.5
326.313	134.5
326.542	130.5
326.77	133.5
326.999	130.5
327.228	127.5
327.457	130.5
327.686	144.5
327.914	145.5
328.143	146.5
328.372	139.5
328.6	136.5
328.829	130.5
329.058	123.5
329.287	134.5
329.515	134.5
329.744	128.5
329.972	126.5
330.201	126.5
330.43	142.5
330.658	130.5
330.887	147.5
331.115	134.5
331.344	145.5
331.572	156.5
331.801	147.5
332.03	148.5
332.258	149.5
332.486	146.5
332.715	139.5
332.943	147.5
333.172	161.5
333.4	152.5
333.629	167.5
333.857	161.5
334.085	172.5
334.314	172.5
334.542	160.5
334.771	164.5
334.999	163.5
335.227	161.5
335.455	153.5
335.684	157.5
335.912	169.5
336.14	155.5
336.369	154.5
336.597	162.5
336.825	150.5
337.053	148.5
337.281	161.5
337.51	148.5
337.738	150.5
337.966	136.5
338.194	138.5
338.422	151.5
338.65	160.5
338.878	144.5
339.106	151.5
339.334	153.5
339.562	146.5
339.79	153.5
340.018	144.5
340.246	134.5
340.474	141.5
340.702	138.5
340.93	120.5
341.158	126.5
341.386	127.5
341.614	132.5
341.842	128.5
342.07	130.5
342.298	149.5
342.526	132.5
342.754	135.5
342.981	166.5
343.209	153.5
343.437	177.5
343.665	149.5
343.893	158.5
344.12	144.5
344.348	137.5
344.576	150.5
344.804	150.5
345.031	143.5
345.259	158.5
345.487	140.5
345.714	134.5
345.942	122.5
346.17	136.5
346.397	148.5
346.625	136.5
346.853	130.5
347.08	127.5
347.308	138.5
347.535	130.5
347.763	151.5
347.99	137.5
348.218	131.5
348.445	134.5
348.673	143.5
348.9	150.5
349.128	150.5
349.355	135.5
349.583	144.5
349.81	137.5
350.037	131.5
350.265	143.5
350.492	146.5
350.72	126.5
350.947	132.5
351.174	134.5
351.402	139.5
351.629	134.5
351.856	146.5
352.083	122.5
352.311	138.5
352.538	143.5
352.765	127.5
352.992	148.5
353.22	134.5
353.447	130.5
353.674	130.5
353.901	121.5
354.128	134.5
354.355	138.5
354.583	126.5
354.81	133.5
355.037	130.5
355.264	151.5
355.491	144.5
355.718	143.5
355.945	137.5
356.172	117.5
356.399	136.5
356.626	124.5
356.853	134.5
357.08	146.5
357.307	138.5
357.534	134.5
357.761	147.5
357.988	140.5
358.215	147.5
358.441	136.5
358.668	136.5
358.895	115.5
359.122	139.5
359.349	155.5
359.576	144.5
359.802	128.5
360.029	142.5
360.256	134.5
360.483	140.5
360.709	132.5
360.936	139.5
361.163	140.5
361.39	139.5
361.616	131.5
361.843	128.5
362.07	143.5
362.296	151.5
362.523	125.5
362.749	130.5
362.976	134.5
363.203	142.5
363.429	127.5
363.656	130.5
363.882	126.5
364.109	141.5
364.335	139.5
364.562	119.5
364.788	135.5
365.015	148.5
365.241	130.5
365.468	143.5
365.694	126.5
365.92	134.5
366.147	147.5
366.373	138.5
366.599	131.5
366.826	147.5
367.052	145.5
367.278	136.5
367.505	155.5
367.731	169.5
367.957	136.5
368.184	132.5
368.41	141.5
368.636	140.5
368.862	145.5
369.089	139.5
369.315	119.5
369.541	152.5
369.767	154.5
369.993	139.5
370.219	124.5
370.445	156.5
370.672	148.5
370.898	146.5
371.124	136.5
371.35	147.5
371.576	139.5
371.802	140.5
372.028	141.5
372.254	132.5
372.48	126.5
372.706	148.5
372.932	138.5
373.158	150.5
373.384	144.5
373.61	151.5
373.835	143.5
374.061	152.5
374.287	154.5
374.513	162.5
374.739	141.5
374.965	147.5
375.191	150.5
375.416	165.5
375.642	157.5
375.868	174.5
376.094	137.5
376.319	151.5
376.545	167.5
376.771	149.5
376.997	137.5
377.222	149.5
377.448	138.5
377.674	150.5
377.899	132.5
378.125	139.5
378.35	143.5
378.576	152.5
378.802	146.5
379.027	162.5
379.253	167.5
379.478	156.5
379.704	142.5
379.929	146.5
380.155	150.5
380.38	135.5
380.606	158.5
380.831	148.5
381.057	152.5
381.282	146.5
381.507	131.5
381.733	137.5
381.958	157.5
382.184	140.5
382.409	157.5
382.634	146.5
382.86	154.5
383.085	159.5
383.31	155.5
383.535	174.5
383.761	150.5
383.986	156.5
384.211	158.5
384.436	166.5
384.662	167.5
384.887	163.5
385.112	166.5
385.337	171.5
385.562	178.5
385.787	173.5
386.013	170.5
386.238	180.5
386.463	176.5
386.688	194.5
386.913	170.5
387.138	177.5
387.363	190.5
387.588	171.5
387.813	171.5
388.038	155.5
388.263	172.5
388.488	154.5
388.713	177.5
388.938	189.5
389.163	176.5
389.387	186.5
389.612	172.5
389.837	176.5
390.062	165.5
390.287	185.5
390.512	175.5
390.736	170.5
390.961	190.5
391.186	202.5
391.411	175.5
391.636	188.5
391.86	178.5
392.085	186.5
392.31	191.5
392.534	187.5
392.759	207.5
392.984	204.5
393.208	204.5
393.433	206.5
393.658	198.5
393.882	195.5
394.107	185.5
394.331	184.5
394.556	196.5
394.78	182.5
395.005	190.5
395.229	213.5
395.454	220.5
395.678	206.5
395.903	214.5
396.127	198.5
396.352	195.5
396.576	175.5
396.801	210.5
397.025	210.5
397.249	207.5
397.474	220.5
397.698	204.5
397.922	221.5
398.147	207.5
398.371	198.5
398.595	219.5
398.82	231.5
399.044	233.5
399.268	277.5
399.492	298.5
399.717	324.5
399.941	294.5
400.165	269.5
400.389	259.5
400.613	253.5
400.837	236.5
401.062	242.5
401.286	239.5
401.51	250.5
401.734	238.5
401.958	251.5
402.182	235.5
402.406	258.5
402.63	256.5
402.854	267.5
403.078	259.5
403.302	248.5
403.526	273.5
403.75	272.5
403.974	281.5
404.198	294.5
404.422	263.5
404.645	299.5
404.869	265.5
405.093	288.5
405.317	274.5
405.541	272.5
405.765	266.5
405.988	255.5
406.212	279.5
406.436	280.5
406.66	288.5
406.883	286.5
407.107	291.5
407.331	301.5
407.555	327.5
407.778	310.5
408.002	281.5
408.226	297.5
408.449	293.5
408.673	288.5
408.896	313.5
409.12	281.5
409.344	296.5
409.567	294.5
409.791	302.5
410.014	300.5
410.238	304.5
410.461	289.5
410.685	284.5
410.908	298.5
411.132	282.5
411.355	274.5
411.578	269.5
411.802	275.5
412.025	286.5
412.249	295.5
412.472	281.5
412.695	285.5
412.919	279.5
413.142	284.5
413.365	294.5
413.589	280.5
413.812	269.5
414.035	277.5
414.258	272.5
414.482	276.5
414.705	290.5
414.928	289.5
415.151	254.5
415.374	292.5
415.597	289.5
415.821	287.5
416.044	296.5
416.267	298.5
416.49	275.5
416.713	284.5
416.936	298.5
417.159	285.5
417.382	278.5
417.605	275.5
417.828	301.5
418.051	266.5
418.274	280.5
418.497	287.5
418.72	309.5
418.943	301.5
419.166	311.5
419.389	326.5
419.611	319.5
419.834	302.5
420.057	306.5
420.28	287.5
420.503	311.5
420.726	311.5
420.948	301.5
421.171	294.5
421.394	283.5
421.617	317.5
421.839	307.5
422.062	299.5
422.285	318.5
422.507	295.5
422.73	297.5
422.953	304.5
423.175	287.5
423.398	332.5
423.621	308.5
423.843	328.5
424.066	313.5
424.288	312.5
424.511	308.5
424.733	315.5
424.956	311.5
425.178	304.5
425.401	290.5
425.623	303.5
425.846	279.5
426.068	280.5
426.291	299.5
426.513	268.5
426.735	255.5
426.958	276.5
427.18	276.5
427.402	283.5
427.625	281.5
427.847	276.5
428.069	267.5
428.292	282.5
428.514	276.5
428.736	266.5
428.958	275.5
429.181	280.5
429.403	269.5
429.625	270.5
429.847	274.5
430.069	259.5
430.292	268.5
430.514	278.5
430.736	257.5
430.958	274.5
431.18	275.5
431.402	255.5
431.624	261.5
431.846	248.5
432.068	230.5
432.29	239.5
432.512	259.5
432.734	252.5
432.956	281.5
433.178	278.5
433.4	280.5
433.622	270.5
433.844	270.5
434.066	268.5
434.287	249.5
434.509	230.5
434.731	251.5
434.953	279.5
435.175	286.5
435.397	284.5
435.618	250.5
435.84	240.5
436.062	248.5
436.284	265.5
436.505	284.5
436.727	282.5
436.949	257.5
437.17	268.5
437.392	272.5
437.614	249.5
437.835	248.5
438.057	229.5
438.278	256.5
438.5	274.5
438.721	274.5
438.943	277.5
439.165	265.5
439.386	298.5
439.608	276.5
439.829	292.5
440.05	293.5
440.272	302.5
440.493	294.5
440.715	282.5
440.936	283.5
441.158	302.5
441.379	292.5
441.6	327.5
441.822	317.5
442.043	305.5
442.264	309.5
442.486	306.5
442.707	302.5
442.928	293.5
443.149	280.5
443.371	310.5
443.592	310.5
443.813	311.5
444.034	297.5
444.255	315.5
444.476	328.5
444.698	338.5
444.919	344.5
445.14	526.5
445.361	420.5
445.582	356.5
445.803	329.5
446.024	312.5
446.245	312.5
446.466	309.5
446.687	300.5
446.908	308.5
447.129	317.5
447.35	299.5
447.571	302.5
447.792	278.5
448.013	258.5
448.234	280.5
448.455	281.5
448.675	276.5
448.896	274.5
449.117	288.5
449.338	266.5
449.559	279.5
449.779	271.5
450	261.5
450.221	244.5
450.442	274.5
450.662	275.5
450.883	263.5
451.104	269.5
451.324	272.5
451.545	259.5
451.766	282.5
451.986	254.5
452.207	264.5
452.428	245.5
452.648	263.5
452.869	263.5
453.089	234.5
453.31	244.5
453.53	236.5
453.751	219.5
453.971	238.5
454.192	231.5
454.412	214.5
454.633	228.5
454.853	240.5
455.073	254.5
455.294	256.5
455.514	258.5
455.734	245.5
455.955	231.5
456.175	226.5
456.395	242.5
456.616	237.5
456.836	230.5
457.056	223.5
457.276	232.5
457.497	216.5
457.717	220.5
457.937	229.5
458.157	218.5
458.377	212.5
458.598	219.5
458.818	216.5
459.038	202.5
459.258	237.5
459.478	226.5
459.698	217.5
459.918	247.5
460.138	256.5
460.358	267.5
460.578	278.5
460.798	269.5
461.018	285.5
461.238	263.5
461.458	283.5
461.678	268.5
461.898	264.5
462.118	267.5
462.338	290.5
462.558	287.5
462.777	298.5
462.997	330.5
463.217	336.5
463.437	335.5
463.657	306.5
463.876	286.5
464.096	307.5
464.316	300.5
464.536	284.5
464.755	303.5
464.975	278.5
465.195	296.5
465.414	294.5
465.634	251.5
465.854	269.5
466.073	247.5
466.293	250.5
466.512	260.5
466.732	261.5
466.951	280.5
467.171	273.5
467.391	272.5
467.61	274.5
467.829	269.5
468.049	268.5
468.268	266.5
468.488	263.5
468.707	254.5
468.927	253.5
469.146	242.5
469.365	264.5
469.585	274.5
469.804	273.5
470.023	272.5
470.243	292.5
470.462	294.5
470.681	267.5
470.901	286.5
471.12	268.5
471.339	280.5
471.558	273.5
471.777	261.5
471.997	262.5
472.216	250.5
472.435	242.5
472.654	234.5
472.873	237.5
473.092	237.5
473.311	255.5
473.53	251.5
473.749	249.5
473.968	254.5
474.187	251.5
474.406	258.5
474.625	268.5
474.844	244.5
475.063	260.5
475.282	247.5
475.501	247.5
475.72	244.5
475.939	254.5
476.158	259.5
476.377	260.5
476.596	241.5
476.814	260.5
477.033	232.5
477.252	243.5
477.471	268.5
477.69	254.5
477.908	278.5
478.127	312.5
478.346	283.5
478.564	287.5
478.783	290.5
479.002	308.5
479.22	294.5
479.439	294.5
479.658	272.5
479.876	259.5
480.095	265.5
480.313	270.5
480.532	285.5
480.751	262.5
480.969	239.5
481.188	232.5
481.406	227.5
481.624	226.5
481.843	225.5
482.061	234.5
482.28	241.5
482.498	253.5
482.717	242.5
482.935	267.5
483.153	288.5
483.372	287.5
483.59	263.5
483.808	260.5
484.027	266.5
484.245	267.5
484.463	275.5
484.681	313.5
484.9	280.5
485.118	276.5
485.336	271.5
485.554	268.5
485.772	245.5
485.99	260.5
486.209	249.5
486.427	263.5
486.645	268.5
486.863	304.5
487.081	291.5
487.299	273.5
487.517	295.5
487.735	318.5
487.953	343.5
488.171	328.5
488.389	319.5
488.607	304.5
488.825	307.5
489.043	268.5
489.261	270.5
489.479	285.5
489.696	277.5
489.914	286.5
490.132	299.5
490.35	325.5
490.568	326.5
490.786	344.5
491.003	335.5
491.221	323.5
491.439	367.5
491.657	343.5
491.874	394.5
492.092	389.5
492.31	412.5
492.527	412.5
492.745	375.5
492.963	351.5
493.18	370.5
493.398	376.5
493.615	369.5
493.833	361.5
494.05	346.5
494.268	354.5
494.485	344.5
494.703	342.5
494.92	350.5
495.138	325.5
495.355	355.5
495.573	344.5
495.79	332.5
496.008	345.5
496.225	339.5
496.442	345.5
496.66	350.5
496.877	331.5
497.094	349.5
497.312	357.5
497.529	327.5
497.746	331.5
497.963	343.5
498.181	319.5
498.398	331.5
498.615	323.5
498.832	332.5
499.049	388.5
499.267	425.5
499.484	430.5
499.701	480.5
499.918	546.5
500.135	584.5
500.352	651.5
500.569	656.5
500.786	660.5
501.003	618.5
501.22	541.5
501.437	492.5
501.654	464.5
501.871	415.5
502.088	392.5
502.305	375.5
502.522	373.5
502.739	355.5
502.956	320.5
503.172	326.5
503.389	306.5
503.606	293.5
503.823	314.5
504.04	336.5
504.256	316.5
504.473	310.5
504.69	321.5
504.907	334.5
505.123	287.5
505.34	280.5
505.557	279.5
505.773	285.5
505.99	275.5
506.207	251.5
506.423	244.5
506.64	258.5
506.856	250.5
507.073	241.5
507.289	252.5
507.506	273.5
507.722	254.5
507.939	260.5
508.155	249.5
508.372	242.5
508.588	231.5
508.805	236.5
509.021	238.5
509.238	227.5
509.454	255.5
509.67	215.5
509.887	228.5
510.103	215.5
510.319	212.5
510.536	219.5
510.752	213.5
510.968	190.5
511.184	205.5
511.401	199.5
511.617	204.5
511.833	189.5
512.049	223.5
512.265	219.5
512.481	223.5
512.698	227.5
512.914	219.5
513.13	210.5
513.346	220.5
513.562	223.5
513.778	236.5
513.994	218.5
514.21	208.5
514.426	215.5
514.642	242.5
514.858	226.5
515.074	217.5
515.29	224.5
515.506	220.5
515.721	218.5
515.937	223.5
516.153	219.5
516.369	220.5
516.585	231.5
516.801	236.5
517.016	242.5
517.232	275.5
517.448	276.5
517.664	300.5
517.879	270.5
518.095	286.5
518.311	278.5
518.527	247.5
518.742	248.5
518.958	263.5
519.173	254.5
519.389	251.5
519.605	260.5
519.82	234.5
520.036	234.5
520.251	225.5
520.467	230.5
520.682	238.5
520.898	210.5
521.113	198.5
521.329	226.5
521.544	206.5
521.76	229.5
521.975	215.5
522.19	220.5
522.406	226.5
522.621	205.5
522.836	213.5
523.052	223.5
523.267	233.5
523.482	230.5
523.698	229.5
523.913	222.5
524.128	238.5
524.343	238.5
524.559	255.5
524.774	243.5
524.989	238.5
525.204	225.5
525.419	223.5
525.634	228.5
525.849	209.5
526.064	224.5
526.28	211.5
526.495	197.5
526.71	200.5
526.925	210.5
527.14	188.5
527.355	191.5
527.57	211.5
527.785	190.5
527.999	215.5
528.214	214.5
528.429	227.5
528.644	241.5
528.859	251.5
529.074	270.5
529.289	298.5
529.503	255.5
529.718	250.5
529.933	221.5
530.148	221.5
530.363	215.5
530.577	196.5
530.792	187.5
531.007	195.5
531.221	202.5
531.436	190.5
531.651	181.5
531.865	200.5
532.08	195.5
532.295	206.5
532.509	191.5
532.724	212.5
532.938	200.5
533.153	203.5
533.367	228.5
533.582	234.5
533.796	226.5
534.011	229.5
534.225	216.5
534.44	204.5
534.654	218.5
534.868	181.5
535.083	203.5
535.297	226.5
535.511	228.5
535.726	222.5
535.94	201.5
536.154	186.5
536.369	189.5
536.583	176.5
536.797	203.5
537.011	199.5
537.225	186.5
537.44	194.5
537.654	201.5
537.868	196.5
538.082	181.5
538.296	204.5
538.51	196.5
538.724	222.5
538.938	221.5
539.153	222.5
539.367	229.5
539.581	213.5
539.795	204.5
540.009	198.5
540.222	202.5
540.436	205.5
540.65	222.5
540.864	225.5
541.078	237.5
541.292	273.5
541.506	271.5
541.72	285.5
541.934	298.5
542.147	313.5
542.361	295.5
542.575	277.5
542.789	255.5
543.002	230.5
543.216	245.5
543.43	229.5
543.644	252.5
543.857	247.5
544.071	270.5
544.285	287.5
544.498	285.5
544.712	297.5
544.925	279.5
545.139	290.5
545.352	274.5
545.566	293.5
545.779	285.5
545.993	293.5
546.206	277.5
546.42	288.5
546.633	302.5
546.847	283.5
547.06	287.5
547.274	288.5
547.487	297.5
547.7	310.5
547.914	281.5
548.127	283.5
548.34	298.5
548.554	290.5
548.767	278.5
548.98	269.5
549.193	265.5
549.407	274.5
549.62	279.5
549.833	289.5
550.046	282.5
550.259	252.5
550.473	282.5
550.686	294.5
550.899	264.5
551.112	270.5
551.325	255.5
551.538	250.5
551.751	236.5
551.964	231.5
552.177	239.5
552.39	263.5
552.603	276.5
552.816	264.5
553.029	290.5
553.242	295.5
553.455	301.5
553.667	315.5
553.88	283.5
554.093	286.5
554.306	292.5
554.519	257.5
554.732	269.5
554.944	263.5
555.157	245.5
555.37	243.5
555.583	264.5
555.795	251.5
556.008	247.5
556.221	234.5
556.433	243.5
556.646	232.5
556.859	229.5
557.071	236.5
557.284	231.5
557.496	231.5
557.709	225.5
557.921	239.5
558.134	253.5
558.346	233.5
558.559	239.5
558.771	219.5
558.984	223.5
559.196	238.5
559.409	223.5
559.621	220.5
559.833	223.5
560.046	217.5
560.258	228.5
560.47	219.5
560.683	222.5
560.895	228.5
561.107	225.5
561.32	223.5
561.532	228.5
561.744	230.5
561.956	243.5
562.168	233.5
562.381	228.5
562.593	211.5
562.805	208.5
563.017	224.5
563.229	224.5
563.441	200.5
563.653	214.5
563.865	218.5
564.077	216.5
564.289	206.5
564.501	230.5
564.713	204.5
564.925	212.5
565.137	214.5
565.349	219.5
565.561	215.5
565.773	230.5
565.985	230.5
566.197	222.5
566.408	249.5
566.62	248.5
566.832	270.5
567.044	292.5
567.255	285.5
567.467	276.5
567.679	280.5
567.891	299.5
568.102	294.5
568.314	260.5
568.526	250.5
568.737	234.5
568.949	217.5
569.161	195.5
569.372	206.5
569.584	188.5
569.795	195.5
570.007	170.5
570.218	188.5
570.43	178.5
570.641	189.5
570.853	190.5
571.064	198.5
571.276	190.5
571.487	192.5
571.698	183.5
571.91	176.5
572.121	179.5
572.333	166.5
572.544	166.5
572.755	160.5
572.966	164.5
573.178	166.5
573.389	154.5
573.6	160.5
573.811	148.5
574.023	143.5
574.234	147.5
574.445	156.5
574.656	165.5
574.867	165.5
575.078	175.5
575.289	154.5
575.501	172.5
575.712	161.5
575.923	156.5
576.134	158.5
576.345	154.5
576.556	176.5
576.767	172.5
576.978	165.5
577.188	171.5
577.399	150.5
577.61	150.5
577.821	150.5
578.032	168.5
578.243	158.5
578.454	173.5
578.665	157.5
578.875	145.5
579.086	137.5
579.297	150.5
579.508	150.5
579.718	135.5
579.929	156.5
580.14	150.5
580.35	156.5
580.561	151.5
580.772	153.5
580.982	154.5
581.193	143.5
581.403	158.5
581.614	146.5
581.825	143.5
582.035	143.5
582.246	167.5
582.456	140.5
582.667	149.5
582.877	161.5
583.087	151.5
583.298	142.5
583.508	139.5
583.719	163.5
583.929	147.5
584.139	147.5
584.35	142.5
584.56	150.5
584.77	141.5
584.981	145.5
585.191	147.5
585.401	146.5
585.611	152.5
585.821	150.5
586.032	131.5
586.242	143.5
586.452	137.5
586.662	137.5
586.872	124.5
587.082	142.5
587.292	147.5
587.502	143.5
587.713	131.5
587.923	140.5
588.133	138.5
588.343	143.5
588.553	140.5
588.762	140.5
588.972	152.5
589.182	146.5
589.392	157.5
589.602	143.5
589.812	141.5
590.022	151.5
590.232	130.5
590.441	130.5
590.651	135.5
590.861	130.5
591.071	136.5
591.281	169.5
591.49	138.5
591.7	146.5
591.91	171.5
592.119	159.5
592.329	139.5
592.539	133.5
592.748	162.5
592.958	155.5
593.167	166.5
593.377	169.5
593.587	186.5
593.796	158.5
594.006	169.5
594.215	155.5
594.424	160.5
594.634	164.5
594.843	160.5
595.053	167.5
595.262	166.5
595.472	151.5
595.681	150.5
595.89	158.5
596.1	138.5
596.309	139.5
596.518	153.5
596.727	172.5
596.937	147.5
597.146	150.5
597.355	133.5
597.564	138.5
597.774	150.5
597.983	119.5
598.192	147.5
598.401	139.5
598.61	154.5
598.819	138.5
599.028	131.5
599.237	154.5
599.446	142.5
599.655	130.5
599.864	131.5
600.073	138.5
600.282	133.5
600.491	126.5
600.7	119.5
600.909	148.5
601.118	145.5
601.327	154.5
601.536	154.5
601.745	141.5
601.953	145.5
602.162	157.5
602.371	134.5
602.58	135.5
602.789	160.5
602.997	159.5
603.206	152.5
603.415	158.5
603.623	127.5
603.832	164.5
604.041	146.5
604.249	141.5
604.458	142.5
604.666	140.5
604.875	136.5
605.084	154.5
605.292	146.5
605.501	155.5
605.709	158.5
605.918	160.5
606.126	156.5
606.334	165.5
606.543	148.5
606.751	179.5
606.96	166.5
607.168	153.5
607.376	155.5
607.585	156.5
607.793	153.5
608.001	149.5
608.21	149.5
608.418	153.5
608.626	155.5
608.834	157.5
609.043	150.5
609.251	157.5
609.459	148.5
609.667	158.5
609.875	154.5
610.083	158.5
610.291	158.5
610.499	159.5
610.707	160.5
610.916	160.5
611.124	175.5
611.332	149.5
611.54	139.5
611.748	161.5
611.955	146.5
612.163	165.5
612.371	151.5
612.579	136.5
612.787	140.5
612.995	168.5
613.203	165.5
613.411	158.5
613.618	146.5
613.826	147.5
614.034	170.5
614.242	160.5
614.449	154.5
614.657	138.5
614.865	170.5
615.072	163.5
615.28	152.5
615.488	147.5
615.695	146.5
615.903	162.5
616.111	161.5
616.318	185.5
616.526	158.5
616.733	152.5
616.941	133.5
617.148	150.5
617.356	155.5
617.563	149.5
617.771	165.5
617.978	137.5
618.185	146.5
618.393	150.5
618.6	142.5
618.807	126.5
619.015	159.5
619.222	160.5
619.429	148.5
619.637	132.5
619.844	148.5
620.051	135.5
620.258	144.5
620.466	132.5
620.673	144.5
620.88	140.5
621.087	142.5
621.294	154.5
621.501	143.5
621.708	122.5
621.915	146.5
622.122	145.5
622.329	137.5
622.536	150.5
622.743	130.5
622.95	140.5
623.157	124.5
623.364	137.5
623.571	122.5
623.778	148.5
623.985	152.5
624.192	156.5
624.399	142.5
624.606	156.5
624.812	146.5
625.019	141.5
625.226	123.5
625.433	146.5
625.639	138.5
625.846	119.5
626.053	121.5
626.259	121.5
626.466	128.5
626.673	111.5
626.879	108.5
627.086	134.5
627.293	128.5
627.499	148.5
627.706	136.5
627.912	140.5
628.119	128.5
628.325	148.5
628.532	146.5
628.738	127.5
628.945	138.5
629.151	136.5
629.357	121.5
629.564	118.5
629.77	126.5
629.976	114.5
630.183	131.5
630.389	134.5
630.595	131.5
630.802	145.5
631.008	126.5
631.214	122.5
631.42	134.5
631.627	131.5
631.833	121.5
632.039	127.5
632.245	123.5
632.451	127.5
632.657	126.5
632.863	116.5
633.069	129.5
633.275	125.5
633.481	123.5
633.688	133.5
633.893	144.5
634.099	134.5
634.305	124.5
634.511	125.5
634.717	118.5
634.923	119.5
635.129	120.5
635.335	110.5
635.541	119.5
635.747	127.5
635.952	115.5
636.158	131.5
636.364	121.5
636.57	130.5
636.775	141.5
636.981	127.5
637.187	120.5
637.392	115.5
637.598	107.5
637.804	121.5
638.009	112.5
638.215	130.5
638.421	135.5
638.626	129.5
638.832	122.5
639.037	134.5
639.243	115.5
639.448	137.5
639.654	133.5
639.859	111.5
640.065	117.5
640.27	122.5
640.475	124.5
640.681	114.5
640.886	112.5
641.091	121.5
641.297	125.5
641.502	125.5
641.707	116.5
641.913	123.5
642.118	117.5
642.323	120.5
642.528	131.5
642.733	125.5
642.939	130.5
643.144	120.5
643.349	114.5
643.554	130.5
643.759	111.5
643.964	110.5
644.169	118.5
644.374	110.5
644.579	130.5
644.784	124.5
644.989	130.5
645.194	128.5
645.399	120.5
645.604	109.5
645.809	120.5
646.014	122.5
646.219	121.5
646.423	124.5
646.628	103.5
646.833	133.5
647.038	129.5
647.243	121.5
647.447	136.5
647.652	124.5
647.857	114.5
648.062	124.5
648.266	126.5
648.471	111.5
648.676	114.5
648.88	116.5
649.085	126.5
649.289	127.5
649.494	131.5
649.698	119.5
649.903	124.5
650.107	128.5
650.312	141.5
650.516	114.5
650.721	108.5
650.925	104.5
651.13	110.5
651.334	114.5
651.539	114.5
651.743	128.5
651.947	113.5
652.152	117.5
652.356	114.5
652.56	112.5
652.764	108.5
652.969	112.5
653.173	109.5
653.377	131.5
653.581	114.5
653.785	111.5
653.99	109.5
654.194	122.5
654.398	106.5
654.602	106.5
654.806	88.5
655.01	116.5
655.214	98.5
655.418	101.5
655.622	110.5
655.826	107.5
656.03	96.5
656.234	99.5
656.438	127.5
656.642	95.5
656.846	92.5
657.049	103.5
657.253	103.5
657.457	104.5
657.661	109.5
657.865	102.5
658.068	90.5
658.272	84.5
658.476	103.5
658.68	79.5
658.883	85.5
659.087	91.5
659.291	99.5
659.494	92.5
659.698	86.5
659.901	94.5
660.105	80.5
660.309	100.5
660.512	81.5
660.716	83.5
660.919	101.5
661.123	85.5
661.326	71.5
661.53	82.5
661.733	83.5
661.936	80.5
662.14	87.5
662.343	79.5
662.546	95.5
662.75	84.5
662.953	93.5
663.156	97.5
663.36	92.5
663.563	80.5
663.766	76.5
663.969	85.5
664.173	76.5
664.376	86.5
664.579	64.5
664.782	79.5
664.985	81.5
665.188	76.5
665.391	86.5
665.594	84.5
665.797	72.5
666	88.5
666.203	82.5
666.406	92.5
666.609	94.5
666.812	87.5
667.015	84.5
667.218	93.5
667.421	79.5
667.624	79.5
667.827	79.5
668.03	82.5
668.232	80.5
668.435	67.5
668.638	77.5
668.841	86.5
669.043	66.5
669.246	78.5
669.449	76.5
669.651	86.5
669.854	87.5
670.057	91.5
670.259	82.5
670.462	87.5
670.665	75.5
670.867	87.5
671.07	89.5
671.272	93.5
671.475	91.5
671.677	87.5
671.88	92.5
672.082	84.5
672.284	88.5
672.487	80.5
672.689	87.5
672.892	61.5
