Data from Uncirc_1996_H10_HRD10591_00069.txt Node
Date: Wed Jan 03 11:32:16 EST 2024
User: Yrep
Spectrometer: HR+D1059
Trigger mode: 1
Integration Time (sec): 1.000000E-1
Scans to average: 1
Electric dark correction enabled: true
Nonlinearity correction enabled: false
Boxcar width: 0
XAxis mode: Wavelengths
Number of Pixels in Spectrum: 2048
>>>>>Begin Spectral Data<<<<<
223.165	-11.06
223.4	-11.06
223.635	-11.06
223.869	-18.06
224.104	-24.06
224.338	-2.06
224.573	-9.06
224.808	-9.06
225.042	-12.06
225.277	-5.06
225.511	-2.06
225.746	-3.06
225.98	-6.06
226.215	3.94
226.449	11.94
226.683	26.94
226.918	28.94
227.152	29.94
227.387	48.94
227.621	29.94
227.856	36.94
228.09	29.94
228.324	45.94
228.559	59.94
228.793	50.94
229.027	57.94
229.262	72.94
229.496	76.94
229.73	78.94
229.964	71.94
230.199	62.94
230.433	76.94
230.667	70.94
230.901	75.94
231.136	74.94
231.37	51.94
231.604	77.94
231.838	72.94
232.072	82.94
232.306	93.94
232.541	70.94
232.775	91.94
233.009	70.94
233.243	73.94
233.477	74.94
233.711	82.94
233.945	79.94
234.179	70.94
234.413	56.94
234.647	78.94
234.881	84.94
235.115	70.94
235.349	74.94
235.583	67.94
235.817	74.94
236.051	90.94
236.285	83.94
236.519	73.94
236.753	77.94
236.987	62.94
237.221	82.94
237.455	91.94
237.689	77.94
237.922	78.94
238.156	85.94
238.39	74.94
238.624	85.94
238.858	80.94
239.091	78.94
239.325	76.94
239.559	83.94
239.793	75.94
240.027	57.94
240.26	74.94
240.494	79.94
240.728	81.94
240.961	80.94
241.195	66.94
241.429	78.94
241.662	71.94
241.896	68.94
242.13	69.94
242.363	76.94
242.597	71.94
242.83	86.94
243.064	79.94
243.298	71.94
243.531	83.94
243.765	78.94
243.998	86.94
244.232	82.94
244.465	88.94
244.699	76.94
244.932	61.94
245.166	74.94
245.399	73.94
245.633	69.94
245.866	79.94
246.099	84.94
246.333	70.94
246.566	80.94
246.8	77.94
247.033	86.94
247.266	84.94
247.5	82.94
247.733	77.94
247.966	82.94
248.2	77.94
248.433	69.94
248.666	67.94
248.899	78.94
249.133	82.94
249.366	76.94
249.599	74.94
249.832	78.94
250.066	76.94
250.299	74.94
250.532	82.94
250.765	77.94
250.998	72.94
251.231	85.94
251.465	55.94
251.698	65.94
251.931	75.94
252.164	79.94
252.397	73.94
252.63	90.94
252.863	80.94
253.096	80.94
253.329	88.94
253.562	63.94
253.795	70.94
254.028	86.94
254.261	76.94
254.494	94.94
254.727	60.94
254.96	87.94
255.193	68.94
255.426	64.94
255.659	72.94
255.892	88.94
256.124	85.94
256.357	76.94
256.59	76.94
256.823	75.94
257.056	80.94
257.289	73.94
257.521	76.94
257.754	74.94
257.987	64.94
258.22	79.94
258.452	72.94
258.685	95.94
258.918	84.94
259.151	84.94
259.383	71.94
259.616	89.94
259.849	75.94
260.081	67.94
260.314	69.94
260.547	65.94
260.779	77.94
261.012	74.94
261.244	61.94
261.477	89.94
261.71	84.94
261.942	94.94
262.175	101.94
262.407	90.94
262.64	94.94
262.872	84.94
263.105	80.94
263.337	80.94
263.57	81.94
263.802	79.94
264.035	77.94
264.267	80.94
264.499	94.94
264.732	83.94
264.964	89.94
265.197	74.94
265.429	74.94
265.661	83.94
265.894	72.94
266.126	77.94
266.358	73.94
266.591	74.94
266.823	71.94
267.055	84.94
267.287	67.94
267.52	83.94
267.752	73.94
267.984	79.94
268.216	101.94
268.448	79.94
268.681	71.94
268.913	70.94
269.145	87.94
269.377	93.94
269.609	72.94
269.841	73.94
270.073	93.94
270.306	80.94
270.538	84.94
270.77	83.94
271.002	81.94
271.234	78.94
271.466	78.94
271.698	73.94
271.93	81.94
272.162	85.94
272.394	79.94
272.626	84.94
272.858	95.94
273.09	95.94
273.322	70.94
273.553	82.94
273.785	80.94
274.017	91.94
274.249	79.94
274.481	75.94
274.713	90.94
274.945	91.94
275.176	93.94
275.408	96.94
275.64	72.94
275.872	80.94
276.104	72.94
276.335	77.94
276.567	101.94
276.799	92.94
277.031	92.94
277.262	89.94
277.494	86.94
277.726	72.94
277.957	71.94
278.189	75.94
278.421	85.94
278.652	80.94
278.884	94.94
279.115	77.94
279.347	84.94
279.579	81.94
279.81	71.94
280.042	93.94
280.273	88.94
280.505	78.94
280.736	84.94
280.968	91.94
281.199	74.94
281.431	87.94
281.662	78.94
281.894	80.94
282.125	88.94
282.356	92.94
282.588	118.94
282.819	119.94
283.051	88.94
283.282	81.94
283.513	91.94
283.745	82.94
283.976	82.94
284.207	85.94
284.439	87.94
284.67	81.94
284.901	91.94
285.132	67.94
285.364	78.94
285.595	74.94
285.826	82.94
286.057	86.94
286.288	90.94
286.52	74.94
286.751	90.94
286.982	87.94
287.213	101.94
287.444	82.94
287.675	84.94
287.906	70.94
288.138	78.94
288.369	81.94
288.6	78.94
288.831	74.94
289.062	93.94
289.293	88.94
289.524	86.94
289.755	77.94
289.986	78.94
290.217	83.94
290.448	79.94
290.679	91.94
290.91	88.94
291.141	87.94
291.371	79.94
291.602	90.94
291.833	78.94
292.064	67.94
292.295	80.94
292.526	82.94
292.757	89.94
292.987	84.94
293.218	78.94
293.449	82.94
293.68	88.94
293.91	79.94
294.141	96.94
294.372	81.94
294.603	86.94
294.833	85.94
295.064	92.94
295.295	77.94
295.525	100.94
295.756	95.94
295.987	107.94
296.217	113.94
296.448	114.94
296.679	87.94
296.909	77.94
297.14	87.94
297.37	92.94
297.601	86.94
297.831	79.94
298.062	94.94
298.292	81.94
298.523	74.94
298.753	81.94
298.984	85.94
299.214	92.94
299.445	84.94
299.675	85.94
299.905	100.94
300.136	90.94
300.366	79.94
300.597	92.94
300.827	90.94
301.057	93.94
301.288	93.94
301.518	84.94
301.748	83.94
301.979	94.94
302.209	81.94
302.439	90.94
302.669	84.94
302.9	74.94
303.13	79.94
303.36	87.94
303.59	90.94
303.82	97.94
304.051	79.94
304.281	95.94
304.511	79.94
304.741	64.94
304.971	76.94
305.201	87.94
305.431	67.94
305.661	88.94
305.891	93.94
306.121	98.94
306.352	91.94
306.582	94.94
306.812	81.94
307.042	90.94
307.272	80.94
307.502	79.94
307.731	82.94
307.961	98.94
308.191	69.94
308.421	89.94
308.651	98.94
308.881	94.94
309.111	89.94
309.341	101.94
309.571	105.94
309.8	94.94
310.03	96.94
310.26	90.94
310.49	77.94
310.72	95.94
310.949	80.94
311.179	90.94
311.409	93.94
311.639	87.94
311.868	102.94
312.098	93.94
312.328	90.94
312.557	101.94
312.787	86.94
313.017	93.94
313.246	76.94
313.476	79.94
313.706	78.94
313.935	84.94
314.165	93.94
314.394	95.94
314.624	94.94
314.853	86.94
315.083	92.94
315.312	80.94
315.542	82.94
315.771	88.94
316.001	82.94
316.23	88.94
316.46	95.94
316.689	67.94
316.919	77.94
317.148	91.94
317.377	87.94
317.607	97.94
317.836	100.94
318.065	86.94
318.295	84.94
318.524	99.94
318.753	84.94
318.983	75.94
319.212	82.94
319.441	93.94
319.67	108.94
319.9	80.94
320.129	89.94
320.358	97.94
320.587	85.94
320.816	97.94
321.046	86.94
321.275	95.94
321.504	72.94
321.733	92.94
321.962	92.94
322.191	88.94
322.42	83.94
322.649	99.94
322.878	89.94
323.108	112.94
323.337	95.94
323.566	110.94
323.795	131.94
324.024	168.94
324.253	334.94
324.482	676.94
324.71	1358.94
324.939	1805.94
325.168	675.94
325.397	207.94
325.626	123.94
325.855	107.94
326.084	121.94
326.313	115.94
326.542	138.94
326.77	206.94
326.999	392.94
327.228	810.94
327.457	1454.94
327.686	1177.94
327.914	319.94
328.143	167.94
328.372	123.94
328.6	118.94
328.829	94.94
329.058	110.94
329.287	120.94
329.515	102.94
329.744	86.94
329.972	86.94
330.201	105.94
330.43	101.94
330.658	93.94
330.887	118.94
331.115	115.94
331.344	102.94
331.572	86.94
331.801	95.94
332.03	83.94
332.258	87.94
332.486	79.94
332.715	101.94
332.943	91.94
333.172	96.94
333.4	90.94
333.629	98.94
333.857	114.94
334.085	108.94
334.314	88.94
334.542	82.94
334.771	92.94
334.999	96.94
335.227	98.94
335.455	92.94
335.684	82.94
335.912	90.94
336.14	81.94
336.369	88.94
336.597	85.94
336.825	95.94
337.053	75.94
337.281	89.94
337.51	97.94
337.738	84.94
337.966	81.94
338.194	90.94
338.422	96.94
338.65	89.94
338.878	105.94
339.106	82.94
339.334	89.94
339.562	84.94
339.79	90.94
340.018	79.94
340.246	85.94
340.474	87.94
340.702	86.94
340.93	87.94
341.158	81.94
341.386	86.94
341.614	93.94
341.842	86.94
342.07	91.94
342.298	87.94
342.526	82.94
342.754	81.94
342.981	78.94
343.209	84.94
343.437	98.94
343.665	88.94
343.893	86.94
344.12	73.94
344.348	79.94
344.576	85.94
344.804	97.94
345.031	100.94
345.259	86.94
345.487	86.94
345.714	86.94
345.942	88.94
346.17	81.94
346.397	89.94
346.625	85.94
346.853	74.94
347.08	84.94
347.308	87.94
347.535	91.94
347.763	102.94
347.99	105.94
348.218	86.94
348.445	95.94
348.673	95.94
348.9	94.94
349.128	79.94
349.355	96.94
349.583	92.94
349.81	103.94
350.037	87.94
350.265	96.94
350.492	87.94
350.72	93.94
350.947	99.94
351.174	96.94
351.402	98.94
351.629	85.94
351.856	102.94
352.083	95.94
352.311	110.94
352.538	93.94
352.765	94.94
352.992	116.94
353.22	112.94
353.447	109.94
353.674	91.94
353.901	93.94
354.128	85.94
354.355	76.94
354.583	97.94
354.81	90.94
355.037	90.94
355.264	94.94
355.491	84.94
355.718	102.94
355.945	84.94
356.172	94.94
356.399	73.94
356.626	79.94
356.853	74.94
357.08	87.94
357.307	93.94
357.534	91.94
357.761	87.94
357.988	82.94
358.215	93.94
358.441	90.94
358.668	96.94
358.895	89.94
359.122	95.94
359.349	102.94
359.576	88.94
359.802	87.94
360.029	93.94
360.256	107.94
360.483	75.94
360.709	88.94
360.936	90.94
361.163	79.94
361.39	90.94
361.616	84.94
361.843	70.94
362.07	97.94
362.296	96.94
362.523	74.94
362.749	95.94
362.976	79.94
363.203	74.94
363.429	79.94
363.656	79.94
363.882	95.94
364.109	77.94
364.335	100.94
364.562	87.94
364.788	92.94
365.015	91.94
365.241	98.94
365.468	109.94
365.694	88.94
365.92	96.94
366.147	90.94
366.373	81.94
366.599	71.94
366.826	75.94
367.052	76.94
367.278	89.94
367.505	90.94
367.731	72.94
367.957	91.94
368.184	76.94
368.41	102.94
368.636	104.94
368.862	106.94
369.089	93.94
369.315	104.94
369.541	98.94
369.767	89.94
369.993	93.94
370.219	85.94
370.445	76.94
370.672	91.94
370.898	80.94
371.124	96.94
371.35	77.94
371.576	67.94
371.802	88.94
372.028	85.94
372.254	89.94
372.48	86.94
372.706	71.94
372.932	92.94
373.158	88.94
373.384	92.94
373.61	86.94
373.835	93.94
374.061	82.94
374.287	87.94
374.513	103.94
374.739	80.94
374.965	86.94
375.191	103.94
375.416	98.94
375.642	88.94
375.868	78.94
376.094	77.94
376.319	73.94
376.545	90.94
376.771	90.94
376.997	84.94
377.222	88.94
377.448	82.94
377.674	70.94
377.899	91.94
378.125	90.94
378.35	92.94
378.576	91.94
378.802	85.94
379.027	88.94
379.253	93.94
379.478	82.94
379.704	79.94
379.929	94.94
380.155	86.94
380.38	96.94
380.606	102.94
380.831	86.94
381.057	88.94
381.282	104.94
381.507	81.94
381.733	85.94
381.958	86.94
382.184	83.94
382.409	85.94
382.634	103.94
382.86	107.94
383.085	96.94
383.31	96.94
383.535	103.94
383.761	86.94
383.986	94.94
384.211	102.94
384.436	80.94
384.662	93.94
384.887	92.94
385.112	89.94
385.337	89.94
385.562	103.94
385.787	96.94
386.013	96.94
386.238	92.94
386.463	108.94
386.688	100.94
386.913	90.94
387.138	104.94
387.363	97.94
387.588	97.94
387.813	97.94
388.038	86.94
388.263	108.94
388.488	104.94
388.713	78.94
388.938	90.94
389.163	92.94
389.387	89.94
389.612	93.94
389.837	88.94
390.062	84.94
390.287	112.94
390.512	75.94
390.736	94.94
390.961	78.94
391.186	82.94
391.411	87.94
391.636	76.94
391.86	77.94
392.085	75.94
392.31	83.94
392.534	82.94
392.759	89.94
392.984	99.94
393.208	95.94
393.433	86.94
393.658	95.94
393.882	73.94
394.107	79.94
394.331	85.94
394.556	88.94
394.78	87.94
395.005	78.94
395.229	77.94
395.454	77.94
395.678	87.94
395.903	73.94
396.127	90.94
396.352	86.94
396.576	99.94
396.801	74.94
397.025	94.94
397.249	83.94
397.474	79.94
397.698	93.94
397.922	90.94
398.147	94.94
398.371	76.94
398.595	76.94
398.82	79.94
399.044	83.94
399.268	85.94
399.492	75.94
399.717	86.94
399.941	90.94
400.165	85.94
400.389	83.94
400.613	100.94
400.837	97.94
401.062	83.94
401.286	88.94
401.51	79.94
401.734	74.94
401.958	106.94
402.182	119.94
402.406	130.94
402.63	111.94
402.854	77.94
403.078	90.94
403.302	93.94
403.526	90.94
403.75	105.94
403.974	87.94
404.198	99.94
404.422	87.94
404.645	83.94
404.869	84.94
405.093	88.94
405.317	94.94
405.541	90.94
405.765	88.94
405.988	102.94
406.212	140.94
406.436	177.94
406.66	124.94
406.883	90.94
407.107	87.94
407.331	79.94
407.555	97.94
407.778	82.94
408.002	92.94
408.226	79.94
408.449	95.94
408.673	84.94
408.896	104.94
409.12	93.94
409.344	85.94
409.567	94.94
409.791	100.94
410.014	90.94
410.238	93.94
410.461	83.94
410.685	78.94
410.908	102.94
411.132	99.94
411.355	95.94
411.578	76.94
411.802	76.94
412.025	96.94
412.249	82.94
412.472	75.94
412.695	93.94
412.919	84.94
413.142	87.94
413.365	98.94
413.589	74.94
413.812	65.94
414.035	89.94
414.258	95.94
414.482	91.94
414.705	83.94
414.928	82.94
415.151	75.94
415.374	76.94
415.597	95.94
415.821	99.94
416.044	79.94
416.267	84.94
416.49	77.94
416.713	91.94
416.936	72.94
417.159	86.94
417.382	94.94
417.605	99.94
417.828	85.94
418.051	92.94
418.274	82.94
418.497	87.94
418.72	76.94
418.943	64.94
419.166	78.94
419.389	70.94
419.611	88.94
419.834	86.94
420.057	91.94
420.28	74.94
420.503	88.94
420.726	86.94
420.948	90.94
421.171	102.94
421.394	87.94
421.617	87.94
421.839	85.94
422.062	85.94
422.285	89.94
422.507	91.94
422.73	91.94
422.953	89.94
423.175	95.94
423.398	92.94
423.621	85.94
423.843	86.94
424.066	84.94
424.288	79.94
424.511	93.94
424.733	91.94
424.956	102.94
425.178	103.94
425.401	96.94
425.623	95.94
425.846	81.94
426.068	98.94
426.291	94.94
426.513	75.94
426.735	86.94
426.958	99.94
427.18	104.94
427.402	113.94
427.625	151.94
427.847	116.94
428.069	90.94
428.292	82.94
428.514	73.94
428.736	77.94
428.958	91.94
429.181	78.94
429.403	65.94
429.625	83.94
429.847	78.94
430.069	91.94
430.292	94.94
430.514	86.94
430.736	79.94
430.958	78.94
431.18	83.94
431.402	77.94
431.624	85.94
431.846	80.94
432.068	70.94
432.29	82.94
432.512	100.94
432.734	74.94
432.956	88.94
433.178	74.94
433.4	94.94
433.622	87.94
433.844	89.94
434.066	92.94
434.287	75.94
434.509	96.94
434.731	90.94
434.953	91.94
435.175	76.94
435.397	92.94
435.618	96.94
435.84	94.94
436.062	106.94
436.284	95.94
436.505	95.94
436.727	98.94
436.949	76.94
437.17	89.94
437.392	88.94
437.614	91.94
437.835	108.94
438.057	108.94
438.278	102.94
438.5	90.94
438.721	108.94
438.943	83.94
439.165	82.94
439.386	82.94
439.608	87.94
439.829	102.94
440.05	96.94
440.272	130.94
440.493	101.94
440.715	95.94
440.936	80.94
441.158	79.94
441.379	84.94
441.6	78.94
441.822	92.94
442.043	96.94
442.264	95.94
442.486	92.94
442.707	90.94
442.928	100.94
443.149	114.94
443.371	140.94
443.592	98.94
443.813	96.94
444.034	105.94
444.255	81.94
444.476	87.94
444.698	89.94
444.919	74.94
445.14	133.94
445.361	110.94
445.582	104.94
445.803	121.94
446.024	135.94
446.245	114.94
446.466	96.94
446.687	90.94
446.908	73.94
447.129	91.94
447.35	79.94
447.571	93.94
447.792	76.94
448.013	89.94
448.234	107.94
448.455	90.94
448.675	105.94
448.896	107.94
449.117	101.94
449.338	110.94
449.559	117.94
449.779	123.94
450	101.94
450.221	90.94
450.442	76.94
450.662	95.94
450.883	91.94
451.104	88.94
451.324	98.94
451.545	79.94
451.766	75.94
451.986	95.94
452.207	90.94
452.428	74.94
452.648	84.94
452.869	106.94
453.089	103.94
453.31	108.94
453.53	77.94
453.751	91.94
453.971	98.94
454.192	100.94
454.412	92.94
454.633	74.94
454.853	72.94
455.073	73.94
455.294	75.94
455.514	106.94
455.734	79.94
455.955	84.94
456.175	95.94
456.395	72.94
456.616	90.94
456.836	72.94
457.056	68.94
457.276	78.94
457.497	84.94
457.717	71.94
457.937	77.94
458.157	84.94
458.377	88.94
458.598	90.94
458.818	129.94
459.038	135.94
459.258	101.94
459.478	84.94
459.698	87.94
459.918	75.94
460.138	76.94
460.358	89.94
460.578	80.94
460.798	86.94
461.018	74.94
461.238	88.94
461.458	89.94
461.678	86.94
461.898	76.94
462.118	89.94
462.338	66.94
462.558	91.94
462.777	75.94
462.997	92.94
463.217	75.94
463.437	84.94
463.657	88.94
463.876	62.94
464.096	83.94
464.316	79.94
464.536	75.94
464.755	89.94
464.975	99.94
465.195	136.94
465.414	146.94
465.634	96.94
465.854	78.94
466.073	77.94
466.293	86.94
466.512	78.94
466.732	87.94
466.951	82.94
467.171	77.94
467.391	73.94
467.61	102.94
467.829	101.94
468.049	100.94
468.268	75.94
468.488	84.94
468.707	80.94
468.927	76.94
469.146	82.94
469.365	89.94
469.585	82.94
469.804	80.94
470.023	102.94
470.243	86.94
470.462	82.94
470.681	101.94
470.901	80.94
471.12	76.94
471.339	84.94
471.558	95.94
471.777	82.94
471.997	86.94
472.216	89.94
472.435	87.94
472.654	82.94
472.873	91.94
473.092	81.94
473.311	80.94
473.53	84.94
473.749	63.94
473.968	78.94
474.187	97.94
474.406	89.94
474.625	90.94
474.844	93.94
475.063	74.94
475.282	70.94
475.501	80.94
475.72	106.94
475.939	81.94
476.158	88.94
476.377	86.94
476.596	96.94
476.814	75.94
477.033	82.94
477.252	81.94
477.471	76.94
477.69	82.94
477.908	73.94
478.127	91.94
478.346	84.94
478.564	71.94
478.783	72.94
479.002	96.94
479.22	95.94
479.439	87.94
479.658	106.94
479.876	79.94
480.095	88.94
480.313	101.94
480.532	89.94
480.751	86.94
480.969	84.94
481.188	91.94
481.406	86.94
481.624	86.94
481.843	85.94
482.061	97.94
482.28	71.94
482.498	72.94
482.717	79.94
482.935	106.94
483.153	89.94
483.372	82.94
483.59	78.94
483.808	100.94
484.027	95.94
484.245	96.94
484.463	87.94
484.681	104.94
484.9	94.94
485.118	93.94
485.336	95.94
485.554	96.94
485.772	83.94
485.99	105.94
486.209	101.94
486.427	94.94
486.645	105.94
486.863	98.94
487.081	93.94
487.299	102.94
487.517	82.94
487.735	93.94
487.953	89.94
488.171	83.94
488.389	94.94
488.607	100.94
488.825	82.94
489.043	89.94
489.261	75.94
489.479	82.94
489.696	101.94
489.914	90.94
490.132	92.94
490.35	85.94
490.568	82.94
490.786	84.94
491.003	84.94
491.221	78.94
491.439	79.94
491.657	86.94
491.874	94.94
492.092	83.94
492.31	87.94
492.527	83.94
492.745	83.94
492.963	80.94
493.18	91.94
493.398	92.94
493.615	100.94
493.833	94.94
494.05	73.94
494.268	69.94
494.485	68.94
494.703	87.94
494.92	89.94
495.138	102.94
495.355	89.94
495.573	91.94
495.79	95.94
496.008	87.94
496.225	83.94
496.442	68.94
496.66	89.94
496.877	92.94
497.094	91.94
497.312	90.94
497.529	80.94
497.746	81.94
497.963	84.94
498.181	97.94
498.398	85.94
498.615	106.94
498.832	90.94
499.049	79.94
499.267	82.94
499.484	84.94
499.701	98.94
499.918	80.94
500.135	98.94
500.352	90.94
500.569	83.94
500.786	85.94
501.003	93.94
501.22	90.94
501.437	95.94
501.654	94.94
501.871	85.94
502.088	91.94
502.305	88.94
502.522	68.94
502.739	90.94
502.956	96.94
503.172	89.94
503.389	101.94
503.606	86.94
503.823	89.94
504.04	83.94
504.256	94.94
504.473	79.94
504.69	85.94
504.907	100.94
505.123	74.94
505.34	100.94
505.557	80.94
505.773	88.94
505.99	94.94
506.207	78.94
506.423	85.94
506.64	77.94
506.856	87.94
507.073	77.94
507.289	95.94
507.506	94.94
507.722	91.94
507.939	93.94
508.155	93.94
508.372	83.94
508.588	91.94
508.805	82.94
509.021	90.94
509.238	83.94
509.454	88.94
509.67	91.94
509.887	95.94
510.103	106.94
510.319	194.94
510.536	616.94
510.752	1874.94
510.968	528.94
511.184	132.94
511.401	86.94
511.617	80.94
511.833	85.94
512.049	82.94
512.265	75.94
512.481	106.94
512.698	93.94
512.914	97.94
513.13	94.94
513.346	98.94
513.562	84.94
513.778	86.94
513.994	96.94
514.21	99.94
514.426	110.94
514.642	106.94
514.858	130.94
515.074	139.94
515.29	366.94
515.506	1136.94
515.721	420.94
515.937	134.94
516.153	97.94
516.369	94.94
516.585	94.94
516.801	100.94
517.016	74.94
517.232	93.94
517.448	88.94
517.664	92.94
517.879	89.94
518.095	90.94
518.311	88.94
518.527	86.94
518.742	89.94
518.958	97.94
519.173	90.94
519.389	97.94
519.605	85.94
519.82	104.94
520.036	106.94
520.251	115.94
520.467	100.94
520.682	113.94
520.898	93.94
521.113	96.94
521.329	124.94
521.544	175.94
521.76	443.94
521.975	1829.94
522.19	1104.94
522.406	262.94
522.621	101.94
522.836	89.94
523.052	100.94
523.267	94.94
523.482	94.94
523.698	96.94
523.913	95.94
524.128	78.94
524.343	97.94
524.559	94.94
524.774	80.94
524.989	83.94
525.204	103.94
525.419	101.94
525.634	103.94
525.849	99.94
526.064	83.94
526.28	87.94
526.495	79.94
526.71	100.94
526.925	91.94
527.14	82.94
527.355	95.94
527.57	80.94
527.785	92.94
527.999	88.94
528.214	77.94
528.429	96.94
528.644	76.94
528.859	87.94
529.074	94.94
529.289	115.94
529.503	146.94
529.718	90.94
529.933	83.94
530.148	87.94
530.363	102.94
530.577	71.94
530.792	84.94
531.007	100.94
531.221	107.94
531.436	85.94
531.651	85.94
531.865	82.94
532.08	76.94
532.295	89.94
532.509	88.94
532.724	95.94
532.938	100.94
533.153	90.94
533.367	88.94
533.582	80.94
533.796	92.94
534.011	76.94
534.225	75.94
534.44	84.94
534.654	88.94
534.868	72.94
535.083	79.94
535.297	71.94
535.511	98.94
535.726	91.94
535.94	90.94
536.154	75.94
536.369	83.94
536.583	75.94
536.797	92.94
537.011	94.94
537.225	107.94
537.44	75.94
537.654	88.94
537.868	69.94
538.082	85.94
538.296	85.94
538.51	108.94
538.724	88.94
538.938	95.94
539.153	88.94
539.367	98.94
539.581	95.94
539.795	72.94
540.009	77.94
540.222	91.94
540.436	99.94
540.65	89.94
540.864	100.94
541.078	98.94
541.292	86.94
541.506	95.94
541.72	76.94
541.934	83.94
542.147	88.94
542.361	99.94
542.575	86.94
542.789	96.94
543.002	86.94
543.216	72.94
543.43	88.94
543.644	85.94
543.857	85.94
544.071	88.94
544.285	86.94
544.498	79.94
544.712	91.94
544.925	89.94
545.139	83.94
545.352	93.94
545.566	80.94
545.779	91.94
545.993	75.94
546.206	84.94
546.42	78.94
546.633	91.94
546.847	88.94
547.06	79.94
547.274	75.94
547.487	84.94
547.7	88.94
547.914	92.94
548.127	90.94
548.34	77.94
548.554	79.94
548.767	86.94
548.98	83.94
549.193	95.94
549.407	86.94
549.62	104.94
549.833	97.94
550.046	75.94
550.259	89.94
550.473	71.94
550.686	83.94
550.899	85.94
551.112	98.94
551.325	94.94
551.538	86.94
551.751	87.94
551.964	95.94
552.177	77.94
552.39	95.94
552.603	90.94
552.816	93.94
553.029	74.94
553.242	88.94
553.455	88.94
553.667	104.94
553.88	103.94
554.093	86.94
554.306	59.94
554.519	78.94
554.732	87.94
554.944	93.94
555.157	90.94
555.37	82.94
555.583	88.94
555.795	92.94
556.008	82.94
556.221	80.94
556.433	80.94
556.646	89.94
556.859	88.94
557.071	77.94
557.284	90.94
557.496	76.94
557.709	91.94
557.921	103.94
558.134	85.94
558.346	82.94
558.559	72.94
558.771	91.94
558.984	81.94
559.196	96.94
559.409	84.94
559.621	84.94
559.833	91.94
560.046	87.94
560.258	81.94
560.47	87.94
560.683	90.94
560.895	91.94
561.107	83.94
561.32	91.94
561.532	76.94
561.744	77.94
561.956	94.94
562.168	92.94
562.381	77.94
562.593	91.94
562.805	90.94
563.017	84.94
563.229	85.94
563.441	76.94
563.653	84.94
563.865	76.94
564.077	85.94
564.289	80.94
564.501	84.94
564.713	91.94
564.925	85.94
565.137	69.94
565.349	90.94
565.561	96.94
565.773	94.94
565.985	83.94
566.197	75.94
566.408	93.94
566.62	78.94
566.832	73.94
567.044	80.94
567.255	94.94
567.467	79.94
567.679	68.94
567.891	74.94
568.102	72.94
568.314	69.94
568.526	76.94
568.737	87.94
568.949	77.94
569.161	77.94
569.372	89.94
569.584	79.94
569.795	87.94
570.007	112.94
570.218	198.94
570.43	124.94
570.641	79.94
570.853	94.94
571.064	83.94
571.276	90.94
571.487	72.94
571.698	92.94
571.91	79.94
572.121	84.94
572.333	94.94
572.544	88.94
572.755	83.94
572.966	85.94
573.178	85.94
573.389	95.94
573.6	70.94
573.811	74.94
574.023	78.94
574.234	92.94
574.445	100.94
574.656	92.94
574.867	81.94
575.078	84.94
575.289	79.94
575.501	77.94
575.712	86.94
575.923	83.94
576.134	95.94
576.345	84.94
576.556	75.94
576.767	69.94
576.978	93.94
577.188	90.94
577.399	93.94
577.61	89.94
577.821	91.94
578.032	101.94
578.243	229.94
578.454	609.94
578.665	182.94
578.875	80.94
579.086	78.94
579.297	82.94
579.508	88.94
579.718	85.94
579.929	84.94
580.14	90.94
580.35	81.94
580.561	75.94
580.772	76.94
580.982	81.94
581.193	73.94
581.403	91.94
581.614	90.94
581.825	77.94
582.035	74.94
582.246	81.94
582.456	84.94
582.667	76.94
582.877	86.94
583.087	91.94
583.298	71.94
583.508	84.94
583.719	92.94
583.929	95.94
584.139	90.94
584.35	71.94
584.56	79.94
584.77	77.94
584.981	75.94
585.191	95.94
585.401	64.94
585.611	86.94
585.821	84.94
586.032	94.94
586.242	78.94
586.452	77.94
586.662	90.94
586.872	70.94
587.082	86.94
587.292	81.94
587.502	87.94
587.713	72.94
587.923	74.94
588.133	83.94
588.343	99.94
588.553	95.94
588.762	87.94
588.972	89.94
589.182	92.94
589.392	79.94
589.602	73.94
589.812	73.94
590.022	82.94
590.232	93.94
590.441	104.94
590.651	82.94
590.861	84.94
591.071	79.94
591.281	73.94
591.49	87.94
591.7	79.94
591.91	78.94
592.119	91.94
592.329	82.94
592.539	97.94
592.748	91.94
592.958	84.94
593.167	81.94
593.377	88.94
593.587	92.94
593.796	91.94
594.006	68.94
594.215	69.94
594.424	86.94
594.634	79.94
594.843	76.94
595.053	77.94
595.262	91.94
595.472	83.94
595.681	83.94
595.89	77.94
596.1	82.94
596.309	88.94
596.518	91.94
596.727	79.94
596.937	77.94
597.146	82.94
597.355	70.94
597.564	93.94
597.774	81.94
597.983	88.94
598.192	94.94
598.401	72.94
598.61	87.94
598.819	76.94
599.028	73.94
599.237	85.94
599.446	88.94
599.655	82.94
599.864	93.94
600.073	86.94
600.282	84.94
600.491	83.94
600.7	77.94
600.909	84.94
601.118	89.94
601.327	85.94
601.536	86.94
601.745	82.94
601.953	77.94
602.162	90.94
602.371	95.94
602.58	65.94
602.789	78.94
602.997	77.94
603.206	96.94
603.415	86.94
603.623	75.94
603.832	86.94
604.041	88.94
604.249	84.94
604.458	73.94
604.666	82.94
604.875	97.94
605.084	87.94
605.292	82.94
605.501	86.94
605.709	87.94
605.918	87.94
606.126	101.94
606.334	79.94
606.543	77.94
606.751	81.94
606.96	80.94
607.168	86.94
607.376	91.94
607.585	96.94
607.793	83.94
608.001	78.94
608.21	82.94
608.418	85.94
608.626	79.94
608.834	76.94
609.043	91.94
609.251	94.94
609.459	85.94
609.667	94.94
609.875	82.94
610.083	83.94
610.291	85.94
610.499	85.94
610.707	84.94
610.916	88.94
611.124	78.94
611.332	82.94
611.54	74.94
611.748	79.94
611.955	85.94
612.163	77.94
612.371	83.94
612.579	85.94
612.787	83.94
612.995	86.94
613.203	79.94
613.411	82.94
613.618	82.94
613.826	82.94
614.034	85.94
614.242	74.94
614.449	94.94
614.657	97.94
614.865	85.94
615.072	85.94
615.28	72.94
615.488	74.94
615.695	83.94
615.903	108.94
616.111	88.94
616.318	95.94
616.526	85.94
616.733	93.94
616.941	80.94
617.148	71.94
617.356	68.94
617.563	92.94
617.771	70.94
617.978	77.94
618.185	96.94
618.393	90.94
618.6	74.94
618.807	66.94
619.015	75.94
619.222	66.94
619.429	86.94
619.637	84.94
619.844	77.94
620.051	82.94
620.258	81.94
620.466	82.94
620.673	79.94
620.88	80.94
621.087	77.94
621.294	90.94
621.501	85.94
621.708	67.94
621.915	92.94
622.122	80.94
622.329	86.94
622.536	76.94
622.743	71.94
622.95	71.94
623.157	75.94
623.364	75.94
623.571	79.94
623.778	76.94
623.985	80.94
624.192	72.94
624.399	90.94
624.606	88.94
624.812	84.94
625.019	87.94
625.226	90.94
625.433	92.94
625.639	72.94
625.846	69.94
626.053	76.94
626.259	92.94
626.466	83.94
626.673	93.94
626.879	85.94
627.086	78.94
627.293	89.94
627.499	67.94
627.706	83.94
627.912	89.94
628.119	86.94
628.325	90.94
628.532	87.94
628.738	76.94
628.945	75.94
629.151	70.94
629.357	87.94
629.564	97.94
629.77	88.94
629.976	72.94
630.183	80.94
630.389	76.94
630.595	81.94
630.802	86.94
631.008	82.94
631.214	80.94
631.42	79.94
631.627	80.94
631.833	91.94
632.039	67.94
632.245	91.94
632.451	75.94
632.657	76.94
632.863	87.94
633.069	90.94
633.275	84.94
633.481	80.94
633.688	84.94
633.893	85.94
634.099	87.94
634.305	81.94
634.511	75.94
634.717	73.94
634.923	95.94
635.129	73.94
635.335	65.94
635.541	71.94
635.747	84.94
635.952	87.94
636.158	84.94
636.364	74.94
636.57	80.94
636.775	83.94
636.981	82.94
637.187	76.94
637.392	88.94
637.598	93.94
637.804	80.94
638.009	84.94
638.215	64.94
638.421	96.94
638.626	70.94
638.832	86.94
639.037	75.94
639.243	90.94
639.448	85.94
639.654	87.94
639.859	83.94
640.065	79.94
640.27	82.94
640.475	76.94
640.681	72.94
640.886	85.94
641.091	75.94
641.297	91.94
641.502	79.94
641.707	81.94
641.913	74.94
642.118	88.94
642.323	89.94
642.528	71.94
642.733	92.94
642.939	76.94
643.144	85.94
643.349	79.94
643.554	90.94
643.759	67.94
643.964	84.94
644.169	91.94
644.374	63.94
644.579	98.94
644.784	79.94
644.989	84.94
645.194	75.94
645.399	79.94
645.604	79.94
645.809	90.94
646.014	86.94
646.219	92.94
646.423	82.94
646.628	92.94
646.833	101.94
647.038	99.94
647.243	91.94
647.447	80.94
647.652	63.94
647.857	75.94
648.062	69.94
648.266	94.94
648.471	80.94
648.676	87.94
648.88	80.94
649.085	87.94
649.289	100.94
649.494	87.94
649.698	132.94
649.903	97.94
650.107	102.94
650.312	81.94
650.516	91.94
650.721	84.94
650.925	84.94
651.13	91.94
651.334	77.94
651.539	71.94
651.743	88.94
651.947	86.94
652.152	85.94
652.356	77.94
652.56	69.94
652.764	74.94
652.969	72.94
653.173	82.94
653.377	68.94
653.581	66.94
653.785	78.94
653.99	74.94
654.194	79.94
654.398	78.94
654.602	85.94
654.806	95.94
655.01	87.94
655.214	86.94
655.418	79.94
655.622	77.94
655.826	88.94
656.03	94.94
656.234	86.94
656.438	92.94
656.642	97.94
656.846	89.94
657.049	90.94
657.253	75.94
657.457	81.94
657.661	80.94
657.865	79.94
658.068	83.94
658.272	72.94
658.476	70.94
658.68	79.94
658.883	73.94
659.087	88.94
659.291	86.94
659.494	97.94
659.698	90.94
659.901	78.94
660.105	80.94
660.309	78.94
660.512	76.94
660.716	87.94
660.919	89.94
661.123	64.94
661.326	63.94
661.53	75.94
661.733	68.94
661.936	78.94
662.14	62.94
662.343	70.94
662.546	78.94
662.75	102.94
662.953	79.94
663.156	78.94
663.36	81.94
663.563	84.94
663.766	73.94
663.969	78.94
664.173	75.94
664.376	64.94
664.579	68.94
664.782	83.94
664.985	80.94
665.188	94.94
665.391	68.94
665.594	66.94
665.797	76.94
666	81.94
666.203	81.94
666.406	69.94
666.609	80.94
666.812	86.94
667.015	78.94
667.218	69.94
667.421	76.94
667.624	60.94
667.827	71.94
668.03	88.94
668.232	85.94
668.435	83.94
668.638	74.94
668.841	77.94
669.043	89.94
669.246	83.94
669.449	82.94
669.651	90.94
669.854	72.94
670.057	66.94
670.259	81.94
670.462	93.94
670.665	73.94
670.867	74.94
671.07	80.94
671.272	82.94
671.475	100.94
671.677	72.94
671.88	76.94
672.082	82.94
672.284	84.94
672.487	84.94
672.689	86.94
672.892	70.94
