Data from Uncirc_1996_H10_HRD10591_00015.txt Node
Date: Wed Jan 03 11:32:05 EST 2024
User: Yrep
Spectrometer: HR+D1059
Trigger mode: 1
Integration Time (sec): 1.000000E-1
Scans to average: 1
Electric dark correction enabled: true
Nonlinearity correction enabled: false
Boxcar width: 0
XAxis mode: Wavelengths
Number of Pixels in Spectrum: 2048
>>>>>Begin Spectral Data<<<<<
223.165	-18.19
223.4	-18.19
223.635	-18.19
223.869	-14.19
224.104	-14.19
224.338	-21.19
224.573	-13.19
224.808	-8.19
225.042	5.81
225.277	-9.19
225.511	-14.19
225.746	-9.19
225.98	21.81
226.215	13.81
226.449	14.81
226.683	27.81
226.918	20.81
227.152	16.81
227.387	30.81
227.621	36.81
227.856	46.81
228.09	46.81
228.324	46.81
228.559	60.81
228.793	61.81
229.027	73.81
229.262	54.81
229.496	69.81
229.73	86.81
229.964	81.81
230.199	75.81
230.433	71.81
230.667	88.81
230.901	95.81
231.136	78.81
231.37	65.81
231.604	81.81
231.838	85.81
232.072	86.81
232.306	74.81
232.541	72.81
232.775	81.81
233.009	80.81
233.243	70.81
233.477	87.81
233.711	80.81
233.945	85.81
234.179	80.81
234.413	83.81
234.647	71.81
234.881	82.81
235.115	84.81
235.349	84.81
235.583	75.81
235.817	91.81
236.051	72.81
236.285	64.81
236.519	69.81
236.753	79.81
236.987	76.81
237.221	86.81
237.455	82.81
237.689	71.81
237.922	57.81
238.156	79.81
238.39	67.81
238.624	78.81
238.858	71.81
239.091	77.81
239.325	75.81
239.559	83.81
239.793	73.81
240.027	89.81
240.26	59.81
240.494	70.81
240.728	83.81
240.961	77.81
241.195	78.81
241.429	68.81
241.662	56.81
241.896	81.81
242.13	69.81
242.363	80.81
242.597	64.81
242.83	73.81
243.064	83.81
243.298	67.81
243.531	77.81
243.765	79.81
243.998	81.81
244.232	75.81
244.465	71.81
244.699	80.81
244.932	69.81
245.166	70.81
245.399	80.81
245.633	62.81
245.866	74.81
246.099	77.81
246.333	73.81
246.566	87.81
246.8	64.81
247.033	79.81
247.266	71.81
247.5	74.81
247.733	73.81
247.966	82.81
248.2	75.81
248.433	75.81
248.666	70.81
248.899	62.81
249.133	81.81
249.366	88.81
249.599	93.81
249.832	62.81
250.066	80.81
250.299	84.81
250.532	69.81
250.765	77.81
250.998	73.81
251.231	79.81
251.465	77.81
251.698	71.81
251.931	73.81
252.164	68.81
252.397	72.81
252.63	81.81
252.863	76.81
253.096	71.81
253.329	87.81
253.562	71.81
253.795	82.81
254.028	71.81
254.261	70.81
254.494	69.81
254.727	87.81
254.96	80.81
255.193	75.81
255.426	78.81
255.659	79.81
255.892	80.81
256.124	61.81
256.357	74.81
256.59	78.81
256.823	79.81
257.056	76.81
257.289	86.81
257.521	79.81
257.754	87.81
257.987	84.81
258.22	84.81
258.452	71.81
258.685	82.81
258.918	92.81
259.151	77.81
259.383	74.81
259.616	74.81
259.849	70.81
260.081	87.81
260.314	83.81
260.547	84.81
260.779	75.81
261.012	81.81
261.244	74.81
261.477	71.81
261.71	98.81
261.942	88.81
262.175	88.81
262.407	87.81
262.64	81.81
262.872	87.81
263.105	90.81
263.337	90.81
263.57	79.81
263.802	78.81
264.035	61.81
264.267	83.81
264.499	88.81
264.732	80.81
264.964	92.81
265.197	92.81
265.429	76.81
265.661	77.81
265.894	68.81
266.126	78.81
266.358	87.81
266.591	75.81
266.823	72.81
267.055	84.81
267.287	75.81
267.52	75.81
267.752	88.81
267.984	79.81
268.216	71.81
268.448	77.81
268.681	82.81
268.913	89.81
269.145	78.81
269.377	77.81
269.609	81.81
269.841	79.81
270.073	84.81
270.306	77.81
270.538	86.81
270.77	80.81
271.002	80.81
271.234	93.81
271.466	96.81
271.698	90.81
271.93	72.81
272.162	74.81
272.394	81.81
272.626	75.81
272.858	72.81
273.09	80.81
273.322	86.81
273.553	85.81
273.785	81.81
274.017	77.81
274.249	73.81
274.481	88.81
274.713	93.81
274.945	76.81
275.176	77.81
275.408	83.81
275.64	74.81
275.872	90.81
276.104	94.81
276.335	91.81
276.567	91.81
276.799	97.81
277.031	97.81
277.262	93.81
277.494	84.81
277.726	94.81
277.957	82.81
278.189	73.81
278.421	71.81
278.652	79.81
278.884	87.81
279.115	91.81
279.347	81.81
279.579	72.81
279.81	67.81
280.042	97.81
280.273	79.81
280.505	102.81
280.736	92.81
280.968	71.81
281.199	86.81
281.431	86.81
281.662	76.81
281.894	88.81
282.125	91.81
282.356	99.81
282.588	124.81
282.819	95.81
283.051	80.81
283.282	77.81
283.513	95.81
283.745	76.81
283.976	81.81
284.207	80.81
284.439	77.81
284.67	89.81
284.901	92.81
285.132	84.81
285.364	83.81
285.595	104.81
285.826	75.81
286.057	74.81
286.288	81.81
286.52	85.81
286.751	86.81
286.982	82.81
287.213	78.81
287.444	82.81
287.675	79.81
287.906	87.81
288.138	107.81
288.369	79.81
288.6	80.81
288.831	80.81
289.062	74.81
289.293	100.81
289.524	83.81
289.755	78.81
289.986	82.81
290.217	87.81
290.448	88.81
290.679	79.81
290.91	83.81
291.141	89.81
291.371	81.81
291.602	84.81
291.833	91.81
292.064	79.81
292.295	78.81
292.526	86.81
292.757	77.81
292.987	71.81
293.218	70.81
293.449	88.81
293.68	75.81
293.91	83.81
294.141	93.81
294.372	92.81
294.603	85.81
294.833	87.81
295.064	84.81
295.295	96.81
295.525	95.81
295.756	102.81
295.987	111.81
296.217	124.81
296.448	111.81
296.679	90.81
296.909	81.81
297.14	79.81
297.37	79.81
297.601	87.81
297.831	86.81
298.062	81.81
298.292	84.81
298.523	84.81
298.753	83.81
298.984	80.81
299.214	89.81
299.445	87.81
299.675	89.81
299.905	86.81
300.136	82.81
300.366	77.81
300.597	85.81
300.827	99.81
301.057	105.81
301.288	90.81
301.518	91.81
301.748	86.81
301.979	88.81
302.209	86.81
302.439	78.81
302.669	86.81
302.9	86.81
303.13	93.81
303.36	83.81
303.59	91.81
303.82	107.81
304.051	101.81
304.281	103.81
304.511	74.81
304.741	91.81
304.971	83.81
305.201	87.81
305.431	83.81
305.661	83.81
305.891	83.81
306.121	88.81
306.352	103.81
306.582	103.81
306.812	91.81
307.042	96.81
307.272	91.81
307.502	86.81
307.731	78.81
307.961	97.81
308.191	83.81
308.421	84.81
308.651	83.81
308.881	84.81
309.111	87.81
309.341	92.81
309.571	86.81
309.8	96.81
310.03	87.81
310.26	97.81
310.49	91.81
310.72	89.81
310.949	94.81
311.179	97.81
311.409	86.81
311.639	74.81
311.868	94.81
312.098	96.81
312.328	93.81
312.557	80.81
312.787	89.81
313.017	107.81
313.246	99.81
313.476	87.81
313.706	90.81
313.935	84.81
314.165	80.81
314.394	97.81
314.624	83.81
314.853	96.81
315.083	90.81
315.312	83.81
315.542	77.81
315.771	85.81
316.001	93.81
316.23	87.81
316.46	87.81
316.689	83.81
316.919	91.81
317.148	77.81
317.377	87.81
317.607	90.81
317.836	94.81
318.065	75.81
318.295	74.81
318.524	85.81
318.753	90.81
318.983	85.81
319.212	95.81
319.441	100.81
319.67	96.81
319.9	94.81
320.129	96.81
320.358	96.81
320.587	98.81
320.816	89.81
321.046	84.81
321.275	87.81
321.504	89.81
321.733	85.81
321.962	83.81
322.191	98.81
322.42	96.81
322.649	114.81
322.878	107.81
323.108	109.81
323.337	118.81
323.566	115.81
323.795	123.81
324.024	195.81
324.253	339.81
324.482	726.81
324.71	1453.81
324.939	1938.81
325.168	695.81
325.397	203.81
325.626	132.81
325.855	120.81
326.084	115.81
326.313	124.81
326.542	159.81
326.77	207.81
326.999	391.81
327.228	854.81
327.457	1555.81
327.686	1200.81
327.914	335.81
328.143	224.81
328.372	163.81
328.6	101.81
328.829	109.81
329.058	117.81
329.287	121.81
329.515	93.81
329.744	105.81
329.972	97.81
330.201	95.81
330.43	105.81
330.658	107.81
330.887	126.81
331.115	105.81
331.344	82.81
331.572	97.81
331.801	86.81
332.03	87.81
332.258	103.81
332.486	85.81
332.715	81.81
332.943	92.81
333.172	91.81
333.4	98.81
333.629	94.81
333.857	106.81
334.085	91.81
334.314	98.81
334.542	83.81
334.771	96.81
334.999	85.81
335.227	94.81
335.455	84.81
335.684	93.81
335.912	95.81
336.14	85.81
336.369	101.81
336.597	92.81
336.825	77.81
337.053	77.81
337.281	97.81
337.51	96.81
337.738	81.81
337.966	97.81
338.194	102.81
338.422	132.81
338.65	103.81
338.878	93.81
339.106	94.81
339.334	83.81
339.562	88.81
339.79	85.81
340.018	94.81
340.246	97.81
340.474	87.81
340.702	85.81
340.93	89.81
341.158	81.81
341.386	66.81
341.614	85.81
341.842	96.81
342.07	84.81
342.298	95.81
342.526	85.81
342.754	85.81
342.981	96.81
343.209	91.81
343.437	91.81
343.665	85.81
343.893	83.81
344.12	91.81
344.348	86.81
344.576	97.81
344.804	90.81
345.031	95.81
345.259	88.81
345.487	88.81
345.714	102.81
345.942	101.81
346.17	87.81
346.397	89.81
346.625	96.81
346.853	95.81
347.08	94.81
347.308	94.81
347.535	107.81
347.763	91.81
347.99	85.81
348.218	80.81
348.445	96.81
348.673	86.81
348.9	100.81
349.128	96.81
349.355	82.81
349.583	82.81
349.81	92.81
350.037	91.81
350.265	85.81
350.492	102.81
350.72	78.81
350.947	99.81
351.174	102.81
351.402	97.81
351.629	89.81
351.856	94.81
352.083	95.81
352.311	106.81
352.538	104.81
352.765	91.81
352.992	99.81
353.22	109.81
353.447	97.81
353.674	91.81
353.901	105.81
354.128	81.81
354.355	103.81
354.583	92.81
354.81	85.81
355.037	89.81
355.264	92.81
355.491	90.81
355.718	75.81
355.945	86.81
356.172	100.81
356.399	74.81
356.626	81.81
356.853	97.81
357.08	92.81
357.307	94.81
357.534	91.81
357.761	99.81
357.988	105.81
358.215	88.81
358.441	78.81
358.668	88.81
358.895	87.81
359.122	85.81
359.349	92.81
359.576	93.81
359.802	97.81
360.029	100.81
360.256	110.81
360.483	89.81
360.709	87.81
360.936	87.81
361.163	104.81
361.39	92.81
361.616	89.81
361.843	92.81
362.07	99.81
362.296	90.81
362.523	86.81
362.749	92.81
362.976	88.81
363.203	86.81
363.429	85.81
363.656	77.81
363.882	76.81
364.109	81.81
364.335	85.81
364.562	88.81
364.788	84.81
365.015	83.81
365.241	89.81
365.468	96.81
365.694	105.81
365.92	97.81
366.147	100.81
366.373	90.81
366.599	85.81
366.826	86.81
367.052	84.81
367.278	88.81
367.505	87.81
367.731	89.81
367.957	94.81
368.184	93.81
368.41	94.81
368.636	95.81
368.862	111.81
369.089	98.81
369.315	89.81
369.541	96.81
369.767	91.81
369.993	93.81
370.219	78.81
370.445	87.81
370.672	63.81
370.898	85.81
371.124	69.81
371.35	86.81
371.576	78.81
371.802	77.81
372.028	83.81
372.254	80.81
372.48	80.81
372.706	92.81
372.932	92.81
373.158	70.81
373.384	92.81
373.61	90.81
373.835	84.81
374.061	88.81
374.287	80.81
374.513	89.81
374.739	84.81
374.965	79.81
375.191	84.81
375.416	101.81
375.642	92.81
375.868	78.81
376.094	95.81
376.319	76.81
376.545	79.81
376.771	78.81
376.997	81.81
377.222	77.81
377.448	92.81
377.674	87.81
377.899	90.81
378.125	89.81
378.35	84.81
378.576	75.81
378.802	95.81
379.027	79.81
379.253	99.81
379.478	88.81
379.704	69.81
379.929	91.81
380.155	88.81
380.38	111.81
380.606	99.81
380.831	92.81
381.057	105.81
381.282	94.81
381.507	96.81
381.733	99.81
381.958	102.81
382.184	103.81
382.409	87.81
382.634	88.81
382.86	92.81
383.085	91.81
383.31	98.81
383.535	95.81
383.761	80.81
383.986	102.81
384.211	94.81
384.436	100.81
384.662	102.81
384.887	101.81
385.112	110.81
385.337	92.81
385.562	106.81
385.787	91.81
386.013	84.81
386.238	105.81
386.463	100.81
386.688	99.81
386.913	109.81
387.138	103.81
387.363	101.81
387.588	103.81
387.813	103.81
388.038	111.81
388.263	99.81
388.488	107.81
388.713	107.81
388.938	84.81
389.163	99.81
389.387	103.81
389.612	99.81
389.837	96.81
390.062	86.81
390.287	109.81
390.512	94.81
390.736	98.81
390.961	84.81
391.186	91.81
391.411	99.81
391.636	94.81
391.86	88.81
392.085	86.81
392.31	89.81
392.534	75.81
392.759	85.81
392.984	88.81
393.208	89.81
393.433	108.81
393.658	110.81
393.882	96.81
394.107	81.81
394.331	72.81
394.556	88.81
394.78	87.81
395.005	85.81
395.229	98.81
395.454	78.81
395.678	88.81
395.903	80.81
396.127	86.81
396.352	78.81
396.576	72.81
396.801	99.81
397.025	89.81
397.249	88.81
397.474	95.81
397.698	85.81
397.922	85.81
398.147	77.81
398.371	73.81
398.595	86.81
398.82	85.81
399.044	74.81
399.268	73.81
399.492	95.81
399.717	77.81
399.941	87.81
400.165	104.81
400.389	86.81
400.613	93.81
400.837	92.81
401.062	106.81
401.286	91.81
401.51	85.81
401.734	74.81
401.958	99.81
402.182	110.81
402.406	138.81
402.63	100.81
402.854	81.81
403.078	88.81
403.302	64.81
403.526	82.81
403.75	87.81
403.974	91.81
404.198	81.81
404.422	84.81
404.645	79.81
404.869	92.81
405.093	91.81
405.317	88.81
405.541	77.81
405.765	78.81
405.988	100.81
406.212	150.81
406.436	181.81
406.66	120.81
406.883	86.81
407.107	95.81
407.331	100.81
407.555	80.81
407.778	83.81
408.002	77.81
408.226	85.81
408.449	86.81
408.673	87.81
408.896	92.81
409.12	92.81
409.344	80.81
409.567	81.81
409.791	94.81
410.014	84.81
410.238	90.81
410.461	82.81
410.685	84.81
410.908	92.81
411.132	99.81
411.355	89.81
411.578	82.81
411.802	88.81
412.025	78.81
412.249	82.81
412.472	92.81
412.695	81.81
412.919	100.81
413.142	86.81
413.365	77.81
413.589	76.81
413.812	79.81
414.035	87.81
414.258	96.81
414.482	97.81
414.705	87.81
414.928	89.81
415.151	81.81
415.374	73.81
415.597	89.81
415.821	86.81
416.044	95.81
416.267	96.81
416.49	96.81
416.713	70.81
416.936	86.81
417.159	96.81
417.382	81.81
417.605	96.81
417.828	81.81
418.051	81.81
418.274	96.81
418.497	77.81
418.72	85.81
418.943	92.81
419.166	63.81
419.389	68.81
419.611	69.81
419.834	84.81
420.057	86.81
420.28	81.81
420.503	96.81
420.726	82.81
420.948	97.81
421.171	89.81
421.394	91.81
421.617	89.81
421.839	92.81
422.062	96.81
422.285	96.81
422.507	91.81
422.73	97.81
422.953	101.81
423.175	88.81
423.398	85.81
423.621	77.81
423.843	78.81
424.066	77.81
424.288	88.81
424.511	96.81
424.733	91.81
424.956	84.81
425.178	103.81
425.401	103.81
425.623	104.81
425.846	85.81
426.068	91.81
426.291	86.81
426.513	104.81
426.735	101.81
426.958	88.81
427.18	101.81
427.402	123.81
427.625	143.81
427.847	110.81
428.069	86.81
428.292	76.81
428.514	90.81
428.736	88.81
428.958	80.81
429.181	91.81
429.403	89.81
429.625	74.81
429.847	96.81
430.069	104.81
430.292	83.81
430.514	77.81
430.736	84.81
430.958	84.81
431.18	83.81
431.402	82.81
431.624	73.81
431.846	87.81
432.068	95.81
432.29	88.81
432.512	81.81
432.734	72.81
432.956	87.81
433.178	100.81
433.4	101.81
433.622	93.81
433.844	94.81
434.066	93.81
434.287	79.81
434.509	86.81
434.731	90.81
434.953	78.81
435.175	95.81
435.397	72.81
435.618	85.81
435.84	107.81
436.062	120.81
436.284	111.81
436.505	92.81
436.727	93.81
436.949	81.81
437.17	85.81
437.392	89.81
437.614	84.81
437.835	92.81
438.057	103.81
438.278	108.81
438.5	89.81
438.721	106.81
438.943	89.81
439.165	92.81
439.386	77.81
439.608	89.81
439.829	91.81
440.05	116.81
440.272	136.81
440.493	103.81
440.715	88.81
440.936	79.81
441.158	86.81
441.379	94.81
441.6	87.81
441.822	100.81
442.043	91.81
442.264	95.81
442.486	93.81
442.707	82.81
442.928	97.81
443.149	118.81
443.371	110.81
443.592	101.81
443.813	90.81
444.034	94.81
444.255	87.81
444.476	96.81
444.698	71.81
444.919	83.81
445.14	131.81
445.361	122.81
445.582	123.81
445.803	126.81
446.024	140.81
446.245	131.81
446.466	93.81
446.687	69.81
446.908	81.81
447.129	75.81
447.35	89.81
447.571	87.81
447.792	82.81
448.013	88.81
448.234	97.81
448.455	96.81
448.675	115.81
448.896	124.81
449.117	109.81
449.338	84.81
449.559	142.81
449.779	136.81
450	88.81
450.221	81.81
450.442	64.81
450.662	87.81
450.883	102.81
451.104	93.81
451.324	86.81
451.545	71.81
451.766	98.81
451.986	94.81
452.207	78.81
452.428	92.81
452.648	88.81
452.869	87.81
453.089	106.81
453.31	92.81
453.53	84.81
453.751	86.81
453.971	93.81
454.192	107.81
454.412	85.81
454.633	86.81
454.853	86.81
455.073	90.81
455.294	92.81
455.514	100.81
455.734	85.81
455.955	84.81
456.175	78.81
456.395	86.81
456.616	69.81
456.836	88.81
457.056	79.81
457.276	89.81
457.497	94.81
457.717	81.81
457.937	64.81
458.157	77.81
458.377	80.81
458.598	99.81
458.818	133.81
459.038	132.81
459.258	98.81
459.478	101.81
459.698	84.81
459.918	71.81
460.138	83.81
460.358	85.81
460.578	81.81
460.798	94.81
461.018	86.81
461.238	89.81
461.458	81.81
461.678	93.81
461.898	89.81
462.118	77.81
462.338	85.81
462.558	100.81
462.777	90.81
462.997	79.81
463.217	83.81
463.437	88.81
463.657	89.81
463.876	78.81
464.096	72.81
464.316	84.81
464.536	73.81
464.755	87.81
464.975	116.81
465.195	147.81
465.414	144.81
465.634	87.81
465.854	69.81
466.073	73.81
466.293	80.81
466.512	76.81
466.732	76.81
466.951	92.81
467.171	91.81
467.391	79.81
467.61	105.81
467.829	89.81
468.049	72.81
468.268	83.81
468.488	90.81
468.707	72.81
468.927	85.81
469.146	86.81
469.365	78.81
469.585	87.81
469.804	75.81
470.023	96.81
470.243	97.81
470.462	91.81
470.681	83.81
470.901	72.81
471.12	70.81
471.339	90.81
471.558	75.81
471.777	76.81
471.997	83.81
472.216	76.81
472.435	92.81
472.654	92.81
472.873	88.81
473.092	80.81
473.311	82.81
473.53	87.81
473.749	78.81
473.968	90.81
474.187	88.81
474.406	86.81
474.625	75.81
474.844	102.81
475.063	73.81
475.282	93.81
475.501	83.81
475.72	91.81
475.939	87.81
476.158	94.81
476.377	87.81
476.596	87.81
476.814	79.81
477.033	76.81
477.252	101.81
477.471	97.81
477.69	94.81
477.908	85.81
478.127	77.81
478.346	84.81
478.564	83.81
478.783	94.81
479.002	95.81
479.22	85.81
479.439	99.81
479.658	92.81
479.876	89.81
480.095	81.81
480.313	92.81
480.532	88.81
480.751	89.81
480.969	100.81
481.188	81.81
481.406	97.81
481.624	77.81
481.843	92.81
482.061	85.81
482.28	84.81
482.498	87.81
482.717	78.81
482.935	80.81
483.153	85.81
483.372	82.81
483.59	88.81
483.808	81.81
484.027	87.81
484.245	84.81
484.463	81.81
484.681	96.81
484.9	99.81
485.118	93.81
485.336	102.81
485.554	92.81
485.772	95.81
485.99	90.81
486.209	91.81
486.427	79.81
486.645	96.81
486.863	89.81
487.081	108.81
487.299	88.81
487.517	94.81
487.735	101.81
487.953	83.81
488.171	100.81
488.389	89.81
488.607	91.81
488.825	83.81
489.043	97.81
489.261	87.81
489.479	95.81
489.696	95.81
489.914	87.81
490.132	98.81
490.35	101.81
490.568	92.81
490.786	88.81
491.003	85.81
491.221	90.81
491.439	91.81
491.657	89.81
491.874	77.81
492.092	67.81
492.31	93.81
492.527	85.81
492.745	83.81
492.963	92.81
493.18	89.81
493.398	96.81
493.615	85.81
493.833	92.81
494.05	95.81
494.268	95.81
494.485	75.81
494.703	88.81
494.92	86.81
495.138	90.81
495.355	99.81
495.573	85.81
495.79	91.81
496.008	110.81
496.225	85.81
496.442	55.81
496.66	71.81
496.877	73.81
497.094	75.81
497.312	79.81
497.529	71.81
497.746	79.81
497.963	78.81
498.181	80.81
498.398	84.81
498.615	111.81
498.832	99.81
499.049	70.81
499.267	104.81
499.484	91.81
499.701	88.81
499.918	96.81
500.135	94.81
500.352	85.81
500.569	79.81
500.786	97.81
501.003	80.81
501.22	80.81
501.437	91.81
501.654	83.81
501.871	87.81
502.088	76.81
502.305	97.81
502.522	84.81
502.739	88.81
502.956	79.81
503.172	89.81
503.389	87.81
503.606	106.81
503.823	84.81
504.04	85.81
504.256	87.81
504.473	64.81
504.69	90.81
504.907	81.81
505.123	79.81
505.34	96.81
505.557	87.81
505.773	92.81
505.99	94.81
506.207	84.81
506.423	86.81
506.64	83.81
506.856	92.81
507.073	100.81
507.289	89.81
507.506	93.81
507.722	90.81
507.939	84.81
508.155	84.81
508.372	94.81
508.588	88.81
508.805	95.81
509.021	110.81
509.238	94.81
509.454	105.81
509.67	98.81
509.887	83.81
510.103	116.81
510.319	173.81
510.536	613.81
510.752	1844.81
510.968	523.81
511.184	145.81
511.401	100.81
511.617	85.81
511.833	88.81
512.049	101.81
512.265	81.81
512.481	84.81
512.698	87.81
512.914	72.81
513.13	79.81
513.346	82.81
513.562	92.81
513.778	89.81
513.994	99.81
514.21	94.81
514.426	104.81
514.642	117.81
514.858	112.81
515.074	158.81
515.29	383.81
515.506	1150.81
515.721	421.81
515.937	132.81
516.153	95.81
516.369	109.81
516.585	100.81
516.801	97.81
517.016	84.81
517.232	93.81
517.448	106.81
517.664	93.81
517.879	79.81
518.095	96.81
518.311	88.81
518.527	96.81
518.742	87.81
518.958	75.81
519.173	81.81
519.389	87.81
519.605	91.81
519.82	95.81
520.036	106.81
520.251	103.81
520.467	107.81
520.682	109.81
520.898	91.81
521.113	113.81
521.329	125.81
521.544	170.81
521.76	447.81
521.975	1864.81
522.19	1118.81
522.406	270.81
522.621	131.81
522.836	105.81
523.052	86.81
523.267	90.81
523.482	92.81
523.698	96.81
523.913	115.81
524.128	99.81
524.343	83.81
524.559	84.81
524.774	79.81
524.989	83.81
525.204	92.81
525.419	97.81
525.634	88.81
525.849	86.81
526.064	70.81
526.28	76.81
526.495	76.81
526.71	91.81
526.925	81.81
527.14	90.81
527.355	93.81
527.57	80.81
527.785	67.81
527.999	78.81
528.214	91.81
528.429	87.81
528.644	93.81
528.859	74.81
529.074	92.81
529.289	117.81
529.503	149.81
529.718	85.81
529.933	80.81
530.148	91.81
530.363	97.81
530.577	80.81
530.792	90.81
531.007	84.81
531.221	88.81
531.436	75.81
531.651	83.81
531.865	85.81
532.08	91.81
532.295	88.81
532.509	98.81
532.724	87.81
532.938	90.81
533.153	95.81
533.367	92.81
533.582	103.81
533.796	84.81
534.011	92.81
534.225	93.81
534.44	78.81
534.654	99.81
534.868	94.81
535.083	97.81
535.297	94.81
535.511	101.81
535.726	99.81
535.94	91.81
536.154	91.81
536.369	77.81
536.583	93.81
536.797	89.81
537.011	90.81
537.225	91.81
537.44	85.81
537.654	69.81
537.868	80.81
538.082	79.81
538.296	61.81
538.51	77.81
538.724	92.81
538.938	94.81
539.153	81.81
539.367	94.81
539.581	83.81
539.795	82.81
540.009	92.81
540.222	95.81
540.436	95.81
540.65	91.81
540.864	89.81
541.078	83.81
541.292	89.81
541.506	86.81
541.72	89.81
541.934	86.81
542.147	91.81
542.361	95.81
542.575	95.81
542.789	74.81
543.002	85.81
543.216	81.81
543.43	104.81
543.644	87.81
543.857	94.81
544.071	110.81
544.285	97.81
544.498	87.81
544.712	83.81
544.925	87.81
545.139	92.81
545.352	93.81
545.566	81.81
545.779	87.81
545.993	75.81
546.206	75.81
546.42	76.81
546.633	89.81
546.847	89.81
547.06	73.81
547.274	85.81
547.487	78.81
547.7	91.81
547.914	71.81
548.127	91.81
548.34	90.81
548.554	86.81
548.767	96.81
548.98	81.81
549.193	75.81
549.407	79.81
549.62	89.81
549.833	86.81
550.046	77.81
550.259	95.81
550.473	86.81
550.686	86.81
550.899	85.81
551.112	69.81
551.325	79.81
551.538	77.81
551.751	88.81
551.964	94.81
552.177	94.81
552.39	99.81
552.603	86.81
552.816	87.81
553.029	69.81
553.242	96.81
553.455	78.81
553.667	97.81
553.88	93.81
554.093	80.81
554.306	86.81
554.519	81.81
554.732	81.81
554.944	85.81
555.157	76.81
555.37	79.81
555.583	87.81
555.795	93.81
556.008	72.81
556.221	96.81
556.433	82.81
556.646	85.81
556.859	83.81
557.071	88.81
557.284	92.81
557.496	87.81
557.709	84.81
557.921	91.81
558.134	88.81
558.346	99.81
558.559	94.81
558.771	87.81
558.984	91.81
559.196	86.81
559.409	90.81
559.621	90.81
559.833	101.81
560.046	84.81
560.258	79.81
560.47	86.81
560.683	83.81
560.895	81.81
561.107	87.81
561.32	85.81
561.532	73.81
561.744	88.81
561.956	85.81
562.168	87.81
562.381	78.81
562.593	88.81
562.805	86.81
563.017	95.81
563.229	88.81
563.441	101.81
563.653	92.81
563.865	67.81
564.077	86.81
564.289	91.81
564.501	96.81
564.713	93.81
564.925	92.81
565.137	103.81
565.349	97.81
565.561	80.81
565.773	80.81
565.985	74.81
566.197	82.81
566.408	67.81
566.62	88.81
566.832	80.81
567.044	81.81
567.255	86.81
567.467	81.81
567.679	79.81
567.891	75.81
568.102	81.81
568.314	91.81
568.526	85.81
568.737	77.81
568.949	72.81
569.161	95.81
569.372	85.81
569.584	81.81
569.795	109.81
570.007	109.81
570.218	202.81
570.43	124.81
570.641	85.81
570.853	79.81
571.064	111.81
571.276	74.81
571.487	86.81
571.698	77.81
571.91	88.81
572.121	79.81
572.333	81.81
572.544	76.81
572.755	90.81
572.966	76.81
573.178	90.81
573.389	83.81
573.6	83.81
573.811	92.81
574.023	84.81
574.234	80.81
574.445	84.81
574.656	77.81
574.867	79.81
575.078	91.81
575.289	90.81
575.501	83.81
575.712	91.81
575.923	85.81
576.134	94.81
576.345	93.81
576.556	95.81
576.767	95.81
576.978	83.81
577.188	68.81
577.399	94.81
577.61	76.81
577.821	91.81
578.032	114.81
578.243	222.81
578.454	607.81
578.665	192.81
578.875	111.81
579.086	77.81
579.297	80.81
579.508	89.81
579.718	74.81
579.929	74.81
580.14	80.81
580.35	87.81
580.561	71.81
580.772	90.81
580.982	79.81
581.193	95.81
581.403	89.81
581.614	100.81
581.825	93.81
582.035	93.81
582.246	79.81
582.456	91.81
582.667	83.81
582.877	71.81
583.087	83.81
583.298	71.81
583.508	80.81
583.719	104.81
583.929	87.81
584.139	84.81
584.35	87.81
584.56	79.81
584.77	81.81
584.981	101.81
585.191	86.81
585.401	84.81
585.611	85.81
585.821	83.81
586.032	84.81
586.242	95.81
586.452	87.81
586.662	78.81
586.872	101.81
587.082	69.81
587.292	91.81
587.502	83.81
587.713	82.81
587.923	80.81
588.133	72.81
588.343	76.81
588.553	89.81
588.762	86.81
588.972	86.81
589.182	96.81
589.392	89.81
589.602	88.81
589.812	84.81
590.022	92.81
590.232	87.81
590.441	90.81
590.651	80.81
590.861	79.81
591.071	99.81
591.281	88.81
591.49	91.81
591.7	83.81
591.91	80.81
592.119	71.81
592.329	81.81
592.539	83.81
592.748	85.81
592.958	84.81
593.167	73.81
593.377	65.81
593.587	93.81
593.796	85.81
594.006	80.81
594.215	82.81
594.424	90.81
594.634	80.81
594.843	71.81
595.053	94.81
595.262	77.81
595.472	76.81
595.681	94.81
595.89	79.81
596.1	89.81
596.309	83.81
596.518	93.81
596.727	69.81
596.937	89.81
597.146	84.81
597.355	87.81
597.564	93.81
597.774	78.81
597.983	76.81
598.192	77.81
598.401	81.81
598.61	67.81
598.819	98.81
599.028	90.81
599.237	92.81
599.446	76.81
599.655	77.81
599.864	94.81
600.073	71.81
600.282	87.81
600.491	89.81
600.7	94.81
600.909	87.81
601.118	91.81
601.327	76.81
601.536	91.81
601.745	84.81
601.953	104.81
602.162	91.81
602.371	77.81
602.58	86.81
602.789	82.81
602.997	79.81
603.206	78.81
603.415	73.81
603.623	81.81
603.832	77.81
604.041	95.81
604.249	74.81
604.458	93.81
604.666	87.81
604.875	75.81
605.084	84.81
605.292	89.81
605.501	90.81
605.709	75.81
605.918	81.81
606.126	73.81
606.334	94.81
606.543	77.81
606.751	93.81
606.96	78.81
607.168	77.81
607.376	74.81
607.585	74.81
607.793	71.81
608.001	86.81
608.21	95.81
608.418	100.81
608.626	96.81
608.834	83.81
609.043	80.81
609.251	91.81
609.459	65.81
609.667	88.81
609.875	76.81
610.083	83.81
610.291	95.81
610.499	77.81
610.707	80.81
610.916	86.81
611.124	72.81
611.332	81.81
611.54	81.81
611.748	77.81
611.955	74.81
612.163	75.81
612.371	84.81
612.579	73.81
612.787	76.81
612.995	88.81
613.203	84.81
613.411	70.81
613.618	91.81
613.826	70.81
614.034	83.81
614.242	89.81
614.449	92.81
614.657	87.81
614.865	70.81
615.072	85.81
615.28	89.81
615.488	91.81
615.695	83.81
615.903	86.81
616.111	96.81
616.318	105.81
616.526	80.81
616.733	83.81
616.941	90.81
617.148	89.81
617.356	93.81
617.563	75.81
617.771	92.81
617.978	90.81
618.185	97.81
618.393	83.81
618.6	84.81
618.807	88.81
619.015	87.81
619.222	89.81
619.429	79.81
619.637	82.81
619.844	79.81
620.051	92.81
620.258	75.81
620.466	90.81
620.673	86.81
620.88	80.81
621.087	74.81
621.294	96.81
621.501	84.81
621.708	74.81
621.915	83.81
622.122	82.81
622.329	70.81
622.536	89.81
622.743	83.81
622.95	99.81
623.157	73.81
623.364	91.81
623.571	88.81
623.778	83.81
623.985	89.81
624.192	88.81
624.399	80.81
624.606	100.81
624.812	73.81
625.019	83.81
625.226	69.81
625.433	82.81
625.639	85.81
625.846	86.81
626.053	75.81
626.259	88.81
626.466	86.81
626.673	83.81
626.879	77.81
627.086	81.81
627.293	79.81
627.499	94.81
627.706	87.81
627.912	82.81
628.119	92.81
628.325	88.81
628.532	80.81
628.738	85.81
628.945	75.81
629.151	85.81
629.357	75.81
629.564	85.81
629.77	80.81
629.976	87.81
630.183	83.81
630.389	95.81
630.595	93.81
630.802	71.81
631.008	78.81
631.214	86.81
631.42	68.81
631.627	94.81
631.833	67.81
632.039	85.81
632.245	93.81
632.451	85.81
632.657	87.81
632.863	77.81
633.069	76.81
633.275	81.81
633.481	91.81
633.688	88.81
633.893	84.81
634.099	78.81
634.305	83.81
634.511	88.81
634.717	80.81
634.923	92.81
635.129	79.81
635.335	85.81
635.541	78.81
635.747	81.81
635.952	80.81
636.158	70.81
636.364	78.81
636.57	74.81
636.775	87.81
636.981	83.81
637.187	69.81
637.392	81.81
637.598	80.81
637.804	84.81
638.009	83.81
638.215	89.81
638.421	65.81
638.626	88.81
638.832	90.81
639.037	89.81
639.243	80.81
639.448	97.81
639.654	94.81
639.859	85.81
640.065	71.81
640.27	83.81
640.475	74.81
640.681	68.81
640.886	87.81
641.091	74.81
641.297	84.81
641.502	94.81
641.707	100.81
641.913	79.81
642.118	83.81
642.323	88.81
642.528	92.81
642.733	94.81
642.939	96.81
643.144	106.81
643.349	75.81
643.554	94.81
643.759	88.81
643.964	90.81
644.169	85.81
644.374	75.81
644.579	84.81
644.784	71.81
644.989	84.81
645.194	77.81
645.399	91.81
645.604	72.81
645.809	67.81
646.014	97.81
646.219	87.81
646.423	94.81
646.628	62.81
646.833	87.81
647.038	87.81
647.243	79.81
647.447	84.81
647.652	74.81
647.857	79.81
648.062	87.81
648.266	88.81
648.471	90.81
648.676	100.81
648.88	85.81
649.085	77.81
649.289	88.81
649.494	92.81
649.698	125.81
649.903	87.81
650.107	80.81
650.312	94.81
650.516	91.81
650.721	81.81
650.925	84.81
651.13	87.81
651.334	83.81
651.539	75.81
651.743	79.81
651.947	92.81
652.152	83.81
652.356	80.81
652.56	79.81
652.764	72.81
652.969	80.81
653.173	69.81
653.377	88.81
653.581	83.81
653.785	76.81
653.99	73.81
654.194	83.81
654.398	91.81
654.602	78.81
654.806	79.81
655.01	102.81
655.214	80.81
655.418	97.81
655.622	85.81
655.826	94.81
656.03	90.81
656.234	88.81
656.438	91.81
656.642	78.81
656.846	96.81
657.049	85.81
657.253	79.81
657.457	87.81
657.661	85.81
657.865	83.81
658.068	78.81
658.272	75.81
658.476	75.81
658.68	79.81
658.883	80.81
659.087	83.81
659.291	92.81
659.494	92.81
659.698	80.81
659.901	69.81
660.105	67.81
660.309	68.81
660.512	94.81
660.716	83.81
660.919	74.81
661.123	74.81
661.326	78.81
661.53	87.81
661.733	85.81
661.936	74.81
662.14	69.81
662.343	77.81
662.546	87.81
662.75	98.81
662.953	80.81
663.156	76.81
663.36	87.81
663.563	81.81
663.766	69.81
663.969	83.81
664.173	78.81
664.376	83.81
664.579	72.81
664.782	71.81
664.985	83.81
665.188	93.81
665.391	80.81
665.594	87.81
665.797	71.81
666	75.81
666.203	76.81
666.406	79.81
666.609	83.81
666.812	76.81
667.015	80.81
667.218	76.81
667.421	76.81
667.624	79.81
667.827	72.81
668.03	80.81
668.232	92.81
668.435	88.81
668.638	84.81
668.841	79.81
669.043	84.81
669.246	78.81
669.449	79.81
669.651	75.81
669.854	73.81
670.057	82.81
670.259	92.81
670.462	80.81
670.665	81.81
670.867	64.81
671.07	80.81
671.272	91.81
671.475	80.81
671.677	84.81
671.88	91.81
672.082	82.81
672.284	83.81
672.487	85.81
672.689	79.81
672.892	60.81
