Data from 15780_3_HRD10591_00005.txt Node
Date: Mon Jan 19 14:20:00 EST 2026
User: Yrep
Spectrometer: HR+D1059
Trigger mode: 1
Integration Time (sec): 1.000000E-1
Scans to average: 1
Electric dark correction enabled: true
Nonlinearity correction enabled: false
Boxcar width: 0
XAxis mode: Wavelengths
Number of Pixels in Spectrum: 2048
>>>>>Begin Spectral Data<<<<<
223.165	-8.5
223.4	-8.5
223.635	-8.5
223.869	-18.5
224.104	-22.5
224.338	-18.5
224.573	-18.5
224.808	-16.5
225.042	-7.5
225.277	-16.5
225.511	-2.5
225.746	0.5
225.98	8.5
226.215	3.5
226.449	23.5
226.683	32.5
226.918	33.5
227.152	27.5
227.387	32.5
227.621	40.5
227.856	32.5
228.09	35.5
228.324	55.5
228.559	48.5
228.793	49.5
229.027	68.5
229.262	71.5
229.496	57.5
229.73	81.5
229.964	52.5
230.199	63.5
230.433	71.5
230.667	62.5
230.901	73.5
231.136	67.5
231.37	67.5
231.604	85.5
231.838	75.5
232.072	75.5
232.306	63.5
232.541	85.5
232.775	70.5
233.009	86.5
233.243	78.5
233.477	74.5
233.711	73.5
233.945	75.5
234.179	68.5
234.413	79.5
234.647	74.5
234.881	89.5
235.115	78.5
235.349	71.5
235.583	73.5
235.817	82.5
236.051	66.5
236.285	72.5
236.519	73.5
236.753	80.5
236.987	63.5
237.221	71.5
237.455	62.5
237.689	76.5
237.922	66.5
238.156	54.5
238.39	87.5
238.624	74.5
238.858	77.5
239.091	71.5
239.325	61.5
239.559	69.5
239.793	81.5
240.027	72.5
240.26	71.5
240.494	78.5
240.728	68.5
240.961	71.5
241.195	72.5
241.429	74.5
241.662	75.5
241.896	69.5
242.13	73.5
242.363	71.5
242.597	63.5
242.83	81.5
243.064	68.5
243.298	77.5
243.531	69.5
243.765	62.5
243.998	81.5
244.232	85.5
244.465	86.5
244.699	70.5
244.932	70.5
245.166	84.5
245.399	77.5
245.633	65.5
245.866	77.5
246.099	73.5
246.333	57.5
246.566	58.5
246.8	69.5
247.033	67.5
247.266	70.5
247.5	89.5
247.733	65.5
247.966	76.5
248.2	67.5
248.433	79.5
248.666	89.5
248.899	78.5
249.133	69.5
249.366	87.5
249.599	77.5
249.832	76.5
250.066	77.5
250.299	76.5
250.532	79.5
250.765	88.5
250.998	72.5
251.231	68.5
251.465	76.5
251.698	70.5
251.931	71.5
252.164	74.5
252.397	75.5
252.63	70.5
252.863	68.5
253.096	79.5
253.329	65.5
253.562	60.5
253.795	69.5
254.028	79.5
254.261	97.5
254.494	71.5
254.727	72.5
254.96	78.5
255.193	73.5
255.426	73.5
255.659	80.5
255.892	86.5
256.124	84.5
256.357	83.5
256.59	75.5
256.823	84.5
257.056	88.5
257.289	78.5
257.521	89.5
257.754	81.5
257.987	72.5
258.22	84.5
258.452	76.5
258.685	85.5
258.918	71.5
259.151	73.5
259.383	80.5
259.616	71.5
259.849	74.5
260.081	72.5
260.314	77.5
260.547	79.5
260.779	79.5
261.012	74.5
261.244	74.5
261.477	74.5
261.71	79.5
261.942	62.5
262.175	80.5
262.407	83.5
262.64	77.5
262.872	93.5
263.105	83.5
263.337	75.5
263.57	67.5
263.802	79.5
264.035	89.5
264.267	64.5
264.499	76.5
264.732	83.5
264.964	89.5
265.197	92.5
265.429	93.5
265.661	84.5
265.894	72.5
266.126	70.5
266.358	91.5
266.591	75.5
266.823	75.5
267.055	67.5
267.287	75.5
267.52	79.5
267.752	78.5
267.984	72.5
268.216	74.5
268.448	75.5
268.681	88.5
268.913	71.5
269.145	81.5
269.377	79.5
269.609	72.5
269.841	78.5
270.073	91.5
270.306	95.5
270.538	85.5
270.77	85.5
271.002	85.5
271.234	85.5
271.466	91.5
271.698	71.5
271.93	91.5
272.162	81.5
272.394	80.5
272.626	80.5
272.858	84.5
273.09	83.5
273.322	79.5
273.553	68.5
273.785	78.5
274.017	65.5
274.249	95.5
274.481	72.5
274.713	79.5
274.945	69.5
275.176	61.5
275.408	71.5
275.64	89.5
275.872	78.5
276.104	74.5
276.335	80.5
276.567	79.5
276.799	74.5
277.031	86.5
277.262	83.5
277.494	92.5
277.726	91.5
277.957	89.5
278.189	70.5
278.421	79.5
278.652	90.5
278.884	92.5
279.115	80.5
279.347	85.5
279.579	82.5
279.81	81.5
280.042	73.5
280.273	85.5
280.505	89.5
280.736	87.5
280.968	80.5
281.199	78.5
281.431	81.5
281.662	86.5
281.894	93.5
282.125	79.5
282.356	77.5
282.588	88.5
282.819	68.5
283.051	87.5
283.282	77.5
283.513	81.5
283.745	68.5
283.976	85.5
284.207	79.5
284.439	73.5
284.67	84.5
284.901	70.5
285.132	81.5
285.364	88.5
285.595	83.5
285.826	89.5
286.057	83.5
286.288	87.5
286.52	77.5
286.751	79.5
286.982	81.5
287.213	86.5
287.444	85.5
287.675	79.5
287.906	72.5
288.138	87.5
288.369	91.5
288.6	84.5
288.831	83.5
289.062	77.5
289.293	84.5
289.524	76.5
289.755	86.5
289.986	76.5
290.217	91.5
290.448	79.5
290.679	80.5
290.91	92.5
291.141	85.5
291.371	78.5
291.602	75.5
291.833	72.5
292.064	87.5
292.295	94.5
292.526	69.5
292.757	75.5
292.987	68.5
293.218	81.5
293.449	81.5
293.68	85.5
293.91	85.5
294.141	84.5
294.372	78.5
294.603	68.5
294.833	76.5
295.064	69.5
295.295	87.5
295.525	81.5
295.756	93.5
295.987	60.5
296.217	87.5
296.448	81.5
296.679	86.5
296.909	79.5
297.14	91.5
297.37	87.5
297.601	90.5
297.831	79.5
298.062	75.5
298.292	74.5
298.523	83.5
298.753	81.5
298.984	71.5
299.214	95.5
299.445	81.5
299.675	88.5
299.905	91.5
300.136	95.5
300.366	99.5
300.597	107.5
300.827	86.5
301.057	90.5
301.288	85.5
301.518	88.5
301.748	77.5
301.979	82.5
302.209	87.5
302.439	83.5
302.669	83.5
302.9	84.5
303.13	87.5
303.36	91.5
303.59	74.5
303.82	82.5
304.051	81.5
304.281	79.5
304.511	90.5
304.741	72.5
304.971	77.5
305.201	92.5
305.431	87.5
305.661	81.5
305.891	86.5
306.121	79.5
306.352	72.5
306.582	81.5
306.812	75.5
307.042	79.5
307.272	86.5
307.502	76.5
307.731	88.5
307.961	83.5
308.191	89.5
308.421	86.5
308.651	95.5
308.881	83.5
309.111	98.5
309.341	99.5
309.571	89.5
309.8	83.5
310.03	84.5
310.26	92.5
310.49	81.5
310.72	86.5
310.949	79.5
311.179	78.5
311.409	73.5
311.639	83.5
311.868	87.5
312.098	77.5
312.328	89.5
312.557	90.5
312.787	75.5
313.017	84.5
313.246	78.5
313.476	75.5
313.706	83.5
313.935	68.5
314.165	90.5
314.394	88.5
314.624	95.5
314.853	91.5
315.083	73.5
315.312	83.5
315.542	92.5
315.771	83.5
316.001	75.5
316.23	71.5
316.46	83.5
316.689	86.5
316.919	74.5
317.148	90.5
317.377	92.5
317.607	90.5
317.836	84.5
318.065	87.5
318.295	88.5
318.524	84.5
318.753	86.5
318.983	91.5
319.212	82.5
319.441	85.5
319.67	96.5
319.9	75.5
320.129	75.5
320.358	73.5
320.587	71.5
320.816	84.5
321.046	96.5
321.275	99.5
321.504	86.5
321.733	79.5
321.962	92.5
322.191	86.5
322.42	79.5
322.649	79.5
322.878	82.5
323.108	91.5
323.337	75.5
323.566	79.5
323.795	82.5
324.024	89.5
324.253	79.5
324.482	79.5
324.71	72.5
324.939	83.5
325.168	77.5
325.397	75.5
325.626	77.5
325.855	84.5
326.084	73.5
326.313	83.5
326.542	81.5
326.77	93.5
326.999	99.5
327.228	75.5
327.457	69.5
327.686	86.5
327.914	79.5
328.143	83.5
328.372	81.5
328.6	87.5
328.829	74.5
329.058	62.5
329.287	91.5
329.515	78.5
329.744	85.5
329.972	91.5
330.201	74.5
330.43	100.5
330.658	91.5
330.887	76.5
331.115	76.5
331.344	65.5
331.572	83.5
331.801	69.5
332.03	87.5
332.258	77.5
332.486	67.5
332.715	70.5
332.943	91.5
333.172	83.5
333.4	76.5
333.629	79.5
333.857	88.5
334.085	88.5
334.314	93.5
334.542	89.5
334.771	94.5
334.999	88.5
335.227	94.5
335.455	95.5
335.684	101.5
335.912	99.5
336.14	95.5
336.369	87.5
336.597	88.5
336.825	85.5
337.053	97.5
337.281	88.5
337.51	78.5
337.738	80.5
337.966	98.5
338.194	89.5
338.422	80.5
338.65	80.5
338.878	110.5
339.106	84.5
339.334	93.5
339.562	83.5
339.79	87.5
340.018	69.5
340.246	75.5
340.474	80.5
340.702	82.5
340.93	74.5
341.158	80.5
341.386	81.5
341.614	74.5
341.842	71.5
342.07	88.5
342.298	72.5
342.526	76.5
342.754	87.5
342.981	92.5
343.209	90.5
343.437	95.5
343.665	88.5
343.893	83.5
344.12	85.5
344.348	73.5
344.576	85.5
344.804	88.5
345.031	79.5
345.259	72.5
345.487	79.5
345.714	55.5
345.942	81.5
346.17	85.5
346.397	78.5
346.625	65.5
346.853	87.5
347.08	69.5
347.308	79.5
347.535	87.5
347.763	76.5
347.99	91.5
348.218	81.5
348.445	81.5
348.673	91.5
348.9	92.5
349.128	94.5
349.355	66.5
349.583	97.5
349.81	88.5
350.037	83.5
350.265	94.5
350.492	75.5
350.72	77.5
350.947	85.5
351.174	93.5
351.402	91.5
351.629	81.5
351.856	88.5
352.083	82.5
352.311	83.5
352.538	80.5
352.765	75.5
352.992	80.5
353.22	85.5
353.447	72.5
353.674	81.5
353.901	93.5
354.128	87.5
354.355	73.5
354.583	66.5
354.81	81.5
355.037	71.5
355.264	68.5
355.491	77.5
355.718	74.5
355.945	95.5
356.172	94.5
356.399	93.5
356.626	69.5
356.853	84.5
357.08	85.5
357.307	100.5
357.534	97.5
357.761	99.5
357.988	89.5
358.215	87.5
358.441	92.5
358.668	71.5
358.895	86.5
359.122	88.5
359.349	73.5
359.576	80.5
359.802	87.5
360.029	89.5
360.256	82.5
360.483	107.5
360.709	97.5
360.936	99.5
361.163	104.5
361.39	84.5
361.616	82.5
361.843	91.5
362.07	81.5
362.296	105.5
362.523	101.5
362.749	88.5
362.976	99.5
363.203	115.5
363.429	115.5
363.656	93.5
363.882	107.5
364.109	103.5
364.335	112.5
364.562	129.5
364.788	107.5
365.015	87.5
365.241	92.5
365.468	83.5
365.694	86.5
365.92	82.5
366.147	94.5
366.373	72.5
366.599	86.5
366.826	89.5
367.052	80.5
367.278	90.5
367.505	97.5
367.731	70.5
367.957	74.5
368.184	88.5
368.41	85.5
368.636	77.5
368.862	90.5
369.089	79.5
369.315	77.5
369.541	80.5
369.767	83.5
369.993	91.5
370.219	95.5
370.445	81.5
370.672	95.5
370.898	80.5
371.124	91.5
371.35	89.5
371.576	83.5
371.802	82.5
372.028	93.5
372.254	105.5
372.48	91.5
372.706	80.5
372.932	87.5
373.158	96.5
373.384	98.5
373.61	99.5
373.835	103.5
374.061	91.5
374.287	87.5
374.513	100.5
374.739	102.5
374.965	108.5
375.191	89.5
375.416	85.5
375.642	96.5
375.868	96.5
376.094	92.5
376.319	85.5
376.545	88.5
376.771	87.5
376.997	85.5
377.222	97.5
377.448	82.5
377.674	81.5
377.899	71.5
378.125	100.5
378.35	81.5
378.576	87.5
378.802	89.5
379.027	84.5
379.253	91.5
379.478	75.5
379.704	85.5
379.929	85.5
380.155	79.5
380.38	67.5
380.606	91.5
380.831	84.5
381.057	92.5
381.282	83.5
381.507	77.5
381.733	92.5
381.958	95.5
382.184	97.5
382.409	95.5
382.634	102.5
382.86	92.5
383.085	95.5
383.31	93.5
383.535	98.5
383.761	97.5
383.986	91.5
384.211	96.5
384.436	78.5
384.662	96.5
384.887	95.5
385.112	85.5
385.337	87.5
385.562	94.5
385.787	101.5
386.013	103.5
386.238	104.5
386.463	86.5
386.688	97.5
386.913	79.5
387.138	99.5
387.363	95.5
387.588	96.5
387.813	100.5
388.038	98.5
388.263	93.5
388.488	97.5
388.713	88.5
388.938	95.5
389.163	86.5
389.387	81.5
389.612	77.5
389.837	84.5
390.062	98.5
390.287	96.5
390.512	90.5
390.736	87.5
390.961	70.5
391.186	80.5
391.411	81.5
391.636	97.5
391.86	73.5
392.085	92.5
392.31	88.5
392.534	103.5
392.759	114.5
392.984	132.5
393.208	187.5
393.433	256.5
393.658	194.5
393.882	126.5
394.107	92.5
394.331	109.5
394.556	132.5
394.78	107.5
395.005	98.5
395.229	88.5
395.454	95.5
395.678	94.5
395.903	137.5
396.127	135.5
396.352	146.5
396.576	150.5
396.801	200.5
397.025	227.5
397.249	141.5
397.474	111.5
397.698	103.5
397.922	79.5
398.147	73.5
398.371	77.5
398.595	100.5
398.82	95.5
399.044	87.5
399.268	75.5
399.492	80.5
399.717	85.5
399.941	99.5
400.165	86.5
400.389	95.5
400.613	85.5
400.837	79.5
401.062	91.5
401.286	80.5
401.51	79.5
401.734	74.5
401.958	94.5
402.182	88.5
402.406	84.5
402.63	96.5
402.854	85.5
403.078	75.5
403.302	76.5
403.526	98.5
403.75	96.5
403.974	86.5
404.198	100.5
404.422	118.5
404.645	127.5
404.869	98.5
405.093	79.5
405.317	92.5
405.541	81.5
405.765	88.5
405.988	90.5
406.212	92.5
406.436	71.5
406.66	91.5
406.883	88.5
407.107	97.5
407.331	107.5
407.555	93.5
407.778	102.5
408.002	96.5
408.226	84.5
408.449	85.5
408.673	74.5
408.896	77.5
409.12	76.5
409.344	75.5
409.567	88.5
409.791	95.5
410.014	93.5
410.238	96.5
410.461	85.5
410.685	84.5
410.908	89.5
411.132	88.5
411.355	87.5
411.578	83.5
411.802	82.5
412.025	92.5
412.249	83.5
412.472	61.5
412.695	77.5
412.919	73.5
413.142	89.5
413.365	84.5
413.589	80.5
413.812	79.5
414.035	83.5
414.258	80.5
414.482	77.5
414.705	77.5
414.928	90.5
415.151	76.5
415.374	86.5
415.597	81.5
415.821	79.5
416.044	95.5
416.267	69.5
416.49	81.5
416.713	78.5
416.936	94.5
417.159	75.5
417.382	74.5
417.605	72.5
417.828	99.5
418.051	101.5
418.274	81.5
418.497	73.5
418.72	63.5
418.943	86.5
419.166	92.5
419.389	100.5
419.611	78.5
419.834	95.5
420.057	79.5
420.28	86.5
420.503	87.5
420.726	93.5
420.948	86.5
421.171	102.5
421.394	100.5
421.617	116.5
421.839	132.5
422.062	131.5
422.285	171.5
422.507	273.5
422.73	356.5
422.953	344.5
423.175	245.5
423.398	153.5
423.621	123.5
423.843	109.5
424.066	98.5
424.288	89.5
424.511	89.5
424.733	82.5
424.956	79.5
425.178	85.5
425.401	91.5
425.623	87.5
425.846	94.5
426.068	99.5
426.291	84.5
426.513	90.5
426.735	89.5
426.958	80.5
427.18	87.5
427.402	99.5
427.625	100.5
427.847	93.5
428.069	110.5
428.292	125.5
428.514	138.5
428.736	114.5
428.958	125.5
429.181	136.5
429.403	95.5
429.625	99.5
429.847	124.5
430.069	153.5
430.292	187.5
430.514	157.5
430.736	131.5
430.958	135.5
431.18	110.5
431.402	100.5
431.624	103.5
431.846	99.5
432.068	143.5
432.29	102.5
432.512	86.5
432.734	95.5
432.956	89.5
433.178	88.5
433.4	95.5
433.622	79.5
433.844	79.5
434.066	100.5
434.287	88.5
434.509	86.5
434.731	89.5
434.953	84.5
435.175	91.5
435.397	80.5
435.618	87.5
435.84	88.5
436.062	86.5
436.284	91.5
436.505	75.5
436.727	78.5
436.949	82.5
437.17	85.5
437.392	92.5
437.614	87.5
437.835	87.5
438.057	82.5
438.278	91.5
438.5	104.5
438.721	82.5
438.943	94.5
439.165	81.5
439.386	94.5
439.608	97.5
439.829	86.5
440.05	63.5
440.272	79.5
440.493	101.5
440.715	89.5
440.936	91.5
441.158	94.5
441.379	78.5
441.6	67.5
441.822	111.5
442.043	90.5
442.264	116.5
442.486	130.5
442.707	160.5
442.928	117.5
443.149	97.5
443.371	153.5
443.592	244.5
443.813	207.5
444.034	105.5
444.255	94.5
444.476	81.5
444.698	94.5
444.919	104.5
445.14	154.5
445.361	191.5
445.582	280.5
445.803	253.5
446.024	124.5
446.245	88.5
446.466	81.5
446.687	71.5
446.908	88.5
447.129	93.5
447.35	77.5
447.571	82.5
447.792	79.5
448.013	80.5
448.234	94.5
448.455	77.5
448.675	83.5
448.896	89.5
449.117	72.5
449.338	93.5
449.559	98.5
449.779	87.5
450	91.5
450.221	79.5
450.442	80.5
450.662	84.5
450.883	94.5
451.104	88.5
451.324	94.5
451.545	81.5
451.766	85.5
451.986	74.5
452.207	91.5
452.428	88.5
452.648	96.5
452.869	100.5
453.089	87.5
453.31	95.5
453.53	111.5
453.751	109.5
453.971	86.5
454.192	93.5
454.412	75.5
454.633	84.5
454.853	87.5
455.073	91.5
455.294	81.5
455.514	77.5
455.734	89.5
455.955	90.5
456.175	77.5
456.395	73.5
456.616	90.5
456.836	91.5
457.056	63.5
457.276	78.5
457.497	89.5
457.717	95.5
457.937	103.5
458.157	124.5
458.377	120.5
458.598	127.5
458.818	123.5
459.038	92.5
459.258	100.5
459.478	84.5
459.698	76.5
459.918	92.5
460.138	89.5
460.358	81.5
460.578	108.5
460.798	125.5
461.018	115.5
461.238	83.5
461.458	79.5
461.678	97.5
461.898	83.5
462.118	98.5
462.338	83.5
462.558	58.5
462.777	67.5
462.997	69.5
463.217	87.5
463.437	87.5
463.657	77.5
463.876	81.5
464.096	83.5
464.316	79.5
464.536	73.5
464.755	92.5
464.975	87.5
465.195	73.5
465.414	83.5
465.634	91.5
465.854	81.5
466.073	79.5
466.293	83.5
466.512	70.5
466.732	77.5
466.951	77.5
467.171	88.5
467.391	76.5
467.61	77.5
467.829	94.5
468.049	71.5
468.268	97.5
468.488	87.5
468.707	95.5
468.927	83.5
469.146	77.5
469.365	91.5
469.585	79.5
469.804	93.5
470.023	91.5
470.243	81.5
470.462	73.5
470.681	92.5
470.901	66.5
471.12	83.5
471.339	91.5
471.558	90.5
471.777	87.5
471.997	91.5
472.216	89.5
472.435	73.5
472.654	86.5
472.873	87.5
473.092	78.5
473.311	69.5
473.53	79.5
473.749	78.5
473.968	103.5
474.187	73.5
474.406	86.5
474.625	78.5
474.844	81.5
475.063	67.5
475.282	83.5
475.501	82.5
475.72	93.5
475.939	89.5
476.158	97.5
476.377	97.5
476.596	84.5
476.814	73.5
477.033	83.5
477.252	88.5
477.471	85.5
477.69	85.5
477.908	93.5
478.127	87.5
478.346	77.5
478.564	79.5
478.783	85.5
479.002	93.5
479.22	95.5
479.439	85.5
479.658	97.5
479.876	90.5
480.095	92.5
480.313	101.5
480.532	98.5
480.751	72.5
480.969	83.5
481.188	79.5
481.406	85.5
481.624	97.5
481.843	93.5
482.061	81.5
482.28	98.5
482.498	81.5
482.717	83.5
482.935	78.5
483.153	99.5
483.372	103.5
483.59	86.5
483.808	90.5
484.027	74.5
484.245	99.5
484.463	91.5
484.681	88.5
484.9	95.5
485.118	95.5
485.336	95.5
485.554	89.5
485.772	92.5
485.99	97.5
486.209	95.5
486.427	96.5
486.645	86.5
486.863	100.5
487.081	89.5
487.299	97.5
487.517	109.5
487.735	121.5
487.953	186.5
488.171	171.5
488.389	110.5
488.607	83.5
488.825	79.5
489.043	81.5
489.261	106.5
489.479	92.5
489.696	87.5
489.914	95.5
490.132	94.5
490.35	90.5
490.568	63.5
490.786	87.5
491.003	62.5
491.221	68.5
491.439	93.5
491.657	100.5
491.874	86.5
492.092	83.5
492.31	85.5
492.527	80.5
492.745	79.5
492.963	83.5
493.18	89.5
493.398	95.5
493.615	92.5
493.833	85.5
494.05	81.5
494.268	94.5
494.485	101.5
494.703	88.5
494.92	85.5
495.138	100.5
495.355	82.5
495.573	90.5
495.79	96.5
496.008	90.5
496.225	86.5
496.442	103.5
496.66	91.5
496.877	85.5
497.094	96.5
497.312	81.5
497.529	82.5
497.746	84.5
497.963	77.5
498.181	97.5
498.398	120.5
498.615	83.5
498.832	89.5
499.049	95.5
499.267	94.5
499.484	107.5
499.701	98.5
499.918	95.5
500.135	96.5
500.352	95.5
500.569	96.5
500.786	100.5
501.003	97.5
501.22	76.5
501.437	106.5
501.654	104.5
501.871	88.5
502.088	82.5
502.305	77.5
502.522	85.5
502.739	88.5
502.956	103.5
503.172	85.5
503.389	99.5
503.606	98.5
503.823	100.5
504.04	113.5
504.256	135.5
504.473	140.5
504.69	95.5
504.907	85.5
505.123	88.5
505.34	84.5
505.557	90.5
505.773	96.5
505.99	90.5
506.207	93.5
506.423	85.5
506.64	96.5
506.856	103.5
507.073	88.5
507.289	81.5
507.506	85.5
507.722	73.5
507.939	78.5
508.155	104.5
508.372	99.5
508.588	97.5
508.805	89.5
509.021	91.5
509.238	91.5
509.454	105.5
509.67	86.5
509.887	78.5
510.103	79.5
510.319	87.5
510.536	72.5
510.752	87.5
510.968	78.5
511.184	87.5
511.401	96.5
511.617	93.5
511.833	84.5
512.049	95.5
512.265	92.5
512.481	77.5
512.698	100.5
512.914	90.5
513.13	92.5
513.346	84.5
513.562	80.5
513.778	97.5
513.994	91.5
514.21	104.5
514.426	85.5
514.642	87.5
514.858	84.5
515.074	98.5
515.29	85.5
515.506	83.5
515.721	80.5
515.937	98.5
516.153	99.5
516.369	88.5
516.585	98.5
516.801	90.5
517.016	98.5
517.232	98.5
517.448	94.5
517.664	101.5
517.879	82.5
518.095	84.5
518.311	81.5
518.527	112.5
518.742	110.5
518.958	145.5
519.173	160.5
519.389	124.5
519.605	97.5
519.82	90.5
520.036	98.5
520.251	87.5
520.467	78.5
520.682	109.5
520.898	89.5
521.113	95.5
521.329	96.5
521.544	95.5
521.76	100.5
521.975	91.5
522.19	85.5
522.406	84.5
522.621	100.5
522.836	75.5
523.052	92.5
523.267	99.5
523.482	85.5
523.698	97.5
523.913	89.5
524.128	100.5
524.343	83.5
524.559	70.5
524.774	85.5
524.989	92.5
525.204	122.5
525.419	111.5
525.634	100.5
525.849	107.5
526.064	131.5
526.28	229.5
526.495	314.5
526.71	340.5
526.925	221.5
527.14	279.5
527.355	258.5
527.57	117.5
527.785	98.5
527.999	92.5
528.214	96.5
528.429	85.5
528.644	91.5
528.859	77.5
529.074	91.5
529.289	93.5
529.503	92.5
529.718	96.5
529.933	94.5
530.148	100.5
530.363	94.5
530.577	79.5
530.792	92.5
531.007	96.5
531.221	93.5
531.436	91.5
531.651	107.5
531.865	107.5
532.08	102.5
532.295	95.5
532.509	94.5
532.724	96.5
532.938	112.5
533.153	94.5
533.367	95.5
533.582	101.5
533.796	91.5
534.011	103.5
534.225	107.5
534.44	117.5
534.654	104.5
534.868	106.5
535.083	160.5
535.297	132.5
535.511	109.5
535.726	104.5
535.94	94.5
536.154	107.5
536.369	103.5
536.583	111.5
536.797	103.5
537.011	91.5
537.225	101.5
537.44	104.5
537.654	99.5
537.868	99.5
538.082	83.5
538.296	112.5
538.51	104.5
538.724	109.5
538.938	95.5
539.153	91.5
539.367	117.5
539.581	102.5
539.795	106.5
540.009	92.5
540.222	101.5
540.436	100.5
540.65	97.5
540.864	114.5
541.078	104.5
541.292	87.5
541.506	98.5
541.72	107.5
541.934	101.5
542.147	92.5
542.361	101.5
542.575	123.5
542.789	109.5
543.002	91.5
543.216	98.5
543.43	97.5
543.644	103.5
543.857	105.5
544.071	94.5
544.285	109.5
544.498	106.5
544.712	119.5
544.925	96.5
545.139	87.5
545.352	109.5
545.566	117.5
545.779	94.5
545.993	123.5
546.206	109.5
546.42	114.5
546.633	113.5
546.847	132.5
547.06	127.5
547.274	119.5
547.487	166.5
547.7	189.5
547.914	175.5
548.127	179.5
548.34	196.5
548.554	193.5
548.767	192.5
548.98	213.5
549.193	213.5
549.407	199.5
549.62	204.5
549.833	239.5
550.046	243.5
550.259	253.5
550.473	244.5
550.686	247.5
550.899	291.5
551.112	328.5
551.325	322.5
551.538	379.5
551.751	341.5
551.964	335.5
552.177	325.5
552.39	324.5
552.603	331.5
552.816	321.5
553.029	321.5
553.242	333.5
553.455	315.5
553.667	369.5
553.88	369.5
554.093	396.5
554.306	386.5
554.519	399.5
554.732	388.5
554.944	391.5
555.157	368.5
555.37	339.5
555.583	337.5
555.795	312.5
556.008	307.5
556.221	268.5
556.433	279.5
556.646	269.5
556.859	262.5
557.071	229.5
557.284	212.5
557.496	209.5
557.709	209.5
557.921	188.5
558.134	187.5
558.346	246.5
558.559	218.5
558.771	189.5
558.984	339.5
559.196	400.5
559.409	247.5
559.621	297.5
559.833	263.5
560.046	289.5
560.258	254.5
560.47	247.5
560.683	148.5
560.895	131.5
561.107	123.5
561.32	119.5
561.532	114.5
561.744	123.5
561.956	123.5
562.168	128.5
562.381	113.5
562.593	124.5
562.805	115.5
563.017	117.5
563.229	99.5
563.441	93.5
563.653	119.5
563.865	112.5
564.077	101.5
564.289	120.5
564.501	102.5
564.713	98.5
564.925	116.5
565.137	103.5
565.349	102.5
565.561	102.5
565.773	111.5
565.985	111.5
566.197	104.5
566.408	111.5
566.62	85.5
566.832	101.5
567.044	92.5
567.255	104.5
567.467	110.5
567.679	109.5
567.891	93.5
568.102	117.5
568.314	114.5
568.526	109.5
568.737	109.5
568.949	107.5
569.161	108.5
569.372	117.5
569.584	113.5
569.795	93.5
570.007	111.5
570.218	104.5
570.43	107.5
570.641	104.5
570.853	111.5
571.064	105.5
571.276	100.5
571.487	92.5
571.698	121.5
571.91	98.5
572.121	101.5
572.333	107.5
572.544	93.5
572.755	116.5
572.966	73.5
573.178	100.5
573.389	104.5
573.6	109.5
573.811	86.5
574.023	127.5
574.234	108.5
574.445	113.5
574.656	102.5
574.867	103.5
575.078	89.5
575.289	102.5
575.501	97.5
575.712	104.5
575.923	97.5
576.134	91.5
576.345	100.5
576.556	89.5
576.767	101.5
576.978	92.5
577.188	99.5
577.399	92.5
577.61	104.5
577.821	95.5
578.032	107.5
578.243	86.5
578.454	95.5
578.665	105.5
578.875	100.5
579.086	93.5
579.297	80.5
579.508	103.5
579.718	95.5
579.929	88.5
580.14	96.5
580.35	98.5
580.561	94.5
580.772	101.5
580.982	99.5
581.193	103.5
581.403	87.5
581.614	99.5
581.825	105.5
582.035	87.5
582.246	112.5
582.456	95.5
582.667	99.5
582.877	92.5
583.087	92.5
583.298	102.5
583.508	93.5
583.719	100.5
583.929	108.5
584.139	95.5
584.35	91.5
584.56	89.5
584.77	95.5
584.981	93.5
585.191	93.5
585.401	95.5
585.611	115.5
585.821	163.5
586.032	252.5
586.242	120.5
586.452	117.5
586.662	101.5
586.872	102.5
587.082	100.5
587.292	107.5
587.502	112.5
587.713	112.5
587.923	125.5
588.133	129.5
588.343	133.5
588.553	154.5
588.762	209.5
588.972	369.5
589.182	693.5
589.392	542.5
589.602	430.5
589.812	628.5
590.022	402.5
590.232	199.5
590.441	145.5
590.651	129.5
590.861	133.5
591.071	117.5
591.281	138.5
591.49	121.5
591.7	110.5
591.91	126.5
592.119	120.5
592.329	131.5
592.539	126.5
592.748	140.5
592.958	131.5
593.167	141.5
593.377	147.5
593.587	148.5
593.796	128.5
594.006	123.5
594.215	131.5
594.424	148.5
594.634	127.5
594.843	151.5
595.053	163.5
595.262	147.5
595.472	159.5
595.681	149.5
595.89	155.5
596.1	157.5
596.309	187.5
596.518	191.5
596.727	182.5
596.937	191.5
597.146	191.5
597.355	195.5
597.564	195.5
597.774	197.5
597.983	199.5
598.192	211.5
598.401	203.5
598.61	220.5
598.819	216.5
599.028	215.5
599.237	216.5
599.446	214.5
599.655	242.5
599.864	212.5
600.073	215.5
600.282	207.5
600.491	226.5
600.7	230.5
600.909	236.5
601.118	197.5
601.327	204.5
601.536	195.5
601.745	180.5
601.953	177.5
602.162	197.5
602.371	213.5
602.58	196.5
602.789	214.5
602.997	196.5
603.206	207.5
603.415	209.5
603.623	223.5
603.832	211.5
604.041	210.5
604.249	216.5
604.458	211.5
604.666	219.5
604.875	230.5
605.084	231.5
605.292	235.5
605.501	227.5
605.709	237.5
605.918	237.5
606.126	261.5
606.334	263.5
606.543	253.5
606.751	255.5
606.96	253.5
607.168	228.5
607.376	244.5
607.585	239.5
607.793	223.5
608.001	219.5
608.21	224.5
608.418	230.5
608.626	244.5
608.834	249.5
609.043	249.5
609.251	253.5
609.459	247.5
609.667	263.5
609.875	302.5
610.083	290.5
610.291	293.5
610.499	361.5
610.707	277.5
610.916	250.5
611.124	256.5
611.332	259.5
611.54	267.5
611.748	268.5
611.955	286.5
612.163	299.5
612.371	420.5
612.579	378.5
612.787	308.5
612.995	299.5
613.203	270.5
613.411	293.5
613.618	277.5
613.826	279.5
614.034	285.5
614.242	281.5
614.449	297.5
614.657	301.5
614.865	300.5
615.072	280.5
615.28	276.5
615.488	292.5
615.695	296.5
615.903	303.5
616.111	315.5
616.318	449.5
616.526	500.5
616.733	363.5
616.941	360.5
617.148	404.5
617.356	315.5
617.563	300.5
617.771	286.5
617.978	292.5
618.185	303.5
618.393	304.5
618.6	274.5
618.807	273.5
619.015	279.5
619.222	269.5
619.429	258.5
619.637	289.5
619.844	264.5
620.051	261.5
620.258	287.5
620.466	263.5
620.673	288.5
620.88	296.5
621.087	283.5
621.294	276.5
621.501	269.5
621.708	284.5
621.915	285.5
622.122	281.5
622.329	287.5
622.536	306.5
622.743	287.5
622.95	297.5
623.157	295.5
623.364	316.5
623.571	315.5
623.778	305.5
623.985	296.5
624.192	290.5
624.399	305.5
624.606	309.5
624.812	328.5
625.019	299.5
625.226	299.5
625.433	295.5
625.639	287.5
625.846	280.5
626.053	264.5
626.259	253.5
626.466	238.5
626.673	243.5
626.879	222.5
627.086	253.5
627.293	242.5
627.499	247.5
627.706	199.5
627.912	211.5
628.119	195.5
628.325	169.5
628.532	171.5
628.738	147.5
628.945	145.5
629.151	129.5
629.357	128.5
629.564	126.5
629.77	143.5
629.976	131.5
630.183	127.5
630.389	111.5
630.595	120.5
630.802	126.5
631.008	127.5
631.214	119.5
631.42	111.5
631.627	118.5
631.833	102.5
632.039	112.5
632.245	109.5
632.451	101.5
632.657	100.5
632.863	99.5
633.069	119.5
633.275	120.5
633.481	115.5
633.688	104.5
633.893	97.5
634.099	102.5
634.305	122.5
634.511	119.5
634.717	130.5
634.923	125.5
635.129	110.5
635.335	118.5
635.541	120.5
635.747	115.5
635.952	107.5
636.158	112.5
636.364	100.5
636.57	105.5
636.775	112.5
636.981	127.5
637.187	129.5
637.392	111.5
637.598	117.5
637.804	117.5
638.009	100.5
638.215	111.5
638.421	95.5
638.626	122.5
638.832	107.5
639.037	107.5
639.243	100.5
639.448	103.5
639.654	115.5
639.859	85.5
640.065	102.5
640.27	99.5
640.475	113.5
640.681	119.5
640.886	115.5
641.091	112.5
641.297	122.5
641.502	114.5
641.707	104.5
641.913	100.5
642.118	107.5
642.323	111.5
642.528	94.5
642.733	103.5
642.939	104.5
643.144	109.5
643.349	101.5
643.554	98.5
643.759	112.5
643.964	129.5
644.169	180.5
644.374	124.5
644.579	104.5
644.784	102.5
644.989	112.5
645.194	159.5
645.399	112.5
645.604	92.5
645.809	104.5
646.014	104.5
646.219	113.5
646.423	173.5
646.628	132.5
646.833	98.5
647.038	100.5
647.243	99.5
647.447	119.5
647.652	102.5
647.857	96.5
648.062	109.5
648.266	91.5
648.471	101.5
648.676	103.5
648.88	100.5
649.085	86.5
649.289	106.5
649.494	115.5
649.698	134.5
649.903	100.5
650.107	114.5
650.312	91.5
650.516	112.5
650.721	95.5
650.925	89.5
651.13	87.5
651.334	89.5
651.539	82.5
651.743	80.5
651.947	96.5
652.152	91.5
652.356	64.5
652.56	76.5
652.764	77.5
652.969	71.5
653.173	88.5
653.377	89.5
653.581	72.5
653.785	69.5
653.99	85.5
654.194	93.5
654.398	91.5
654.602	76.5
654.806	76.5
655.01	79.5
655.214	85.5
655.418	91.5
655.622	87.5
655.826	81.5
656.03	79.5
656.234	75.5
656.438	73.5
656.642	81.5
656.846	88.5
657.049	95.5
657.253	91.5
657.457	84.5
657.661	80.5
657.865	96.5
658.068	83.5
658.272	78.5
658.476	87.5
658.68	86.5
658.883	91.5
659.087	91.5
659.291	88.5
659.494	85.5
659.698	82.5
659.901	83.5
660.105	79.5
660.309	81.5
660.512	71.5
660.716	84.5
660.919	82.5
661.123	93.5
661.326	79.5
661.53	89.5
661.733	77.5
661.936	74.5
662.14	71.5
662.343	69.5
662.546	74.5
662.75	84.5
662.953	82.5
663.156	61.5
663.36	87.5
663.563	67.5
663.766	71.5
663.969	78.5
664.173	77.5
664.376	74.5
664.579	81.5
664.782	85.5
664.985	78.5
665.188	85.5
665.391	79.5
665.594	77.5
665.797	74.5
666	73.5
666.203	83.5
666.406	78.5
666.609	80.5
666.812	74.5
667.015	87.5
667.218	81.5
667.421	70.5
667.624	73.5
667.827	73.5
668.03	75.5
668.232	67.5
668.435	75.5
668.638	86.5
668.841	67.5
669.043	79.5
669.246	82.5
669.449	63.5
669.651	81.5
669.854	76.5
670.057	77.5
670.259	71.5
670.462	73.5
670.665	84.5
670.867	85.5
671.07	81.5
671.272	89.5
671.475	85.5
671.677	80.5
671.88	82.5
672.082	89.5
672.284	73.5
672.487	76.5
672.689	73.5
672.892	71.5
