Data from 15780_3_HRD10591_00029.txt Node
Date: Mon Jan 19 14:20:12 EST 2026
User: Yrep
Spectrometer: HR+D1059
Trigger mode: 1
Integration Time (sec): 1.000000E-1
Scans to average: 1
Electric dark correction enabled: true
Nonlinearity correction enabled: false
Boxcar width: 0
XAxis mode: Wavelengths
Number of Pixels in Spectrum: 2048
>>>>>Begin Spectral Data<<<<<
223.165	-26.44
223.4	-26.44
223.635	-26.44
223.869	-18.44
224.104	-20.44
224.338	-17.44
224.573	-22.44
224.808	-7.44
225.042	-5.44
225.277	-1.44
225.511	-9.44
225.746	7.56
225.98	7.56
226.215	4.56
226.449	17.56
226.683	29.56
226.918	28.56
227.152	33.56
227.387	38.56
227.621	43.56
227.856	54.56
228.09	59.56
228.324	51.56
228.559	60.56
228.793	71.56
229.027	56.56
229.262	80.56
229.496	65.56
229.73	71.56
229.964	76.56
230.199	62.56
230.433	74.56
230.667	89.56
230.901	75.56
231.136	72.56
231.37	78.56
231.604	89.56
231.838	77.56
232.072	67.56
232.306	79.56
232.541	75.56
232.775	79.56
233.009	65.56
233.243	88.56
233.477	97.56
233.711	93.56
233.945	86.56
234.179	79.56
234.413	83.56
234.647	76.56
234.881	77.56
235.115	86.56
235.349	83.56
235.583	86.56
235.817	72.56
236.051	75.56
236.285	82.56
236.519	75.56
236.753	80.56
236.987	77.56
237.221	75.56
237.455	85.56
237.689	75.56
237.922	87.56
238.156	79.56
238.39	81.56
238.624	76.56
238.858	80.56
239.091	78.56
239.325	76.56
239.559	72.56
239.793	79.56
240.027	65.56
240.26	76.56
240.494	69.56
240.728	64.56
240.961	61.56
241.195	87.56
241.429	79.56
241.662	88.56
241.896	70.56
242.13	81.56
242.363	83.56
242.597	73.56
242.83	71.56
243.064	83.56
243.298	69.56
243.531	74.56
243.765	65.56
243.998	69.56
244.232	74.56
244.465	74.56
244.699	83.56
244.932	85.56
245.166	85.56
245.399	87.56
245.633	78.56
245.866	74.56
246.099	75.56
246.333	85.56
246.566	87.56
246.8	84.56
247.033	69.56
247.266	71.56
247.5	83.56
247.733	73.56
247.966	83.56
248.2	89.56
248.433	90.56
248.666	77.56
248.899	93.56
249.133	86.56
249.366	83.56
249.599	77.56
249.832	97.56
250.066	89.56
250.299	83.56
250.532	87.56
250.765	88.56
250.998	78.56
251.231	65.56
251.465	84.56
251.698	90.56
251.931	84.56
252.164	77.56
252.397	71.56
252.63	79.56
252.863	87.56
253.096	71.56
253.329	84.56
253.562	73.56
253.795	82.56
254.028	79.56
254.261	84.56
254.494	78.56
254.727	78.56
254.96	85.56
255.193	85.56
255.426	82.56
255.659	75.56
255.892	84.56
256.124	89.56
256.357	78.56
256.59	75.56
256.823	60.56
257.056	83.56
257.289	77.56
257.521	97.56
257.754	80.56
257.987	75.56
258.22	83.56
258.452	90.56
258.685	75.56
258.918	68.56
259.151	91.56
259.383	100.56
259.616	76.56
259.849	69.56
260.081	99.56
260.314	68.56
260.547	77.56
260.779	79.56
261.012	93.56
261.244	80.56
261.477	94.56
261.71	67.56
261.942	77.56
262.175	70.56
262.407	89.56
262.64	73.56
262.872	78.56
263.105	88.56
263.337	87.56
263.57	74.56
263.802	80.56
264.035	84.56
264.267	75.56
264.499	88.56
264.732	78.56
264.964	75.56
265.197	87.56
265.429	81.56
265.661	78.56
265.894	97.56
266.126	93.56
266.358	74.56
266.591	81.56
266.823	77.56
267.055	86.56
267.287	87.56
267.52	87.56
267.752	84.56
267.984	78.56
268.216	75.56
268.448	85.56
268.681	93.56
268.913	84.56
269.145	82.56
269.377	99.56
269.609	94.56
269.841	90.56
270.073	82.56
270.306	70.56
270.538	72.56
270.77	83.56
271.002	89.56
271.234	83.56
271.466	82.56
271.698	84.56
271.93	97.56
272.162	90.56
272.394	91.56
272.626	80.56
272.858	74.56
273.09	86.56
273.322	81.56
273.553	97.56
273.785	77.56
274.017	82.56
274.249	89.56
274.481	97.56
274.713	76.56
274.945	86.56
275.176	79.56
275.408	101.56
275.64	89.56
275.872	93.56
276.104	66.56
276.335	90.56
276.567	93.56
276.799	80.56
277.031	97.56
277.262	90.56
277.494	91.56
277.726	89.56
277.957	90.56
278.189	90.56
278.421	92.56
278.652	97.56
278.884	80.56
279.115	82.56
279.347	94.56
279.579	93.56
279.81	63.56
280.042	87.56
280.273	89.56
280.505	99.56
280.736	88.56
280.968	77.56
281.199	87.56
281.431	89.56
281.662	99.56
281.894	104.56
282.125	85.56
282.356	93.56
282.588	95.56
282.819	93.56
283.051	84.56
283.282	79.56
283.513	89.56
283.745	93.56
283.976	84.56
284.207	74.56
284.439	78.56
284.67	92.56
284.901	86.56
285.132	89.56
285.364	73.56
285.595	73.56
285.826	86.56
286.057	73.56
286.288	85.56
286.52	85.56
286.751	88.56
286.982	87.56
287.213	91.56
287.444	79.56
287.675	87.56
287.906	98.56
288.138	97.56
288.369	90.56
288.6	79.56
288.831	82.56
289.062	88.56
289.293	87.56
289.524	87.56
289.755	88.56
289.986	76.56
290.217	70.56
290.448	91.56
290.679	87.56
290.91	91.56
291.141	100.56
291.371	85.56
291.602	92.56
291.833	75.56
292.064	78.56
292.295	84.56
292.526	92.56
292.757	79.56
292.987	90.56
293.218	89.56
293.449	95.56
293.68	81.56
293.91	74.56
294.141	88.56
294.372	85.56
294.603	82.56
294.833	73.56
295.064	79.56
295.295	87.56
295.525	90.56
295.756	82.56
295.987	85.56
296.217	97.56
296.448	83.56
296.679	96.56
296.909	96.56
297.14	93.56
297.37	94.56
297.601	86.56
297.831	77.56
298.062	82.56
298.292	79.56
298.523	83.56
298.753	82.56
298.984	82.56
299.214	80.56
299.445	80.56
299.675	87.56
299.905	96.56
300.136	81.56
300.366	80.56
300.597	83.56
300.827	84.56
301.057	90.56
301.288	74.56
301.518	92.56
301.748	81.56
301.979	99.56
302.209	92.56
302.439	77.56
302.669	89.56
302.9	84.56
303.13	79.56
303.36	85.56
303.59	83.56
303.82	98.56
304.051	90.56
304.281	89.56
304.511	92.56
304.741	79.56
304.971	94.56
305.201	84.56
305.431	83.56
305.661	85.56
305.891	92.56
306.121	86.56
306.352	89.56
306.582	87.56
306.812	87.56
307.042	86.56
307.272	80.56
307.502	76.56
307.731	91.56
307.961	73.56
308.191	91.56
308.421	86.56
308.651	96.56
308.881	97.56
309.111	93.56
309.341	90.56
309.571	82.56
309.8	101.56
310.03	79.56
310.26	85.56
310.49	90.56
310.72	80.56
310.949	85.56
311.179	76.56
311.409	95.56
311.639	79.56
311.868	86.56
312.098	92.56
312.328	85.56
312.557	85.56
312.787	91.56
313.017	87.56
313.246	89.56
313.476	86.56
313.706	98.56
313.935	73.56
314.165	90.56
314.394	103.56
314.624	78.56
314.853	78.56
315.083	80.56
315.312	69.56
315.542	80.56
315.771	94.56
316.001	92.56
316.23	94.56
316.46	90.56
316.689	88.56
316.919	97.56
317.148	72.56
317.377	82.56
317.607	81.56
317.836	94.56
318.065	89.56
318.295	97.56
318.524	89.56
318.753	87.56
318.983	92.56
319.212	91.56
319.441	78.56
319.67	81.56
319.9	77.56
320.129	87.56
320.358	86.56
320.587	76.56
320.816	89.56
321.046	80.56
321.275	93.56
321.504	82.56
321.733	81.56
321.962	89.56
322.191	73.56
322.42	94.56
322.649	77.56
322.878	86.56
323.108	107.56
323.337	97.56
323.566	89.56
323.795	94.56
324.024	86.56
324.253	99.56
324.482	117.56
324.71	86.56
324.939	90.56
325.168	88.56
325.397	79.56
325.626	88.56
325.855	85.56
326.084	100.56
326.313	86.56
326.542	89.56
326.77	90.56
326.999	86.56
327.228	77.56
327.457	97.56
327.686	85.56
327.914	86.56
328.143	83.56
328.372	85.56
328.6	93.56
328.829	95.56
329.058	88.56
329.287	89.56
329.515	90.56
329.744	87.56
329.972	72.56
330.201	87.56
330.43	85.56
330.658	87.56
330.887	77.56
331.115	87.56
331.344	78.56
331.572	89.56
331.801	79.56
332.03	90.56
332.258	77.56
332.486	90.56
332.715	74.56
332.943	102.56
333.172	97.56
333.4	92.56
333.629	83.56
333.857	83.56
334.085	90.56
334.314	87.56
334.542	82.56
334.771	78.56
334.999	83.56
335.227	81.56
335.455	95.56
335.684	102.56
335.912	78.56
336.14	85.56
336.369	77.56
336.597	77.56
336.825	91.56
337.053	91.56
337.281	89.56
337.51	102.56
337.738	91.56
337.966	89.56
338.194	71.56
338.422	76.56
338.65	98.56
338.878	87.56
339.106	86.56
339.334	93.56
339.562	79.56
339.79	88.56
340.018	78.56
340.246	85.56
340.474	84.56
340.702	91.56
340.93	99.56
341.158	93.56
341.386	87.56
341.614	86.56
341.842	86.56
342.07	79.56
342.298	87.56
342.526	79.56
342.754	97.56
342.981	94.56
343.209	86.56
343.437	103.56
343.665	83.56
343.893	84.56
344.12	89.56
344.348	71.56
344.576	85.56
344.804	99.56
345.031	84.56
345.259	97.56
345.487	96.56
345.714	85.56
345.942	78.56
346.17	85.56
346.397	90.56
346.625	86.56
346.853	97.56
347.08	79.56
347.308	89.56
347.535	97.56
347.763	81.56
347.99	93.56
348.218	91.56
348.445	73.56
348.673	78.56
348.9	98.56
349.128	86.56
349.355	89.56
349.583	71.56
349.81	91.56
350.037	78.56
350.265	91.56
350.492	75.56
350.72	88.56
350.947	99.56
351.174	77.56
351.402	93.56
351.629	97.56
351.856	80.56
352.083	79.56
352.311	79.56
352.538	74.56
352.765	82.56
352.992	92.56
353.22	84.56
353.447	91.56
353.674	99.56
353.901	84.56
354.128	91.56
354.355	90.56
354.583	84.56
354.81	89.56
355.037	86.56
355.264	89.56
355.491	96.56
355.718	82.56
355.945	107.56
356.172	99.56
356.399	86.56
356.626	83.56
356.853	67.56
357.08	79.56
357.307	97.56
357.534	72.56
357.761	100.56
357.988	83.56
358.215	85.56
358.441	98.56
358.668	82.56
358.895	78.56
359.122	77.56
359.349	79.56
359.576	79.56
359.802	89.56
360.029	98.56
360.256	81.56
360.483	81.56
360.709	67.56
360.936	91.56
361.163	91.56
361.39	91.56
361.616	81.56
361.843	86.56
362.07	91.56
362.296	82.56
362.523	101.56
362.749	85.56
362.976	93.56
363.203	93.56
363.429	64.56
363.656	97.56
363.882	94.56
364.109	89.56
364.335	88.56
364.562	84.56
364.788	88.56
365.015	84.56
365.241	88.56
365.468	96.56
365.694	83.56
365.92	75.56
366.147	93.56
366.373	83.56
366.599	91.56
366.826	94.56
367.052	73.56
367.278	80.56
367.505	83.56
367.731	101.56
367.957	80.56
368.184	101.56
368.41	97.56
368.636	87.56
368.862	80.56
369.089	83.56
369.315	78.56
369.541	98.56
369.767	83.56
369.993	95.56
370.219	89.56
370.445	86.56
370.672	85.56
370.898	84.56
371.124	98.56
371.35	70.56
371.576	90.56
371.802	90.56
372.028	86.56
372.254	91.56
372.48	84.56
372.706	79.56
372.932	84.56
373.158	101.56
373.384	101.56
373.61	82.56
373.835	87.56
374.061	86.56
374.287	83.56
374.513	109.56
374.739	98.56
374.965	78.56
375.191	87.56
375.416	83.56
375.642	90.56
375.868	93.56
376.094	87.56
376.319	80.56
376.545	85.56
376.771	82.56
376.997	88.56
377.222	90.56
377.448	86.56
377.674	94.56
377.899	89.56
378.125	86.56
378.35	94.56
378.576	85.56
378.802	84.56
379.027	85.56
379.253	89.56
379.478	83.56
379.704	93.56
379.929	93.56
380.155	89.56
380.38	76.56
380.606	83.56
380.831	79.56
381.057	94.56
381.282	76.56
381.507	84.56
381.733	89.56
381.958	78.56
382.184	75.56
382.409	89.56
382.634	91.56
382.86	69.56
383.085	94.56
383.31	83.56
383.535	77.56
383.761	80.56
383.986	84.56
384.211	98.56
384.436	86.56
384.662	90.56
384.887	71.56
385.112	85.56
385.337	94.56
385.562	96.56
385.787	88.56
386.013	88.56
386.238	83.56
386.463	89.56
386.688	98.56
386.913	87.56
387.138	82.56
387.363	76.56
387.588	78.56
387.813	90.56
388.038	94.56
388.263	81.56
388.488	89.56
388.713	82.56
388.938	77.56
389.163	88.56
389.387	94.56
389.612	71.56
389.837	92.56
390.062	82.56
390.287	88.56
390.512	99.56
390.736	84.56
390.961	88.56
391.186	80.56
391.411	87.56
391.636	95.56
391.86	97.56
392.085	87.56
392.31	83.56
392.534	76.56
392.759	83.56
392.984	103.56
393.208	151.56
393.433	204.56
393.658	144.56
393.882	95.56
394.107	85.56
394.331	86.56
394.556	89.56
394.78	75.56
395.005	95.56
395.229	86.56
395.454	92.56
395.678	99.56
395.903	103.56
396.127	101.56
396.352	111.56
396.576	117.56
396.801	167.56
397.025	158.56
397.249	125.56
397.474	94.56
397.698	85.56
397.922	93.56
398.147	92.56
398.371	74.56
398.595	75.56
398.82	95.56
399.044	85.56
399.268	93.56
399.492	84.56
399.717	79.56
399.941	87.56
400.165	89.56
400.389	82.56
400.613	79.56
400.837	76.56
401.062	82.56
401.286	96.56
401.51	84.56
401.734	78.56
401.958	77.56
402.182	73.56
402.406	89.56
402.63	80.56
402.854	94.56
403.078	78.56
403.302	70.56
403.526	70.56
403.75	94.56
403.974	80.56
404.198	79.56
404.422	92.56
404.645	92.56
404.869	93.56
405.093	88.56
405.317	77.56
405.541	84.56
405.765	84.56
405.988	86.56
406.212	80.56
406.436	85.56
406.66	95.56
406.883	78.56
407.107	79.56
407.331	96.56
407.555	91.56
407.778	88.56
408.002	89.56
408.226	97.56
408.449	88.56
408.673	76.56
408.896	79.56
409.12	94.56
409.344	79.56
409.567	89.56
409.791	89.56
410.014	92.56
410.238	83.56
410.461	84.56
410.685	79.56
410.908	81.56
411.132	98.56
411.355	80.56
411.578	83.56
411.802	81.56
412.025	86.56
412.249	79.56
412.472	77.56
412.695	62.56
412.919	77.56
413.142	88.56
413.365	88.56
413.589	82.56
413.812	87.56
414.035	75.56
414.258	79.56
414.482	79.56
414.705	84.56
414.928	85.56
415.151	87.56
415.374	91.56
415.597	73.56
415.821	94.56
416.044	83.56
416.267	99.56
416.49	86.56
416.713	91.56
416.936	73.56
417.159	78.56
417.382	84.56
417.605	74.56
417.828	90.56
418.051	76.56
418.274	85.56
418.497	93.56
418.72	69.56
418.943	89.56
419.166	89.56
419.389	95.56
419.611	84.56
419.834	85.56
420.057	85.56
420.28	82.56
420.503	88.56
420.726	98.56
420.948	97.56
421.171	87.56
421.394	86.56
421.617	101.56
421.839	93.56
422.062	83.56
422.285	97.56
422.507	137.56
422.73	169.56
422.953	158.56
423.175	94.56
423.398	93.56
423.621	87.56
423.843	86.56
424.066	89.56
424.288	94.56
424.511	73.56
424.733	88.56
424.956	70.56
425.178	84.56
425.401	89.56
425.623	83.56
425.846	79.56
426.068	87.56
426.291	90.56
426.513	73.56
426.735	85.56
426.958	78.56
427.18	90.56
427.402	89.56
427.625	89.56
427.847	86.56
428.069	83.56
428.292	94.56
428.514	113.56
428.736	93.56
428.958	79.56
429.181	89.56
429.403	86.56
429.625	83.56
429.847	94.56
430.069	97.56
430.292	117.56
430.514	101.56
430.736	94.56
430.958	95.56
431.18	99.56
431.402	73.56
431.624	74.56
431.846	88.56
432.068	93.56
432.29	89.56
432.512	80.56
432.734	80.56
432.956	89.56
433.178	86.56
433.4	79.56
433.622	79.56
433.844	107.56
434.066	79.56
434.287	98.56
434.509	87.56
434.731	65.56
434.953	87.56
435.175	79.56
435.397	84.56
435.618	85.56
435.84	102.56
436.062	94.56
436.284	77.56
436.505	105.56
436.727	76.56
436.949	79.56
437.17	75.56
437.392	79.56
437.614	92.56
437.835	82.56
438.057	89.56
438.278	88.56
438.5	84.56
438.721	82.56
438.943	77.56
439.165	79.56
439.386	83.56
439.608	77.56
439.829	87.56
440.05	73.56
440.272	83.56
440.493	85.56
440.715	79.56
440.936	82.56
441.158	71.56
441.379	78.56
441.6	87.56
441.822	89.56
442.043	86.56
442.264	85.56
442.486	83.56
442.707	81.56
442.928	87.56
443.149	80.56
443.371	85.56
443.592	99.56
443.813	101.56
444.034	85.56
444.255	79.56
444.476	93.56
444.698	95.56
444.919	85.56
445.14	143.56
445.361	126.56
445.582	124.56
445.803	103.56
446.024	87.56
446.245	104.56
446.466	84.56
446.687	77.56
446.908	80.56
447.129	75.56
447.35	86.56
447.571	97.56
447.792	94.56
448.013	94.56
448.234	85.56
448.455	80.56
448.675	90.56
448.896	90.56
449.117	75.56
449.338	88.56
449.559	84.56
449.779	84.56
450	84.56
450.221	90.56
450.442	104.56
450.662	81.56
450.883	81.56
451.104	79.56
451.324	90.56
451.545	87.56
451.766	87.56
451.986	90.56
452.207	89.56
452.428	92.56
452.648	92.56
452.869	85.56
453.089	85.56
453.31	84.56
453.53	87.56
453.751	73.56
453.971	77.56
454.192	84.56
454.412	84.56
454.633	86.56
454.853	85.56
455.073	84.56
455.294	92.56
455.514	85.56
455.734	94.56
455.955	78.56
456.175	85.56
456.395	69.56
456.616	81.56
456.836	98.56
457.056	76.56
457.276	87.56
457.497	97.56
457.717	76.56
457.937	97.56
458.157	92.56
458.377	104.56
458.598	86.56
458.818	86.56
459.038	73.56
459.258	93.56
459.478	79.56
459.698	87.56
459.918	83.56
460.138	78.56
460.358	80.56
460.578	78.56
460.798	83.56
461.018	99.56
461.238	92.56
461.458	77.56
461.678	77.56
461.898	74.56
462.118	85.56
462.338	99.56
462.558	88.56
462.777	78.56
462.997	83.56
463.217	85.56
463.437	69.56
463.657	91.56
463.876	97.56
464.096	89.56
464.316	81.56
464.536	93.56
464.755	75.56
464.975	86.56
465.195	87.56
465.414	79.56
465.634	79.56
465.854	61.56
466.073	93.56
466.293	69.56
466.512	79.56
466.732	85.56
466.951	91.56
467.171	75.56
467.391	70.56
467.61	65.56
467.829	84.56
468.049	99.56
468.268	77.56
468.488	85.56
468.707	84.56
468.927	72.56
469.146	92.56
469.365	91.56
469.585	77.56
469.804	89.56
470.023	94.56
470.243	88.56
470.462	99.56
470.681	85.56
470.901	73.56
471.12	82.56
471.339	86.56
471.558	73.56
471.777	77.56
471.997	88.56
472.216	82.56
472.435	74.56
472.654	85.56
472.873	92.56
473.092	90.56
473.311	92.56
473.53	90.56
473.749	87.56
473.968	90.56
474.187	87.56
474.406	71.56
474.625	71.56
474.844	83.56
475.063	88.56
475.282	91.56
475.501	87.56
475.72	79.56
475.939	70.56
476.158	86.56
476.377	92.56
476.596	75.56
476.814	78.56
477.033	84.56
477.252	85.56
477.471	78.56
477.69	94.56
477.908	92.56
478.127	89.56
478.346	93.56
478.564	87.56
478.783	83.56
479.002	83.56
479.22	86.56
479.439	89.56
479.658	77.56
479.876	74.56
480.095	82.56
480.313	84.56
480.532	83.56
480.751	97.56
480.969	87.56
481.188	92.56
481.406	87.56
481.624	86.56
481.843	87.56
482.061	74.56
482.28	86.56
482.498	75.56
482.717	73.56
482.935	94.56
483.153	87.56
483.372	77.56
483.59	82.56
483.808	87.56
484.027	86.56
484.245	94.56
484.463	82.56
484.681	88.56
484.9	81.56
485.118	79.56
485.336	77.56
485.554	96.56
485.772	82.56
485.99	101.56
486.209	96.56
486.427	85.56
486.645	83.56
486.863	77.56
487.081	85.56
487.299	75.56
487.517	96.56
487.735	92.56
487.953	102.56
488.171	97.56
488.389	80.56
488.607	92.56
488.825	84.56
489.043	75.56
489.261	83.56
489.479	91.56
489.696	95.56
489.914	106.56
490.132	86.56
490.35	79.56
490.568	82.56
490.786	89.56
491.003	87.56
491.221	87.56
491.439	78.56
491.657	89.56
491.874	76.56
492.092	86.56
492.31	93.56
492.527	88.56
492.745	73.56
492.963	82.56
493.18	78.56
493.398	86.56
493.615	92.56
493.833	72.56
494.05	74.56
494.268	88.56
494.485	98.56
494.703	83.56
494.92	83.56
495.138	84.56
495.355	72.56
495.573	78.56
495.79	90.56
496.008	96.56
496.225	83.56
496.442	93.56
496.66	83.56
496.877	71.56
497.094	93.56
497.312	77.56
497.529	94.56
497.746	93.56
497.963	101.56
498.181	99.56
498.398	77.56
498.615	97.56
498.832	82.56
499.049	92.56
499.267	87.56
499.484	76.56
499.701	83.56
499.918	86.56
500.135	80.56
500.352	88.56
500.569	86.56
500.786	91.56
501.003	77.56
501.22	65.56
501.437	85.56
501.654	88.56
501.871	93.56
502.088	77.56
502.305	85.56
502.522	78.56
502.739	93.56
502.956	85.56
503.172	84.56
503.389	88.56
503.606	89.56
503.823	82.56
504.04	89.56
504.256	84.56
504.473	79.56
504.69	80.56
504.907	79.56
505.123	77.56
505.34	83.56
505.557	87.56
505.773	87.56
505.99	80.56
506.207	76.56
506.423	99.56
506.64	85.56
506.856	87.56
507.073	76.56
507.289	95.56
507.506	95.56
507.722	76.56
507.939	75.56
508.155	83.56
508.372	78.56
508.588	80.56
508.805	85.56
509.021	85.56
509.238	93.56
509.454	79.56
509.67	87.56
509.887	88.56
510.103	81.56
510.319	82.56
510.536	95.56
510.752	89.56
510.968	87.56
511.184	76.56
511.401	89.56
511.617	79.56
511.833	74.56
512.049	92.56
512.265	80.56
512.481	93.56
512.698	91.56
512.914	80.56
513.13	85.56
513.346	82.56
513.562	77.56
513.778	85.56
513.994	82.56
514.21	85.56
514.426	89.56
514.642	87.56
514.858	84.56
515.074	80.56
515.29	84.56
515.506	77.56
515.721	91.56
515.937	92.56
516.153	92.56
516.369	80.56
516.585	89.56
516.801	84.56
517.016	92.56
517.232	79.56
517.448	90.56
517.664	83.56
517.879	93.56
518.095	98.56
518.311	67.56
518.527	90.56
518.742	81.56
518.958	92.56
519.173	91.56
519.389	80.56
519.605	77.56
519.82	62.56
520.036	71.56
520.251	74.56
520.467	97.56
520.682	82.56
520.898	86.56
521.113	79.56
521.329	93.56
521.544	94.56
521.76	100.56
521.975	92.56
522.19	85.56
522.406	86.56
522.621	85.56
522.836	97.56
523.052	79.56
523.267	93.56
523.482	82.56
523.698	93.56
523.913	87.56
524.128	85.56
524.343	71.56
524.559	78.56
524.774	83.56
524.989	86.56
525.204	84.56
525.419	89.56
525.634	78.56
525.849	94.56
526.064	72.56
526.28	99.56
526.495	112.56
526.71	111.56
526.925	111.56
527.14	115.56
527.355	111.56
527.57	85.56
527.785	82.56
527.999	81.56
528.214	79.56
528.429	92.56
528.644	101.56
528.859	84.56
529.074	90.56
529.289	81.56
529.503	88.56
529.718	86.56
529.933	78.56
530.148	97.56
530.363	88.56
530.577	78.56
530.792	94.56
531.007	78.56
531.221	86.56
531.436	86.56
531.651	88.56
531.865	101.56
532.08	98.56
532.295	90.56
532.509	93.56
532.724	78.56
532.938	97.56
533.153	87.56
533.367	97.56
533.582	95.56
533.796	93.56
534.011	96.56
534.225	103.56
534.44	90.56
534.654	89.56
534.868	91.56
535.083	86.56
535.297	84.56
535.511	86.56
535.726	87.56
535.94	94.56
536.154	86.56
536.369	101.56
536.583	95.56
536.797	99.56
537.011	79.56
537.225	86.56
537.44	92.56
537.654	98.56
537.868	92.56
538.082	80.56
538.296	79.56
538.51	85.56
538.724	83.56
538.938	89.56
539.153	77.56
539.367	99.56
539.581	97.56
539.795	101.56
540.009	89.56
540.222	99.56
540.436	82.56
540.65	73.56
540.864	81.56
541.078	85.56
541.292	88.56
541.506	95.56
541.72	107.56
541.934	97.56
542.147	95.56
542.361	68.56
542.575	91.56
542.789	90.56
543.002	74.56
543.216	82.56
543.43	78.56
543.644	95.56
543.857	78.56
544.071	89.56
544.285	87.56
544.498	102.56
544.712	79.56
544.925	96.56
545.139	91.56
545.352	85.56
545.566	89.56
545.779	88.56
545.993	91.56
546.206	95.56
546.42	90.56
546.633	91.56
546.847	89.56
547.06	82.56
547.274	105.56
547.487	100.56
547.7	98.56
547.914	101.56
548.127	77.56
548.34	87.56
548.554	97.56
548.767	97.56
548.98	92.56
549.193	100.56
549.407	97.56
549.62	96.56
549.833	90.56
550.046	105.56
550.259	113.56
550.473	100.56
550.686	122.56
550.899	114.56
551.112	97.56
551.325	112.56
551.538	129.56
551.751	120.56
551.964	92.56
552.177	105.56
552.39	110.56
552.603	113.56
552.816	102.56
553.029	105.56
553.242	115.56
553.455	105.56
553.667	104.56
553.88	109.56
554.093	110.56
554.306	99.56
554.519	117.56
554.732	115.56
554.944	116.56
555.157	111.56
555.37	111.56
555.583	91.56
555.795	94.56
556.008	100.56
556.221	100.56
556.433	115.56
556.646	106.56
556.859	98.56
557.071	87.56
557.284	93.56
557.496	103.56
557.709	89.56
557.921	86.56
558.134	97.56
558.346	99.56
558.559	102.56
558.771	101.56
558.984	125.56
559.196	139.56
559.409	106.56
559.621	109.56
559.833	98.56
560.046	121.56
560.258	110.56
560.47	98.56
560.683	85.56
560.895	81.56
561.107	89.56
561.32	92.56
561.532	87.56
561.744	103.56
561.956	93.56
562.168	85.56
562.381	79.56
562.593	79.56
562.805	86.56
563.017	89.56
563.229	91.56
563.441	82.56
563.653	86.56
563.865	90.56
564.077	89.56
564.289	99.56
564.501	89.56
564.713	80.56
564.925	83.56
565.137	91.56
565.349	88.56
565.561	95.56
565.773	86.56
565.985	86.56
566.197	82.56
566.408	89.56
566.62	86.56
566.832	84.56
567.044	77.56
567.255	86.56
567.467	97.56
567.679	93.56
567.891	99.56
568.102	96.56
568.314	84.56
568.526	76.56
568.737	87.56
568.949	95.56
569.161	85.56
569.372	86.56
569.584	73.56
569.795	67.56
570.007	87.56
570.218	69.56
570.43	93.56
570.641	94.56
570.853	86.56
571.064	81.56
571.276	88.56
571.487	104.56
571.698	90.56
571.91	88.56
572.121	77.56
572.333	76.56
572.544	95.56
572.755	79.56
572.966	92.56
573.178	80.56
573.389	75.56
573.6	94.56
573.811	80.56
574.023	86.56
574.234	95.56
574.445	94.56
574.656	72.56
574.867	82.56
575.078	75.56
575.289	77.56
575.501	96.56
575.712	80.56
575.923	93.56
576.134	76.56
576.345	88.56
576.556	98.56
576.767	100.56
576.978	96.56
577.188	92.56
577.399	90.56
577.61	75.56
577.821	92.56
578.032	101.56
578.243	92.56
578.454	82.56
578.665	91.56
578.875	83.56
579.086	91.56
579.297	86.56
579.508	87.56
579.718	93.56
579.929	93.56
580.14	78.56
580.35	101.56
580.561	88.56
580.772	91.56
580.982	85.56
581.193	78.56
581.403	77.56
581.614	83.56
581.825	86.56
582.035	85.56
582.246	74.56
582.456	87.56
582.667	89.56
582.877	85.56
583.087	83.56
583.298	88.56
583.508	83.56
583.719	79.56
583.929	78.56
584.139	87.56
584.35	75.56
584.56	85.56
584.77	81.56
584.981	93.56
585.191	80.56
585.401	90.56
585.611	85.56
585.821	89.56
586.032	115.56
586.242	90.56
586.452	107.56
586.662	94.56
586.872	85.56
587.082	74.56
587.292	83.56
587.502	86.56
587.713	73.56
587.923	99.56
588.133	97.56
588.343	97.56
588.553	84.56
588.762	99.56
588.972	124.56
589.182	297.56
589.392	201.56
589.602	150.56
589.812	265.56
590.022	155.56
590.232	106.56
590.441	99.56
590.651	94.56
590.861	73.56
591.071	88.56
591.281	100.56
591.49	92.56
591.7	85.56
591.91	97.56
592.119	102.56
592.329	90.56
592.539	78.56
592.748	85.56
592.958	94.56
593.167	85.56
593.377	106.56
593.587	99.56
593.796	91.56
594.006	91.56
594.215	99.56
594.424	103.56
594.634	97.56
594.843	93.56
595.053	108.56
595.262	99.56
595.472	85.56
595.681	95.56
595.89	86.56
596.1	94.56
596.309	94.56
596.518	93.56
596.727	88.56
596.937	91.56
597.146	83.56
597.355	100.56
597.564	95.56
597.774	96.56
597.983	90.56
598.192	88.56
598.401	95.56
598.61	89.56
598.819	92.56
599.028	94.56
599.237	110.56
599.446	97.56
599.655	102.56
599.864	80.56
600.073	105.56
600.282	84.56
600.491	101.56
600.7	93.56
600.909	114.56
601.118	108.56
601.327	105.56
601.536	93.56
601.745	80.56
601.953	88.56
602.162	91.56
602.371	99.56
602.58	86.56
602.789	85.56
602.997	104.56
603.206	106.56
603.415	95.56
603.623	109.56
603.832	99.56
604.041	103.56
604.249	104.56
604.458	108.56
604.666	97.56
604.875	105.56
605.084	96.56
605.292	102.56
605.501	100.56
605.709	104.56
605.918	101.56
606.126	107.56
606.334	110.56
606.543	93.56
606.751	101.56
606.96	100.56
607.168	104.56
607.376	107.56
607.585	107.56
607.793	85.56
608.001	95.56
608.21	94.56
608.418	88.56
608.626	119.56
608.834	121.56
609.043	121.56
609.251	109.56
609.459	115.56
609.667	121.56
609.875	115.56
610.083	103.56
610.291	106.56
610.499	118.56
610.707	102.56
610.916	101.56
611.124	100.56
611.332	117.56
611.54	109.56
611.748	87.56
611.955	102.56
612.163	100.56
612.371	149.56
612.579	121.56
612.787	117.56
612.995	115.56
613.203	108.56
613.411	109.56
613.618	91.56
613.826	106.56
614.034	113.56
614.242	115.56
614.449	99.56
614.657	101.56
614.865	104.56
615.072	89.56
615.28	108.56
615.488	110.56
615.695	119.56
615.903	107.56
616.111	111.56
616.318	157.56
616.526	140.56
616.733	117.56
616.941	116.56
617.148	114.56
617.356	114.56
617.563	101.56
617.771	115.56
617.978	112.56
618.185	97.56
618.393	93.56
618.6	102.56
618.807	88.56
619.015	88.56
619.222	98.56
619.429	107.56
619.637	89.56
619.844	87.56
620.051	102.56
620.258	92.56
620.466	93.56
620.673	96.56
620.88	101.56
621.087	109.56
621.294	94.56
621.501	95.56
621.708	98.56
621.915	105.56
622.122	93.56
622.329	101.56
622.536	95.56
622.743	88.56
622.95	100.56
623.157	100.56
623.364	109.56
623.571	92.56
623.778	99.56
623.985	117.56
624.192	100.56
624.399	99.56
624.606	104.56
624.812	80.56
625.019	109.56
625.226	102.56
625.433	99.56
625.639	106.56
625.846	104.56
626.053	103.56
626.259	107.56
626.466	93.56
626.673	86.56
626.879	94.56
627.086	80.56
627.293	103.56
627.499	101.56
627.706	90.56
627.912	94.56
628.119	98.56
628.325	98.56
628.532	78.56
628.738	103.56
628.945	88.56
629.151	89.56
629.357	103.56
629.564	89.56
629.77	83.56
629.976	97.56
630.183	79.56
630.389	79.56
630.595	78.56
630.802	88.56
631.008	89.56
631.214	91.56
631.42	93.56
631.627	102.56
631.833	83.56
632.039	80.56
632.245	95.56
632.451	91.56
632.657	85.56
632.863	92.56
633.069	90.56
633.275	96.56
633.481	82.56
633.688	88.56
633.893	97.56
634.099	98.56
634.305	83.56
634.511	95.56
634.717	98.56
634.923	81.56
635.129	85.56
635.335	98.56
635.541	92.56
635.747	86.56
635.952	79.56
636.158	79.56
636.364	72.56
636.57	86.56
636.775	92.56
636.981	90.56
637.187	79.56
637.392	90.56
637.598	83.56
637.804	98.56
638.009	81.56
638.215	90.56
638.421	73.56
638.626	83.56
638.832	96.56
639.037	93.56
639.243	84.56
639.448	95.56
639.654	91.56
639.859	78.56
640.065	101.56
640.27	96.56
640.475	89.56
640.681	86.56
640.886	96.56
641.091	75.56
641.297	87.56
641.502	85.56
641.707	78.56
641.913	87.56
642.118	85.56
642.323	90.56
642.528	96.56
642.733	91.56
642.939	93.56
643.144	80.56
643.349	93.56
643.554	92.56
643.759	88.56
643.964	102.56
644.169	108.56
644.374	89.56
644.579	92.56
644.784	89.56
644.989	79.56
645.194	83.56
645.399	77.56
645.604	85.56
645.809	91.56
646.014	87.56
646.219	97.56
646.423	77.56
646.628	81.56
646.833	78.56
647.038	95.56
647.243	87.56
647.447	82.56
647.652	84.56
647.857	90.56
648.062	93.56
648.266	91.56
648.471	97.56
648.676	85.56
648.88	80.56
649.085	89.56
649.289	83.56
649.494	80.56
649.698	94.56
649.903	80.56
650.107	76.56
650.312	85.56
650.516	76.56
650.721	93.56
650.925	92.56
651.13	85.56
651.334	74.56
651.539	79.56
651.743	92.56
651.947	95.56
652.152	84.56
652.356	80.56
652.56	92.56
652.764	93.56
652.969	79.56
653.173	85.56
653.377	85.56
653.581	84.56
653.785	78.56
653.99	85.56
654.194	91.56
654.398	80.56
654.602	92.56
654.806	75.56
655.01	74.56
655.214	103.56
655.418	84.56
655.622	76.56
655.826	89.56
656.03	76.56
656.234	75.56
656.438	85.56
656.642	87.56
656.846	93.56
657.049	99.56
657.253	88.56
657.457	83.56
657.661	86.56
657.865	97.56
658.068	81.56
658.272	78.56
658.476	78.56
658.68	84.56
658.883	78.56
659.087	77.56
659.291	71.56
659.494	92.56
659.698	73.56
659.901	74.56
660.105	75.56
660.309	79.56
660.512	83.56
660.716	78.56
660.919	81.56
661.123	94.56
661.326	91.56
661.53	102.56
661.733	95.56
661.936	81.56
662.14	79.56
662.343	93.56
662.546	86.56
662.75	67.56
662.953	86.56
663.156	95.56
663.36	78.56
663.563	79.56
663.766	86.56
663.969	90.56
664.173	91.56
664.376	85.56
664.579	84.56
664.782	76.56
664.985	71.56
665.188	91.56
665.391	83.56
665.594	79.56
665.797	89.56
666	88.56
666.203	79.56
666.406	78.56
666.609	76.56
666.812	91.56
667.015	85.56
667.218	85.56
667.421	88.56
667.624	91.56
667.827	81.56
668.03	89.56
668.232	70.56
668.435	79.56
668.638	93.56
668.841	91.56
669.043	82.56
669.246	88.56
669.449	76.56
669.651	69.56
669.854	83.56
670.057	88.56
670.259	87.56
670.462	83.56
670.665	73.56
670.867	87.56
671.07	91.56
671.272	90.56
671.475	79.56
671.677	97.56
671.88	82.56
672.082	73.56
672.284	87.56
672.487	88.56
672.689	81.56
672.892	78.56
