Data from 15780_3_HRD10591_00049.txt Node
Date: Mon Jan 19 14:20:22 EST 2026
User: Yrep
Spectrometer: HR+D1059
Trigger mode: 1
Integration Time (sec): 1.000000E-1
Scans to average: 1
Electric dark correction enabled: true
Nonlinearity correction enabled: false
Boxcar width: 0
XAxis mode: Wavelengths
Number of Pixels in Spectrum: 2048
>>>>>Begin Spectral Data<<<<<
223.165	-14.62
223.4	-14.62
223.635	-14.62
223.869	-26.62
224.104	-16.62
224.338	-21.62
224.573	-0.62
224.808	-5.62
225.042	-12.62
225.277	-8.62
225.511	-15.62
225.746	-6.62
225.98	-1.62
226.215	19.38
226.449	28.38
226.683	20.38
226.918	23.38
227.152	39.38
227.387	46.38
227.621	41.38
227.856	58.38
228.09	52.38
228.324	47.38
228.559	61.38
228.793	53.38
229.027	52.38
229.262	63.38
229.496	59.38
229.73	68.38
229.964	64.38
230.199	92.38
230.433	64.38
230.667	73.38
230.901	68.38
231.136	77.38
231.37	84.38
231.604	82.38
231.838	73.38
232.072	96.38
232.306	85.38
232.541	91.38
232.775	82.38
233.009	77.38
233.243	68.38
233.477	76.38
233.711	99.38
233.945	83.38
234.179	90.38
234.413	91.38
234.647	90.38
234.881	75.38
235.115	90.38
235.349	80.38
235.583	82.38
235.817	81.38
236.051	79.38
236.285	93.38
236.519	91.38
236.753	73.38
236.987	81.38
237.221	93.38
237.455	79.38
237.689	73.38
237.922	83.38
238.156	71.38
238.39	76.38
238.624	69.38
238.858	70.38
239.091	73.38
239.325	66.38
239.559	75.38
239.793	73.38
240.027	76.38
240.26	68.38
240.494	83.38
240.728	71.38
240.961	67.38
241.195	93.38
241.429	74.38
241.662	72.38
241.896	82.38
242.13	77.38
242.363	73.38
242.597	83.38
242.83	77.38
243.064	69.38
243.298	63.38
243.531	74.38
243.765	67.38
243.998	77.38
244.232	77.38
244.465	75.38
244.699	80.38
244.932	81.38
245.166	80.38
245.399	74.38
245.633	74.38
245.866	88.38
246.099	87.38
246.333	72.38
246.566	80.38
246.8	79.38
247.033	91.38
247.266	76.38
247.5	69.38
247.733	58.38
247.966	76.38
248.2	88.38
248.433	78.38
248.666	75.38
248.899	93.38
249.133	81.38
249.366	86.38
249.599	84.38
249.832	101.38
250.066	83.38
250.299	85.38
250.532	74.38
250.765	67.38
250.998	78.38
251.231	61.38
251.465	77.38
251.698	92.38
251.931	87.38
252.164	76.38
252.397	91.38
252.63	91.38
252.863	75.38
253.096	81.38
253.329	86.38
253.562	101.38
253.795	83.38
254.028	81.38
254.261	77.38
254.494	88.38
254.727	90.38
254.96	81.38
255.193	77.38
255.426	76.38
255.659	94.38
255.892	85.38
256.124	71.38
256.357	89.38
256.59	86.38
256.823	70.38
257.056	86.38
257.289	86.38
257.521	76.38
257.754	83.38
257.987	93.38
258.22	85.38
258.452	82.38
258.685	73.38
258.918	73.38
259.151	74.38
259.383	76.38
259.616	89.38
259.849	94.38
260.081	93.38
260.314	96.38
260.547	83.38
260.779	68.38
261.012	78.38
261.244	85.38
261.477	76.38
261.71	73.38
261.942	77.38
262.175	89.38
262.407	88.38
262.64	75.38
262.872	95.38
263.105	77.38
263.337	69.38
263.57	73.38
263.802	91.38
264.035	87.38
264.267	76.38
264.499	91.38
264.732	68.38
264.964	89.38
265.197	83.38
265.429	86.38
265.661	81.38
265.894	90.38
266.126	65.38
266.358	97.38
266.591	87.38
266.823	88.38
267.055	86.38
267.287	78.38
267.52	80.38
267.752	91.38
267.984	71.38
268.216	74.38
268.448	84.38
268.681	81.38
268.913	95.38
269.145	71.38
269.377	74.38
269.609	77.38
269.841	84.38
270.073	70.38
270.306	91.38
270.538	73.38
270.77	83.38
271.002	91.38
271.234	80.38
271.466	97.38
271.698	92.38
271.93	87.38
272.162	60.38
272.394	92.38
272.626	74.38
272.858	81.38
273.09	78.38
273.322	99.38
273.553	71.38
273.785	81.38
274.017	89.38
274.249	91.38
274.481	88.38
274.713	84.38
274.945	93.38
275.176	81.38
275.408	89.38
275.64	80.38
275.872	89.38
276.104	96.38
276.335	64.38
276.567	83.38
276.799	87.38
277.031	70.38
277.262	78.38
277.494	88.38
277.726	73.38
277.957	74.38
278.189	73.38
278.421	80.38
278.652	92.38
278.884	81.38
279.115	83.38
279.347	97.38
279.579	97.38
279.81	101.38
280.042	86.38
280.273	93.38
280.505	84.38
280.736	105.38
280.968	72.38
281.199	97.38
281.431	84.38
281.662	82.38
281.894	71.38
282.125	79.38
282.356	87.38
282.588	84.38
282.819	85.38
283.051	81.38
283.282	87.38
283.513	77.38
283.745	76.38
283.976	95.38
284.207	93.38
284.439	75.38
284.67	74.38
284.901	93.38
285.132	95.38
285.364	90.38
285.595	85.38
285.826	81.38
286.057	97.38
286.288	95.38
286.52	90.38
286.751	85.38
286.982	87.38
287.213	89.38
287.444	80.38
287.675	97.38
287.906	99.38
288.138	82.38
288.369	96.38
288.6	83.38
288.831	104.38
289.062	79.38
289.293	85.38
289.524	76.38
289.755	88.38
289.986	100.38
290.217	95.38
290.448	94.38
290.679	90.38
290.91	86.38
291.141	84.38
291.371	87.38
291.602	73.38
291.833	97.38
292.064	86.38
292.295	83.38
292.526	76.38
292.757	88.38
292.987	88.38
293.218	90.38
293.449	84.38
293.68	88.38
293.91	85.38
294.141	85.38
294.372	83.38
294.603	91.38
294.833	85.38
295.064	99.38
295.295	80.38
295.525	90.38
295.756	89.38
295.987	89.38
296.217	87.38
296.448	96.38
296.679	98.38
296.909	93.38
297.14	74.38
297.37	91.38
297.601	81.38
297.831	89.38
298.062	92.38
298.292	99.38
298.523	96.38
298.753	105.38
298.984	87.38
299.214	89.38
299.445	87.38
299.675	86.38
299.905	92.38
300.136	88.38
300.366	88.38
300.597	88.38
300.827	87.38
301.057	91.38
301.288	78.38
301.518	97.38
301.748	88.38
301.979	101.38
302.209	90.38
302.439	94.38
302.669	78.38
302.9	79.38
303.13	91.38
303.36	92.38
303.59	87.38
303.82	90.38
304.051	80.38
304.281	88.38
304.511	93.38
304.741	73.38
304.971	82.38
305.201	73.38
305.431	95.38
305.661	83.38
305.891	84.38
306.121	65.38
306.352	90.38
306.582	89.38
306.812	89.38
307.042	88.38
307.272	74.38
307.502	77.38
307.731	84.38
307.961	83.38
308.191	90.38
308.421	81.38
308.651	87.38
308.881	88.38
309.111	93.38
309.341	96.38
309.571	100.38
309.8	97.38
310.03	95.38
310.26	94.38
310.49	86.38
310.72	83.38
310.949	91.38
311.179	96.38
311.409	87.38
311.639	91.38
311.868	85.38
312.098	83.38
312.328	101.38
312.557	90.38
312.787	88.38
313.017	84.38
313.246	90.38
313.476	77.38
313.706	81.38
313.935	76.38
314.165	80.38
314.394	96.38
314.624	72.38
314.853	84.38
315.083	91.38
315.312	105.38
315.542	93.38
315.771	98.38
316.001	111.38
316.23	98.38
316.46	84.38
316.689	83.38
316.919	92.38
317.148	89.38
317.377	80.38
317.607	93.38
317.836	95.38
318.065	122.38
318.295	99.38
318.524	75.38
318.753	79.38
318.983	90.38
319.212	91.38
319.441	86.38
319.67	88.38
319.9	86.38
320.129	87.38
320.358	86.38
320.587	89.38
320.816	90.38
321.046	84.38
321.275	92.38
321.504	88.38
321.733	80.38
321.962	80.38
322.191	103.38
322.42	87.38
322.649	75.38
322.878	91.38
323.108	90.38
323.337	94.38
323.566	107.38
323.795	100.38
324.024	89.38
324.253	99.38
324.482	91.38
324.71	82.38
324.939	87.38
325.168	95.38
325.397	91.38
325.626	90.38
325.855	92.38
326.084	86.38
326.313	100.38
326.542	98.38
326.77	87.38
326.999	81.38
327.228	98.38
327.457	84.38
327.686	89.38
327.914	92.38
328.143	83.38
328.372	83.38
328.6	96.38
328.829	100.38
329.058	80.38
329.287	85.38
329.515	105.38
329.744	87.38
329.972	80.38
330.201	101.38
330.43	99.38
330.658	74.38
330.887	85.38
331.115	90.38
331.344	82.38
331.572	81.38
331.801	86.38
332.03	83.38
332.258	97.38
332.486	93.38
332.715	83.38
332.943	87.38
333.172	76.38
333.4	83.38
333.629	87.38
333.857	87.38
334.085	69.38
334.314	91.38
334.542	101.38
334.771	101.38
334.999	94.38
335.227	97.38
335.455	90.38
335.684	87.38
335.912	94.38
336.14	100.38
336.369	98.38
336.597	93.38
336.825	90.38
337.053	84.38
337.281	84.38
337.51	85.38
337.738	78.38
337.966	93.38
338.194	81.38
338.422	87.38
338.65	97.38
338.878	81.38
339.106	92.38
339.334	84.38
339.562	82.38
339.79	101.38
340.018	93.38
340.246	89.38
340.474	77.38
340.702	77.38
340.93	88.38
341.158	92.38
341.386	82.38
341.614	87.38
341.842	95.38
342.07	83.38
342.298	87.38
342.526	92.38
342.754	89.38
342.981	89.38
343.209	91.38
343.437	82.38
343.665	81.38
343.893	103.38
344.12	99.38
344.348	98.38
344.576	76.38
344.804	75.38
345.031	96.38
345.259	90.38
345.487	92.38
345.714	93.38
345.942	89.38
346.17	97.38
346.397	93.38
346.625	79.38
346.853	93.38
347.08	91.38
347.308	86.38
347.535	87.38
347.763	84.38
347.99	90.38
348.218	92.38
348.445	86.38
348.673	96.38
348.9	89.38
349.128	99.38
349.355	77.38
349.583	89.38
349.81	98.38
350.037	104.38
350.265	91.38
350.492	89.38
350.72	87.38
350.947	97.38
351.174	88.38
351.402	80.38
351.629	84.38
351.856	84.38
352.083	73.38
352.311	86.38
352.538	79.38
352.765	83.38
352.992	100.38
353.22	92.38
353.447	82.38
353.674	86.38
353.901	81.38
354.128	90.38
354.355	73.38
354.583	87.38
354.81	86.38
355.037	74.38
355.264	79.38
355.491	82.38
355.718	93.38
355.945	81.38
356.172	87.38
356.399	78.38
356.626	77.38
356.853	97.38
357.08	81.38
357.307	107.38
357.534	97.38
357.761	90.38
357.988	101.38
358.215	82.38
358.441	92.38
358.668	92.38
358.895	76.38
359.122	77.38
359.349	92.38
359.576	92.38
359.802	89.38
360.029	93.38
360.256	89.38
360.483	96.38
360.709	102.38
360.936	89.38
361.163	87.38
361.39	76.38
361.616	93.38
361.843	105.38
362.07	88.38
362.296	93.38
362.523	98.38
362.749	77.38
362.976	109.38
363.203	119.38
363.429	89.38
363.656	91.38
363.882	88.38
364.109	89.38
364.335	105.38
364.562	115.38
364.788	103.38
365.015	91.38
365.241	85.38
365.468	85.38
365.694	80.38
365.92	84.38
366.147	89.38
366.373	66.38
366.599	64.38
366.826	76.38
367.052	89.38
367.278	84.38
367.505	81.38
367.731	84.38
367.957	87.38
368.184	101.38
368.41	79.38
368.636	105.38
368.862	81.38
369.089	74.38
369.315	71.38
369.541	90.38
369.767	77.38
369.993	90.38
370.219	92.38
370.445	101.38
370.672	104.38
370.898	91.38
371.124	75.38
371.35	83.38
371.576	98.38
371.802	95.38
372.028	106.38
372.254	96.38
372.48	71.38
372.706	98.38
372.932	86.38
373.158	85.38
373.384	115.38
373.61	125.38
373.835	119.38
374.061	101.38
374.287	90.38
374.513	81.38
374.739	90.38
374.965	98.38
375.191	109.38
375.416	89.38
375.642	97.38
375.868	78.38
376.094	98.38
376.319	109.38
376.545	93.38
376.771	88.38
376.997	90.38
377.222	81.38
377.448	85.38
377.674	92.38
377.899	97.38
378.125	90.38
378.35	90.38
378.576	78.38
378.802	89.38
379.027	81.38
379.253	77.38
379.478	79.38
379.704	89.38
379.929	77.38
380.155	91.38
380.38	91.38
380.606	80.38
380.831	91.38
381.057	94.38
381.282	91.38
381.507	99.38
381.733	98.38
381.958	87.38
382.184	113.38
382.409	93.38
382.634	99.38
382.86	107.38
383.085	91.38
383.31	104.38
383.535	108.38
383.761	104.38
383.986	93.38
384.211	106.38
384.436	103.38
384.662	90.38
384.887	99.38
385.112	100.38
385.337	89.38
385.562	113.38
385.787	105.38
386.013	106.38
386.238	106.38
386.463	90.38
386.688	100.38
386.913	90.38
387.138	105.38
387.363	89.38
387.588	102.38
387.813	98.38
388.038	113.38
388.263	93.38
388.488	88.38
388.713	99.38
388.938	89.38
389.163	92.38
389.387	84.38
389.612	92.38
389.837	89.38
390.062	86.38
390.287	85.38
390.512	78.38
390.736	99.38
390.961	86.38
391.186	95.38
391.411	87.38
391.636	87.38
391.86	88.38
392.085	108.38
392.31	105.38
392.534	113.38
392.759	132.38
392.984	214.38
393.208	469.38
393.433	747.38
393.658	553.38
393.882	184.38
394.107	115.38
394.331	136.38
394.556	131.38
394.78	128.38
395.005	92.38
395.229	86.38
395.454	102.38
395.678	114.38
395.903	145.38
396.127	157.38
396.352	202.38
396.576	269.38
396.801	469.38
397.025	577.38
397.249	241.38
397.474	134.38
397.698	103.38
397.922	99.38
398.147	92.38
398.371	96.38
398.595	87.38
398.82	81.38
399.044	84.38
399.268	91.38
399.492	77.38
399.717	86.38
399.941	88.38
400.165	104.38
400.389	77.38
400.613	84.38
400.837	81.38
401.062	71.38
401.286	99.38
401.51	87.38
401.734	90.38
401.958	91.38
402.182	81.38
402.406	86.38
402.63	87.38
402.854	81.38
403.078	86.38
403.302	72.38
403.526	88.38
403.75	95.38
403.974	91.38
404.198	102.38
404.422	127.38
404.645	127.38
404.869	130.38
405.093	108.38
405.317	95.38
405.541	87.38
405.765	82.38
405.988	82.38
406.212	87.38
406.436	74.38
406.66	100.38
406.883	89.38
407.107	82.38
407.331	83.38
407.555	109.38
407.778	126.38
408.002	139.38
408.226	96.38
408.449	89.38
408.673	76.38
408.896	85.38
409.12	74.38
409.344	80.38
409.567	88.38
409.791	102.38
410.014	96.38
410.238	81.38
410.461	96.38
410.685	98.38
410.908	88.38
411.132	81.38
411.355	77.38
411.578	87.38
411.802	85.38
412.025	75.38
412.249	75.38
412.472	89.38
412.695	93.38
412.919	88.38
413.142	82.38
413.365	91.38
413.589	74.38
413.812	87.38
414.035	85.38
414.258	93.38
414.482	71.38
414.705	91.38
414.928	89.38
415.151	87.38
415.374	87.38
415.597	84.38
415.821	88.38
416.044	77.38
416.267	91.38
416.49	94.38
416.713	87.38
416.936	93.38
417.159	74.38
417.382	77.38
417.605	87.38
417.828	72.38
418.051	88.38
418.274	86.38
418.497	105.38
418.72	87.38
418.943	88.38
419.166	75.38
419.389	75.38
419.611	70.38
419.834	74.38
420.057	97.38
420.28	87.38
420.503	93.38
420.726	85.38
420.948	83.38
421.171	86.38
421.394	97.38
421.617	127.38
421.839	120.38
422.062	126.38
422.285	159.38
422.507	340.38
422.73	649.38
422.953	563.38
423.175	219.38
423.398	108.38
423.621	107.38
423.843	101.38
424.066	74.38
424.288	89.38
424.511	85.38
424.733	90.38
424.956	104.38
425.178	75.38
425.401	92.38
425.623	92.38
425.846	90.38
426.068	91.38
426.291	100.38
426.513	91.38
426.735	80.38
426.958	74.38
427.18	94.38
427.402	94.38
427.625	84.38
427.847	86.38
428.069	115.38
428.292	151.38
428.514	148.38
428.736	121.38
428.958	141.38
429.181	143.38
429.403	97.38
429.625	103.38
429.847	129.38
430.069	191.38
430.292	235.38
430.514	203.38
430.736	140.38
430.958	155.38
431.18	104.38
431.402	88.38
431.624	101.38
431.846	135.38
432.068	164.38
432.29	106.38
432.512	87.38
432.734	85.38
432.956	90.38
433.178	71.38
433.4	77.38
433.622	84.38
433.844	75.38
434.066	67.38
434.287	72.38
434.509	84.38
434.731	104.38
434.953	85.38
435.175	83.38
435.397	99.38
435.618	108.38
435.84	87.38
436.062	87.38
436.284	72.38
436.505	91.38
436.727	86.38
436.949	90.38
437.17	77.38
437.392	79.38
437.614	74.38
437.835	89.38
438.057	76.38
438.278	102.38
438.5	83.38
438.721	89.38
438.943	84.38
439.165	77.38
439.386	83.38
439.608	81.38
439.829	83.38
440.05	86.38
440.272	79.38
440.493	77.38
440.715	85.38
440.936	81.38
441.158	77.38
441.379	74.38
441.6	87.38
441.822	96.38
442.043	99.38
442.264	97.38
442.486	139.38
442.707	176.38
442.928	123.38
443.149	122.38
443.371	144.38
443.592	257.38
443.813	225.38
444.034	114.38
444.255	99.38
444.476	70.38
444.698	83.38
444.919	97.38
445.14	184.38
445.361	215.38
445.582	342.38
445.803	269.38
446.024	114.38
446.245	91.38
446.466	75.38
446.687	88.38
446.908	90.38
447.129	89.38
447.35	78.38
447.571	91.38
447.792	83.38
448.013	81.38
448.234	84.38
448.455	95.38
448.675	76.38
448.896	91.38
449.117	91.38
449.338	78.38
449.559	83.38
449.779	79.38
450	80.38
450.221	79.38
450.442	75.38
450.662	78.38
450.883	81.38
451.104	79.38
451.324	91.38
451.545	79.38
451.766	67.38
451.986	77.38
452.207	84.38
452.428	71.38
452.648	89.38
452.869	91.38
453.089	100.38
453.31	84.38
453.53	90.38
453.751	92.38
453.971	87.38
454.192	70.38
454.412	88.38
454.633	91.38
454.853	91.38
455.073	97.38
455.294	83.38
455.514	85.38
455.734	95.38
455.955	80.38
456.175	82.38
456.395	88.38
456.616	78.38
456.836	78.38
457.056	97.38
457.276	80.38
457.497	96.38
457.717	81.38
457.937	100.38
458.157	116.38
458.377	118.38
458.598	103.38
458.818	114.38
459.038	92.38
459.258	84.38
459.478	81.38
459.698	74.38
459.918	81.38
460.138	83.38
460.358	91.38
460.578	102.38
460.798	126.38
461.018	125.38
461.238	74.38
461.458	87.38
461.678	92.38
461.898	73.38
462.118	88.38
462.338	79.38
462.558	75.38
462.777	74.38
462.997	86.38
463.217	91.38
463.437	80.38
463.657	95.38
463.876	79.38
464.096	83.38
464.316	93.38
464.536	95.38
464.755	88.38
464.975	92.38
465.195	81.38
465.414	91.38
465.634	88.38
465.854	77.38
466.073	79.38
466.293	71.38
466.512	75.38
466.732	83.38
466.951	83.38
467.171	83.38
467.391	82.38
467.61	90.38
467.829	89.38
468.049	84.38
468.268	89.38
468.488	85.38
468.707	82.38
468.927	77.38
469.146	89.38
469.365	92.38
469.585	85.38
469.804	80.38
470.023	83.38
470.243	75.38
470.462	95.38
470.681	83.38
470.901	74.38
471.12	85.38
471.339	81.38
471.558	82.38
471.777	76.38
471.997	72.38
472.216	84.38
472.435	89.38
472.654	93.38
472.873	81.38
473.092	85.38
473.311	91.38
473.53	84.38
473.749	78.38
473.968	87.38
474.187	84.38
474.406	75.38
474.625	86.38
474.844	73.38
475.063	84.38
475.282	85.38
475.501	79.38
475.72	89.38
475.939	97.38
476.158	89.38
476.377	81.38
476.596	77.38
476.814	87.38
477.033	85.38
477.252	92.38
477.471	88.38
477.69	78.38
477.908	89.38
478.127	91.38
478.346	79.38
478.564	86.38
478.783	94.38
479.002	84.38
479.22	84.38
479.439	94.38
479.658	88.38
479.876	96.38
480.095	85.38
480.313	83.38
480.532	83.38
480.751	87.38
480.969	79.38
481.188	82.38
481.406	85.38
481.624	69.38
481.843	86.38
482.061	87.38
482.28	89.38
482.498	82.38
482.717	68.38
482.935	80.38
483.153	89.38
483.372	83.38
483.59	97.38
483.808	85.38
484.027	89.38
484.245	68.38
484.463	84.38
484.681	79.38
484.9	95.38
485.118	96.38
485.336	88.38
485.554	75.38
485.772	89.38
485.99	84.38
486.209	88.38
486.427	86.38
486.645	83.38
486.863	87.38
487.081	100.38
487.299	86.38
487.517	97.38
487.735	102.38
487.953	145.38
488.171	106.38
488.389	83.38
488.607	91.38
488.825	85.38
489.043	73.38
489.261	79.38
489.479	86.38
489.696	89.38
489.914	83.38
490.132	79.38
490.35	83.38
490.568	83.38
490.786	84.38
491.003	107.38
491.221	88.38
491.439	79.38
491.657	91.38
491.874	88.38
492.092	77.38
492.31	93.38
492.527	81.38
492.745	88.38
492.963	76.38
493.18	80.38
493.398	81.38
493.615	92.38
493.833	80.38
494.05	74.38
494.268	85.38
494.485	83.38
494.703	88.38
494.92	85.38
495.138	84.38
495.355	93.38
495.573	73.38
495.79	83.38
496.008	63.38
496.225	73.38
496.442	84.38
496.66	95.38
496.877	81.38
497.094	94.38
497.312	72.38
497.529	90.38
497.746	74.38
497.963	96.38
498.181	90.38
498.398	91.38
498.615	85.38
498.832	88.38
499.049	92.38
499.267	91.38
499.484	97.38
499.701	76.38
499.918	90.38
500.135	87.38
500.352	79.38
500.569	88.38
500.786	83.38
501.003	87.38
501.22	84.38
501.437	83.38
501.654	95.38
501.871	79.38
502.088	89.38
502.305	91.38
502.522	92.38
502.739	83.38
502.956	90.38
503.172	77.38
503.389	91.38
503.606	85.38
503.823	89.38
504.04	84.38
504.256	113.38
504.473	127.38
504.69	90.38
504.907	81.38
505.123	83.38
505.34	90.38
505.557	87.38
505.773	96.38
505.99	96.38
506.207	83.38
506.423	89.38
506.64	80.38
506.856	76.38
507.073	78.38
507.289	87.38
507.506	81.38
507.722	87.38
507.939	96.38
508.155	88.38
508.372	77.38
508.588	94.38
508.805	94.38
509.021	83.38
509.238	76.38
509.454	95.38
509.67	84.38
509.887	81.38
510.103	75.38
510.319	85.38
510.536	91.38
510.752	90.38
510.968	86.38
511.184	92.38
511.401	86.38
511.617	84.38
511.833	89.38
512.049	83.38
512.265	76.38
512.481	92.38
512.698	78.38
512.914	91.38
513.13	81.38
513.346	85.38
513.562	101.38
513.778	89.38
513.994	79.38
514.21	91.38
514.426	82.38
514.642	71.38
514.858	81.38
515.074	92.38
515.29	73.38
515.506	90.38
515.721	113.38
515.937	83.38
516.153	97.38
516.369	88.38
516.585	91.38
516.801	87.38
517.016	92.38
517.232	89.38
517.448	99.38
517.664	86.38
517.879	93.38
518.095	93.38
518.311	73.38
518.527	103.38
518.742	117.38
518.958	153.38
519.173	136.38
519.389	104.38
519.605	86.38
519.82	98.38
520.036	95.38
520.251	84.38
520.467	83.38
520.682	93.38
520.898	95.38
521.113	92.38
521.329	96.38
521.544	83.38
521.76	90.38
521.975	72.38
522.19	69.38
522.406	86.38
522.621	84.38
522.836	83.38
523.052	86.38
523.267	91.38
523.482	97.38
523.698	80.38
523.913	76.38
524.128	90.38
524.343	79.38
524.559	83.38
524.774	96.38
524.989	104.38
525.204	85.38
525.419	81.38
525.634	95.38
525.849	92.38
526.064	105.38
526.28	181.38
526.495	259.38
526.71	297.38
526.925	217.38
527.14	293.38
527.355	261.38
527.57	116.38
527.785	86.38
527.999	92.38
528.214	70.38
528.429	93.38
528.644	83.38
528.859	82.38
529.074	91.38
529.289	78.38
529.503	91.38
529.718	82.38
529.933	83.38
530.148	90.38
530.363	82.38
530.577	90.38
530.792	93.38
531.007	88.38
531.221	74.38
531.436	81.38
531.651	86.38
531.865	98.38
532.08	88.38
532.295	94.38
532.509	79.38
532.724	101.38
532.938	95.38
533.153	83.38
533.367	85.38
533.582	91.38
533.796	85.38
534.011	90.38
534.225	98.38
534.44	101.38
534.654	89.38
534.868	100.38
535.083	156.38
535.297	124.38
535.511	98.38
535.726	83.38
535.94	100.38
536.154	98.38
536.369	91.38
536.583	96.38
536.797	93.38
537.011	77.38
537.225	99.38
537.44	97.38
537.654	82.38
537.868	74.38
538.082	83.38
538.296	81.38
538.51	101.38
538.724	89.38
538.938	74.38
539.153	97.38
539.367	94.38
539.581	81.38
539.795	104.38
540.009	98.38
540.222	94.38
540.436	107.38
540.65	93.38
540.864	97.38
541.078	95.38
541.292	89.38
541.506	91.38
541.72	90.38
541.934	90.38
542.147	88.38
542.361	89.38
542.575	80.38
542.789	91.38
543.002	103.38
543.216	90.38
543.43	104.38
543.644	92.38
543.857	101.38
544.071	99.38
544.285	93.38
544.498	90.38
544.712	91.38
544.925	97.38
545.139	93.38
545.352	87.38
545.566	90.38
545.779	98.38
545.993	95.38
546.206	119.38
546.42	92.38
546.633	100.38
546.847	115.38
547.06	99.38
547.274	106.38
547.487	120.38
547.7	129.38
547.914	141.38
548.127	127.38
548.34	147.38
548.554	129.38
548.767	129.38
548.98	118.38
549.193	131.38
549.407	132.38
549.62	138.38
549.833	135.38
550.046	160.38
550.259	164.38
550.473	143.38
550.686	166.38
550.899	166.38
551.112	170.38
551.325	201.38
551.538	205.38
551.751	181.38
551.964	173.38
552.177	152.38
552.39	147.38
552.603	159.38
552.816	172.38
553.029	164.38
553.242	172.38
553.455	156.38
553.667	175.38
553.88	172.38
554.093	168.38
554.306	163.38
554.519	181.38
554.732	154.38
554.944	151.38
555.157	157.38
555.37	151.38
555.583	156.38
555.795	129.38
556.008	135.38
556.221	127.38
556.433	120.38
556.646	140.38
556.859	124.38
557.071	123.38
557.284	103.38
557.496	111.38
557.709	120.38
557.921	123.38
558.134	119.38
558.346	176.38
558.559	149.38
558.771	138.38
558.984	334.38
559.196	392.38
559.409	203.38
559.621	315.38
559.833	218.38
560.046	260.38
560.258	195.38
560.47	205.38
560.683	137.38
560.895	89.38
561.107	88.38
561.32	95.38
561.532	90.38
561.744	101.38
561.956	89.38
562.168	87.38
562.381	89.38
562.593	92.38
562.805	96.38
563.017	87.38
563.229	86.38
563.441	85.38
563.653	92.38
563.865	75.38
564.077	91.38
564.289	85.38
564.501	95.38
564.713	88.38
564.925	81.38
565.137	77.38
565.349	92.38
565.561	100.38
565.773	87.38
565.985	97.38
566.197	91.38
566.408	97.38
566.62	93.38
566.832	86.38
567.044	81.38
567.255	92.38
567.467	97.38
567.679	91.38
567.891	91.38
568.102	100.38
568.314	90.38
568.526	105.38
568.737	92.38
568.949	81.38
569.161	87.38
569.372	90.38
569.584	91.38
569.795	105.38
570.007	91.38
570.218	86.38
570.43	94.38
570.641	103.38
570.853	91.38
571.064	87.38
571.276	92.38
571.487	92.38
571.698	87.38
571.91	89.38
572.121	95.38
572.333	71.38
572.544	93.38
572.755	98.38
572.966	88.38
573.178	99.38
573.389	94.38
573.6	90.38
573.811	91.38
574.023	95.38
574.234	84.38
574.445	81.38
574.656	87.38
574.867	91.38
575.078	91.38
575.289	94.38
575.501	92.38
575.712	81.38
575.923	97.38
576.134	91.38
576.345	90.38
576.556	81.38
576.767	99.38
576.978	87.38
577.188	85.38
577.399	70.38
577.61	64.38
577.821	89.38
578.032	81.38
578.243	91.38
578.454	89.38
578.665	96.38
578.875	99.38
579.086	95.38
579.297	84.38
579.508	77.38
579.718	93.38
579.929	81.38
580.14	79.38
580.35	95.38
580.561	91.38
580.772	91.38
580.982	88.38
581.193	94.38
581.403	96.38
581.614	105.38
581.825	107.38
582.035	99.38
582.246	87.38
582.456	89.38
582.667	82.38
582.877	99.38
583.087	96.38
583.298	100.38
583.508	94.38
583.719	92.38
583.929	91.38
584.139	81.38
584.35	70.38
584.56	91.38
584.77	95.38
584.981	107.38
585.191	89.38
585.401	99.38
585.611	99.38
585.821	132.38
586.032	205.38
586.242	105.38
586.452	88.38
586.662	98.38
586.872	96.38
587.082	93.38
587.292	102.38
587.502	99.38
587.713	89.38
587.923	99.38
588.133	98.38
588.343	111.38
588.553	116.38
588.762	158.38
588.972	264.38
589.182	871.38
589.392	501.38
589.602	314.38
589.812	733.38
590.022	306.38
590.232	133.38
590.441	119.38
590.651	108.38
590.861	112.38
591.071	118.38
591.281	105.38
591.49	93.38
591.7	96.38
591.91	101.38
592.119	91.38
592.329	99.38
592.539	106.38
592.748	108.38
592.958	105.38
593.167	105.38
593.377	87.38
593.587	106.38
593.796	102.38
594.006	109.38
594.215	107.38
594.424	103.38
594.634	97.38
594.843	114.38
595.053	121.38
595.262	106.38
595.472	100.38
595.681	114.38
595.89	113.38
596.1	123.38
596.309	116.38
596.518	116.38
596.727	138.38
596.937	124.38
597.146	121.38
597.355	139.38
597.564	130.38
597.774	139.38
597.983	112.38
598.192	125.38
598.401	120.38
598.61	125.38
598.819	135.38
599.028	139.38
599.237	127.38
599.446	132.38
599.655	126.38
599.864	123.38
600.073	119.38
600.282	123.38
600.491	133.38
600.7	148.38
600.909	137.38
601.118	114.38
601.327	107.38
601.536	106.38
601.745	111.38
601.953	111.38
602.162	108.38
602.371	115.38
602.58	117.38
602.789	124.38
602.997	130.38
603.206	136.38
603.415	106.38
603.623	115.38
603.832	127.38
604.041	147.38
604.249	131.38
604.458	145.38
604.666	134.38
604.875	147.38
605.084	136.38
605.292	152.38
605.501	136.38
605.709	148.38
605.918	154.38
606.126	149.38
606.334	163.38
606.543	160.38
606.751	167.38
606.96	153.38
607.168	136.38
607.376	144.38
607.585	139.38
607.793	147.38
608.001	153.38
608.21	147.38
608.418	151.38
608.626	149.38
608.834	149.38
609.043	153.38
609.251	147.38
609.459	128.38
609.667	157.38
609.875	171.38
610.083	164.38
610.291	161.38
610.499	268.38
610.707	192.38
610.916	161.38
611.124	148.38
611.332	155.38
611.54	148.38
611.748	156.38
611.955	172.38
612.163	204.38
612.371	355.38
612.579	280.38
612.787	197.38
612.995	180.38
613.203	179.38
613.411	167.38
613.618	161.38
613.826	152.38
614.034	157.38
614.242	155.38
614.449	169.38
614.657	161.38
614.865	165.38
615.072	170.38
615.28	165.38
615.488	171.38
615.695	153.38
615.903	170.38
616.111	189.38
616.318	363.38
616.526	403.38
616.733	213.38
616.941	192.38
617.148	236.38
617.356	194.38
617.563	160.38
617.771	143.38
617.978	151.38
618.185	144.38
618.393	148.38
618.6	157.38
618.807	136.38
619.015	138.38
619.222	127.38
619.429	134.38
619.637	140.38
619.844	127.38
620.051	129.38
620.258	139.38
620.466	148.38
620.673	136.38
620.88	140.38
621.087	139.38
621.294	139.38
621.501	137.38
621.708	145.38
621.915	125.38
622.122	135.38
622.329	141.38
622.536	130.38
622.743	136.38
622.95	144.38
623.157	132.38
623.364	129.38
623.571	143.38
623.778	151.38
623.985	141.38
624.192	149.38
624.399	159.38
624.606	151.38
624.812	142.38
625.019	153.38
625.226	145.38
625.433	143.38
625.639	136.38
625.846	139.38
626.053	126.38
626.259	130.38
626.466	130.38
626.673	126.38
626.879	139.38
627.086	130.38
627.293	125.38
627.499	118.38
627.706	122.38
627.912	112.38
628.119	115.38
628.325	112.38
628.532	93.38
628.738	107.38
628.945	94.38
629.151	88.38
629.357	97.38
629.564	85.38
629.77	75.38
629.976	91.38
630.183	91.38
630.389	90.38
630.595	92.38
630.802	103.38
631.008	75.38
631.214	92.38
631.42	98.38
631.627	96.38
631.833	99.38
632.039	106.38
632.245	97.38
632.451	95.38
632.657	91.38
632.863	93.38
633.069	88.38
633.275	97.38
633.481	89.38
633.688	103.38
633.893	96.38
634.099	76.38
634.305	87.38
634.511	85.38
634.717	111.38
634.923	97.38
635.129	79.38
635.335	97.38
635.541	87.38
635.747	87.38
635.952	90.38
636.158	101.38
636.364	98.38
636.57	100.38
636.775	97.38
636.981	90.38
637.187	92.38
637.392	96.38
637.598	97.38
637.804	88.38
638.009	95.38
638.215	76.38
638.421	71.38
638.626	101.38
638.832	91.38
639.037	88.38
639.243	66.38
639.448	98.38
639.654	88.38
639.859	87.38
640.065	89.38
640.27	104.38
640.475	90.38
640.681	101.38
640.886	92.38
641.091	89.38
641.297	102.38
641.502	88.38
641.707	104.38
641.913	92.38
642.118	81.38
642.323	95.38
642.528	78.38
642.733	86.38
642.939	97.38
643.144	95.38
643.349	100.38
643.554	98.38
643.759	95.38
643.964	154.38
644.169	203.38
644.374	107.38
644.579	93.38
644.784	92.38
644.989	90.38
645.194	125.38
645.399	102.38
645.604	93.38
645.809	97.38
646.014	103.38
646.219	106.38
646.423	164.38
646.628	132.38
646.833	96.38
647.038	95.38
647.243	99.38
647.447	108.38
647.652	89.38
647.857	85.38
648.062	103.38
648.266	87.38
648.471	74.38
648.676	76.38
648.88	87.38
649.085	79.38
649.289	84.38
649.494	116.38
649.698	108.38
649.903	91.38
650.107	91.38
650.312	92.38
650.516	71.38
650.721	77.38
650.925	89.38
651.13	89.38
651.334	72.38
651.539	74.38
651.743	77.38
651.947	75.38
652.152	87.38
652.356	83.38
652.56	85.38
652.764	82.38
652.969	89.38
653.173	83.38
653.377	93.38
653.581	88.38
653.785	102.38
653.99	91.38
654.194	84.38
654.398	82.38
654.602	86.38
654.806	81.38
655.01	88.38
655.214	84.38
655.418	82.38
655.622	80.38
655.826	85.38
656.03	83.38
656.234	89.38
656.438	67.38
656.642	91.38
656.846	82.38
657.049	73.38
657.253	78.38
657.457	91.38
657.661	83.38
657.865	68.38
658.068	92.38
658.272	92.38
658.476	89.38
658.68	79.38
658.883	68.38
659.087	85.38
659.291	88.38
659.494	95.38
659.698	92.38
659.901	92.38
660.105	76.38
660.309	67.38
660.512	90.38
660.716	86.38
660.919	76.38
661.123	79.38
661.326	71.38
661.53	78.38
661.733	87.38
661.936	81.38
662.14	87.38
662.343	86.38
662.546	79.38
662.75	74.38
662.953	85.38
663.156	86.38
663.36	81.38
663.563	79.38
663.766	79.38
663.969	87.38
664.173	86.38
664.376	84.38
664.579	77.38
664.782	94.38
664.985	77.38
665.188	85.38
665.391	76.38
665.594	77.38
665.797	82.38
666	79.38
666.203	74.38
666.406	81.38
666.609	79.38
666.812	87.38
667.015	76.38
667.218	85.38
667.421	85.38
667.624	84.38
667.827	67.38
668.03	84.38
668.232	91.38
668.435	86.38
668.638	85.38
668.841	93.38
669.043	89.38
669.246	75.38
669.449	95.38
669.651	90.38
669.854	86.38
670.057	88.38
670.259	72.38
670.462	68.38
670.665	73.38
670.867	88.38
671.07	76.38
671.272	89.38
671.475	83.38
671.677	81.38
671.88	74.38
672.082	75.38
672.284	99.38
672.487	90.38
672.689	85.38
672.892	78.38
