Data from Circ_2011_H10_HRD10591_00078.txt Node
Date: Wed Jan 03 10:08:14 EST 2024
User: Yrep
Spectrometer: HR+D1059
Trigger mode: 1
Integration Time (sec): 1.000000E-1
Scans to average: 1
Electric dark correction enabled: true
Nonlinearity correction enabled: false
Boxcar width: 0
XAxis mode: Wavelengths
Number of Pixels in Spectrum: 2048
>>>>>Begin Spectral Data<<<<<
223.165	-16.44
223.4	-16.44
223.635	-16.44
223.869	-22.44
224.104	-26.44
224.338	-20.44
224.573	-12.44
224.808	-4.44
225.042	-4.44
225.277	-10.44
225.511	-3.44
225.746	-1.44
225.98	10.56
226.215	13.56
226.449	7.56
226.683	28.56
226.918	26.56
227.152	35.56
227.387	24.56
227.621	34.56
227.856	28.56
228.09	47.56
228.324	46.56
228.559	51.56
228.793	60.56
229.027	68.56
229.262	67.56
229.496	69.56
229.73	55.56
229.964	89.56
230.199	75.56
230.433	74.56
230.667	68.56
230.901	85.56
231.136	68.56
231.37	67.56
231.604	76.56
231.838	85.56
232.072	100.56
232.306	85.56
232.541	72.56
232.775	95.56
233.009	79.56
233.243	85.56
233.477	76.56
233.711	87.56
233.945	73.56
234.179	84.56
234.413	77.56
234.647	83.56
234.881	69.56
235.115	79.56
235.349	70.56
235.583	89.56
235.817	73.56
236.051	62.56
236.285	68.56
236.519	70.56
236.753	93.56
236.987	87.56
237.221	82.56
237.455	88.56
237.689	71.56
237.922	79.56
238.156	83.56
238.39	75.56
238.624	81.56
238.858	75.56
239.091	71.56
239.325	73.56
239.559	70.56
239.793	62.56
240.027	81.56
240.26	85.56
240.494	75.56
240.728	76.56
240.961	80.56
241.195	98.56
241.429	87.56
241.662	83.56
241.896	87.56
242.13	86.56
242.363	75.56
242.597	76.56
242.83	77.56
243.064	74.56
243.298	71.56
243.531	72.56
243.765	79.56
243.998	79.56
244.232	88.56
244.465	79.56
244.699	74.56
244.932	86.56
245.166	94.56
245.399	54.56
245.633	77.56
245.866	68.56
246.099	74.56
246.333	73.56
246.566	77.56
246.8	77.56
247.033	74.56
247.266	80.56
247.5	89.56
247.733	90.56
247.966	86.56
248.2	79.56
248.433	64.56
248.666	77.56
248.899	88.56
249.133	74.56
249.366	72.56
249.599	93.56
249.832	83.56
250.066	79.56
250.299	68.56
250.532	86.56
250.765	86.56
250.998	79.56
251.231	77.56
251.465	80.56
251.698	72.56
251.931	72.56
252.164	85.56
252.397	78.56
252.63	84.56
252.863	80.56
253.096	80.56
253.329	70.56
253.562	73.56
253.795	80.56
254.028	80.56
254.261	74.56
254.494	84.56
254.727	77.56
254.96	73.56
255.193	84.56
255.426	83.56
255.659	78.56
255.892	96.56
256.124	83.56
256.357	84.56
256.59	75.56
256.823	88.56
257.056	102.56
257.289	80.56
257.521	88.56
257.754	68.56
257.987	76.56
258.22	86.56
258.452	86.56
258.685	74.56
258.918	82.56
259.151	83.56
259.383	80.56
259.616	83.56
259.849	76.56
260.081	77.56
260.314	88.56
260.547	78.56
260.779	74.56
261.012	93.56
261.244	87.56
261.477	78.56
261.71	92.56
261.942	114.56
262.175	116.56
262.407	86.56
262.64	89.56
262.872	96.56
263.105	77.56
263.337	86.56
263.57	79.56
263.802	81.56
264.035	76.56
264.267	77.56
264.499	91.56
264.732	88.56
264.964	80.56
265.197	79.56
265.429	83.56
265.661	75.56
265.894	77.56
266.126	86.56
266.358	70.56
266.591	86.56
266.823	86.56
267.055	91.56
267.287	84.56
267.52	83.56
267.752	86.56
267.984	93.56
268.216	84.56
268.448	92.56
268.681	77.56
268.913	83.56
269.145	92.56
269.377	90.56
269.609	67.56
269.841	94.56
270.073	87.56
270.306	93.56
270.538	89.56
270.77	79.56
271.002	79.56
271.234	79.56
271.466	90.56
271.698	82.56
271.93	79.56
272.162	88.56
272.394	84.56
272.626	83.56
272.858	91.56
273.09	90.56
273.322	78.56
273.553	86.56
273.785	82.56
274.017	81.56
274.249	77.56
274.481	75.56
274.713	83.56
274.945	83.56
275.176	85.56
275.408	90.56
275.64	74.56
275.872	84.56
276.104	97.56
276.335	83.56
276.567	97.56
276.799	111.56
277.031	107.56
277.262	108.56
277.494	100.56
277.726	89.56
277.957	82.56
278.189	86.56
278.421	88.56
278.652	89.56
278.884	83.56
279.115	86.56
279.347	91.56
279.579	76.56
279.81	100.56
280.042	96.56
280.273	117.56
280.505	93.56
280.736	90.56
280.968	80.56
281.199	91.56
281.431	97.56
281.662	70.56
281.894	85.56
282.125	86.56
282.356	114.56
282.588	129.56
282.819	105.56
283.051	97.56
283.282	77.56
283.513	87.56
283.745	87.56
283.976	93.56
284.207	90.56
284.439	70.56
284.67	92.56
284.901	84.56
285.132	82.56
285.364	88.56
285.595	89.56
285.826	83.56
286.057	87.56
286.288	88.56
286.52	82.56
286.751	91.56
286.982	88.56
287.213	80.56
287.444	78.56
287.675	79.56
287.906	86.56
288.138	91.56
288.369	91.56
288.6	100.56
288.831	74.56
289.062	96.56
289.293	82.56
289.524	84.56
289.755	91.56
289.986	91.56
290.217	84.56
290.448	80.56
290.679	83.56
290.91	82.56
291.141	85.56
291.371	81.56
291.602	83.56
291.833	93.56
292.064	93.56
292.295	88.56
292.526	82.56
292.757	89.56
292.987	85.56
293.218	84.56
293.449	84.56
293.68	70.56
293.91	90.56
294.141	95.56
294.372	94.56
294.603	87.56
294.833	89.56
295.064	91.56
295.295	83.56
295.525	80.56
295.756	90.56
295.987	113.56
296.217	135.56
296.448	137.56
296.679	93.56
296.909	90.56
297.14	69.56
297.37	87.56
297.601	86.56
297.831	98.56
298.062	86.56
298.292	92.56
298.523	83.56
298.753	89.56
298.984	102.56
299.214	86.56
299.445	99.56
299.675	102.56
299.905	87.56
300.136	84.56
300.366	80.56
300.597	90.56
300.827	91.56
301.057	105.56
301.288	111.56
301.518	90.56
301.748	106.56
301.979	100.56
302.209	91.56
302.439	100.56
302.669	83.56
302.9	82.56
303.13	78.56
303.36	97.56
303.59	85.56
303.82	120.56
304.051	98.56
304.281	76.56
304.511	98.56
304.741	99.56
304.971	82.56
305.201	85.56
305.431	89.56
305.661	92.56
305.891	83.56
306.121	97.56
306.352	108.56
306.582	111.56
306.812	97.56
307.042	94.56
307.272	105.56
307.502	100.56
307.731	114.56
307.961	98.56
308.191	75.56
308.421	85.56
308.651	97.56
308.881	90.56
309.111	92.56
309.341	103.56
309.571	99.56
309.8	100.56
310.03	87.56
310.26	107.56
310.49	83.56
310.72	106.56
310.949	102.56
311.179	98.56
311.409	94.56
311.639	79.56
311.868	101.56
312.098	91.56
312.328	95.56
312.557	102.56
312.787	99.56
313.017	94.56
313.246	101.56
313.476	77.56
313.706	82.56
313.935	104.56
314.165	106.56
314.394	109.56
314.624	90.56
314.853	106.56
315.083	62.56
315.312	108.56
315.542	82.56
315.771	93.56
316.001	93.56
316.23	83.56
316.46	85.56
316.689	91.56
316.919	93.56
317.148	88.56
317.377	101.56
317.607	93.56
317.836	83.56
318.065	82.56
318.295	79.56
318.524	97.56
318.753	91.56
318.983	110.56
319.212	96.56
319.441	106.56
319.67	112.56
319.9	96.56
320.129	96.56
320.358	94.56
320.587	94.56
320.816	91.56
321.046	109.56
321.275	91.56
321.504	102.56
321.733	94.56
321.962	90.56
322.191	103.56
322.42	104.56
322.649	106.56
322.878	115.56
323.108	119.56
323.337	132.56
323.566	142.56
323.795	158.56
324.024	222.56
324.253	446.56
324.482	980.56
324.71	1961.56
324.939	2576.56
325.168	930.56
325.397	270.56
325.626	162.56
325.855	144.56
326.084	131.56
326.313	132.56
326.542	179.56
326.77	251.56
326.999	518.56
327.228	1119.56
327.457	1996.56
327.686	1576.56
327.914	446.56
328.143	254.56
328.372	246.56
328.6	170.56
328.829	136.56
329.058	131.56
329.287	129.56
329.515	121.56
329.744	130.56
329.972	166.56
330.201	258.56
330.43	342.56
330.658	191.56
330.887	148.56
331.115	135.56
331.344	108.56
331.572	94.56
331.801	115.56
332.03	119.56
332.258	95.56
332.486	94.56
332.715	85.56
332.943	92.56
333.172	117.56
333.4	95.56
333.629	128.56
333.857	127.56
334.085	163.56
334.314	250.56
334.542	376.56
334.771	376.56
334.999	157.56
335.227	107.56
335.455	92.56
335.684	99.56
335.912	87.56
336.14	105.56
336.369	105.56
336.597	86.56
336.825	106.56
337.053	75.56
337.281	93.56
337.51	84.56
337.738	100.56
337.966	86.56
338.194	94.56
338.422	80.56
338.65	87.56
338.878	93.56
339.106	101.56
339.334	90.56
339.562	100.56
339.79	102.56
340.018	79.56
340.246	98.56
340.474	98.56
340.702	99.56
340.93	75.56
341.158	93.56
341.386	98.56
341.614	85.56
341.842	107.56
342.07	96.56
342.298	91.56
342.526	85.56
342.754	96.56
342.981	79.56
343.209	87.56
343.437	90.56
343.665	89.56
343.893	87.56
344.12	109.56
344.348	84.56
344.576	78.56
344.804	91.56
345.031	94.56
345.259	102.56
345.487	76.56
345.714	90.56
345.942	96.56
346.17	86.56
346.397	109.56
346.625	88.56
346.853	92.56
347.08	90.56
347.308	107.56
347.535	95.56
347.763	105.56
347.99	99.56
348.218	96.56
348.445	89.56
348.673	104.56
348.9	98.56
349.128	92.56
349.355	98.56
349.583	85.56
349.81	94.56
350.037	105.56
350.265	79.56
350.492	104.56
350.72	91.56
350.947	87.56
351.174	116.56
351.402	111.56
351.629	107.56
351.856	102.56
352.083	102.56
352.311	98.56
352.538	109.56
352.765	115.56
352.992	124.56
353.22	115.56
353.447	109.56
353.674	102.56
353.901	92.56
354.128	99.56
354.355	106.56
354.583	99.56
354.81	93.56
355.037	91.56
355.264	87.56
355.491	98.56
355.718	77.56
355.945	101.56
356.172	103.56
356.399	98.56
356.626	105.56
356.853	96.56
357.08	90.56
357.307	90.56
357.534	101.56
357.761	94.56
357.988	85.56
358.215	100.56
358.441	80.56
358.668	104.56
358.895	90.56
359.122	92.56
359.349	83.56
359.576	94.56
359.802	114.56
360.029	135.56
360.256	114.56
360.483	103.56
360.709	87.56
360.936	103.56
361.163	88.56
361.39	104.56
361.616	98.56
361.843	91.56
362.07	90.56
362.296	86.56
362.523	101.56
362.749	92.56
362.976	108.56
363.203	89.56
363.429	99.56
363.656	100.56
363.882	87.56
364.109	77.56
364.335	87.56
364.562	97.56
364.788	106.56
365.015	98.56
365.241	98.56
365.468	117.56
365.694	105.56
365.92	97.56
366.147	88.56
366.373	99.56
366.599	102.56
366.826	90.56
367.052	87.56
367.278	101.56
367.505	80.56
367.731	102.56
367.957	91.56
368.184	94.56
368.41	87.56
368.636	117.56
368.862	124.56
369.089	98.56
369.315	88.56
369.541	94.56
369.767	86.56
369.993	87.56
370.219	93.56
370.445	99.56
370.672	85.56
370.898	90.56
371.124	98.56
371.35	82.56
371.576	86.56
371.802	74.56
372.028	74.56
372.254	83.56
372.48	73.56
372.706	84.56
372.932	82.56
373.158	85.56
373.384	91.56
373.61	86.56
373.835	85.56
374.061	78.56
374.287	90.56
374.513	93.56
374.739	93.56
374.965	96.56
375.191	79.56
375.416	102.56
375.642	88.56
375.868	75.56
376.094	89.56
376.319	88.56
376.545	91.56
376.771	91.56
376.997	99.56
377.222	82.56
377.448	94.56
377.674	74.56
377.899	102.56
378.125	92.56
378.35	96.56
378.576	95.56
378.802	84.56
379.027	84.56
379.253	85.56
379.478	90.56
379.704	71.56
379.929	86.56
380.155	97.56
380.38	96.56
380.606	89.56
380.831	82.56
381.057	97.56
381.282	91.56
381.507	81.56
381.733	87.56
381.958	106.56
382.184	90.56
382.409	95.56
382.634	102.56
382.86	97.56
383.085	95.56
383.31	86.56
383.535	92.56
383.761	90.56
383.986	105.56
384.211	102.56
384.436	94.56
384.662	88.56
384.887	89.56
385.112	95.56
385.337	100.56
385.562	86.56
385.787	102.56
386.013	112.56
386.238	109.56
386.463	91.56
386.688	98.56
386.913	107.56
387.138	111.56
387.363	87.56
387.588	99.56
387.813	93.56
388.038	88.56
388.263	110.56
388.488	110.56
388.713	103.56
388.938	96.56
389.163	95.56
389.387	100.56
389.612	99.56
389.837	92.56
390.062	106.56
390.287	98.56
390.512	85.56
390.736	88.56
390.961	95.56
391.186	96.56
391.411	89.56
391.636	92.56
391.86	87.56
392.085	80.56
392.31	87.56
392.534	85.56
392.759	82.56
392.984	76.56
393.208	83.56
393.433	97.56
393.658	94.56
393.882	85.56
394.107	77.56
394.331	92.56
394.556	79.56
394.78	85.56
395.005	81.56
395.229	83.56
395.454	95.56
395.678	77.56
395.903	94.56
396.127	85.56
396.352	92.56
396.576	94.56
396.801	79.56
397.025	83.56
397.249	91.56
397.474	87.56
397.698	76.56
397.922	78.56
398.147	94.56
398.371	89.56
398.595	94.56
398.82	80.56
399.044	83.56
399.268	74.56
399.492	86.56
399.717	83.56
399.941	94.56
400.165	106.56
400.389	92.56
400.613	87.56
400.837	94.56
401.062	95.56
401.286	87.56
401.51	80.56
401.734	85.56
401.958	101.56
402.182	124.56
402.406	156.56
402.63	133.56
402.854	96.56
403.078	98.56
403.302	96.56
403.526	84.56
403.75	86.56
403.974	69.56
404.198	89.56
404.422	84.56
404.645	85.56
404.869	95.56
405.093	108.56
405.317	115.56
405.541	119.56
405.765	95.56
405.988	117.56
406.212	180.56
406.436	236.56
406.66	145.56
406.883	84.56
407.107	87.56
407.331	86.56
407.555	110.56
407.778	109.56
408.002	103.56
408.226	71.56
408.449	88.56
408.673	98.56
408.896	83.56
409.12	79.56
409.344	94.56
409.567	107.56
409.791	96.56
410.014	94.56
410.238	111.56
410.461	95.56
410.685	87.56
410.908	93.56
411.132	95.56
411.355	88.56
411.578	99.56
411.802	104.56
412.025	89.56
412.249	99.56
412.472	92.56
412.695	109.56
412.919	91.56
413.142	86.56
413.365	85.56
413.589	84.56
413.812	88.56
414.035	92.56
414.258	83.56
414.482	87.56
414.705	83.56
414.928	88.56
415.151	89.56
415.374	93.56
415.597	77.56
415.821	102.56
416.044	85.56
416.267	80.56
416.49	81.56
416.713	90.56
416.936	81.56
417.159	85.56
417.382	85.56
417.605	100.56
417.828	88.56
418.051	92.56
418.274	78.56
418.497	86.56
418.72	84.56
418.943	94.56
419.166	71.56
419.389	93.56
419.611	98.56
419.834	90.56
420.057	97.56
420.28	96.56
420.503	87.56
420.726	61.56
420.948	93.56
421.171	92.56
421.394	94.56
421.617	82.56
421.839	91.56
422.062	69.56
422.285	92.56
422.507	93.56
422.73	100.56
422.953	90.56
423.175	73.56
423.398	95.56
423.621	89.56
423.843	86.56
424.066	78.56
424.288	87.56
424.511	102.56
424.733	99.56
424.956	119.56
425.178	108.56
425.401	118.56
425.623	105.56
425.846	100.56
426.068	90.56
426.291	98.56
426.513	98.56
426.735	83.56
426.958	105.56
427.18	111.56
427.402	162.56
427.625	177.56
427.847	144.56
428.069	138.56
428.292	93.56
428.514	87.56
428.736	92.56
428.958	88.56
429.181	86.56
429.403	79.56
429.625	97.56
429.847	111.56
430.069	102.56
430.292	81.56
430.514	101.56
430.736	96.56
430.958	77.56
431.18	90.56
431.402	89.56
431.624	81.56
431.846	96.56
432.068	84.56
432.29	77.56
432.512	91.56
432.734	94.56
432.956	83.56
433.178	99.56
433.4	107.56
433.622	88.56
433.844	79.56
434.066	91.56
434.287	89.56
434.509	92.56
434.731	92.56
434.953	83.56
435.175	86.56
435.397	86.56
435.618	102.56
435.84	117.56
436.062	134.56
436.284	129.56
436.505	111.56
436.727	114.56
436.949	88.56
437.17	94.56
437.392	80.56
437.614	87.56
437.835	107.56
438.057	125.56
438.278	120.56
438.5	108.56
438.721	136.56
438.943	117.56
439.165	87.56
439.386	95.56
439.608	88.56
439.829	98.56
440.05	135.56
440.272	163.56
440.493	103.56
440.715	85.56
440.936	72.56
441.158	74.56
441.379	97.56
441.6	93.56
441.822	95.56
442.043	96.56
442.264	107.56
442.486	107.56
442.707	98.56
442.928	92.56
443.149	138.56
443.371	140.56
443.592	137.56
443.813	124.56
444.034	125.56
444.255	86.56
444.476	82.56
444.698	84.56
444.919	91.56
445.14	132.56
445.361	127.56
445.582	114.56
445.803	158.56
446.024	160.56
446.245	153.56
446.466	122.56
446.687	103.56
446.908	98.56
447.129	95.56
447.35	90.56
447.571	92.56
447.792	103.56
448.013	93.56
448.234	127.56
448.455	83.56
448.675	107.56
448.896	139.56
449.117	110.56
449.338	120.56
449.559	136.56
449.779	144.56
450	83.56
450.221	95.56
450.442	99.56
450.662	85.56
450.883	118.56
451.104	100.56
451.324	101.56
451.545	90.56
451.766	91.56
451.986	100.56
452.207	78.56
452.428	93.56
452.648	104.56
452.869	110.56
453.089	106.56
453.31	112.56
453.53	77.56
453.751	85.56
453.971	101.56
454.192	102.56
454.412	85.56
454.633	84.56
454.853	79.56
455.073	91.56
455.294	93.56
455.514	94.56
455.734	89.56
455.955	86.56
456.175	87.56
456.395	81.56
456.616	79.56
456.836	87.56
457.056	99.56
457.276	114.56
457.497	89.56
457.717	91.56
457.937	89.56
458.157	83.56
458.377	85.56
458.598	123.56
458.818	168.56
459.038	178.56
459.258	148.56
459.478	94.56
459.698	90.56
459.918	84.56
460.138	77.56
460.358	90.56
460.578	99.56
460.798	91.56
461.018	99.56
461.238	85.56
461.458	83.56
461.678	93.56
461.898	84.56
462.118	79.56
462.338	89.56
462.558	85.56
462.777	90.56
462.997	75.56
463.217	95.56
463.437	92.56
463.657	88.56
463.876	84.56
464.096	86.56
464.316	87.56
464.536	96.56
464.755	94.56
464.975	116.56
465.195	178.56
465.414	155.56
465.634	98.56
465.854	80.56
466.073	69.56
466.293	97.56
466.512	83.56
466.732	82.56
466.951	91.56
467.171	95.56
467.391	106.56
467.61	110.56
467.829	114.56
468.049	179.56
468.268	196.56
468.488	107.56
468.707	103.56
468.927	91.56
469.146	91.56
469.365	85.56
469.585	63.56
469.804	94.56
470.023	104.56
470.243	78.56
470.462	103.56
470.681	116.56
470.901	99.56
471.12	84.56
471.339	94.56
471.558	92.56
471.777	95.56
471.997	123.56
472.216	262.56
472.435	495.56
472.654	176.56
472.873	100.56
473.092	84.56
473.311	84.56
473.53	83.56
473.749	79.56
473.968	91.56
474.187	116.56
474.406	100.56
474.625	86.56
474.844	68.56
475.063	95.56
475.282	81.56
475.501	70.56
475.72	66.56
475.939	83.56
476.158	84.56
476.377	74.56
476.596	86.56
476.814	94.56
477.033	100.56
477.252	103.56
477.471	93.56
477.69	89.56
477.908	82.56
478.127	89.56
478.346	91.56
478.564	85.56
478.783	103.56
479.002	99.56
479.22	91.56
479.439	102.56
479.658	115.56
479.876	106.56
480.095	110.56
480.313	89.56
480.532	102.56
480.751	138.56
480.969	258.56
481.188	849.56
481.406	543.56
481.624	148.56
481.843	92.56
482.061	78.56
482.28	91.56
482.498	91.56
482.717	105.56
482.935	77.56
483.153	91.56
483.372	76.56
483.59	90.56
483.808	87.56
484.027	93.56
484.245	97.56
484.463	88.56
484.681	103.56
484.9	91.56
485.118	91.56
485.336	93.56
485.554	89.56
485.772	97.56
485.99	111.56
486.209	102.56
486.427	101.56
486.645	106.56
486.863	104.56
487.081	100.56
487.299	95.56
487.517	90.56
487.735	102.56
487.953	95.56
488.171	87.56
488.389	85.56
488.607	86.56
488.825	102.56
489.043	107.56
489.261	96.56
489.479	91.56
489.696	87.56
489.914	80.56
490.132	93.56
490.35	92.56
490.568	91.56
490.786	84.56
491.003	93.56
491.221	106.56
491.439	81.56
491.657	92.56
491.874	89.56
492.092	91.56
492.31	96.56
492.527	100.56
492.745	95.56
492.963	87.56
493.18	85.56
493.398	106.56
493.615	99.56
493.833	88.56
494.05	83.56
494.268	88.56
494.485	90.56
494.703	97.56
494.92	86.56
495.138	95.56
495.355	90.56
495.573	95.56
495.79	85.56
496.008	83.56
496.225	87.56
496.442	90.56
496.66	78.56
496.877	105.56
497.094	90.56
497.312	93.56
497.529	83.56
497.746	86.56
497.963	84.56
498.181	104.56
498.398	89.56
498.615	90.56
498.832	103.56
499.049	86.56
499.267	92.56
499.484	84.56
499.701	99.56
499.918	84.56
500.135	101.56
500.352	101.56
500.569	72.56
500.786	85.56
501.003	89.56
501.22	78.56
501.437	92.56
501.654	89.56
501.871	113.56
502.088	92.56
502.305	76.56
502.522	82.56
502.739	89.56
502.956	84.56
503.172	103.56
503.389	90.56
503.606	110.56
503.823	108.56
504.04	95.56
504.256	78.56
504.473	100.56
504.69	98.56
504.907	91.56
505.123	85.56
505.34	91.56
505.557	87.56
505.773	85.56
505.99	91.56
506.207	92.56
506.423	86.56
506.64	91.56
506.856	100.56
507.073	82.56
507.289	90.56
507.506	102.56
507.722	106.56
507.939	126.56
508.155	104.56
508.372	82.56
508.588	90.56
508.805	80.56
509.021	103.56
509.238	96.56
509.454	115.56
509.67	114.56
509.887	108.56
510.103	147.56
510.319	221.56
510.536	765.56
510.752	2393.56
510.968	690.56
511.184	158.56
511.401	107.56
511.617	100.56
511.833	97.56
512.049	94.56
512.265	85.56
512.481	104.56
512.698	94.56
512.914	84.56
513.13	89.56
513.346	95.56
513.562	103.56
513.778	89.56
513.994	99.56
514.21	104.56
514.426	112.56
514.642	132.56
514.858	123.56
515.074	163.56
515.29	492.56
515.506	1611.56
515.721	611.56
515.937	156.56
516.153	116.56
516.369	81.56
516.585	89.56
516.801	89.56
517.016	76.56
517.232	80.56
517.448	94.56
517.664	91.56
517.879	87.56
518.095	87.56
518.311	94.56
518.527	91.56
518.742	109.56
518.958	95.56
519.173	81.56
519.389	85.56
519.605	89.56
519.82	95.56
520.036	107.56
520.251	109.56
520.467	120.56
520.682	97.56
520.898	114.56
521.113	122.56
521.329	143.56
521.544	214.56
521.76	587.56
521.975	2619.56
522.19	1612.56
522.406	330.56
522.621	131.56
522.836	98.56
523.052	102.56
523.267	100.56
523.482	100.56
523.698	100.56
523.913	124.56
524.128	106.56
524.343	97.56
524.559	91.56
524.774	101.56
524.989	100.56
525.204	112.56
525.419	86.56
525.634	75.56
525.849	90.56
526.064	91.56
526.28	96.56
526.495	93.56
526.71	109.56
526.925	86.56
527.14	103.56
527.355	83.56
527.57	74.56
527.785	71.56
527.999	99.56
528.214	102.56
528.429	78.56
528.644	82.56
528.859	70.56
529.074	94.56
529.289	136.56
529.503	192.56
529.718	115.56
529.933	96.56
530.148	81.56
530.363	90.56
530.577	92.56
530.792	101.56
531.007	86.56
531.221	97.56
531.436	91.56
531.651	100.56
531.865	102.56
532.08	85.56
532.295	88.56
532.509	92.56
532.724	77.56
532.938	78.56
533.153	87.56
533.367	95.56
533.582	93.56
533.796	95.56
534.011	101.56
534.225	98.56
534.44	88.56
534.654	91.56
534.868	88.56
535.083	78.56
535.297	83.56
535.511	99.56
535.726	111.56
535.94	102.56
536.154	107.56
536.369	80.56
536.583	96.56
536.797	88.56
537.011	88.56
537.225	87.56
537.44	90.56
537.654	73.56
537.868	97.56
538.082	84.56
538.296	83.56
538.51	88.56
538.724	90.56
538.938	84.56
539.153	102.56
539.367	111.56
539.581	98.56
539.795	88.56
540.009	86.56
540.222	93.56
540.436	80.56
540.65	85.56
540.864	83.56
541.078	95.56
541.292	93.56
541.506	93.56
541.72	88.56
541.934	90.56
542.147	85.56
542.361	100.56
542.575	88.56
542.789	73.56
543.002	83.56
543.216	86.56
543.43	93.56
543.644	89.56
543.857	96.56
544.071	92.56
544.285	94.56
544.498	78.56
544.712	90.56
544.925	103.56
545.139	77.56
545.352	80.56
545.566	75.56
545.779	95.56
545.993	89.56
546.206	90.56
546.42	98.56
546.633	91.56
546.847	80.56
547.06	93.56
547.274	85.56
547.487	91.56
547.7	91.56
547.914	97.56
548.127	77.56
548.34	90.56
548.554	90.56
548.767	90.56
548.98	93.56
549.193	90.56
549.407	91.56
549.62	65.56
549.833	85.56
550.046	87.56
550.259	81.56
550.473	100.56
550.686	78.56
550.899	95.56
551.112	79.56
551.325	86.56
551.538	98.56
551.751	96.56
551.964	93.56
552.177	87.56
552.39	77.56
552.603	98.56
552.816	84.56
553.029	92.56
553.242	85.56
553.455	102.56
553.667	117.56
553.88	102.56
554.093	96.56
554.306	85.56
554.519	93.56
554.732	97.56
554.944	99.56
555.157	91.56
555.37	93.56
555.583	89.56
555.795	106.56
556.008	85.56
556.221	93.56
556.433	83.56
556.646	98.56
556.859	95.56
557.071	104.56
557.284	89.56
557.496	93.56
557.709	84.56
557.921	103.56
558.134	85.56
558.346	90.56
558.559	84.56
558.771	69.56
558.984	75.56
559.196	91.56
559.409	86.56
559.621	81.56
559.833	90.56
560.046	84.56
560.258	90.56
560.47	84.56
560.683	78.56
560.895	84.56
561.107	91.56
561.32	92.56
561.532	84.56
561.744	83.56
561.956	90.56
562.168	97.56
562.381	75.56
562.593	93.56
562.805	87.56
563.017	81.56
563.229	88.56
563.441	91.56
563.653	80.56
563.865	92.56
564.077	91.56
564.289	79.56
564.501	86.56
564.713	90.56
564.925	98.56
565.137	92.56
565.349	99.56
565.561	96.56
565.773	85.56
565.985	81.56
566.197	80.56
566.408	84.56
566.62	74.56
566.832	79.56
567.044	85.56
567.255	91.56
567.467	82.56
567.679	78.56
567.891	92.56
568.102	74.56
568.314	83.56
568.526	95.56
568.737	91.56
568.949	84.56
569.161	90.56
569.372	88.56
569.584	78.56
569.795	93.56
570.007	103.56
570.218	246.56
570.43	132.56
570.641	99.56
570.853	99.56
571.064	98.56
571.276	85.56
571.487	84.56
571.698	93.56
571.91	74.56
572.121	89.56
572.333	79.56
572.544	89.56
572.755	80.56
572.966	85.56
573.178	85.56
573.389	76.56
573.6	94.56
573.811	96.56
574.023	84.56
574.234	94.56
574.445	91.56
574.656	86.56
574.867	88.56
575.078	79.56
575.289	94.56
575.501	75.56
575.712	84.56
575.923	86.56
576.134	87.56
576.345	92.56
576.556	72.56
576.767	86.56
576.978	88.56
577.188	94.56
577.399	85.56
577.61	94.56
577.821	88.56
578.032	106.56
578.243	277.56
578.454	721.56
578.665	227.56
578.875	104.56
579.086	104.56
579.297	94.56
579.508	72.56
579.718	91.56
579.929	84.56
580.14	81.56
580.35	72.56
580.561	90.56
580.772	90.56
580.982	88.56
581.193	75.56
581.403	84.56
581.614	104.56
581.825	85.56
582.035	91.56
582.246	92.56
582.456	84.56
582.667	84.56
582.877	101.56
583.087	102.56
583.298	89.56
583.508	90.56
583.719	86.56
583.929	103.56
584.139	88.56
584.35	90.56
584.56	76.56
584.77	99.56
584.981	94.56
585.191	95.56
585.401	93.56
585.611	81.56
585.821	78.56
586.032	84.56
586.242	78.56
586.452	88.56
586.662	88.56
586.872	79.56
587.082	81.56
587.292	94.56
587.502	91.56
587.713	80.56
587.923	84.56
588.133	85.56
588.343	89.56
588.553	82.56
588.762	96.56
588.972	78.56
589.182	90.56
589.392	78.56
589.602	91.56
589.812	93.56
590.022	90.56
590.232	86.56
590.441	79.56
590.651	77.56
590.861	92.56
591.071	82.56
591.281	89.56
591.49	80.56
591.7	88.56
591.91	88.56
592.119	77.56
592.329	102.56
592.539	98.56
592.748	85.56
592.958	83.56
593.167	87.56
593.377	91.56
593.587	92.56
593.796	102.56
594.006	91.56
594.215	93.56
594.424	90.56
594.634	85.56
594.843	77.56
595.053	77.56
595.262	73.56
595.472	88.56
595.681	82.56
595.89	87.56
596.1	92.56
596.309	83.56
596.518	78.56
596.727	77.56
596.937	83.56
597.146	69.56
597.355	87.56
597.564	99.56
597.774	88.56
597.983	88.56
598.192	90.56
598.401	73.56
598.61	77.56
598.819	81.56
599.028	89.56
599.237	83.56
599.446	76.56
599.655	77.56
599.864	83.56
600.073	74.56
600.282	73.56
600.491	72.56
600.7	93.56
600.909	100.56
601.118	98.56
601.327	98.56
601.536	91.56
601.745	81.56
601.953	86.56
602.162	78.56
602.371	82.56
602.58	91.56
602.789	97.56
602.997	80.56
603.206	80.56
603.415	94.56
603.623	99.56
603.832	76.56
604.041	82.56
604.249	84.56
604.458	96.56
604.666	76.56
604.875	79.56
605.084	75.56
605.292	85.56
605.501	76.56
605.709	91.56
605.918	94.56
606.126	88.56
606.334	75.56
606.543	78.56
606.751	80.56
606.96	84.56
607.168	63.56
607.376	86.56
607.585	98.56
607.793	85.56
608.001	82.56
608.21	76.56
608.418	68.56
608.626	86.56
608.834	87.56
609.043	82.56
609.251	84.56
609.459	89.56
609.667	79.56
609.875	83.56
610.083	80.56
610.291	99.56
610.499	78.56
610.707	85.56
610.916	78.56
611.124	86.56
611.332	77.56
611.54	74.56
611.748	88.56
611.955	88.56
612.163	98.56
612.371	93.56
612.579	76.56
612.787	73.56
612.995	86.56
613.203	82.56
613.411	84.56
613.618	87.56
613.826	84.56
614.034	71.56
614.242	88.56
614.449	84.56
614.657	90.56
614.865	89.56
615.072	69.56
615.28	82.56
615.488	79.56
615.695	86.56
615.903	106.56
616.111	85.56
616.318	95.56
616.526	82.56
616.733	94.56
616.941	81.56
617.148	87.56
617.356	81.56
617.563	93.56
617.771	83.56
617.978	78.56
618.185	78.56
618.393	89.56
618.6	82.56
618.807	79.56
619.015	85.56
619.222	77.56
619.429	90.56
619.637	86.56
619.844	85.56
620.051	91.56
620.258	79.56
620.466	87.56
620.673	84.56
620.88	91.56
621.087	76.56
621.294	79.56
621.501	85.56
621.708	83.56
621.915	78.56
622.122	75.56
622.329	85.56
622.536	76.56
622.743	80.56
622.95	84.56
623.157	85.56
623.364	80.56
623.571	92.56
623.778	79.56
623.985	85.56
624.192	73.56
624.399	86.56
624.606	86.56
624.812	80.56
625.019	83.56
625.226	88.56
625.433	70.56
625.639	93.56
625.846	79.56
626.053	71.56
626.259	78.56
626.466	87.56
626.673	74.56
626.879	90.56
627.086	85.56
627.293	79.56
627.499	68.56
627.706	85.56
627.912	86.56
628.119	84.56
628.325	98.56
628.532	88.56
628.738	98.56
628.945	79.56
629.151	88.56
629.357	83.56
629.564	85.56
629.77	91.56
629.976	80.56
630.183	80.56
630.389	77.56
630.595	80.56
630.802	79.56
631.008	80.56
631.214	84.56
631.42	87.56
631.627	89.56
631.833	90.56
632.039	92.56
632.245	84.56
632.451	83.56
632.657	87.56
632.863	84.56
633.069	71.56
633.275	80.56
633.481	82.56
633.688	84.56
633.893	92.56
634.099	88.56
634.305	79.56
634.511	82.56
634.717	85.56
634.923	76.56
635.129	77.56
635.335	73.56
635.541	79.56
635.747	88.56
635.952	79.56
636.158	85.56
636.364	135.56
636.57	106.56
636.775	74.56
636.981	92.56
637.187	93.56
637.392	76.56
637.598	79.56
637.804	91.56
638.009	83.56
638.215	80.56
638.421	83.56
638.626	85.56
638.832	90.56
639.037	84.56
639.243	84.56
639.448	78.56
639.654	83.56
639.859	76.56
640.065	78.56
640.27	86.56
640.475	86.56
640.681	75.56
640.886	89.56
641.091	74.56
641.297	88.56
641.502	88.56
641.707	94.56
641.913	89.56
642.118	73.56
642.323	90.56
642.528	95.56
642.733	102.56
642.939	92.56
643.144	81.56
643.349	71.56
643.554	79.56
643.759	88.56
643.964	93.56
644.169	88.56
644.374	84.56
644.579	90.56
644.784	88.56
644.989	78.56
645.194	76.56
645.399	87.56
645.604	87.56
645.809	93.56
646.014	81.56
646.219	65.56
646.423	77.56
646.628	78.56
646.833	80.56
647.038	79.56
647.243	87.56
647.447	79.56
647.652	86.56
647.857	84.56
648.062	78.56
648.266	75.56
648.471	87.56
648.676	101.56
648.88	90.56
649.085	98.56
649.289	102.56
649.494	109.56
649.698	158.56
649.903	105.56
650.107	103.56
650.312	96.56
650.516	81.56
650.721	75.56
650.925	82.56
651.13	74.56
651.334	91.56
651.539	75.56
651.743	80.56
651.947	68.56
652.152	84.56
652.356	80.56
652.56	90.56
652.764	80.56
652.969	74.56
653.173	88.56
653.377	76.56
653.581	82.56
653.785	84.56
653.99	85.56
654.194	72.56
654.398	88.56
654.602	74.56
654.806	93.56
655.01	107.56
655.214	90.56
655.418	78.56
655.622	73.56
655.826	99.56
656.03	87.56
656.234	84.56
656.438	90.56
656.642	86.56
656.846	95.56
657.049	76.56
657.253	89.56
657.457	90.56
657.661	85.56
657.865	86.56
658.068	75.56
658.272	77.56
658.476	79.56
658.68	89.56
658.883	73.56
659.087	67.56
659.291	90.56
659.494	81.56
659.698	82.56
659.901	76.56
660.105	85.56
660.309	80.56
660.512	70.56
660.716	74.56
660.919	87.56
661.123	83.56
661.326	70.56
661.53	73.56
661.733	72.56
661.936	82.56
662.14	89.56
662.343	82.56
662.546	75.56
662.75	84.56
662.953	83.56
663.156	74.56
663.36	79.56
663.563	85.56
663.766	87.56
663.969	75.56
664.173	83.56
664.376	89.56
664.579	72.56
664.782	78.56
664.985	81.56
665.188	75.56
665.391	91.56
665.594	81.56
665.797	73.56
666	84.56
666.203	79.56
666.406	93.56
666.609	76.56
666.812	74.56
667.015	70.56
667.218	77.56
667.421	83.56
667.624	85.56
667.827	81.56
668.03	77.56
668.232	75.56
668.435	87.56
668.638	91.56
668.841	87.56
669.043	80.56
669.246	85.56
669.449	75.56
669.651	80.56
669.854	69.56
670.057	81.56
670.259	92.56
670.462	80.56
670.665	86.56
670.867	64.56
671.07	82.56
671.272	92.56
671.475	75.56
671.677	80.56
671.88	69.56
672.082	75.56
672.284	91.56
672.487	74.56
672.689	75.56
672.892	72.56
