Data from Circ_2011_H10_HRD10591_00093.txt Node
Date: Wed Jan 03 10:08:17 EST 2024
User: Yrep
Spectrometer: HR+D1059
Trigger mode: 1
Integration Time (sec): 1.000000E-1
Scans to average: 1
Electric dark correction enabled: true
Nonlinearity correction enabled: false
Boxcar width: 0
XAxis mode: Wavelengths
Number of Pixels in Spectrum: 2048
>>>>>Begin Spectral Data<<<<<
223.165	-30.69
223.4	-30.69
223.635	-30.69
223.869	-21.69
224.104	-17.69
224.338	-10.69
224.573	-15.69
224.808	-16.69
225.042	-5.69
225.277	4.31
225.511	1.31
225.746	5.31
225.98	7.31
226.215	7.31
226.449	25.31
226.683	18.31
226.918	26.31
227.152	23.31
227.387	37.31
227.621	43.31
227.856	57.31
228.09	38.31
228.324	42.31
228.559	60.31
228.793	168.31
229.027	436.31
229.262	512.31
229.496	591.31
229.73	808.31
229.964	830.31
230.199	542.31
230.433	473.31
230.667	446.31
230.901	452.31
231.136	440.31
231.37	430.31
231.604	432.31
231.838	464.31
232.072	443.31
232.306	449.31
232.541	463.31
232.775	467.31
233.009	467.31
233.243	469.31
233.477	460.31
233.711	492.31
233.945	492.31
234.179	506.31
234.413	495.31
234.647	493.31
234.881	524.31
235.115	538.31
235.349	541.31
235.583	536.31
235.817	597.31
236.051	620.31
236.285	582.31
236.519	625.31
236.753	712.31
236.987	928.31
237.221	1389.31
237.455	1498.31
237.689	892.31
237.922	731.31
238.156	673.31
238.39	646.31
238.624	640.31
238.858	668.31
239.091	654.31
239.325	640.31
239.559	662.31
239.793	683.31
240.027	758.31
240.26	897.31
240.494	970.31
240.728	947.31
240.961	901.31
241.195	785.31
241.429	784.31
241.662	750.31
241.896	786.31
242.13	781.31
242.363	761.31
242.597	800.31
242.83	825.31
243.064	816.31
243.298	828.31
243.531	847.31
243.765	848.31
243.998	829.31
244.232	837.31
244.465	878.31
244.699	901.31
244.932	896.31
245.166	903.31
245.399	904.31
245.633	881.31
245.866	905.31
246.099	926.31
246.333	949.31
246.566	966.31
246.8	1013.31
247.033	1020.31
247.266	1028.31
247.5	1108.31
247.733	1155.31
247.966	1141.31
248.2	1170.31
248.433	1148.31
248.666	1207.31
248.899	1372.31
249.133	1453.31
249.366	1499.31
249.599	1375.31
249.832	1324.31
250.066	1430.31
250.299	1740.31
250.532	2083.31
250.765	2150.31
250.998	1991.31
251.231	1781.31
251.465	1572.31
251.698	1504.31
251.931	1437.31
252.164	1396.31
252.397	1437.31
252.63	1476.31
252.863	1548.31
253.096	1724.31
253.329	1783.31
253.562	1634.31
253.795	1550.31
254.028	1579.31
254.261	1648.31
254.494	1830.31
254.727	2234.31
254.96	2342.31
255.193	2029.31
255.426	1962.31
255.659	2104.31
255.892	2758.31
256.124	3404.31
256.357	2946.31
256.59	2279.31
256.823	1930.31
257.056	1803.31
257.289	1707.31
257.521	1747.31
257.754	1672.31
257.987	1613.31
258.22	1601.31
258.452	1609.31
258.685	1618.31
258.918	1622.31
259.151	1645.31
259.383	1715.31
259.616	1698.31
259.849	1784.31
260.081	1934.31
260.314	2077.31
260.547	2038.31
260.779	1846.31
261.012	1757.31
261.244	1731.31
261.477	1695.31
261.71	1720.31
261.942	1752.31
262.175	1819.31
262.407	1690.31
262.64	1613.31
262.872	1693.31
263.105	1674.31
263.337	1652.31
263.57	1672.31
263.802	1690.31
264.035	1658.31
264.267	1681.31
264.499	1637.31
264.732	1685.31
264.964	1686.31
265.197	1726.31
265.429	1697.31
265.661	1700.31
265.894	1719.31
266.126	1786.31
266.358	1778.31
266.591	1798.31
266.823	1880.31
267.055	1896.31
267.287	1874.31
267.52	1878.31
267.752	1873.31
267.984	1881.31
268.216	1880.31
268.448	1923.31
268.681	1977.31
268.913	2155.31
269.145	2352.31
269.377	2369.31
269.609	2269.31
269.841	2221.31
270.073	2358.31
270.306	2604.31
270.538	2738.31
270.77	2569.31
271.002	2435.31
271.234	2446.31
271.466	2590.31
271.698	2713.31
271.93	2739.31
272.162	2650.31
272.394	2616.31
272.626	2459.31
272.858	2356.31
273.09	2279.31
273.322	2251.31
273.553	2222.31
273.785	2212.31
274.017	2267.31
274.249	2261.31
274.481	2264.31
274.713	2249.31
274.945	2332.31
275.176	2342.31
275.408	2296.31
275.64	2296.31
275.872	2290.31
276.104	2354.31
276.335	2404.31
276.567	2495.31
276.799	2669.31
277.031	2966.31
277.262	3116.31
277.494	2878.31
277.726	2684.31
277.957	2547.31
278.189	2519.31
278.421	2451.31
278.652	2434.31
278.884	2460.31
279.115	2410.31
279.347	2409.31
279.579	2450.31
279.81	2500.31
280.042	2589.31
280.273	2644.31
280.505	2634.31
280.736	2564.31
280.968	2516.31
281.199	2468.31
281.431	2546.31
281.662	2496.31
281.894	2525.31
282.125	2604.31
282.356	2673.31
282.588	2892.31
282.819	2760.31
283.051	2612.31
283.282	2566.31
283.513	2546.31
283.745	2638.31
283.976	2664.31
284.207	2665.31
284.439	2574.31
284.67	2635.31
284.901	2662.31
285.132	2656.31
285.364	2597.31
285.595	2644.31
285.826	2660.31
286.057	2739.31
286.288	2717.31
286.52	2722.31
286.751	2677.31
286.982	2754.31
287.213	2757.31
287.444	2782.31
287.675	2861.31
287.906	2918.31
288.138	3013.31
288.369	2930.31
288.6	2937.31
288.831	2871.31
289.062	2870.31
289.293	2853.31
289.524	2846.31
289.755	2809.31
289.986	2820.31
290.217	2832.31
290.448	2843.31
290.679	2830.31
290.91	2831.31
291.141	2807.31
291.371	2841.31
291.602	2848.31
291.833	2784.31
292.064	2801.31
292.295	2819.31
292.526	2792.31
292.757	2782.31
292.987	2815.31
293.218	2818.31
293.449	2877.31
293.68	2870.31
293.91	2838.31
294.141	2806.31
294.372	2824.31
294.603	2850.31
294.833	2859.31
295.064	2951.31
295.295	2885.31
295.525	2894.31
295.756	2931.31
295.987	2996.31
296.217	3196.31
296.448	3077.31
296.679	2945.31
296.909	2984.31
297.14	2952.31
297.37	3033.31
297.601	2998.31
297.831	3064.31
298.062	3052.31
298.292	3001.31
298.523	3125.31
298.753	3187.31
298.984	3077.31
299.214	3124.31
299.445	3100.31
299.675	3117.31
299.905	3177.31
300.136	3133.31
300.366	3125.31
300.597	3179.31
300.827	3289.31
301.057	3372.31
301.288	3399.31
301.518	3360.31
301.748	3396.31
301.979	3384.31
302.209	3364.31
302.439	3369.31
302.669	3399.31
302.9	3323.31
303.13	3225.31
303.36	3328.31
303.59	3368.31
303.82	3454.31
304.051	3386.31
304.281	3280.31
304.511	3314.31
304.741	3291.31
304.971	3270.31
305.201	3305.31
305.431	3278.31
305.661	3250.31
305.891	3282.31
306.121	3320.31
306.352	3324.31
306.582	3299.31
306.812	3315.31
307.042	3299.31
307.272	3354.31
307.502	3421.31
307.731	3399.31
307.961	3384.31
308.191	3330.31
308.421	3332.31
308.651	3314.31
308.881	3275.31
309.111	3362.31
309.341	3408.31
309.571	3492.31
309.8	3557.31
310.03	3616.31
310.26	3584.31
310.49	3633.31
310.72	3679.31
310.949	3779.31
311.179	3818.31
311.409	3661.31
311.639	3675.31
311.868	3669.31
312.098	3734.31
312.328	3821.31
312.557	3983.31
312.787	4046.31
313.017	3933.31
313.246	3836.31
313.476	3788.31
313.706	3810.31
313.935	3875.31
314.165	3964.31
314.394	3999.31
314.624	3979.31
314.853	3882.31
315.083	3810.31
315.312	3762.31
315.542	3771.31
315.771	3689.31
316.001	3726.31
316.23	3760.31
316.46	3710.31
316.689	3740.31
316.919	3766.31
317.148	3870.31
317.377	3831.31
317.607	3783.31
317.836	3681.31
318.065	3673.31
318.295	3749.31
318.524	3715.31
318.753	3696.31
318.983	3747.31
319.212	3747.31
319.441	3802.31
319.67	3825.31
319.9	3736.31
320.129	3710.31
320.358	3765.31
320.587	3820.31
320.816	3871.31
321.046	3915.31
321.275	3874.31
321.504	3907.31
321.733	3900.31
321.962	3979.31
322.191	4146.31
322.42	4230.31
322.649	4325.31
322.878	4356.31
323.108	4492.31
323.337	4726.31
323.566	4937.31
323.795	5240.31
324.024	5891.31
324.253	7942.31
324.482	12151.31
324.71	15598.31
324.939	15598.31
325.168	13727.31
325.397	6835.31
325.626	5419.31
325.855	5079.31
326.084	4916.31
326.313	4995.31
326.542	5249.31
326.77	6048.31
326.999	7784.31
327.228	11556.31
327.457	15386.31
327.686	14732.31
327.914	8375.31
328.143	7248.31
328.372	7170.31
328.6	6348.31
328.829	5996.31
329.058	6107.31
329.287	6194.31
329.515	5949.31
329.744	6203.31
329.972	7110.31
330.201	8544.31
330.43	9285.31
330.658	7809.31
330.887	7013.31
331.115	6210.31
331.344	5595.31
331.572	5449.31
331.801	5540.31
332.03	5499.31
332.258	5440.31
332.486	5476.31
332.715	5564.31
332.943	5805.31
333.172	5938.31
333.4	6274.31
333.629	6638.31
333.857	7285.31
334.085	8216.31
334.314	9872.31
334.542	11598.31
334.771	10723.31
334.999	7542.31
335.227	6414.31
335.455	5963.31
335.684	5598.31
335.912	5494.31
336.14	5254.31
336.369	5336.31
336.597	5311.31
336.825	5184.31
337.053	5086.31
337.281	4998.31
337.51	4840.31
337.738	4931.31
337.966	4853.31
338.194	4832.31
338.422	4774.31
338.65	4656.31
338.878	4635.31
339.106	4648.31
339.334	4593.31
339.562	4565.31
339.79	4466.31
340.018	4546.31
340.246	4508.31
340.474	4506.31
340.702	4482.31
340.93	4529.31
341.158	4533.31
341.386	4494.31
341.614	4439.31
341.842	4421.31
342.07	4374.31
342.298	4353.31
342.526	4349.31
342.754	4256.31
342.981	4354.31
343.209	4451.31
343.437	4647.31
343.665	4937.31
343.893	5139.31
344.12	5166.31
344.348	4916.31
344.576	4829.31
344.804	4746.31
345.031	4698.31
345.259	4697.31
345.487	4488.31
345.714	4388.31
345.942	4280.31
346.17	4298.31
346.397	4170.31
346.625	4211.31
346.853	4231.31
347.08	4218.31
347.308	4300.31
347.535	4354.31
347.763	4388.31
347.99	4344.31
348.218	4356.31
348.445	4376.31
348.673	4259.31
348.9	4264.31
349.128	4101.31
349.355	4145.31
349.583	4133.31
349.81	4066.31
350.037	4093.31
350.265	4038.31
350.492	4115.31
350.72	4128.31
350.947	4157.31
351.174	4238.31
351.402	4248.31
351.629	4180.31
351.856	4202.31
352.083	4286.31
352.311	4306.31
352.538	4354.31
352.765	4310.31
352.992	4181.31
353.22	4132.31
353.447	4105.31
353.674	4089.31
353.901	4039.31
354.128	3993.31
354.355	3985.31
354.583	4019.31
354.81	3982.31
355.037	3937.31
355.264	4006.31
355.491	3906.31
355.718	3992.31
355.945	3954.31
356.172	3953.31
356.399	3940.31
356.626	3985.31
356.853	3969.31
357.08	3888.31
357.307	3956.31
357.534	3946.31
357.761	4035.31
357.988	4004.31
358.215	3947.31
358.441	3982.31
358.668	4032.31
358.895	4052.31
359.122	4152.31
359.349	4161.31
359.576	4316.31
359.802	4510.31
360.029	4705.31
360.256	4680.31
360.483	4428.31
360.709	4208.31
360.936	4199.31
361.163	4252.31
361.39	4230.31
361.616	4261.31
361.843	4169.31
362.07	4282.31
362.296	4250.31
362.523	4192.31
362.749	4228.31
362.976	4153.31
363.203	4102.31
363.429	4077.31
363.656	4160.31
363.882	4055.31
364.109	4059.31
364.335	4068.31
364.562	4048.31
364.788	4088.31
365.015	4029.31
365.241	4048.31
365.468	4141.31
365.694	4130.31
365.92	4090.31
366.147	4088.31
366.373	4097.31
366.599	4092.31
366.826	4118.31
367.052	4046.31
367.278	4094.31
367.505	4065.31
367.731	4139.31
367.957	4109.31
368.184	4101.31
368.41	4259.31
368.636	4341.31
368.862	4277.31
369.089	4165.31
369.315	4191.31
369.541	4205.31
369.767	4206.31
369.993	4174.31
370.219	4172.31
370.445	4240.31
370.672	4253.31
370.898	4238.31
371.124	4311.31
371.35	4325.31
371.576	4284.31
371.802	4299.31
372.028	4247.31
372.254	4319.31
372.48	4342.31
372.706	4475.31
372.932	4433.31
373.158	4424.31
373.384	4362.31
373.61	4369.31
373.835	4347.31
374.061	4394.31
374.287	4435.31
374.513	4531.31
374.739	4632.31
374.965	4713.31
375.191	4738.31
375.416	4606.31
375.642	4491.31
375.868	4482.31
376.094	4351.31
376.319	4363.31
376.545	4312.31
376.771	4329.31
376.997	4411.31
377.222	4266.31
377.448	4256.31
377.674	4264.31
377.899	4272.31
378.125	4290.31
378.35	4231.31
378.576	4228.31
378.802	4205.31
379.027	4230.31
379.253	4304.31
379.478	4201.31
379.704	4296.31
379.929	4291.31
380.155	4329.31
380.38	4283.31
380.606	4335.31
380.831	4374.31
381.057	4383.31
381.282	4311.31
381.507	4350.31
381.733	4369.31
381.958	4408.31
382.184	4461.31
382.409	4499.31
382.634	4479.31
382.86	4511.31
383.085	4642.31
383.31	4583.31
383.535	4746.31
383.761	4779.31
383.986	4831.31
384.211	4943.31
384.436	4966.31
384.662	5085.31
384.887	5074.31
385.112	5093.31
385.337	5142.31
385.562	5203.31
385.787	5155.31
386.013	5266.31
386.238	5329.31
386.463	5260.31
386.688	5268.31
386.913	5067.31
387.138	5138.31
387.363	5125.31
387.588	5064.31
387.813	5091.31
388.038	5052.31
388.263	5121.31
388.488	5152.31
388.713	5159.31
388.938	5094.31
389.163	5081.31
389.387	5133.31
389.612	5054.31
389.837	5040.31
390.062	4988.31
390.287	5061.31
390.512	5020.31
390.736	5112.31
390.961	5218.31
391.186	5268.31
391.411	5525.31
391.636	5465.31
391.86	5688.31
392.085	5771.31
392.31	5661.31
392.534	5513.31
392.759	5485.31
392.984	5307.31
393.208	5315.31
393.433	5349.31
393.658	5327.31
393.882	5313.31
394.107	5324.31
394.331	5410.31
394.556	5380.31
394.78	5485.31
395.005	5557.31
395.229	5486.31
395.454	5620.31
395.678	5786.31
395.903	5745.31
396.127	5843.31
396.352	5658.31
396.576	5496.31
396.801	5409.31
397.025	5442.31
397.249	5601.31
397.474	5776.31
397.698	5844.31
397.922	5876.31
398.147	6081.31
398.371	6107.31
398.595	6238.31
398.82	6517.31
399.044	7109.31
399.268	7820.31
399.492	8908.31
399.717	9540.31
399.941	9270.31
400.165	8591.31
400.389	8002.31
400.613	7229.31
400.837	6762.31
401.062	6669.31
401.286	6563.31
401.51	6507.31
401.734	6445.31
401.958	6670.31
402.182	6752.31
402.406	6806.31
402.63	6884.31
402.854	6984.31
403.078	6977.31
403.302	7258.31
403.526	7301.31
403.75	7436.31
403.974	7459.31
404.198	7360.31
404.422	7596.31
404.645	7730.31
404.869	7841.31
405.093	8308.31
405.317	8899.31
405.541	8736.31
405.765	7788.31
405.988	7490.31
406.212	7556.31
406.436	7680.31
406.66	7826.31
406.883	7826.31
407.107	8437.31
407.331	8853.31
407.555	9365.31
407.778	8987.31
408.002	8222.31
408.226	7850.31
408.449	7860.31
408.673	7621.31
408.896	7806.31
409.12	7932.31
409.344	7563.31
409.567	7127.31
409.791	7149.31
410.014	6977.31
410.238	7003.31
410.461	7077.31
410.685	7058.31
410.908	7231.31
411.132	7374.31
411.355	7462.31
411.578	7053.31
411.802	6940.31
412.025	7052.31
412.249	7510.31
412.472	8000.31
412.695	8455.31
412.919	7785.31
413.142	7336.31
413.365	7045.31
413.589	6825.31
413.812	6603.31
414.035	6489.31
414.258	6640.31
414.482	6566.31
414.705	6526.31
414.928	6419.31
415.151	6465.31
415.374	6483.31
415.597	6441.31
415.821	6338.31
416.044	6401.31
416.267	6347.31
416.49	6262.31
416.713	6256.31
416.936	6341.31
417.159	6402.31
417.382	6468.31
417.605	6536.31
417.828	6692.31
418.051	6730.31
418.274	6539.31
418.497	6415.31
418.72	6600.31
418.943	6578.31
419.166	6995.31
419.389	7373.31
419.611	7300.31
419.834	7204.31
420.057	7301.31
420.28	7397.31
420.503	7154.31
420.726	7045.31
420.948	7062.31
421.171	7399.31
421.394	7170.31
421.617	6699.31
421.839	6640.31
422.062	6798.31
422.285	6825.31
422.507	7498.31
422.73	8038.31
422.953	7458.31
423.175	6889.31
423.398	6981.31
423.621	7009.31
423.843	7274.31
424.066	7197.31
424.288	7088.31
424.511	7318.31
424.733	7842.31
424.956	8264.31
425.178	7682.31
425.401	7932.31
425.623	7803.31
425.846	6787.31
426.068	6644.31
426.291	6493.31
426.513	6532.31
426.735	6650.31
426.958	7128.31
427.18	7996.31
427.402	9178.31
427.625	9627.31
427.847	8632.31
428.069	8261.31
428.292	6941.31
428.514	6200.31
428.736	6114.31
428.958	6057.31
429.181	5835.31
429.403	5831.31
429.625	6008.31
429.847	6321.31
430.069	6864.31
430.292	6437.31
430.514	5848.31
430.736	5764.31
430.958	5669.31
431.18	5579.31
431.402	5666.31
431.624	5629.31
431.846	5658.31
432.068	5740.31
432.29	5837.31
432.512	5644.31
432.734	5810.31
432.956	5713.31
433.178	5892.31
433.4	5877.31
433.622	5701.31
433.844	5761.31
434.066	5698.31
434.287	5890.31
434.509	6104.31
434.731	6299.31
434.953	6446.31
435.175	6530.31
435.397	6615.31
435.618	6609.31
435.84	7088.31
436.062	7988.31
436.284	7809.31
436.505	6560.31
436.727	6228.31
436.949	5922.31
437.17	5844.31
437.392	5733.31
437.614	5938.31
437.835	6420.31
438.057	7422.31
438.278	8130.31
438.5	7962.31
438.721	8910.31
438.943	7626.31
439.165	6334.31
439.386	6198.31
439.608	6280.31
439.829	6388.31
440.05	6920.31
440.272	7226.31
440.493	6434.31
440.715	6143.31
440.936	6075.31
441.158	6042.31
441.379	6164.31
441.6	6601.31
441.822	6780.31
442.043	7341.31
442.264	8186.31
442.486	7808.31
442.707	6814.31
442.928	6784.31
443.149	6983.31
443.371	7134.31
443.592	7645.31
443.813	8729.31
444.034	8715.31
444.255	7427.31
444.476	7324.31
444.698	7428.31
444.919	7541.31
445.14	7387.31
445.361	7238.31
445.582	7527.31
445.803	8307.31
446.024	8980.31
446.245	8530.31
446.466	7541.31
446.687	6385.31
446.908	6141.31
447.129	5772.31
447.35	5602.31
447.571	5622.31
447.792	5524.31
448.013	5638.31
448.234	5882.31
448.455	6630.31
448.675	7840.31
448.896	8225.31
449.117	6731.31
449.338	7056.31
449.559	8374.31
449.779	8677.31
450	6490.31
450.221	5680.31
450.442	5489.31
450.662	5441.31
450.883	5569.31
451.104	5687.31
451.324	5465.31
451.545	5374.31
451.766	5154.31
451.986	5066.31
452.207	5044.31
452.428	5020.31
452.648	5032.31
452.869	5090.31
453.089	5175.31
453.31	5236.31
453.53	5100.31
453.751	5086.31
453.971	4988.31
454.192	5211.31
454.412	4978.31
454.633	4889.31
454.853	4898.31
455.073	4914.31
455.294	5363.31
455.514	5964.31
455.734	5352.31
455.955	4762.31
456.175	4727.31
456.395	4662.31
456.616	4580.31
456.836	4649.31
457.056	4638.31
457.276	4609.31
457.497	4746.31
457.717	4730.31
457.937	4812.31
458.157	4901.31
458.377	5003.31
458.598	5332.31
458.818	6181.31
459.038	6941.31
459.258	6752.31
459.478	6005.31
459.698	5812.31
459.918	5872.31
460.138	5985.31
460.358	6209.31
460.578	6266.31
460.798	6328.31
461.018	6345.31
461.238	6218.31
461.458	6200.31
461.678	6094.31
461.898	6293.31
462.118	6304.31
462.338	6730.31
462.558	6820.31
462.777	7102.31
462.997	7760.31
463.217	8044.31
463.437	7897.31
463.657	7326.31
463.876	7090.31
464.096	7170.31
464.316	7161.31
464.536	7257.31
464.755	7012.31
464.975	6859.31
465.195	7103.31
465.414	7223.31
465.634	6296.31
465.854	5925.31
466.073	5701.31
466.293	5464.31
466.512	5363.31
466.732	5243.31
466.951	5288.31
467.171	5291.31
467.391	5439.31
467.61	5493.31
467.829	5545.31
468.049	5700.31
468.268	6107.31
468.488	5576.31
468.707	5300.31
468.927	5097.31
469.146	5102.31
469.365	5163.31
469.585	5128.31
469.804	5378.31
470.023	5578.31
470.243	5523.31
470.462	5612.31
470.681	5701.31
470.901	5638.31
471.12	5484.31
471.339	5421.31
471.558	5524.31
471.777	5404.31
471.997	5636.31
472.216	6516.31
472.435	8555.31
472.654	7026.31
472.873	5942.31
473.092	5616.31
473.311	5397.31
473.53	5405.31
473.749	5444.31
473.968	5950.31
474.187	6901.31
474.406	6489.31
474.625	5493.31
474.844	5224.31
475.063	5178.31
475.282	5127.31
475.501	5269.31
475.72	5176.31
475.939	5280.31
476.158	5257.31
476.377	5309.31
476.596	5233.31
476.814	5500.31
477.033	5510.31
477.252	5562.31
477.471	5652.31
477.69	5734.31
477.908	5834.31
478.127	5984.31
478.346	6048.31
478.564	6163.31
478.783	6225.31
479.002	6356.31
479.22	6513.31
479.439	6578.31
479.658	6656.31
479.876	6817.31
480.095	7049.31
480.313	7453.31
480.532	7376.31
480.751	7592.31
480.969	8592.31
481.188	12141.31
481.406	12260.31
481.624	8906.31
481.843	7611.31
482.061	7134.31
482.28	6821.31
482.498	6535.31
482.717	6354.31
482.935	6325.31
483.153	6213.31
483.372	6163.31
483.59	6142.31
483.808	6121.31
484.027	6104.31
484.245	6182.31
484.463	6192.31
484.681	6266.31
484.9	6358.31
485.118	6437.31
485.336	6357.31
485.554	6439.31
485.772	6492.31
485.99	6482.31
486.209	6530.31
486.427	6531.31
486.645	6643.31
486.863	6706.31
487.081	6648.31
487.299	6553.31
487.517	6546.31
487.735	6500.31
487.953	6563.31
488.171	6485.31
488.389	6492.31
488.607	6654.31
488.825	6628.31
489.043	6696.31
489.261	6733.31
489.479	6668.31
489.696	6841.31
489.914	6939.31
490.132	7071.31
490.35	7154.31
490.568	7326.31
490.786	7456.31
491.003	7598.31
491.221	7923.31
491.439	8136.31
491.657	8364.31
491.874	8372.31
492.092	8432.31
492.31	8505.31
492.527	8706.31
492.745	8854.31
492.963	8858.31
493.18	8719.31
493.398	8714.31
493.615	8740.31
493.833	8644.31
494.05	8534.31
494.268	8384.31
494.485	8266.31
494.703	8242.31
494.92	8237.31
495.138	8160.31
495.355	8116.31
495.573	8162.31
495.79	8097.31
496.008	8020.31
496.225	7840.31
496.442	7936.31
496.66	7910.31
496.877	7954.31
497.094	8082.31
497.312	8226.31
497.529	8389.31
497.746	8438.31
497.963	8725.31
498.181	9100.31
498.398	9312.31
498.615	9629.31
498.832	10225.31
499.049	10561.31
499.267	11212.31
499.484	11933.31
499.701	12678.31
499.918	13470.31
500.135	14296.31
500.352	14899.31
500.569	15059.31
500.786	15025.31
501.003	14563.31
501.22	13958.31
501.437	13076.31
501.654	12320.31
501.871	11638.31
502.088	10903.31
502.305	10218.31
502.522	9732.31
502.739	9367.31
502.956	8952.31
503.172	8664.31
503.389	8484.31
503.606	8324.31
503.823	8229.31
504.04	8127.31
504.256	8244.31
504.473	8320.31
504.69	8324.31
504.907	8048.31
505.123	7762.31
505.34	7460.31
505.557	7341.31
505.773	7194.31
505.99	7147.31
506.207	7051.31
506.423	7019.31
506.64	6908.31
506.856	6837.31
507.073	6716.31
507.289	6760.31
507.506	6739.31
507.722	6807.31
507.939	6799.31
508.155	6564.31
508.372	6481.31
508.588	6351.31
508.805	6371.31
509.021	6425.31
509.238	6704.31
509.454	6645.31
509.67	6472.31
509.887	6256.31
510.103	6263.31
510.319	6374.31
510.536	7668.31
510.752	11198.31
510.968	7604.31
511.184	6229.31
511.401	6206.31
511.617	6308.31
511.833	6721.31
512.049	6838.31
512.265	6517.31
512.481	6358.31
512.698	6174.31
512.914	6118.31
513.13	6049.31
513.346	5971.31
513.562	5936.31
513.778	6030.31
513.994	6115.31
514.21	6132.31
514.426	6327.31
514.642	6706.31
514.858	6847.31
515.074	7225.31
515.29	8766.31
515.506	11351.31
515.721	8325.31
515.937	6909.31
516.153	6662.31
516.369	6637.31
516.585	6738.31
516.801	6820.31
517.016	6982.31
517.232	7227.31
517.448	7409.31
517.664	7510.31
517.879	7508.31
518.095	7422.31
518.311	7345.31
518.527	7064.31
518.742	6884.31
518.958	6568.31
519.173	6449.31
519.389	6370.31
519.605	6208.31
519.82	6204.31
520.036	6390.31
520.251	6405.31
520.467	6461.31
520.682	6383.31
520.898	6316.31
521.113	6456.31
521.329	6886.31
521.544	7633.31
521.76	9697.31
521.975	14008.31
522.19	11296.31
522.406	7225.31
522.621	6218.31
522.836	5766.31
523.052	5533.31
523.267	5456.31
523.482	5336.31
523.698	5212.31
523.913	5299.31
524.128	5205.31
524.343	5101.31
524.559	4992.31
524.774	5005.31
524.989	5001.31
525.204	5097.31
525.419	5048.31
525.634	4976.31
525.849	4891.31
526.064	4873.31
526.28	4805.31
526.495	4823.31
526.71	4804.31
526.925	4702.31
527.14	4792.31
527.355	4728.31
527.57	4782.31
527.785	4730.31
527.999	4732.31
528.214	4778.31
528.429	4772.31
528.644	4820.31
528.859	4785.31
529.074	4793.31
529.289	5067.31
529.503	5653.31
529.718	5288.31
529.933	4942.31
530.148	4847.31
530.363	4774.31
530.577	4720.31
530.792	4681.31
531.007	4656.31
531.221	4786.31
531.436	4637.31
531.651	4618.31
531.865	4710.31
532.08	4650.31
532.295	4621.31
532.509	4628.31
532.724	4694.31
532.938	4725.31
533.153	4620.31
533.367	4616.31
533.582	4612.31
533.796	4636.31
534.011	4640.31
534.225	4572.31
534.44	4455.31
534.654	4540.31
534.868	4483.31
535.083	4532.31
535.297	4551.31
535.511	4542.31
535.726	4521.31
535.94	4576.31
536.154	4492.31
536.369	4411.31
536.583	4374.31
536.797	4316.31
537.011	4353.31
537.225	4301.31
537.44	4372.31
537.654	4368.31
537.868	4345.31
538.082	4411.31
538.296	4345.31
538.51	4330.31
538.724	4309.31
538.938	4283.31
539.153	4275.31
539.367	4352.31
539.581	4284.31
539.795	4236.31
540.009	4265.31
540.222	4228.31
540.436	4220.31
540.65	4213.31
540.864	4322.31
541.078	4292.31
541.292	4245.31
541.506	4222.31
541.72	4135.31
541.934	4134.31
542.147	4216.31
542.361	4026.31
542.575	4041.31
542.789	4068.31
543.002	4169.31
543.216	4136.31
543.43	4144.31
543.644	4160.31
543.857	4144.31
544.071	4142.31
544.285	4085.31
544.498	4065.31
544.712	4140.31
544.925	4236.31
545.139	4155.31
545.352	4138.31
545.566	4132.31
545.779	4119.31
545.993	4145.31
546.206	4093.31
546.42	4070.31
546.633	4096.31
546.847	4123.31
547.06	4078.31
547.274	4089.31
547.487	4055.31
547.7	4158.31
547.914	4136.31
548.127	4154.31
548.34	4094.31
548.554	4097.31
548.767	4170.31
548.98	4065.31
549.193	4186.31
549.407	4126.31
549.62	4152.31
549.833	4243.31
550.046	4150.31
550.259	4086.31
550.473	4044.31
550.686	4034.31
550.899	4021.31
551.112	3989.31
551.325	3924.31
551.538	4028.31
551.751	3996.31
551.964	4051.31
552.177	4023.31
552.39	4187.31
552.603	4270.31
552.816	4305.31
553.029	4376.31
553.242	4450.31
553.455	4533.31
553.667	4547.31
553.88	4548.31
554.093	4418.31
554.306	4386.31
554.519	4225.31
554.732	4158.31
554.944	4022.31
555.157	3958.31
555.37	3880.31
555.583	3836.31
555.795	3792.31
556.008	3682.31
556.221	3669.31
556.433	3616.31
556.646	3573.31
556.859	3566.31
557.071	3512.31
557.284	3505.31
557.496	3477.31
557.709	3453.31
557.921	3415.31
558.134	3381.31
558.346	3372.31
558.559	3317.31
558.771	3325.31
558.984	3319.31
559.196	3371.31
559.409	3345.31
559.621	3307.31
559.833	3333.31
560.046	3267.31
560.258	3343.31
560.47	3282.31
560.683	3319.31
560.895	3278.31
561.107	3260.31
561.32	3304.31
561.532	3291.31
561.744	3299.31
561.956	3275.31
562.168	3334.31
562.381	3308.31
562.593	3305.31
562.805	3342.31
563.017	3276.31
563.229	3331.31
563.441	3337.31
563.653	3346.31
563.865	3377.31
564.077	3473.31
564.289	3475.31
564.501	3527.31
564.713	3583.31
564.925	3641.31
565.137	3736.31
565.349	3754.31
565.561	3875.31
565.773	3970.31
565.985	4140.31
566.197	4371.31
566.408	4667.31
566.62	5022.31
566.832	5290.31
567.044	5269.31
567.255	5300.31
567.467	5478.31
567.679	5822.31
567.891	6069.31
568.102	6053.31
568.314	5701.31
568.526	5149.31
568.737	4834.31
568.949	4462.31
569.161	4088.31
569.372	3900.31
569.584	3683.31
569.795	3610.31
570.007	3495.31
570.218	3634.31
570.43	3451.31
570.641	3354.31
570.853	3400.31
571.064	3353.31
571.276	3304.31
571.487	3179.31
571.698	3121.31
571.91	3025.31
572.121	2950.31
572.333	2868.31
572.544	2868.31
572.755	2775.31
572.966	2778.31
573.178	2756.31
573.389	2707.31
573.6	2677.31
573.811	2653.31
574.023	2643.31
574.234	2592.31
574.445	2550.31
574.656	2623.31
574.867	2627.31
575.078	2620.31
575.289	2550.31
575.501	2557.31
575.712	2478.31
575.923	2520.31
576.134	2487.31
576.345	2511.31
576.556	2436.31
576.767	2466.31
576.978	2432.31
577.188	2412.31
577.399	2415.31
577.61	2391.31
577.821	2375.31
578.032	2384.31
578.243	2639.31
578.454	3693.31
578.665	2606.31
578.875	2312.31
579.086	2285.31
579.297	2262.31
579.508	2297.31
579.718	2252.31
579.929	2242.31
580.14	2211.31
580.35	2209.31
580.561	2206.31
580.772	2191.31
580.982	2204.31
581.193	2197.31
581.403	2156.31
581.614	2174.31
581.825	2143.31
582.035	2081.31
582.246	2130.31
582.456	2138.31
582.667	2139.31
582.877	2140.31
583.087	2087.31
583.298	2085.31
583.508	2112.31
583.719	2086.31
583.929	2037.31
584.139	2073.31
584.35	2052.31
584.56	2073.31
584.77	2035.31
584.981	2046.31
585.191	2032.31
585.401	2032.31
585.611	2072.31
585.821	2014.31
586.032	2018.31
586.242	2007.31
586.452	2019.31
586.662	2021.31
586.872	2011.31
587.082	2032.31
587.292	1969.31
587.502	2026.31
587.713	2017.31
587.923	2005.31
588.133	1992.31
588.343	1986.31
588.553	1968.31
588.762	1968.31
588.972	1995.31
589.182	2029.31
589.392	1975.31
589.602	2072.31
589.812	2068.31
590.022	2012.31
590.232	2025.31
590.441	2001.31
590.651	2095.31
590.861	2075.31
591.071	2101.31
591.281	2080.31
591.49	2120.31
591.7	2135.31
591.91	2115.31
592.119	2195.31
592.329	2292.31
592.539	2340.31
592.748	2389.31
592.958	2464.31
593.167	2509.31
593.377	2470.31
593.587	2548.31
593.796	2554.31
594.006	2569.31
594.215	2584.31
594.424	2584.31
594.634	2486.31
594.843	2407.31
595.053	2312.31
595.262	2236.31
595.472	2178.31
595.681	2119.31
595.89	2068.31
596.1	1973.31
596.309	1932.31
596.518	1929.31
596.727	1889.31
596.937	1891.31
597.146	1829.31
597.355	1805.31
597.564	1793.31
597.774	1740.31
597.983	1736.31
598.192	1756.31
598.401	1746.31
598.61	1686.31
598.819	1731.31
599.028	1675.31
599.237	1709.31
599.446	1675.31
599.655	1683.31
599.864	1698.31
600.073	1673.31
600.282	1632.31
600.491	1660.31
600.7	1673.31
600.909	1638.31
601.118	1637.31
601.327	1670.31
601.536	1635.31
601.745	1591.31
601.953	1599.31
602.162	1599.31
602.371	1602.31
602.58	1600.31
602.789	1613.31
602.997	1554.31
603.206	1585.31
603.415	1548.31
603.623	1553.31
603.832	1501.31
604.041	1531.31
604.249	1524.31
604.458	1518.31
604.666	1458.31
604.875	1489.31
605.084	1524.31
605.292	1511.31
605.501	1505.31
605.709	1481.31
605.918	1477.31
606.126	1484.31
606.334	1474.31
606.543	1490.31
606.751	1467.31
606.96	1464.31
607.168	1491.31
607.376	1447.31
607.585	1493.31
607.793	1470.31
608.001	1466.31
608.21	1460.31
608.418	1446.31
608.626	1445.31
608.834	1446.31
609.043	1431.31
609.251	1448.31
609.459	1415.31
609.667	1456.31
609.875	1474.31
610.083	1430.31
610.291	1475.31
610.499	1441.31
610.707	1489.31
610.916	1454.31
611.124	1454.31
611.332	1440.31
611.54	1414.31
611.748	1425.31
611.955	1405.31
612.163	1428.31
612.371	1410.31
612.579	1405.31
612.787	1370.31
612.995	1376.31
613.203	1391.31
613.411	1386.31
613.618	1352.31
613.826	1377.31
614.034	1358.31
614.242	1373.31
614.449	1345.31
614.657	1370.31
614.865	1373.31
615.072	1351.31
615.28	1387.31
615.488	1354.31
615.695	1378.31
615.903	1372.31
616.111	1396.31
616.318	1367.31
616.526	1424.31
616.733	1380.31
616.941	1398.31
617.148	1370.31
617.356	1391.31
617.563	1374.31
617.771	1352.31
617.978	1302.31
618.185	1363.31
618.393	1340.31
618.6	1333.31
618.807	1346.31
619.015	1314.31
619.222	1333.31
619.429	1315.31
619.637	1334.31
619.844	1322.31
620.051	1280.31
620.258	1269.31
620.466	1228.31
620.673	1212.31
620.88	1243.31
621.087	1237.31
621.294	1207.31
621.501	1257.31
621.708	1266.31
621.915	1256.31
622.122	1227.31
622.329	1220.31
622.536	1217.31
622.743	1185.31
622.95	1177.31
623.157	1187.31
623.364	1178.31
623.571	1180.31
623.778	1190.31
623.985	1129.31
624.192	1147.31
624.399	1127.31
624.606	1143.31
624.812	1130.31
625.019	1112.31
625.226	1133.31
625.433	1110.31
625.639	1126.31
625.846	1080.31
626.053	1097.31
626.259	1115.31
626.466	1096.31
626.673	1055.31
626.879	1084.31
627.086	1098.31
627.293	1083.31
627.499	1080.31
627.706	1045.31
627.912	1044.31
628.119	1041.31
628.325	1061.31
628.532	1049.31
628.738	1066.31
628.945	1006.31
629.151	1035.31
629.357	1035.31
629.564	1016.31
629.77	1011.31
629.976	1003.31
630.183	1005.31
630.389	1000.31
630.595	962.31
630.802	962.31
631.008	982.31
631.214	959.31
631.42	960.31
631.627	956.31
631.833	979.31
632.039	966.31
632.245	939.31
632.451	924.31
632.657	950.31
632.863	933.31
633.069	918.31
633.275	913.31
633.481	901.31
633.688	894.31
633.893	930.31
634.099	906.31
634.305	885.31
634.511	901.31
634.717	907.31
634.923	897.31
635.129	902.31
635.335	883.31
635.541	941.31
635.747	856.31
635.952	926.31
636.158	947.31
636.364	1049.31
636.57	1121.31
636.775	1016.31
636.981	954.31
637.187	948.31
637.392	915.31
637.598	918.31
637.804	903.31
638.009	857.31
638.215	873.31
638.421	846.31
638.626	854.31
638.832	850.31
639.037	858.31
639.243	848.31
639.448	806.31
639.654	821.31
639.859	799.31
640.065	806.31
640.27	794.31
640.475	792.31
640.681	789.31
640.886	820.31
641.091	808.31
641.297	812.31
641.502	757.31
641.707	789.31
641.913	802.31
642.118	732.31
642.323	726.31
642.528	740.31
642.733	725.31
642.939	761.31
643.144	725.31
643.349	734.31
643.554	755.31
643.759	735.31
643.964	734.31
644.169	741.31
644.374	732.31
644.579	740.31
644.784	725.31
644.989	742.31
645.194	728.31
645.399	720.31
645.604	752.31
645.809	714.31
646.014	709.31
646.219	714.31
646.423	732.31
646.628	731.31
646.833	722.31
647.038	760.31
647.243	749.31
647.447	772.31
647.652	778.31
647.857	772.31
648.062	784.31
648.266	792.31
648.471	804.31
648.676	820.31
648.88	795.31
649.085	778.31
649.289	782.31
649.494	847.31
649.698	1054.31
649.903	866.31
650.107	737.31
650.312	708.31
650.516	664.31
650.721	664.31
650.925	657.31
651.13	660.31
651.334	625.31
651.539	607.31
651.743	587.31
651.947	576.31
652.152	573.31
652.356	562.31
652.56	562.31
652.764	547.31
652.969	526.31
653.173	510.31
653.377	494.31
653.581	512.31
653.785	524.31
653.99	514.31
654.194	504.31
654.398	466.31
654.602	455.31
654.806	500.31
655.01	565.31
655.214	504.31
655.418	451.31
655.622	466.31
655.826	460.31
656.03	482.31
656.234	476.31
656.438	489.31
656.642	473.31
656.846	440.31
657.049	426.31
657.253	401.31
657.457	354.31
657.661	330.31
657.865	328.31
658.068	281.31
658.272	284.31
658.476	273.31
658.68	237.31
658.883	252.31
659.087	243.31
659.291	207.31
659.494	206.31
659.698	202.31
659.901	193.31
660.105	180.31
660.309	172.31
660.512	166.31
660.716	169.31
660.919	187.31
661.123	159.31
661.326	169.31
661.53	150.31
661.733	132.31
661.936	118.31
662.14	123.31
662.343	120.31
662.546	95.31
662.75	105.31
662.953	97.31
663.156	98.31
663.36	93.31
663.563	88.31
663.766	96.31
663.969	98.31
664.173	96.31
664.376	72.31
664.579	85.31
664.782	82.31
664.985	78.31
665.188	84.31
665.391	87.31
665.594	72.31
665.797	76.31
666	89.31
666.203	80.31
666.406	80.31
666.609	77.31
666.812	84.31
667.015	96.31
667.218	69.31
667.421	73.31
667.624	85.31
667.827	67.31
668.03	78.31
668.232	77.31
668.435	69.31
668.638	89.31
668.841	99.31
669.043	91.31
669.246	77.31
669.449	57.31
669.651	81.31
669.854	70.31
670.057	69.31
670.259	74.31
670.462	83.31
670.665	85.31
670.867	77.31
671.07	86.31
671.272	75.31
671.475	93.31
671.677	71.31
671.88	67.31
672.082	91.31
672.284	71.31
672.487	84.31
672.689	78.31
672.892	78.31
