Data from Circ_2011_H10_HRD10591_00061.txt Node
Date: Wed Jan 03 10:08:11 EST 2024
User: Yrep
Spectrometer: HR+D1059
Trigger mode: 1
Integration Time (sec): 1.000000E-1
Scans to average: 1
Electric dark correction enabled: true
Nonlinearity correction enabled: false
Boxcar width: 0
XAxis mode: Wavelengths
Number of Pixels in Spectrum: 2048
>>>>>Begin Spectral Data<<<<<
223.165	-26.75
223.4	-26.75
223.635	-26.75
223.869	2.25
224.104	-21.75
224.338	-0.75
224.573	-20.75
224.808	-15.75
225.042	-15.75
225.277	-15.75
225.511	-1.75
225.746	2.25
225.98	6.25
226.215	18.25
226.449	11.25
226.683	25.25
226.918	26.25
227.152	27.25
227.387	42.25
227.621	32.25
227.856	49.25
228.09	48.25
228.324	46.25
228.559	53.25
228.793	61.25
229.027	55.25
229.262	72.25
229.496	82.25
229.73	85.25
229.964	81.25
230.199	72.25
230.433	86.25
230.667	79.25
230.901	77.25
231.136	77.25
231.37	76.25
231.604	75.25
231.838	89.25
232.072	87.25
232.306	96.25
232.541	89.25
232.775	88.25
233.009	91.25
233.243	75.25
233.477	78.25
233.711	86.25
233.945	74.25
234.179	88.25
234.413	94.25
234.647	103.25
234.881	76.25
235.115	79.25
235.349	75.25
235.583	85.25
235.817	67.25
236.051	90.25
236.285	81.25
236.519	87.25
236.753	95.25
236.987	81.25
237.221	97.25
237.455	86.25
237.689	93.25
237.922	70.25
238.156	85.25
238.39	87.25
238.624	88.25
238.858	87.25
239.091	78.25
239.325	78.25
239.559	105.25
239.793	75.25
240.027	79.25
240.26	91.25
240.494	84.25
240.728	75.25
240.961	78.25
241.195	89.25
241.429	73.25
241.662	68.25
241.896	73.25
242.13	76.25
242.363	84.25
242.597	75.25
242.83	67.25
243.064	86.25
243.298	82.25
243.531	83.25
243.765	83.25
243.998	99.25
244.232	98.25
244.465	89.25
244.699	73.25
244.932	80.25
245.166	81.25
245.399	79.25
245.633	78.25
245.866	75.25
246.099	73.25
246.333	96.25
246.566	92.25
246.8	83.25
247.033	85.25
247.266	81.25
247.5	92.25
247.733	91.25
247.966	77.25
248.2	85.25
248.433	78.25
248.666	61.25
248.899	75.25
249.133	71.25
249.366	104.25
249.599	91.25
249.832	82.25
250.066	81.25
250.299	82.25
250.532	88.25
250.765	73.25
250.998	81.25
251.231	79.25
251.465	87.25
251.698	88.25
251.931	95.25
252.164	82.25
252.397	77.25
252.63	78.25
252.863	89.25
253.096	89.25
253.329	84.25
253.562	93.25
253.795	83.25
254.028	92.25
254.261	90.25
254.494	74.25
254.727	90.25
254.96	77.25
255.193	77.25
255.426	97.25
255.659	88.25
255.892	90.25
256.124	88.25
256.357	86.25
256.59	96.25
256.823	88.25
257.056	75.25
257.289	87.25
257.521	87.25
257.754	102.25
257.987	88.25
258.22	87.25
258.452	93.25
258.685	69.25
258.918	84.25
259.151	91.25
259.383	91.25
259.616	92.25
259.849	89.25
260.081	88.25
260.314	76.25
260.547	78.25
260.779	94.25
261.012	79.25
261.244	93.25
261.477	85.25
261.71	96.25
261.942	127.25
262.175	133.25
262.407	83.25
262.64	94.25
262.872	92.25
263.105	90.25
263.337	87.25
263.57	100.25
263.802	88.25
264.035	90.25
264.267	86.25
264.499	86.25
264.732	77.25
264.964	80.25
265.197	80.25
265.429	93.25
265.661	96.25
265.894	82.25
266.126	95.25
266.358	94.25
266.591	82.25
266.823	93.25
267.055	83.25
267.287	90.25
267.52	76.25
267.752	98.25
267.984	103.25
268.216	84.25
268.448	108.25
268.681	84.25
268.913	89.25
269.145	88.25
269.377	75.25
269.609	92.25
269.841	82.25
270.073	84.25
270.306	93.25
270.538	92.25
270.77	77.25
271.002	91.25
271.234	86.25
271.466	85.25
271.698	101.25
271.93	99.25
272.162	96.25
272.394	83.25
272.626	87.25
272.858	78.25
273.09	89.25
273.322	82.25
273.553	84.25
273.785	81.25
274.017	94.25
274.249	81.25
274.481	79.25
274.713	92.25
274.945	97.25
275.176	92.25
275.408	92.25
275.64	91.25
275.872	86.25
276.104	79.25
276.335	104.25
276.567	102.25
276.799	102.25
277.031	104.25
277.262	100.25
277.494	90.25
277.726	83.25
277.957	96.25
278.189	94.25
278.421	92.25
278.652	81.25
278.884	90.25
279.115	86.25
279.347	99.25
279.579	85.25
279.81	91.25
280.042	99.25
280.273	117.25
280.505	113.25
280.736	97.25
280.968	85.25
281.199	95.25
281.431	93.25
281.662	90.25
281.894	92.25
282.125	105.25
282.356	113.25
282.588	142.25
282.819	104.25
283.051	89.25
283.282	77.25
283.513	94.25
283.745	88.25
283.976	92.25
284.207	93.25
284.439	83.25
284.67	81.25
284.901	80.25
285.132	66.25
285.364	82.25
285.595	83.25
285.826	93.25
286.057	96.25
286.288	89.25
286.52	89.25
286.751	90.25
286.982	77.25
287.213	88.25
287.444	101.25
287.675	86.25
287.906	88.25
288.138	99.25
288.369	97.25
288.6	85.25
288.831	97.25
289.062	98.25
289.293	97.25
289.524	96.25
289.755	86.25
289.986	85.25
290.217	97.25
290.448	86.25
290.679	87.25
290.91	89.25
291.141	94.25
291.371	78.25
291.602	95.25
291.833	95.25
292.064	85.25
292.295	84.25
292.526	84.25
292.757	92.25
292.987	82.25
293.218	91.25
293.449	91.25
293.68	103.25
293.91	98.25
294.141	90.25
294.372	105.25
294.603	95.25
294.833	94.25
295.064	88.25
295.295	88.25
295.525	76.25
295.756	99.25
295.987	121.25
296.217	142.25
296.448	139.25
296.679	99.25
296.909	80.25
297.14	105.25
297.37	87.25
297.601	86.25
297.831	93.25
298.062	99.25
298.292	92.25
298.523	90.25
298.753	80.25
298.984	93.25
299.214	77.25
299.445	101.25
299.675	109.25
299.905	101.25
300.136	86.25
300.366	86.25
300.597	87.25
300.827	92.25
301.057	93.25
301.288	96.25
301.518	97.25
301.748	93.25
301.979	99.25
302.209	82.25
302.439	93.25
302.669	97.25
302.9	103.25
303.13	102.25
303.36	89.25
303.59	115.25
303.82	115.25
304.051	91.25
304.281	83.25
304.511	92.25
304.741	96.25
304.971	82.25
305.201	97.25
305.431	104.25
305.661	87.25
305.891	96.25
306.121	83.25
306.352	99.25
306.582	99.25
306.812	105.25
307.042	102.25
307.272	106.25
307.502	118.25
307.731	102.25
307.961	97.25
308.191	87.25
308.421	85.25
308.651	87.25
308.881	103.25
309.111	101.25
309.341	95.25
309.571	98.25
309.8	101.25
310.03	119.25
310.26	97.25
310.49	101.25
310.72	96.25
310.949	108.25
311.179	113.25
311.409	95.25
311.639	111.25
311.868	108.25
312.098	101.25
312.328	103.25
312.557	113.25
312.787	105.25
313.017	115.25
313.246	102.25
313.476	106.25
313.706	102.25
313.935	106.25
314.165	111.25
314.394	99.25
314.624	102.25
314.853	96.25
315.083	95.25
315.312	97.25
315.542	87.25
315.771	100.25
316.001	90.25
316.23	103.25
316.46	94.25
316.689	87.25
316.919	94.25
317.148	117.25
317.377	108.25
317.607	97.25
317.836	91.25
318.065	99.25
318.295	87.25
318.524	97.25
318.753	103.25
318.983	92.25
319.212	101.25
319.441	91.25
319.67	98.25
319.9	105.25
320.129	86.25
320.358	91.25
320.587	95.25
320.816	98.25
321.046	123.25
321.275	79.25
321.504	102.25
321.733	112.25
321.962	87.25
322.191	123.25
322.42	109.25
322.649	119.25
322.878	131.25
323.108	119.25
323.337	141.25
323.566	145.25
323.795	158.25
324.024	217.25
324.253	455.25
324.482	962.25
324.71	2086.25
324.939	2691.25
325.168	985.25
325.397	276.25
325.626	181.25
325.855	129.25
326.084	136.25
326.313	150.25
326.542	169.25
326.77	263.25
326.999	539.25
327.228	1148.25
327.457	2049.25
327.686	1632.25
327.914	426.25
328.143	245.25
328.372	238.25
328.6	169.25
328.829	127.25
329.058	143.25
329.287	155.25
329.515	125.25
329.744	126.25
329.972	173.25
330.201	230.25
330.43	300.25
330.658	201.25
330.887	162.25
331.115	152.25
331.344	117.25
331.572	114.25
331.801	110.25
332.03	114.25
332.258	105.25
332.486	96.25
332.715	98.25
332.943	97.25
333.172	105.25
333.4	102.25
333.629	111.25
333.857	127.25
334.085	149.25
334.314	253.25
334.542	376.25
334.771	346.25
334.999	155.25
335.227	110.25
335.455	119.25
335.684	107.25
335.912	118.25
336.14	111.25
336.369	110.25
336.597	110.25
336.825	110.25
337.053	97.25
337.281	87.25
337.51	109.25
337.738	90.25
337.966	98.25
338.194	97.25
338.422	107.25
338.65	94.25
338.878	90.25
339.106	105.25
339.334	99.25
339.562	98.25
339.79	92.25
340.018	98.25
340.246	96.25
340.474	94.25
340.702	99.25
340.93	97.25
341.158	93.25
341.386	112.25
341.614	99.25
341.842	97.25
342.07	75.25
342.298	98.25
342.526	92.25
342.754	84.25
342.981	96.25
343.209	102.25
343.437	105.25
343.665	86.25
343.893	87.25
344.12	96.25
344.348	89.25
344.576	95.25
344.804	92.25
345.031	93.25
345.259	96.25
345.487	107.25
345.714	101.25
345.942	105.25
346.17	105.25
346.397	97.25
346.625	95.25
346.853	91.25
347.08	99.25
347.308	101.25
347.535	103.25
347.763	91.25
347.99	105.25
348.218	104.25
348.445	113.25
348.673	118.25
348.9	82.25
349.128	101.25
349.355	97.25
349.583	93.25
349.81	97.25
350.037	89.25
350.265	103.25
350.492	95.25
350.72	98.25
350.947	101.25
351.174	119.25
351.402	104.25
351.629	110.25
351.856	110.25
352.083	97.25
352.311	95.25
352.538	107.25
352.765	124.25
352.992	113.25
353.22	101.25
353.447	104.25
353.674	103.25
353.901	79.25
354.128	96.25
354.355	86.25
354.583	106.25
354.81	100.25
355.037	118.25
355.264	104.25
355.491	103.25
355.718	85.25
355.945	97.25
356.172	97.25
356.399	110.25
356.626	90.25
356.853	93.25
357.08	93.25
357.307	82.25
357.534	86.25
357.761	93.25
357.988	76.25
358.215	97.25
358.441	90.25
358.668	106.25
358.895	91.25
359.122	91.25
359.349	81.25
359.576	109.25
359.802	108.25
360.029	127.25
360.256	114.25
360.483	104.25
360.709	100.25
360.936	98.25
361.163	103.25
361.39	98.25
361.616	100.25
361.843	98.25
362.07	105.25
362.296	94.25
362.523	92.25
362.749	108.25
362.976	97.25
363.203	106.25
363.429	82.25
363.656	88.25
363.882	87.25
364.109	106.25
364.335	81.25
364.562	108.25
364.788	94.25
365.015	87.25
365.241	95.25
365.468	117.25
365.694	122.25
365.92	93.25
366.147	105.25
366.373	95.25
366.599	93.25
366.826	91.25
367.052	77.25
367.278	81.25
367.505	89.25
367.731	93.25
367.957	83.25
368.184	89.25
368.41	118.25
368.636	119.25
368.862	111.25
369.089	108.25
369.315	89.25
369.541	107.25
369.767	81.25
369.993	80.25
370.219	94.25
370.445	98.25
370.672	96.25
370.898	88.25
371.124	99.25
371.35	89.25
371.576	93.25
371.802	95.25
372.028	89.25
372.254	95.25
372.48	102.25
372.706	95.25
372.932	78.25
373.158	94.25
373.384	92.25
373.61	118.25
373.835	108.25
374.061	81.25
374.287	103.25
374.513	89.25
374.739	88.25
374.965	89.25
375.191	98.25
375.416	90.25
375.642	104.25
375.868	95.25
376.094	88.25
376.319	80.25
376.545	104.25
376.771	104.25
376.997	80.25
377.222	97.25
377.448	90.25
377.674	101.25
377.899	93.25
378.125	102.25
378.35	98.25
378.576	96.25
378.802	93.25
379.027	100.25
379.253	79.25
379.478	98.25
379.704	103.25
379.929	89.25
380.155	90.25
380.38	94.25
380.606	89.25
380.831	101.25
381.057	78.25
381.282	95.25
381.507	94.25
381.733	103.25
381.958	106.25
382.184	108.25
382.409	97.25
382.634	87.25
382.86	89.25
383.085	111.25
383.31	97.25
383.535	85.25
383.761	88.25
383.986	104.25
384.211	99.25
384.436	111.25
384.662	101.25
384.887	86.25
385.112	106.25
385.337	102.25
385.562	96.25
385.787	102.25
386.013	112.25
386.238	103.25
386.463	89.25
386.688	93.25
386.913	105.25
387.138	95.25
387.363	94.25
387.588	100.25
387.813	90.25
388.038	91.25
388.263	101.25
388.488	104.25
388.713	93.25
388.938	93.25
389.163	94.25
389.387	98.25
389.612	89.25
389.837	107.25
390.062	93.25
390.287	104.25
390.512	101.25
390.736	88.25
390.961	91.25
391.186	88.25
391.411	96.25
391.636	88.25
391.86	94.25
392.085	98.25
392.31	85.25
392.534	97.25
392.759	74.25
392.984	89.25
393.208	98.25
393.433	79.25
393.658	88.25
393.882	80.25
394.107	92.25
394.331	81.25
394.556	94.25
394.78	105.25
395.005	85.25
395.229	84.25
395.454	84.25
395.678	75.25
395.903	102.25
396.127	88.25
396.352	84.25
396.576	84.25
396.801	101.25
397.025	89.25
397.249	85.25
397.474	85.25
397.698	90.25
397.922	97.25
398.147	72.25
398.371	79.25
398.595	96.25
398.82	90.25
399.044	82.25
399.268	90.25
399.492	75.25
399.717	96.25
399.941	98.25
400.165	92.25
400.389	113.25
400.613	87.25
400.837	92.25
401.062	83.25
401.286	95.25
401.51	107.25
401.734	110.25
401.958	98.25
402.182	112.25
402.406	171.25
402.63	126.25
402.854	86.25
403.078	96.25
403.302	102.25
403.526	101.25
403.75	86.25
403.974	94.25
404.198	93.25
404.422	89.25
404.645	101.25
404.869	93.25
405.093	115.25
405.317	100.25
405.541	111.25
405.765	104.25
405.988	107.25
406.212	195.25
406.436	254.25
406.66	174.25
406.883	104.25
407.107	110.25
407.331	107.25
407.555	132.25
407.778	112.25
408.002	79.25
408.226	82.25
408.449	94.25
408.673	87.25
408.896	88.25
409.12	104.25
409.344	89.25
409.567	89.25
409.791	104.25
410.014	101.25
410.238	84.25
410.461	107.25
410.685	95.25
410.908	103.25
411.132	109.25
411.355	113.25
411.578	97.25
411.802	86.25
412.025	97.25
412.249	83.25
412.472	110.25
412.695	107.25
412.919	95.25
413.142	88.25
413.365	87.25
413.589	92.25
413.812	99.25
414.035	90.25
414.258	94.25
414.482	96.25
414.705	80.25
414.928	91.25
415.151	101.25
415.374	107.25
415.597	83.25
415.821	88.25
416.044	79.25
416.267	89.25
416.49	95.25
416.713	83.25
416.936	78.25
417.159	105.25
417.382	91.25
417.605	95.25
417.828	93.25
418.051	108.25
418.274	95.25
418.497	91.25
418.72	82.25
418.943	89.25
419.166	101.25
419.389	97.25
419.611	96.25
419.834	98.25
420.057	99.25
420.28	99.25
420.503	93.25
420.726	111.25
420.948	103.25
421.171	109.25
421.394	94.25
421.617	93.25
421.839	90.25
422.062	110.25
422.285	87.25
422.507	81.25
422.73	101.25
422.953	100.25
423.175	81.25
423.398	95.25
423.621	110.25
423.843	105.25
424.066	90.25
424.288	104.25
424.511	96.25
424.733	104.25
424.956	123.25
425.178	96.25
425.401	108.25
425.623	97.25
425.846	86.25
426.068	108.25
426.291	111.25
426.513	96.25
426.735	90.25
426.958	98.25
427.18	102.25
427.402	161.25
427.625	189.25
427.847	173.25
428.069	143.25
428.292	102.25
428.514	95.25
428.736	91.25
428.958	95.25
429.181	81.25
429.403	82.25
429.625	99.25
429.847	96.25
430.069	97.25
430.292	114.25
430.514	100.25
430.736	93.25
430.958	97.25
431.18	91.25
431.402	87.25
431.624	97.25
431.846	95.25
432.068	102.25
432.29	100.25
432.512	89.25
432.734	96.25
432.956	98.25
433.178	102.25
433.4	103.25
433.622	93.25
433.844	100.25
434.066	86.25
434.287	97.25
434.509	103.25
434.731	97.25
434.953	94.25
435.175	81.25
435.397	89.25
435.618	102.25
435.84	109.25
436.062	134.25
436.284	120.25
436.505	127.25
436.727	93.25
436.949	94.25
437.17	94.25
437.392	96.25
437.614	88.25
437.835	142.25
438.057	136.25
438.278	130.25
438.5	121.25
438.721	145.25
438.943	107.25
439.165	88.25
439.386	95.25
439.608	91.25
439.829	100.25
440.05	132.25
440.272	144.25
440.493	98.25
440.715	98.25
440.936	89.25
441.158	96.25
441.379	95.25
441.6	104.25
441.822	94.25
442.043	114.25
442.264	113.25
442.486	114.25
442.707	104.25
442.928	97.25
443.149	145.25
443.371	142.25
443.592	120.25
443.813	117.25
444.034	132.25
444.255	110.25
444.476	81.25
444.698	79.25
444.919	87.25
445.14	145.25
445.361	131.25
445.582	141.25
445.803	154.25
446.024	150.25
446.245	154.25
446.466	131.25
446.687	96.25
446.908	94.25
447.129	99.25
447.35	101.25
447.571	92.25
447.792	96.25
448.013	103.25
448.234	117.25
448.455	106.25
448.675	135.25
448.896	134.25
449.117	110.25
449.338	117.25
449.559	148.25
449.779	147.25
450	96.25
450.221	92.25
450.442	97.25
450.662	118.25
450.883	109.25
451.104	111.25
451.324	105.25
451.545	111.25
451.766	91.25
451.986	102.25
452.207	101.25
452.428	96.25
452.648	101.25
452.869	89.25
453.089	121.25
453.31	124.25
453.53	90.25
453.751	109.25
453.971	99.25
454.192	113.25
454.412	96.25
454.633	80.25
454.853	91.25
455.073	90.25
455.294	91.25
455.514	113.25
455.734	88.25
455.955	89.25
456.175	86.25
456.395	86.25
456.616	75.25
456.836	95.25
457.056	83.25
457.276	87.25
457.497	80.25
457.717	92.25
457.937	72.25
458.157	93.25
458.377	91.25
458.598	134.25
458.818	171.25
459.038	193.25
459.258	125.25
459.478	102.25
459.698	75.25
459.918	92.25
460.138	93.25
460.358	96.25
460.578	73.25
460.798	85.25
461.018	85.25
461.238	96.25
461.458	91.25
461.678	92.25
461.898	83.25
462.118	96.25
462.338	85.25
462.558	85.25
462.777	83.25
462.997	79.25
463.217	91.25
463.437	86.25
463.657	95.25
463.876	83.25
464.096	87.25
464.316	105.25
464.536	96.25
464.755	92.25
464.975	112.25
465.195	188.25
465.414	169.25
465.634	124.25
465.854	92.25
466.073	94.25
466.293	80.25
466.512	82.25
466.732	79.25
466.951	97.25
467.171	95.25
467.391	95.25
467.61	93.25
467.829	120.25
468.049	158.25
468.268	211.25
468.488	118.25
468.707	82.25
468.927	86.25
469.146	82.25
469.365	83.25
469.585	103.25
469.804	95.25
470.023	99.25
470.243	112.25
470.462	109.25
470.681	129.25
470.901	90.25
471.12	88.25
471.339	91.25
471.558	94.25
471.777	101.25
471.997	119.25
472.216	251.25
472.435	467.25
472.654	162.25
472.873	103.25
473.092	87.25
473.311	100.25
473.53	83.25
473.749	98.25
473.968	96.25
474.187	102.25
474.406	92.25
474.625	104.25
474.844	90.25
475.063	87.25
475.282	91.25
475.501	85.25
475.72	108.25
475.939	75.25
476.158	82.25
476.377	88.25
476.596	84.25
476.814	94.25
477.033	104.25
477.252	99.25
477.471	102.25
477.69	95.25
477.908	95.25
478.127	84.25
478.346	83.25
478.564	95.25
478.783	101.25
479.002	94.25
479.22	96.25
479.439	97.25
479.658	94.25
479.876	96.25
480.095	105.25
480.313	103.25
480.532	98.25
480.751	123.25
480.969	263.25
481.188	757.25
481.406	499.25
481.624	139.25
481.843	94.25
482.061	94.25
482.28	93.25
482.498	93.25
482.717	103.25
482.935	88.25
483.153	104.25
483.372	84.25
483.59	94.25
483.808	87.25
484.027	82.25
484.245	101.25
484.463	84.25
484.681	98.25
484.9	97.25
485.118	95.25
485.336	98.25
485.554	97.25
485.772	94.25
485.99	113.25
486.209	115.25
486.427	102.25
486.645	100.25
486.863	113.25
487.081	98.25
487.299	91.25
487.517	96.25
487.735	99.25
487.953	95.25
488.171	92.25
488.389	99.25
488.607	92.25
488.825	98.25
489.043	92.25
489.261	91.25
489.479	79.25
489.696	98.25
489.914	90.25
490.132	102.25
490.35	112.25
490.568	90.25
490.786	80.25
491.003	83.25
491.221	93.25
491.439	102.25
491.657	86.25
491.874	97.25
492.092	92.25
492.31	101.25
492.527	97.25
492.745	104.25
492.963	93.25
493.18	79.25
493.398	86.25
493.615	97.25
493.833	90.25
494.05	93.25
494.268	99.25
494.485	100.25
494.703	86.25
494.92	97.25
495.138	97.25
495.355	87.25
495.573	91.25
495.79	97.25
496.008	98.25
496.225	99.25
496.442	90.25
496.66	89.25
496.877	81.25
497.094	96.25
497.312	108.25
497.529	97.25
497.746	109.25
497.963	106.25
498.181	105.25
498.398	109.25
498.615	118.25
498.832	112.25
499.049	95.25
499.267	101.25
499.484	93.25
499.701	113.25
499.918	102.25
500.135	81.25
500.352	82.25
500.569	86.25
500.786	101.25
501.003	91.25
501.22	99.25
501.437	102.25
501.654	103.25
501.871	108.25
502.088	88.25
502.305	88.25
502.522	81.25
502.739	83.25
502.956	92.25
503.172	86.25
503.389	100.25
503.606	98.25
503.823	105.25
504.04	95.25
504.256	91.25
504.473	95.25
504.69	96.25
504.907	102.25
505.123	91.25
505.34	94.25
505.557	84.25
505.773	86.25
505.99	102.25
506.207	82.25
506.423	95.25
506.64	87.25
506.856	83.25
507.073	98.25
507.289	82.25
507.506	99.25
507.722	123.25
507.939	117.25
508.155	93.25
508.372	97.25
508.588	96.25
508.805	99.25
509.021	107.25
509.238	110.25
509.454	100.25
509.67	99.25
509.887	118.25
510.103	155.25
510.319	218.25
510.536	768.25
510.752	2473.25
510.968	715.25
511.184	175.25
511.401	108.25
511.617	106.25
511.833	95.25
512.049	103.25
512.265	102.25
512.481	87.25
512.698	95.25
512.914	96.25
513.13	107.25
513.346	88.25
513.562	85.25
513.778	118.25
513.994	103.25
514.21	99.25
514.426	135.25
514.642	141.25
514.858	136.25
515.074	163.25
515.29	467.25
515.506	1637.25
515.721	619.25
515.937	169.25
516.153	121.25
516.369	101.25
516.585	96.25
516.801	110.25
517.016	106.25
517.232	105.25
517.448	98.25
517.664	95.25
517.879	90.25
518.095	104.25
518.311	95.25
518.527	92.25
518.742	98.25
518.958	94.25
519.173	94.25
519.389	86.25
519.605	103.25
519.82	98.25
520.036	102.25
520.251	120.25
520.467	111.25
520.682	111.25
520.898	114.25
521.113	121.25
521.329	122.25
521.544	223.25
521.76	585.25
521.975	2709.25
522.19	1646.25
522.406	338.25
522.621	130.25
522.836	120.25
523.052	95.25
523.267	101.25
523.482	100.25
523.698	112.25
523.913	126.25
524.128	112.25
524.343	102.25
524.559	93.25
524.774	90.25
524.989	91.25
525.204	114.25
525.419	110.25
525.634	90.25
525.849	99.25
526.064	91.25
526.28	86.25
526.495	93.25
526.71	83.25
526.925	77.25
527.14	81.25
527.355	104.25
527.57	86.25
527.785	97.25
527.999	90.25
528.214	109.25
528.429	90.25
528.644	92.25
528.859	98.25
529.074	92.25
529.289	127.25
529.503	221.25
529.718	109.25
529.933	87.25
530.148	93.25
530.363	96.25
530.577	91.25
530.792	87.25
531.007	103.25
531.221	91.25
531.436	94.25
531.651	105.25
531.865	103.25
532.08	92.25
532.295	89.25
532.509	87.25
532.724	106.25
532.938	102.25
533.153	107.25
533.367	101.25
533.582	93.25
533.796	97.25
534.011	82.25
534.225	86.25
534.44	87.25
534.654	88.25
534.868	93.25
535.083	108.25
535.297	94.25
535.511	110.25
535.726	93.25
535.94	98.25
536.154	101.25
536.369	101.25
536.583	90.25
536.797	94.25
537.011	88.25
537.225	96.25
537.44	114.25
537.654	95.25
537.868	88.25
538.082	79.25
538.296	94.25
538.51	92.25
538.724	89.25
538.938	78.25
539.153	102.25
539.367	105.25
539.581	97.25
539.795	80.25
540.009	85.25
540.222	94.25
540.436	94.25
540.65	88.25
540.864	89.25
541.078	95.25
541.292	92.25
541.506	102.25
541.72	96.25
541.934	87.25
542.147	84.25
542.361	97.25
542.575	93.25
542.789	90.25
543.002	97.25
543.216	98.25
543.43	99.25
543.644	97.25
543.857	94.25
544.071	95.25
544.285	83.25
544.498	85.25
544.712	97.25
544.925	88.25
545.139	88.25
545.352	78.25
545.566	82.25
545.779	88.25
545.993	89.25
546.206	99.25
546.42	87.25
546.633	101.25
546.847	80.25
547.06	93.25
547.274	86.25
547.487	96.25
547.7	114.25
547.914	86.25
548.127	89.25
548.34	102.25
548.554	85.25
548.767	87.25
548.98	91.25
549.193	103.25
549.407	93.25
549.62	104.25
549.833	98.25
550.046	88.25
550.259	92.25
550.473	90.25
550.686	87.25
550.899	87.25
551.112	88.25
551.325	94.25
551.538	97.25
551.751	92.25
551.964	87.25
552.177	93.25
552.39	89.25
552.603	99.25
552.816	95.25
553.029	94.25
553.242	96.25
553.455	121.25
553.667	109.25
553.88	107.25
554.093	89.25
554.306	110.25
554.519	99.25
554.732	102.25
554.944	92.25
555.157	88.25
555.37	96.25
555.583	88.25
555.795	94.25
556.008	82.25
556.221	85.25
556.433	84.25
556.646	96.25
556.859	102.25
557.071	94.25
557.284	126.25
557.496	94.25
557.709	97.25
557.921	100.25
558.134	78.25
558.346	91.25
558.559	92.25
558.771	90.25
558.984	92.25
559.196	95.25
559.409	97.25
559.621	94.25
559.833	91.25
560.046	84.25
560.258	79.25
560.47	106.25
560.683	105.25
560.895	89.25
561.107	94.25
561.32	98.25
561.532	84.25
561.744	91.25
561.956	96.25
562.168	85.25
562.381	98.25
562.593	97.25
562.805	99.25
563.017	85.25
563.229	83.25
563.441	90.25
563.653	101.25
563.865	79.25
564.077	94.25
564.289	93.25
564.501	96.25
564.713	97.25
564.925	110.25
565.137	110.25
565.349	91.25
565.561	90.25
565.773	102.25
565.985	91.25
566.197	96.25
566.408	80.25
566.62	73.25
566.832	94.25
567.044	95.25
567.255	86.25
567.467	87.25
567.679	81.25
567.891	85.25
568.102	83.25
568.314	95.25
568.526	102.25
568.737	80.25
568.949	73.25
569.161	91.25
569.372	102.25
569.584	102.25
569.795	83.25
570.007	109.25
570.218	248.25
570.43	141.25
570.641	108.25
570.853	94.25
571.064	103.25
571.276	91.25
571.487	86.25
571.698	83.25
571.91	72.25
572.121	98.25
572.333	99.25
572.544	87.25
572.755	86.25
572.966	92.25
573.178	66.25
573.389	93.25
573.6	97.25
573.811	90.25
574.023	88.25
574.234	101.25
574.445	85.25
574.656	91.25
574.867	96.25
575.078	91.25
575.289	96.25
575.501	94.25
575.712	88.25
575.923	102.25
576.134	87.25
576.345	76.25
576.556	99.25
576.767	91.25
576.978	90.25
577.188	95.25
577.399	108.25
577.61	96.25
577.821	101.25
578.032	109.25
578.243	271.25
578.454	753.25
578.665	225.25
578.875	121.25
579.086	95.25
579.297	91.25
579.508	85.25
579.718	83.25
579.929	94.25
580.14	99.25
580.35	90.25
580.561	81.25
580.772	86.25
580.982	85.25
581.193	96.25
581.403	87.25
581.614	81.25
581.825	88.25
582.035	106.25
582.246	99.25
582.456	94.25
582.667	91.25
582.877	91.25
583.087	83.25
583.298	76.25
583.508	97.25
583.719	90.25
583.929	76.25
584.139	86.25
584.35	77.25
584.56	103.25
584.77	94.25
584.981	70.25
585.191	91.25
585.401	82.25
585.611	84.25
585.821	109.25
586.032	86.25
586.242	96.25
586.452	90.25
586.662	82.25
586.872	92.25
587.082	97.25
587.292	83.25
587.502	95.25
587.713	98.25
587.923	93.25
588.133	93.25
588.343	73.25
588.553	80.25
588.762	94.25
588.972	86.25
589.182	101.25
589.392	91.25
589.602	104.25
589.812	93.25
590.022	75.25
590.232	86.25
590.441	82.25
590.651	89.25
590.861	103.25
591.071	92.25
591.281	85.25
591.49	96.25
591.7	82.25
591.91	88.25
592.119	75.25
592.329	92.25
592.539	102.25
592.748	84.25
592.958	94.25
593.167	93.25
593.377	96.25
593.587	82.25
593.796	87.25
594.006	80.25
594.215	93.25
594.424	87.25
594.634	91.25
594.843	90.25
595.053	87.25
595.262	82.25
595.472	85.25
595.681	94.25
595.89	88.25
596.1	87.25
596.309	96.25
596.518	91.25
596.727	75.25
596.937	77.25
597.146	89.25
597.355	95.25
597.564	86.25
597.774	67.25
597.983	87.25
598.192	96.25
598.401	98.25
598.61	90.25
598.819	90.25
599.028	81.25
599.237	87.25
599.446	83.25
599.655	85.25
599.864	93.25
600.073	99.25
600.282	90.25
600.491	80.25
600.7	92.25
600.909	90.25
601.118	86.25
601.327	84.25
601.536	85.25
601.745	93.25
601.953	85.25
602.162	94.25
602.371	91.25
602.58	80.25
602.789	78.25
602.997	72.25
603.206	87.25
603.415	80.25
603.623	100.25
603.832	74.25
604.041	82.25
604.249	88.25
604.458	82.25
604.666	73.25
604.875	85.25
605.084	89.25
605.292	81.25
605.501	78.25
605.709	87.25
605.918	95.25
606.126	83.25
606.334	83.25
606.543	85.25
606.751	66.25
606.96	96.25
607.168	87.25
607.376	85.25
607.585	90.25
607.793	89.25
608.001	88.25
608.21	95.25
608.418	86.25
608.626	80.25
608.834	84.25
609.043	91.25
609.251	83.25
609.459	81.25
609.667	96.25
609.875	89.25
610.083	74.25
610.291	79.25
610.499	91.25
610.707	78.25
610.916	74.25
611.124	88.25
611.332	94.25
611.54	92.25
611.748	92.25
611.955	94.25
612.163	87.25
612.371	77.25
612.579	97.25
612.787	90.25
612.995	104.25
613.203	82.25
613.411	80.25
613.618	96.25
613.826	83.25
614.034	82.25
614.242	96.25
614.449	96.25
614.657	95.25
614.865	106.25
615.072	88.25
615.28	66.25
615.488	84.25
615.695	82.25
615.903	91.25
616.111	106.25
616.318	105.25
616.526	106.25
616.733	97.25
616.941	90.25
617.148	95.25
617.356	96.25
617.563	93.25
617.771	85.25
617.978	94.25
618.185	94.25
618.393	91.25
618.6	95.25
618.807	72.25
619.015	74.25
619.222	89.25
619.429	96.25
619.637	85.25
619.844	88.25
620.051	87.25
620.258	89.25
620.466	86.25
620.673	80.25
620.88	77.25
621.087	108.25
621.294	78.25
621.501	76.25
621.708	86.25
621.915	105.25
622.122	78.25
622.329	92.25
622.536	95.25
622.743	99.25
622.95	93.25
623.157	93.25
623.364	79.25
623.571	80.25
623.778	77.25
623.985	88.25
624.192	86.25
624.399	81.25
624.606	87.25
624.812	85.25
625.019	82.25
625.226	81.25
625.433	92.25
625.639	84.25
625.846	94.25
626.053	107.25
626.259	81.25
626.466	102.25
626.673	76.25
626.879	82.25
627.086	77.25
627.293	77.25
627.499	96.25
627.706	86.25
627.912	95.25
628.119	92.25
628.325	87.25
628.532	85.25
628.738	78.25
628.945	76.25
629.151	88.25
629.357	83.25
629.564	79.25
629.77	85.25
629.976	91.25
630.183	73.25
630.389	82.25
630.595	89.25
630.802	90.25
631.008	82.25
631.214	74.25
631.42	91.25
631.627	73.25
631.833	83.25
632.039	91.25
632.245	81.25
632.451	105.25
632.657	79.25
632.863	95.25
633.069	84.25
633.275	78.25
633.481	65.25
633.688	73.25
633.893	84.25
634.099	96.25
634.305	97.25
634.511	108.25
634.717	83.25
634.923	83.25
635.129	84.25
635.335	82.25
635.541	88.25
635.747	82.25
635.952	86.25
636.158	98.25
636.364	133.25
636.57	135.25
636.775	98.25
636.981	92.25
637.187	94.25
637.392	80.25
637.598	78.25
637.804	63.25
638.009	74.25
638.215	93.25
638.421	90.25
638.626	94.25
638.832	99.25
639.037	84.25
639.243	97.25
639.448	83.25
639.654	94.25
639.859	90.25
640.065	88.25
640.27	91.25
640.475	86.25
640.681	91.25
640.886	83.25
641.091	85.25
641.297	92.25
641.502	94.25
641.707	91.25
641.913	78.25
642.118	77.25
642.323	77.25
642.528	89.25
642.733	81.25
642.939	102.25
643.144	89.25
643.349	93.25
643.554	77.25
643.759	85.25
643.964	89.25
644.169	92.25
644.374	94.25
644.579	83.25
644.784	80.25
644.989	92.25
645.194	78.25
645.399	81.25
645.604	89.25
645.809	96.25
646.014	73.25
646.219	74.25
646.423	84.25
646.628	77.25
646.833	90.25
647.038	87.25
647.243	83.25
647.447	79.25
647.652	71.25
647.857	103.25
648.062	75.25
648.266	88.25
648.471	98.25
648.676	85.25
648.88	94.25
649.085	81.25
649.289	101.25
649.494	110.25
649.698	150.25
649.903	112.25
650.107	88.25
650.312	92.25
650.516	86.25
650.721	84.25
650.925	84.25
651.13	76.25
651.334	77.25
651.539	80.25
651.743	73.25
651.947	86.25
652.152	79.25
652.356	95.25
652.56	90.25
652.764	99.25
652.969	77.25
653.173	83.25
653.377	85.25
653.581	69.25
653.785	75.25
653.99	76.25
654.194	89.25
654.398	93.25
654.602	69.25
654.806	87.25
655.01	112.25
655.214	95.25
655.418	81.25
655.622	89.25
655.826	87.25
656.03	88.25
656.234	89.25
656.438	80.25
656.642	93.25
656.846	93.25
657.049	106.25
657.253	82.25
657.457	81.25
657.661	80.25
657.865	86.25
658.068	82.25
658.272	88.25
658.476	80.25
658.68	95.25
658.883	92.25
659.087	94.25
659.291	87.25
659.494	86.25
659.698	77.25
659.901	70.25
660.105	93.25
660.309	76.25
660.512	95.25
660.716	91.25
660.919	77.25
661.123	74.25
661.326	80.25
661.53	97.25
661.733	87.25
661.936	89.25
662.14	87.25
662.343	92.25
662.546	79.25
662.75	101.25
662.953	94.25
663.156	91.25
663.36	96.25
663.563	82.25
663.766	81.25
663.969	81.25
664.173	82.25
664.376	79.25
664.579	90.25
664.782	77.25
664.985	69.25
665.188	82.25
665.391	89.25
665.594	89.25
665.797	79.25
666	92.25
666.203	85.25
666.406	88.25
666.609	92.25
666.812	58.25
667.015	81.25
667.218	81.25
667.421	82.25
667.624	75.25
667.827	101.25
668.03	92.25
668.232	72.25
668.435	85.25
668.638	64.25
668.841	88.25
669.043	80.25
669.246	81.25
669.449	74.25
669.651	83.25
669.854	79.25
670.057	95.25
670.259	75.25
670.462	74.25
670.665	80.25
670.867	82.25
671.07	81.25
671.272	89.25
671.475	102.25
671.677	79.25
671.88	81.25
672.082	84.25
672.284	78.25
672.487	86.25
672.689	99.25
672.892	92.25
