Data from Soil_75_2_HRD10591_00005.txt Node
Date: Thu Feb 19 11:17:36 EST 2026
User: Yrep
Spectrometer: HR+D1059
Trigger mode: 1
Integration Time (sec): 1.000000E-1
Scans to average: 1
Electric dark correction enabled: true
Nonlinearity correction enabled: false
Boxcar width: 0
XAxis mode: Wavelengths
Number of Pixels in Spectrum: 2048
>>>>>Begin Spectral Data<<<<<
223.165	-15.12
223.4	-15.12
223.635	-15.12
223.869	-29.12
224.104	-27.12
224.338	-2.12
224.573	-14.12
224.808	-2.12
225.042	-5.12
225.277	-7.12
225.511	12.88
225.746	7.88
225.98	-12.12
226.215	5.88
226.449	16.88
226.683	14.88
226.918	16.88
227.152	38.88
227.387	33.88
227.621	33.88
227.856	35.88
228.09	44.88
228.324	49.88
228.559	50.88
228.793	63.88
229.027	52.88
229.262	67.88
229.496	70.88
229.73	74.88
229.964	64.88
230.199	69.88
230.433	78.88
230.667	94.88
230.901	86.88
231.136	85.88
231.37	86.88
231.604	95.88
231.838	62.88
232.072	80.88
232.306	78.88
232.541	80.88
232.775	78.88
233.009	79.88
233.243	75.88
233.477	82.88
233.711	80.88
233.945	73.88
234.179	70.88
234.413	76.88
234.647	70.88
234.881	72.88
235.115	66.88
235.349	88.88
235.583	74.88
235.817	76.88
236.051	83.88
236.285	56.88
236.519	70.88
236.753	81.88
236.987	72.88
237.221	81.88
237.455	78.88
237.689	72.88
237.922	81.88
238.156	66.88
238.39	80.88
238.624	76.88
238.858	87.88
239.091	84.88
239.325	74.88
239.559	76.88
239.793	77.88
240.027	72.88
240.26	71.88
240.494	72.88
240.728	73.88
240.961	68.88
241.195	79.88
241.429	73.88
241.662	80.88
241.896	54.88
242.13	80.88
242.363	78.88
242.597	77.88
242.83	73.88
243.064	82.88
243.298	82.88
243.531	76.88
243.765	73.88
243.998	84.88
244.232	89.88
244.465	75.88
244.699	76.88
244.932	78.88
245.166	74.88
245.399	78.88
245.633	76.88
245.866	71.88
246.099	78.88
246.333	81.88
246.566	77.88
246.8	79.88
247.033	77.88
247.266	67.88
247.5	83.88
247.733	76.88
247.966	75.88
248.2	73.88
248.433	69.88
248.666	73.88
248.899	77.88
249.133	87.88
249.366	95.88
249.599	81.88
249.832	76.88
250.066	71.88
250.299	82.88
250.532	81.88
250.765	81.88
250.998	82.88
251.231	74.88
251.465	65.88
251.698	76.88
251.931	76.88
252.164	82.88
252.397	79.88
252.63	71.88
252.863	75.88
253.096	78.88
253.329	79.88
253.562	82.88
253.795	79.88
254.028	89.88
254.261	85.88
254.494	88.88
254.727	73.88
254.96	90.88
255.193	80.88
255.426	82.88
255.659	73.88
255.892	100.88
256.124	75.88
256.357	80.88
256.59	92.88
256.823	89.88
257.056	80.88
257.289	80.88
257.521	89.88
257.754	78.88
257.987	72.88
258.22	88.88
258.452	77.88
258.685	79.88
258.918	80.88
259.151	79.88
259.383	82.88
259.616	80.88
259.849	72.88
260.081	82.88
260.314	80.88
260.547	81.88
260.779	72.88
261.012	78.88
261.244	74.88
261.477	98.88
261.71	80.88
261.942	77.88
262.175	78.88
262.407	79.88
262.64	86.88
262.872	73.88
263.105	68.88
263.337	84.88
263.57	87.88
263.802	82.88
264.035	74.88
264.267	74.88
264.499	79.88
264.732	72.88
264.964	84.88
265.197	82.88
265.429	89.88
265.661	94.88
265.894	88.88
266.126	82.88
266.358	74.88
266.591	65.88
266.823	76.88
267.055	88.88
267.287	83.88
267.52	77.88
267.752	64.88
267.984	82.88
268.216	76.88
268.448	83.88
268.681	84.88
268.913	98.88
269.145	81.88
269.377	77.88
269.609	80.88
269.841	96.88
270.073	96.88
270.306	84.88
270.538	76.88
270.77	80.88
271.002	80.88
271.234	89.88
271.466	79.88
271.698	83.88
271.93	89.88
272.162	89.88
272.394	102.88
272.626	70.88
272.858	74.88
273.09	84.88
273.322	83.88
273.553	85.88
273.785	93.88
274.017	81.88
274.249	76.88
274.481	77.88
274.713	95.88
274.945	72.88
275.176	81.88
275.408	68.88
275.64	82.88
275.872	77.88
276.104	57.88
276.335	68.88
276.567	64.88
276.799	87.88
277.031	69.88
277.262	69.88
277.494	96.88
277.726	104.88
277.957	94.88
278.189	84.88
278.421	86.88
278.652	69.88
278.884	79.88
279.115	84.88
279.347	85.88
279.579	74.88
279.81	84.88
280.042	70.88
280.273	79.88
280.505	85.88
280.736	86.88
280.968	89.88
281.199	83.88
281.431	65.88
281.662	81.88
281.894	83.88
282.125	93.88
282.356	79.88
282.588	90.88
282.819	88.88
283.051	76.88
283.282	81.88
283.513	86.88
283.745	85.88
283.976	74.88
284.207	82.88
284.439	84.88
284.67	86.88
284.901	76.88
285.132	89.88
285.364	87.88
285.595	82.88
285.826	95.88
286.057	77.88
286.288	76.88
286.52	84.88
286.751	82.88
286.982	85.88
287.213	86.88
287.444	76.88
287.675	78.88
287.906	83.88
288.138	92.88
288.369	88.88
288.6	99.88
288.831	79.88
289.062	77.88
289.293	96.88
289.524	82.88
289.755	75.88
289.986	86.88
290.217	84.88
290.448	68.88
290.679	95.88
290.91	96.88
291.141	82.88
291.371	86.88
291.602	92.88
291.833	77.88
292.064	86.88
292.295	91.88
292.526	79.88
292.757	81.88
292.987	84.88
293.218	90.88
293.449	87.88
293.68	80.88
293.91	89.88
294.141	84.88
294.372	87.88
294.603	88.88
294.833	79.88
295.064	82.88
295.295	99.88
295.525	83.88
295.756	76.88
295.987	90.88
296.217	78.88
296.448	84.88
296.679	85.88
296.909	71.88
297.14	97.88
297.37	69.88
297.601	89.88
297.831	94.88
298.062	99.88
298.292	75.88
298.523	90.88
298.753	76.88
298.984	81.88
299.214	88.88
299.445	96.88
299.675	86.88
299.905	94.88
300.136	82.88
300.366	73.88
300.597	86.88
300.827	93.88
301.057	82.88
301.288	80.88
301.518	88.88
301.748	86.88
301.979	105.88
302.209	76.88
302.439	81.88
302.669	79.88
302.9	90.88
303.13	86.88
303.36	80.88
303.59	82.88
303.82	86.88
304.051	78.88
304.281	80.88
304.511	81.88
304.741	95.88
304.971	100.88
305.201	79.88
305.431	75.88
305.661	85.88
305.891	86.88
306.121	84.88
306.352	87.88
306.582	90.88
306.812	78.88
307.042	82.88
307.272	88.88
307.502	88.88
307.731	85.88
307.961	78.88
308.191	100.88
308.421	85.88
308.651	81.88
308.881	85.88
309.111	89.88
309.341	95.88
309.571	81.88
309.8	84.88
310.03	88.88
310.26	72.88
310.49	82.88
310.72	80.88
310.949	84.88
311.179	82.88
311.409	77.88
311.639	78.88
311.868	81.88
312.098	90.88
312.328	80.88
312.557	87.88
312.787	82.88
313.017	95.88
313.246	92.88
313.476	80.88
313.706	89.88
313.935	84.88
314.165	81.88
314.394	95.88
314.624	82.88
314.853	69.88
315.083	87.88
315.312	89.88
315.542	81.88
315.771	73.88
316.001	90.88
316.23	84.88
316.46	75.88
316.689	82.88
316.919	99.88
317.148	98.88
317.377	80.88
317.607	92.88
317.836	89.88
318.065	91.88
318.295	94.88
318.524	75.88
318.753	89.88
318.983	80.88
319.212	85.88
319.441	79.88
319.67	82.88
319.9	80.88
320.129	83.88
320.358	85.88
320.587	98.88
320.816	88.88
321.046	80.88
321.275	91.88
321.504	78.88
321.733	84.88
321.962	86.88
322.191	75.88
322.42	78.88
322.649	88.88
322.878	76.88
323.108	77.88
323.337	89.88
323.566	86.88
323.795	88.88
324.024	78.88
324.253	84.88
324.482	79.88
324.71	79.88
324.939	87.88
325.168	89.88
325.397	83.88
325.626	94.88
325.855	86.88
326.084	88.88
326.313	81.88
326.542	79.88
326.77	71.88
326.999	93.88
327.228	87.88
327.457	76.88
327.686	98.88
327.914	81.88
328.143	100.88
328.372	82.88
328.6	96.88
328.829	81.88
329.058	80.88
329.287	87.88
329.515	83.88
329.744	95.88
329.972	93.88
330.201	94.88
330.43	82.88
330.658	76.88
330.887	81.88
331.115	72.88
331.344	83.88
331.572	96.88
331.801	84.88
332.03	98.88
332.258	82.88
332.486	78.88
332.715	82.88
332.943	89.88
333.172	83.88
333.4	78.88
333.629	89.88
333.857	87.88
334.085	83.88
334.314	95.88
334.542	72.88
334.771	69.88
334.999	80.88
335.227	79.88
335.455	81.88
335.684	82.88
335.912	87.88
336.14	73.88
336.369	76.88
336.597	89.88
336.825	91.88
337.053	78.88
337.281	77.88
337.51	78.88
337.738	77.88
337.966	81.88
338.194	80.88
338.422	84.88
338.65	93.88
338.878	80.88
339.106	92.88
339.334	69.88
339.562	83.88
339.79	74.88
340.018	85.88
340.246	87.88
340.474	86.88
340.702	78.88
340.93	89.88
341.158	77.88
341.386	80.88
341.614	85.88
341.842	92.88
342.07	80.88
342.298	86.88
342.526	90.88
342.754	73.88
342.981	72.88
343.209	88.88
343.437	93.88
343.665	73.88
343.893	81.88
344.12	93.88
344.348	85.88
344.576	76.88
344.804	81.88
345.031	89.88
345.259	98.88
345.487	81.88
345.714	71.88
345.942	85.88
346.17	88.88
346.397	78.88
346.625	83.88
346.853	77.88
347.08	95.88
347.308	92.88
347.535	88.88
347.763	86.88
347.99	83.88
348.218	73.88
348.445	80.88
348.673	78.88
348.9	84.88
349.128	76.88
349.355	82.88
349.583	88.88
349.81	78.88
350.037	80.88
350.265	89.88
350.492	86.88
350.72	94.88
350.947	86.88
351.174	90.88
351.402	90.88
351.629	97.88
351.856	100.88
352.083	74.88
352.311	85.88
352.538	81.88
352.765	86.88
352.992	87.88
353.22	78.88
353.447	82.88
353.674	77.88
353.901	73.88
354.128	77.88
354.355	90.88
354.583	89.88
354.81	84.88
355.037	70.88
355.264	88.88
355.491	87.88
355.718	86.88
355.945	87.88
356.172	86.88
356.399	94.88
356.626	74.88
356.853	86.88
357.08	86.88
357.307	98.88
357.534	84.88
357.761	93.88
357.988	75.88
358.215	87.88
358.441	76.88
358.668	76.88
358.895	73.88
359.122	80.88
359.349	88.88
359.576	94.88
359.802	79.88
360.029	73.88
360.256	74.88
360.483	91.88
360.709	73.88
360.936	101.88
361.163	89.88
361.39	78.88
361.616	88.88
361.843	99.88
362.07	80.88
362.296	84.88
362.523	100.88
362.749	90.88
362.976	77.88
363.203	93.88
363.429	89.88
363.656	89.88
363.882	85.88
364.109	83.88
364.335	96.88
364.562	87.88
364.788	76.88
365.015	87.88
365.241	84.88
365.468	96.88
365.694	74.88
365.92	83.88
366.147	76.88
366.373	87.88
366.599	78.88
366.826	75.88
367.052	90.88
367.278	88.88
367.505	84.88
367.731	79.88
367.957	82.88
368.184	91.88
368.41	86.88
368.636	70.88
368.862	73.88
369.089	88.88
369.315	89.88
369.541	81.88
369.767	93.88
369.993	83.88
370.219	87.88
370.445	89.88
370.672	82.88
370.898	85.88
371.124	76.88
371.35	74.88
371.576	80.88
371.802	81.88
372.028	83.88
372.254	88.88
372.48	82.88
372.706	86.88
372.932	74.88
373.158	71.88
373.384	87.88
373.61	93.88
373.835	95.88
374.061	92.88
374.287	87.88
374.513	78.88
374.739	77.88
374.965	82.88
375.191	89.88
375.416	83.88
375.642	102.88
375.868	95.88
376.094	89.88
376.319	77.88
376.545	86.88
376.771	78.88
376.997	94.88
377.222	98.88
377.448	94.88
377.674	74.88
377.899	88.88
378.125	86.88
378.35	94.88
378.576	86.88
378.802	83.88
379.027	79.88
379.253	95.88
379.478	72.88
379.704	81.88
379.929	90.88
380.155	88.88
380.38	78.88
380.606	87.88
380.831	100.88
381.057	104.88
381.282	87.88
381.507	67.88
381.733	82.88
381.958	87.88
382.184	103.88
382.409	81.88
382.634	96.88
382.86	101.88
383.085	102.88
383.31	98.88
383.535	89.88
383.761	98.88
383.986	119.88
384.211	96.88
384.436	86.88
384.662	89.88
384.887	87.88
385.112	88.88
385.337	82.88
385.562	88.88
385.787	89.88
386.013	101.88
386.238	92.88
386.463	85.88
386.688	97.88
386.913	88.88
387.138	84.88
387.363	80.88
387.588	94.88
387.813	82.88
388.038	94.88
388.263	98.88
388.488	89.88
388.713	91.88
388.938	86.88
389.163	100.88
389.387	88.88
389.612	68.88
389.837	97.88
390.062	89.88
390.287	89.88
390.512	82.88
390.736	84.88
390.961	82.88
391.186	88.88
391.411	87.88
391.636	83.88
391.86	78.88
392.085	93.88
392.31	73.88
392.534	94.88
392.759	110.88
392.984	89.88
393.208	138.88
393.433	154.88
393.658	130.88
393.882	93.88
394.107	71.88
394.331	102.88
394.556	92.88
394.78	101.88
395.005	76.88
395.229	82.88
395.454	82.88
395.678	88.88
395.903	102.88
396.127	94.88
396.352	95.88
396.576	117.88
396.801	127.88
397.025	124.88
397.249	111.88
397.474	96.88
397.698	92.88
397.922	83.88
398.147	79.88
398.371	71.88
398.595	92.88
398.82	90.88
399.044	92.88
399.268	73.88
399.492	90.88
399.717	76.88
399.941	78.88
400.165	91.88
400.389	80.88
400.613	74.88
400.837	89.88
401.062	80.88
401.286	85.88
401.51	90.88
401.734	95.88
401.958	80.88
402.182	85.88
402.406	73.88
402.63	97.88
402.854	74.88
403.078	79.88
403.302	73.88
403.526	83.88
403.75	81.88
403.974	77.88
404.198	71.88
404.422	84.88
404.645	72.88
404.869	77.88
405.093	72.88
405.317	83.88
405.541	84.88
405.765	84.88
405.988	87.88
406.212	80.88
406.436	87.88
406.66	88.88
406.883	82.88
407.107	88.88
407.331	89.88
407.555	85.88
407.778	103.88
408.002	86.88
408.226	70.88
408.449	84.88
408.673	92.88
408.896	94.88
409.12	88.88
409.344	78.88
409.567	80.88
409.791	86.88
410.014	91.88
410.238	90.88
410.461	75.88
410.685	80.88
410.908	86.88
411.132	74.88
411.355	84.88
411.578	84.88
411.802	85.88
412.025	75.88
412.249	77.88
412.472	73.88
412.695	86.88
412.919	81.88
413.142	77.88
413.365	83.88
413.589	82.88
413.812	88.88
414.035	92.88
414.258	76.88
414.482	91.88
414.705	87.88
414.928	78.88
415.151	83.88
415.374	64.88
415.597	70.88
415.821	86.88
416.044	66.88
416.267	77.88
416.49	87.88
416.713	71.88
416.936	85.88
417.159	86.88
417.382	79.88
417.605	86.88
417.828	81.88
418.051	89.88
418.274	76.88
418.497	90.88
418.72	86.88
418.943	97.88
419.166	73.88
419.389	78.88
419.611	85.88
419.834	90.88
420.057	89.88
420.28	87.88
420.503	71.88
420.726	71.88
420.948	86.88
421.171	76.88
421.394	86.88
421.617	105.88
421.839	92.88
422.062	90.88
422.285	110.88
422.507	122.88
422.73	175.88
422.953	162.88
423.175	101.88
423.398	81.88
423.621	84.88
423.843	76.88
424.066	85.88
424.288	89.88
424.511	88.88
424.733	76.88
424.956	81.88
425.178	81.88
425.401	83.88
425.623	78.88
425.846	90.88
426.068	74.88
426.291	80.88
426.513	81.88
426.735	82.88
426.958	78.88
427.18	64.88
427.402	82.88
427.625	87.88
427.847	96.88
428.069	100.88
428.292	80.88
428.514	94.88
428.736	89.88
428.958	102.88
429.181	100.88
429.403	82.88
429.625	84.88
429.847	83.88
430.069	99.88
430.292	118.88
430.514	100.88
430.736	105.88
430.958	87.88
431.18	87.88
431.402	86.88
431.624	80.88
431.846	80.88
432.068	75.88
432.29	84.88
432.512	93.88
432.734	88.88
432.956	80.88
433.178	62.88
433.4	79.88
433.622	86.88
433.844	91.88
434.066	72.88
434.287	87.88
434.509	90.88
434.731	85.88
434.953	89.88
435.175	88.88
435.397	77.88
435.618	77.88
435.84	72.88
436.062	79.88
436.284	91.88
436.505	69.88
436.727	84.88
436.949	76.88
437.17	71.88
437.392	73.88
437.614	78.88
437.835	73.88
438.057	82.88
438.278	75.88
438.5	83.88
438.721	96.88
438.943	80.88
439.165	99.88
439.386	85.88
439.608	87.88
439.829	78.88
440.05	90.88
440.272	79.88
440.493	82.88
440.715	85.88
440.936	82.88
441.158	90.88
441.379	96.88
441.6	80.88
441.822	67.88
442.043	97.88
442.264	97.88
442.486	89.88
442.707	82.88
442.928	80.88
443.149	74.88
443.371	96.88
443.592	125.88
443.813	107.88
444.034	89.88
444.255	86.88
444.476	95.88
444.698	95.88
444.919	83.88
445.14	180.88
445.361	116.88
445.582	131.88
445.803	105.88
446.024	94.88
446.245	90.88
446.466	82.88
446.687	82.88
446.908	80.88
447.129	75.88
447.35	73.88
447.571	82.88
447.792	88.88
448.013	83.88
448.234	95.88
448.455	87.88
448.675	74.88
448.896	93.88
449.117	88.88
449.338	88.88
449.559	74.88
449.779	84.88
450	90.88
450.221	101.88
450.442	82.88
450.662	78.88
450.883	67.88
451.104	84.88
451.324	71.88
451.545	68.88
451.766	83.88
451.986	77.88
452.207	82.88
452.428	84.88
452.648	82.88
452.869	88.88
453.089	81.88
453.31	82.88
453.53	81.88
453.751	94.88
453.971	89.88
454.192	91.88
454.412	92.88
454.633	84.88
454.853	76.88
455.073	88.88
455.294	76.88
455.514	80.88
455.734	86.88
455.955	84.88
456.175	75.88
456.395	76.88
456.616	87.88
456.836	96.88
457.056	77.88
457.276	78.88
457.497	75.88
457.717	74.88
457.937	85.88
458.157	90.88
458.377	94.88
458.598	97.88
458.818	72.88
459.038	84.88
459.258	87.88
459.478	71.88
459.698	83.88
459.918	75.88
460.138	83.88
460.358	82.88
460.578	80.88
460.798	84.88
461.018	103.88
461.238	100.88
461.458	88.88
461.678	76.88
461.898	87.88
462.118	91.88
462.338	88.88
462.558	90.88
462.777	71.88
462.997	70.88
463.217	77.88
463.437	88.88
463.657	84.88
463.876	87.88
464.096	85.88
464.316	70.88
464.536	77.88
464.755	73.88
464.975	77.88
465.195	78.88
465.414	92.88
465.634	82.88
465.854	69.88
466.073	90.88
466.293	94.88
466.512	83.88
466.732	94.88
466.951	85.88
467.171	80.88
467.391	77.88
467.61	82.88
467.829	88.88
468.049	78.88
468.268	84.88
468.488	81.88
468.707	76.88
468.927	89.88
469.146	67.88
469.365	91.88
469.585	77.88
469.804	76.88
470.023	74.88
470.243	81.88
470.462	87.88
470.681	73.88
470.901	83.88
471.12	85.88
471.339	90.88
471.558	89.88
471.777	83.88
471.997	67.88
472.216	68.88
472.435	101.88
472.654	84.88
472.873	89.88
473.092	85.88
473.311	98.88
473.53	86.88
473.749	86.88
473.968	85.88
474.187	69.88
474.406	66.88
474.625	76.88
474.844	89.88
475.063	73.88
475.282	82.88
475.501	78.88
475.72	76.88
475.939	96.88
476.158	85.88
476.377	84.88
476.596	80.88
476.814	80.88
477.033	72.88
477.252	98.88
477.471	84.88
477.69	84.88
477.908	75.88
478.127	85.88
478.346	90.88
478.564	87.88
478.783	76.88
479.002	81.88
479.22	75.88
479.439	81.88
479.658	77.88
479.876	90.88
480.095	76.88
480.313	79.88
480.532	89.88
480.751	78.88
480.969	80.88
481.188	77.88
481.406	84.88
481.624	89.88
481.843	83.88
482.061	65.88
482.28	89.88
482.498	91.88
482.717	77.88
482.935	93.88
483.153	89.88
483.372	78.88
483.59	84.88
483.808	74.88
484.027	72.88
484.245	96.88
484.463	75.88
484.681	72.88
484.9	76.88
485.118	76.88
485.336	84.88
485.554	89.88
485.772	96.88
485.99	87.88
486.209	83.88
486.427	96.88
486.645	86.88
486.863	84.88
487.081	90.88
487.299	95.88
487.517	91.88
487.735	90.88
487.953	82.88
488.171	82.88
488.389	79.88
488.607	74.88
488.825	73.88
489.043	73.88
489.261	85.88
489.479	96.88
489.696	74.88
489.914	90.88
490.132	84.88
490.35	89.88
490.568	81.88
490.786	91.88
491.003	88.88
491.221	78.88
491.439	95.88
491.657	86.88
491.874	77.88
492.092	88.88
492.31	89.88
492.527	90.88
492.745	93.88
492.963	85.88
493.18	85.88
493.398	78.88
493.615	89.88
493.833	69.88
494.05	85.88
494.268	88.88
494.485	82.88
494.703	94.88
494.92	80.88
495.138	81.88
495.355	98.88
495.573	91.88
495.79	77.88
496.008	82.88
496.225	85.88
496.442	84.88
496.66	77.88
496.877	94.88
497.094	90.88
497.312	83.88
497.529	83.88
497.746	91.88
497.963	83.88
498.181	76.88
498.398	96.88
498.615	90.88
498.832	88.88
499.049	97.88
499.267	83.88
499.484	88.88
499.701	88.88
499.918	90.88
500.135	77.88
500.352	80.88
500.569	90.88
500.786	88.88
501.003	94.88
501.22	73.88
501.437	80.88
501.654	96.88
501.871	70.88
502.088	92.88
502.305	84.88
502.522	81.88
502.739	78.88
502.956	72.88
503.172	86.88
503.389	78.88
503.606	82.88
503.823	76.88
504.04	80.88
504.256	103.88
504.473	97.88
504.69	89.88
504.907	73.88
505.123	96.88
505.34	91.88
505.557	84.88
505.773	94.88
505.99	79.88
506.207	88.88
506.423	83.88
506.64	78.88
506.856	86.88
507.073	75.88
507.289	75.88
507.506	81.88
507.722	77.88
507.939	77.88
508.155	80.88
508.372	96.88
508.588	87.88
508.805	76.88
509.021	84.88
509.238	87.88
509.454	74.88
509.67	79.88
509.887	81.88
510.103	85.88
510.319	70.88
510.536	84.88
510.752	83.88
510.968	73.88
511.184	93.88
511.401	72.88
511.617	80.88
511.833	94.88
512.049	88.88
512.265	86.88
512.481	80.88
512.698	80.88
512.914	83.88
513.13	97.88
513.346	65.88
513.562	87.88
513.778	88.88
513.994	94.88
514.21	90.88
514.426	82.88
514.642	70.88
514.858	100.88
515.074	92.88
515.29	98.88
515.506	73.88
515.721	89.88
515.937	93.88
516.153	74.88
516.369	81.88
516.585	76.88
516.801	94.88
517.016	96.88
517.232	101.88
517.448	113.88
517.664	98.88
517.879	84.88
518.095	90.88
518.311	102.88
518.527	124.88
518.742	100.88
518.958	94.88
519.173	97.88
519.389	91.88
519.605	87.88
519.82	86.88
520.036	89.88
520.251	81.88
520.467	71.88
520.682	85.88
520.898	73.88
521.113	88.88
521.329	86.88
521.544	74.88
521.76	93.88
521.975	81.88
522.19	76.88
522.406	84.88
522.621	86.88
522.836	67.88
523.052	87.88
523.267	80.88
523.482	87.88
523.698	72.88
523.913	95.88
524.128	76.88
524.343	96.88
524.559	88.88
524.774	80.88
524.989	89.88
525.204	86.88
525.419	92.88
525.634	93.88
525.849	93.88
526.064	102.88
526.28	103.88
526.495	120.88
526.71	126.88
526.925	112.88
527.14	126.88
527.355	110.88
527.57	96.88
527.785	79.88
527.999	73.88
528.214	74.88
528.429	86.88
528.644	76.88
528.859	103.88
529.074	84.88
529.289	84.88
529.503	78.88
529.718	95.88
529.933	91.88
530.148	90.88
530.363	78.88
530.577	80.88
530.792	85.88
531.007	76.88
531.221	83.88
531.436	77.88
531.651	91.88
531.865	87.88
532.08	73.88
532.295	85.88
532.509	88.88
532.724	80.88
532.938	84.88
533.153	89.88
533.367	80.88
533.582	78.88
533.796	85.88
534.011	88.88
534.225	97.88
534.44	94.88
534.654	87.88
534.868	87.88
535.083	105.88
535.297	101.88
535.511	90.88
535.726	91.88
535.94	90.88
536.154	90.88
536.369	65.88
536.583	80.88
536.797	84.88
537.011	97.88
537.225	104.88
537.44	97.88
537.654	101.88
537.868	93.88
538.082	86.88
538.296	90.88
538.51	101.88
538.724	94.88
538.938	97.88
539.153	79.88
539.367	93.88
539.581	86.88
539.795	90.88
540.009	89.88
540.222	80.88
540.436	84.88
540.65	86.88
540.864	83.88
541.078	76.88
541.292	94.88
541.506	81.88
541.72	86.88
541.934	86.88
542.147	83.88
542.361	98.88
542.575	96.88
542.789	92.88
543.002	89.88
543.216	88.88
543.43	80.88
543.644	82.88
543.857	88.88
544.071	87.88
544.285	86.88
544.498	88.88
544.712	86.88
544.925	82.88
545.139	84.88
545.352	78.88
545.566	88.88
545.779	102.88
545.993	89.88
546.206	85.88
546.42	87.88
546.633	89.88
546.847	92.88
547.06	85.88
547.274	101.88
547.487	90.88
547.7	91.88
547.914	102.88
548.127	98.88
548.34	97.88
548.554	105.88
548.767	98.88
548.98	94.88
549.193	95.88
549.407	96.88
549.62	101.88
549.833	96.88
550.046	104.88
550.259	115.88
550.473	119.88
550.686	109.88
550.899	121.88
551.112	125.88
551.325	124.88
551.538	126.88
551.751	112.88
551.964	128.88
552.177	104.88
552.39	128.88
552.603	116.88
552.816	107.88
553.029	130.88
553.242	129.88
553.455	132.88
553.667	134.88
553.88	157.88
554.093	141.88
554.306	138.88
554.519	118.88
554.732	134.88
554.944	132.88
555.157	137.88
555.37	146.88
555.583	132.88
555.795	126.88
556.008	120.88
556.221	120.88
556.433	114.88
556.646	108.88
556.859	105.88
557.071	121.88
557.284	121.88
557.496	106.88
557.709	104.88
557.921	94.88
558.134	116.88
558.346	113.88
558.559	89.88
558.771	91.88
558.984	143.88
559.196	141.88
559.409	105.88
559.621	118.88
559.833	127.88
560.046	130.88
560.258	113.88
560.47	112.88
560.683	104.88
560.895	87.88
561.107	101.88
561.32	89.88
561.532	97.88
561.744	93.88
561.956	105.88
562.168	101.88
562.381	85.88
562.593	88.88
562.805	95.88
563.017	97.88
563.229	87.88
563.441	104.88
563.653	95.88
563.865	89.88
564.077	94.88
564.289	87.88
564.501	94.88
564.713	74.88
564.925	94.88
565.137	94.88
565.349	84.88
565.561	81.88
565.773	97.88
565.985	91.88
566.197	86.88
566.408	96.88
566.62	84.88
566.832	95.88
567.044	98.88
567.255	104.88
567.467	114.88
567.679	80.88
567.891	76.88
568.102	83.88
568.314	94.88
568.526	102.88
568.737	104.88
568.949	107.88
569.161	134.88
569.372	101.88
569.584	86.88
569.795	97.88
570.007	79.88
570.218	104.88
570.43	86.88
570.641	93.88
570.853	89.88
571.064	91.88
571.276	90.88
571.487	91.88
571.698	77.88
571.91	94.88
572.121	79.88
572.333	98.88
572.544	94.88
572.755	79.88
572.966	98.88
573.178	95.88
573.389	108.88
573.6	90.88
573.811	88.88
574.023	93.88
574.234	96.88
574.445	87.88
574.656	96.88
574.867	75.88
575.078	94.88
575.289	105.88
575.501	87.88
575.712	94.88
575.923	82.88
576.134	101.88
576.345	96.88
576.556	88.88
576.767	81.88
576.978	83.88
577.188	76.88
577.399	94.88
577.61	96.88
577.821	87.88
578.032	82.88
578.243	94.88
578.454	116.88
578.665	89.88
578.875	78.88
579.086	89.88
579.297	72.88
579.508	81.88
579.718	89.88
579.929	101.88
580.14	105.88
580.35	71.88
580.561	95.88
580.772	96.88
580.982	92.88
581.193	90.88
581.403	110.88
581.614	90.88
581.825	100.88
582.035	91.88
582.246	95.88
582.456	86.88
582.667	84.88
582.877	94.88
583.087	88.88
583.298	84.88
583.508	91.88
583.719	102.88
583.929	98.88
584.139	96.88
584.35	96.88
584.56	96.88
584.77	101.88
584.981	91.88
585.191	87.88
585.401	89.88
585.611	99.88
585.821	100.88
586.032	120.88
586.242	93.88
586.452	96.88
586.662	80.88
586.872	95.88
587.082	100.88
587.292	112.88
587.502	93.88
587.713	107.88
587.923	130.88
588.133	127.88
588.343	132.88
588.553	178.88
588.762	247.88
588.972	385.88
589.182	508.88
589.392	444.88
589.602	422.88
589.812	465.88
590.022	364.88
590.232	232.88
590.441	165.88
590.651	152.88
590.861	125.88
591.071	144.88
591.281	131.88
591.49	109.88
591.7	127.88
591.91	126.88
592.119	123.88
592.329	119.88
592.539	134.88
592.748	118.88
592.958	125.88
593.167	130.88
593.377	134.88
593.587	159.88
593.796	150.88
594.006	130.88
594.215	121.88
594.424	131.88
594.634	124.88
594.843	116.88
595.053	114.88
595.262	100.88
595.472	109.88
595.681	104.88
595.89	103.88
596.1	115.88
596.309	96.88
596.518	89.88
596.727	112.88
596.937	114.88
597.146	111.88
597.355	113.88
597.564	113.88
597.774	105.88
597.983	105.88
598.192	100.88
598.401	92.88
598.61	108.88
598.819	112.88
599.028	100.88
599.237	103.88
599.446	111.88
599.655	111.88
599.864	104.88
600.073	111.88
600.282	100.88
600.491	111.88
600.7	109.88
600.909	115.88
601.118	101.88
601.327	103.88
601.536	112.88
601.745	109.88
601.953	96.88
602.162	97.88
602.371	101.88
602.58	106.88
602.789	101.88
602.997	102.88
603.206	120.88
603.415	106.88
603.623	109.88
603.832	105.88
604.041	102.88
604.249	104.88
604.458	122.88
604.666	107.88
604.875	114.88
605.084	109.88
605.292	114.88
605.501	117.88
605.709	124.88
605.918	128.88
606.126	122.88
606.334	118.88
606.543	113.88
606.751	114.88
606.96	114.88
607.168	121.88
607.376	115.88
607.585	128.88
607.793	118.88
608.001	114.88
608.21	125.88
608.418	116.88
608.626	124.88
608.834	109.88
609.043	104.88
609.251	102.88
609.459	112.88
609.667	124.88
609.875	120.88
610.083	113.88
610.291	100.88
610.499	134.88
610.707	116.88
610.916	118.88
611.124	124.88
611.332	112.88
611.54	128.88
611.748	127.88
611.955	118.88
612.163	118.88
612.371	151.88
612.579	133.88
612.787	114.88
612.995	119.88
613.203	122.88
613.411	122.88
613.618	103.88
613.826	114.88
614.034	128.88
614.242	122.88
614.449	134.88
614.657	136.88
614.865	124.88
615.072	125.88
615.28	135.88
615.488	142.88
615.695	133.88
615.903	143.88
616.111	151.88
616.318	209.88
616.526	191.88
616.733	172.88
616.941	170.88
617.148	182.88
617.356	180.88
617.563	177.88
617.771	186.88
617.978	190.88
618.185	189.88
618.393	180.88
618.6	169.88
618.807	175.88
619.015	177.88
619.222	182.88
619.429	190.88
619.637	173.88
619.844	171.88
620.051	161.88
620.258	174.88
620.466	170.88
620.673	191.88
620.88	188.88
621.087	172.88
621.294	149.88
621.501	140.88
621.708	135.88
621.915	143.88
622.122	136.88
622.329	137.88
622.536	140.88
622.743	132.88
622.95	121.88
623.157	145.88
623.364	137.88
623.571	132.88
623.778	124.88
623.985	130.88
624.192	137.88
624.399	126.88
624.606	129.88
624.812	117.88
625.019	121.88
625.226	122.88
625.433	128.88
625.639	116.88
625.846	120.88
626.053	116.88
626.259	117.88
626.466	130.88
626.673	98.88
626.879	105.88
627.086	107.88
627.293	96.88
627.499	114.88
627.706	102.88
627.912	104.88
628.119	102.88
628.325	97.88
628.532	95.88
628.738	95.88
628.945	113.88
629.151	110.88
629.357	92.88
629.564	104.88
629.77	97.88
629.976	103.88
630.183	94.88
630.389	93.88
630.595	106.88
630.802	85.88
631.008	103.88
631.214	112.88
631.42	93.88
631.627	97.88
631.833	104.88
632.039	101.88
632.245	104.88
632.451	100.88
632.657	98.88
632.863	76.88
633.069	94.88
633.275	98.88
633.481	98.88
633.688	93.88
633.893	96.88
634.099	97.88
634.305	96.88
634.511	85.88
634.717	87.88
634.923	89.88
635.129	108.88
635.335	94.88
635.541	96.88
635.747	83.88
635.952	94.88
636.158	99.88
636.364	84.88
636.57	87.88
636.775	87.88
636.981	79.88
637.187	97.88
637.392	84.88
637.598	99.88
637.804	102.88
638.009	95.88
638.215	72.88
638.421	85.88
638.626	91.88
638.832	99.88
639.037	79.88
639.243	85.88
639.448	64.88
639.654	94.88
639.859	80.88
640.065	87.88
640.27	110.88
640.475	87.88
640.681	95.88
640.886	100.88
641.091	97.88
641.297	93.88
641.502	101.88
641.707	96.88
641.913	82.88
642.118	85.88
642.323	81.88
642.528	100.88
642.733	94.88
642.939	83.88
643.144	100.88
643.349	84.88
643.554	96.88
643.759	95.88
643.964	101.88
644.169	102.88
644.374	89.88
644.579	86.88
644.784	78.88
644.989	87.88
645.194	91.88
645.399	100.88
645.604	84.88
645.809	103.88
646.014	94.88
646.219	86.88
646.423	100.88
646.628	88.88
646.833	90.88
647.038	98.88
647.243	102.88
647.447	81.88
647.652	70.88
647.857	88.88
648.062	92.88
648.266	82.88
648.471	77.88
648.676	87.88
648.88	73.88
649.085	72.88
649.289	95.88
649.494	92.88
649.698	88.88
649.903	88.88
650.107	83.88
650.312	80.88
650.516	82.88
650.721	88.88
650.925	97.88
651.13	90.88
651.334	76.88
651.539	87.88
651.743	84.88
651.947	74.88
652.152	94.88
652.356	98.88
652.56	102.88
652.764	74.88
652.969	82.88
653.173	85.88
653.377	90.88
653.581	84.88
653.785	77.88
653.99	87.88
654.194	86.88
654.398	85.88
654.602	74.88
654.806	87.88
655.01	95.88
655.214	76.88
655.418	77.88
655.622	79.88
655.826	90.88
656.03	85.88
656.234	84.88
656.438	87.88
656.642	83.88
656.846	90.88
657.049	91.88
657.253	96.88
657.457	89.88
657.661	86.88
657.865	96.88
658.068	76.88
658.272	84.88
658.476	77.88
658.68	76.88
658.883	81.88
659.087	76.88
659.291	70.88
659.494	83.88
659.698	85.88
659.901	78.88
660.105	84.88
660.309	66.88
660.512	71.88
660.716	82.88
660.919	85.88
661.123	90.88
661.326	77.88
661.53	87.88
661.733	78.88
661.936	89.88
662.14	81.88
662.343	90.88
662.546	74.88
662.75	77.88
662.953	79.88
663.156	94.88
663.36	86.88
663.563	73.88
663.766	80.88
663.969	85.88
664.173	82.88
664.376	83.88
664.579	73.88
664.782	80.88
664.985	84.88
665.188	71.88
665.391	74.88
665.594	81.88
665.797	86.88
666	95.88
666.203	84.88
666.406	80.88
666.609	91.88
666.812	75.88
667.015	72.88
667.218	90.88
667.421	90.88
667.624	85.88
667.827	92.88
668.03	81.88
668.232	85.88
668.435	79.88
668.638	91.88
668.841	85.88
669.043	82.88
669.246	82.88
669.449	88.88
669.651	82.88
669.854	70.88
670.057	78.88
670.259	85.88
670.462	69.88
670.665	84.88
670.867	83.88
671.07	85.88
671.272	76.88
671.475	93.88
671.677	72.88
671.88	86.88
672.082	91.88
672.284	76.88
672.487	92.88
672.689	93.88
672.892	96.88
