Data from Uncirc_2006_H10_HRD10591_00096.txt Node
Date: Wed Jan 03 10:25:14 EST 2024
User: Yrep
Spectrometer: HR+D1059
Trigger mode: 1
Integration Time (sec): 1.000000E-1
Scans to average: 1
Electric dark correction enabled: true
Nonlinearity correction enabled: false
Boxcar width: 0
XAxis mode: Wavelengths
Number of Pixels in Spectrum: 2048
>>>>>Begin Spectral Data<<<<<
223.165	-36.69
223.4	-36.69
223.635	-36.69
223.869	-21.69
224.104	-15.69
224.338	0.31
224.573	-2.69
224.808	-3.69
225.042	-10.69
225.277	-8.69
225.511	-4.69
225.746	-5.69
225.98	16.31
226.215	18.31
226.449	4.31
226.683	24.31
226.918	22.31
227.152	24.31
227.387	31.31
227.621	27.31
227.856	43.31
228.09	44.31
228.324	45.31
228.559	55.31
228.793	62.31
229.027	57.31
229.262	84.31
229.496	57.31
229.73	78.31
229.964	65.31
230.199	81.31
230.433	68.31
230.667	80.31
230.901	90.31
231.136	87.31
231.37	60.31
231.604	71.31
231.838	84.31
232.072	63.31
232.306	77.31
232.541	77.31
232.775	72.31
233.009	75.31
233.243	75.31
233.477	80.31
233.711	85.31
233.945	81.31
234.179	84.31
234.413	82.31
234.647	77.31
234.881	74.31
235.115	70.31
235.349	80.31
235.583	81.31
235.817	88.31
236.051	73.31
236.285	78.31
236.519	73.31
236.753	88.31
236.987	93.31
237.221	78.31
237.455	67.31
237.689	64.31
237.922	77.31
238.156	63.31
238.39	67.31
238.624	71.31
238.858	77.31
239.091	76.31
239.325	87.31
239.559	80.31
239.793	78.31
240.027	83.31
240.26	69.31
240.494	73.31
240.728	86.31
240.961	76.31
241.195	76.31
241.429	68.31
241.662	76.31
241.896	77.31
242.13	78.31
242.363	73.31
242.597	68.31
242.83	77.31
243.064	74.31
243.298	67.31
243.531	80.31
243.765	84.31
243.998	74.31
244.232	72.31
244.465	80.31
244.699	88.31
244.932	76.31
245.166	77.31
245.399	74.31
245.633	97.31
245.866	87.31
246.099	79.31
246.333	75.31
246.566	76.31
246.8	78.31
247.033	79.31
247.266	79.31
247.5	71.31
247.733	68.31
247.966	77.31
248.2	74.31
248.433	80.31
248.666	71.31
248.899	75.31
249.133	79.31
249.366	92.31
249.599	100.31
249.832	82.31
250.066	77.31
250.299	78.31
250.532	72.31
250.765	89.31
250.998	75.31
251.231	79.31
251.465	80.31
251.698	86.31
251.931	75.31
252.164	69.31
252.397	61.31
252.63	79.31
252.863	87.31
253.096	71.31
253.329	83.31
253.562	87.31
253.795	88.31
254.028	67.31
254.261	78.31
254.494	74.31
254.727	81.31
254.96	77.31
255.193	80.31
255.426	80.31
255.659	92.31
255.892	73.31
256.124	89.31
256.357	82.31
256.59	79.31
256.823	78.31
257.056	89.31
257.289	63.31
257.521	94.31
257.754	86.31
257.987	92.31
258.22	78.31
258.452	96.31
258.685	91.31
258.918	85.31
259.151	82.31
259.383	65.31
259.616	71.31
259.849	75.31
260.081	89.31
260.314	76.31
260.547	82.31
260.779	87.31
261.012	83.31
261.244	79.31
261.477	80.31
261.71	99.31
261.942	108.31
262.175	93.31
262.407	93.31
262.64	75.31
262.872	76.31
263.105	85.31
263.337	88.31
263.57	87.31
263.802	84.31
264.035	82.31
264.267	87.31
264.499	85.31
264.732	87.31
264.964	83.31
265.197	67.31
265.429	75.31
265.661	87.31
265.894	79.31
266.126	87.31
266.358	82.31
266.591	76.31
266.823	83.31
267.055	83.31
267.287	83.31
267.52	70.31
267.752	87.31
267.984	78.31
268.216	86.31
268.448	83.31
268.681	77.31
268.913	84.31
269.145	95.31
269.377	89.31
269.609	72.31
269.841	85.31
270.073	85.31
270.306	83.31
270.538	77.31
270.77	73.31
271.002	74.31
271.234	63.31
271.466	73.31
271.698	77.31
271.93	89.31
272.162	76.31
272.394	78.31
272.626	87.31
272.858	81.31
273.09	81.31
273.322	83.31
273.553	73.31
273.785	74.31
274.017	93.31
274.249	82.31
274.481	79.31
274.713	91.31
274.945	96.31
275.176	84.31
275.408	82.31
275.64	81.31
275.872	87.31
276.104	78.31
276.335	88.31
276.567	88.31
276.799	85.31
277.031	101.31
277.262	81.31
277.494	100.31
277.726	79.31
277.957	76.31
278.189	89.31
278.421	95.31
278.652	97.31
278.884	78.31
279.115	67.31
279.347	83.31
279.579	80.31
279.81	88.31
280.042	81.31
280.273	86.31
280.505	87.31
280.736	88.31
280.968	82.31
281.199	80.31
281.431	92.31
281.662	90.31
281.894	86.31
282.125	74.31
282.356	113.31
282.588	116.31
282.819	107.31
283.051	84.31
283.282	68.31
283.513	93.31
283.745	80.31
283.976	74.31
284.207	78.31
284.439	82.31
284.67	79.31
284.901	89.31
285.132	81.31
285.364	75.31
285.595	90.31
285.826	81.31
286.057	84.31
286.288	91.31
286.52	89.31
286.751	90.31
286.982	76.31
287.213	85.31
287.444	84.31
287.675	69.31
287.906	81.31
288.138	93.31
288.369	82.31
288.6	95.31
288.831	85.31
289.062	93.31
289.293	90.31
289.524	73.31
289.755	91.31
289.986	81.31
290.217	91.31
290.448	90.31
290.679	76.31
290.91	93.31
291.141	92.31
291.371	83.31
291.602	98.31
291.833	68.31
292.064	83.31
292.295	89.31
292.526	87.31
292.757	80.31
292.987	92.31
293.218	87.31
293.449	89.31
293.68	86.31
293.91	81.31
294.141	88.31
294.372	87.31
294.603	86.31
294.833	77.31
295.064	72.31
295.295	90.31
295.525	93.31
295.756	97.31
295.987	116.31
296.217	122.31
296.448	125.31
296.679	84.31
296.909	87.31
297.14	87.31
297.37	88.31
297.601	98.31
297.831	89.31
298.062	97.31
298.292	84.31
298.523	83.31
298.753	76.31
298.984	86.31
299.214	82.31
299.445	88.31
299.675	83.31
299.905	85.31
300.136	96.31
300.366	93.31
300.597	87.31
300.827	85.31
301.057	97.31
301.288	95.31
301.518	80.31
301.748	77.31
301.979	109.31
302.209	98.31
302.439	92.31
302.669	82.31
302.9	94.31
303.13	88.31
303.36	102.31
303.59	90.31
303.82	98.31
304.051	91.31
304.281	87.31
304.511	87.31
304.741	73.31
304.971	90.31
305.201	83.31
305.431	85.31
305.661	85.31
305.891	91.31
306.121	96.31
306.352	109.31
306.582	102.31
306.812	102.31
307.042	83.31
307.272	82.31
307.502	98.31
307.731	95.31
307.961	88.31
308.191	82.31
308.421	80.31
308.651	84.31
308.881	101.31
309.111	78.31
309.341	88.31
309.571	96.31
309.8	93.31
310.03	96.31
310.26	84.31
310.49	91.31
310.72	80.31
310.949	94.31
311.179	96.31
311.409	89.31
311.639	90.31
311.868	82.31
312.098	96.31
312.328	86.31
312.557	105.31
312.787	115.31
313.017	99.31
313.246	93.31
313.476	85.31
313.706	89.31
313.935	95.31
314.165	74.31
314.394	92.31
314.624	103.31
314.853	94.31
315.083	103.31
315.312	79.31
315.542	84.31
315.771	103.31
316.001	88.31
316.23	88.31
316.46	93.31
316.689	96.31
316.919	97.31
317.148	101.31
317.377	93.31
317.607	93.31
317.836	88.31
318.065	88.31
318.295	85.31
318.524	89.31
318.753	88.31
318.983	85.31
319.212	77.31
319.441	108.31
319.67	98.31
319.9	87.31
320.129	97.31
320.358	96.31
320.587	105.31
320.816	85.31
321.046	87.31
321.275	97.31
321.504	89.31
321.733	93.31
321.962	78.31
322.191	83.31
322.42	98.31
322.649	105.31
322.878	98.31
323.108	105.31
323.337	105.31
323.566	132.31
323.795	148.31
324.024	198.31
324.253	363.31
324.482	827.31
324.71	1658.31
324.939	2177.31
325.168	801.31
325.397	232.31
325.626	147.31
325.855	143.31
326.084	123.31
326.313	125.31
326.542	157.31
326.77	224.31
326.999	450.31
327.228	937.31
327.457	1703.31
327.686	1320.31
327.914	351.31
328.143	187.31
328.372	153.31
328.6	125.31
328.829	129.31
329.058	116.31
329.287	137.31
329.515	107.31
329.744	91.31
329.972	92.31
330.201	105.31
330.43	97.31
330.658	112.31
330.887	116.31
331.115	104.31
331.344	96.31
331.572	116.31
331.801	96.31
332.03	85.31
332.258	90.31
332.486	88.31
332.715	91.31
332.943	98.31
333.172	96.31
333.4	90.31
333.629	101.31
333.857	111.31
334.085	114.31
334.314	88.31
334.542	97.31
334.771	89.31
334.999	89.31
335.227	75.31
335.455	92.31
335.684	100.31
335.912	83.31
336.14	96.31
336.369	89.31
336.597	83.31
336.825	88.31
337.053	97.31
337.281	77.31
337.51	88.31
337.738	96.31
337.966	101.31
338.194	78.31
338.422	88.31
338.65	99.31
338.878	89.31
339.106	84.31
339.334	80.31
339.562	84.31
339.79	76.31
340.018	93.31
340.246	85.31
340.474	98.31
340.702	100.31
340.93	95.31
341.158	92.31
341.386	82.31
341.614	84.31
341.842	90.31
342.07	81.31
342.298	90.31
342.526	85.31
342.754	88.31
342.981	74.31
343.209	71.31
343.437	97.31
343.665	90.31
343.893	84.31
344.12	81.31
344.348	91.31
344.576	89.31
344.804	86.31
345.031	95.31
345.259	93.31
345.487	110.31
345.714	100.31
345.942	75.31
346.17	84.31
346.397	93.31
346.625	86.31
346.853	98.31
347.08	80.31
347.308	92.31
347.535	93.31
347.763	98.31
347.99	100.31
348.218	91.31
348.445	99.31
348.673	101.31
348.9	96.31
349.128	83.31
349.355	95.31
349.583	91.31
349.81	79.31
350.037	82.31
350.265	93.31
350.492	84.31
350.72	86.31
350.947	110.31
351.174	88.31
351.402	106.31
351.629	98.31
351.856	89.31
352.083	110.31
352.311	91.31
352.538	95.31
352.765	113.31
352.992	106.31
353.22	101.31
353.447	100.31
353.674	83.31
353.901	88.31
354.128	99.31
354.355	93.31
354.583	95.31
354.81	99.31
355.037	99.31
355.264	88.31
355.491	92.31
355.718	92.31
355.945	100.31
356.172	96.31
356.399	113.31
356.626	90.31
356.853	90.31
357.08	88.31
357.307	99.31
357.534	76.31
357.761	95.31
357.988	96.31
358.215	94.31
358.441	84.31
358.668	82.31
358.895	86.31
359.122	91.31
359.349	91.31
359.576	82.31
359.802	103.31
360.029	104.31
360.256	104.31
360.483	95.31
360.709	79.31
360.936	74.31
361.163	92.31
361.39	95.31
361.616	80.31
361.843	77.31
362.07	94.31
362.296	85.31
362.523	91.31
362.749	87.31
362.976	94.31
363.203	104.31
363.429	99.31
363.656	87.31
363.882	88.31
364.109	99.31
364.335	85.31
364.562	75.31
364.788	91.31
365.015	85.31
365.241	98.31
365.468	99.31
365.694	100.31
365.92	92.31
366.147	99.31
366.373	88.31
366.599	82.31
366.826	83.31
367.052	94.31
367.278	89.31
367.505	96.31
367.731	102.31
367.957	85.31
368.184	86.31
368.41	95.31
368.636	102.31
368.862	103.31
369.089	112.31
369.315	99.31
369.541	89.31
369.767	94.31
369.993	85.31
370.219	75.31
370.445	88.31
370.672	79.31
370.898	78.31
371.124	87.31
371.35	84.31
371.576	100.31
371.802	98.31
372.028	80.31
372.254	79.31
372.48	84.31
372.706	85.31
372.932	84.31
373.158	93.31
373.384	85.31
373.61	89.31
373.835	94.31
374.061	89.31
374.287	76.31
374.513	84.31
374.739	73.31
374.965	91.31
375.191	95.31
375.416	83.31
375.642	81.31
375.868	76.31
376.094	87.31
376.319	73.31
376.545	81.31
376.771	73.31
376.997	84.31
377.222	91.31
377.448	88.31
377.674	79.31
377.899	86.31
378.125	91.31
378.35	90.31
378.576	88.31
378.802	82.31
379.027	77.31
379.253	107.31
379.478	95.31
379.704	89.31
379.929	85.31
380.155	87.31
380.38	89.31
380.606	86.31
380.831	90.31
381.057	114.31
381.282	96.31
381.507	95.31
381.733	85.31
381.958	99.31
382.184	84.31
382.409	101.31
382.634	99.31
382.86	91.31
383.085	93.31
383.31	92.31
383.535	106.31
383.761	105.31
383.986	111.31
384.211	101.31
384.436	99.31
384.662	93.31
384.887	95.31
385.112	84.31
385.337	101.31
385.562	95.31
385.787	96.31
386.013	92.31
386.238	102.31
386.463	106.31
386.688	99.31
386.913	87.31
387.138	87.31
387.363	98.31
387.588	89.31
387.813	92.31
388.038	100.31
388.263	105.31
388.488	104.31
388.713	85.31
388.938	107.31
389.163	96.31
389.387	103.31
389.612	98.31
389.837	81.31
390.062	81.31
390.287	92.31
390.512	89.31
390.736	83.31
390.961	81.31
391.186	80.31
391.411	84.31
391.636	83.31
391.86	86.31
392.085	83.31
392.31	80.31
392.534	97.31
392.759	88.31
392.984	66.31
393.208	85.31
393.433	96.31
393.658	85.31
393.882	76.31
394.107	68.31
394.331	100.31
394.556	74.31
394.78	84.31
395.005	82.31
395.229	97.31
395.454	87.31
395.678	85.31
395.903	88.31
396.127	95.31
396.352	84.31
396.576	77.31
396.801	99.31
397.025	84.31
397.249	93.31
397.474	90.31
397.698	75.31
397.922	85.31
398.147	77.31
398.371	80.31
398.595	81.31
398.82	84.31
399.044	88.31
399.268	100.31
399.492	78.31
399.717	76.31
399.941	87.31
400.165	94.31
400.389	89.31
400.613	99.31
400.837	71.31
401.062	72.31
401.286	97.31
401.51	87.31
401.734	81.31
401.958	83.31
402.182	109.31
402.406	158.31
402.63	120.31
402.854	95.31
403.078	86.31
403.302	101.31
403.526	101.31
403.75	83.31
403.974	89.31
404.198	83.31
404.422	88.31
404.645	85.31
404.869	80.31
405.093	88.31
405.317	80.31
405.541	80.31
405.765	93.31
405.988	94.31
406.212	143.31
406.436	204.31
406.66	131.31
406.883	99.31
407.107	84.31
407.331	93.31
407.555	93.31
407.778	95.31
408.002	82.31
408.226	93.31
408.449	95.31
408.673	89.31
408.896	94.31
409.12	87.31
409.344	83.31
409.567	83.31
409.791	74.31
410.014	81.31
410.238	83.31
410.461	83.31
410.685	78.31
410.908	92.31
411.132	97.31
411.355	101.31
411.578	92.31
411.802	94.31
412.025	67.31
412.249	97.31
412.472	88.31
412.695	98.31
412.919	93.31
413.142	90.31
413.365	75.31
413.589	93.31
413.812	88.31
414.035	79.31
414.258	71.31
414.482	84.31
414.705	86.31
414.928	93.31
415.151	86.31
415.374	84.31
415.597	87.31
415.821	85.31
416.044	99.31
416.267	86.31
416.49	80.31
416.713	92.31
416.936	66.31
417.159	79.31
417.382	92.31
417.605	81.31
417.828	92.31
418.051	77.31
418.274	81.31
418.497	80.31
418.72	88.31
418.943	87.31
419.166	77.31
419.389	79.31
419.611	88.31
419.834	88.31
420.057	79.31
420.28	87.31
420.503	80.31
420.726	90.31
420.948	87.31
421.171	89.31
421.394	104.31
421.617	99.31
421.839	81.31
422.062	87.31
422.285	94.31
422.507	83.31
422.73	90.31
422.953	69.31
423.175	85.31
423.398	80.31
423.621	75.31
423.843	89.31
424.066	83.31
424.288	88.31
424.511	77.31
424.733	98.31
424.956	101.31
425.178	93.31
425.401	93.31
425.623	83.31
425.846	92.31
426.068	83.31
426.291	93.31
426.513	84.31
426.735	89.31
426.958	84.31
427.18	96.31
427.402	124.31
427.625	162.31
427.847	115.31
428.069	111.31
428.292	79.31
428.514	79.31
428.736	84.31
428.958	83.31
429.181	87.31
429.403	84.31
429.625	84.31
429.847	96.31
430.069	92.31
430.292	91.31
430.514	89.31
430.736	84.31
430.958	77.31
431.18	77.31
431.402	99.31
431.624	92.31
431.846	82.31
432.068	95.31
432.29	79.31
432.512	83.31
432.734	81.31
432.956	86.31
433.178	85.31
433.4	98.31
433.622	91.31
433.844	95.31
434.066	74.31
434.287	86.31
434.509	74.31
434.731	84.31
434.953	70.31
435.175	80.31
435.397	83.31
435.618	80.31
435.84	91.31
436.062	131.31
436.284	107.31
436.505	87.31
436.727	113.31
436.949	88.31
437.17	85.31
437.392	85.31
437.614	88.31
437.835	89.31
438.057	99.31
438.278	104.31
438.5	95.31
438.721	112.31
438.943	97.31
439.165	83.31
439.386	90.31
439.608	79.31
439.829	93.31
440.05	121.31
440.272	139.31
440.493	95.31
440.715	97.31
440.936	89.31
441.158	84.31
441.379	83.31
441.6	84.31
441.822	88.31
442.043	82.31
442.264	96.31
442.486	93.31
442.707	95.31
442.928	93.31
443.149	118.31
443.371	124.31
443.592	103.31
443.813	100.31
444.034	104.31
444.255	80.31
444.476	81.31
444.698	99.31
444.919	84.31
445.14	120.31
445.361	116.31
445.582	105.31
445.803	116.31
446.024	109.31
446.245	122.31
446.466	95.31
446.687	96.31
446.908	95.31
447.129	77.31
447.35	91.31
447.571	91.31
447.792	94.31
448.013	89.31
448.234	100.31
448.455	105.31
448.675	112.31
448.896	99.31
449.117	101.31
449.338	108.31
449.559	118.31
449.779	123.31
450	78.31
450.221	80.31
450.442	87.31
450.662	88.31
450.883	102.31
451.104	92.31
451.324	81.31
451.545	99.31
451.766	91.31
451.986	80.31
452.207	84.31
452.428	106.31
452.648	95.31
452.869	99.31
453.089	104.31
453.31	111.31
453.53	81.31
453.751	91.31
453.971	92.31
454.192	101.31
454.412	102.31
454.633	87.31
454.853	77.31
455.073	91.31
455.294	88.31
455.514	61.31
455.734	91.31
455.955	85.31
456.175	93.31
456.395	91.31
456.616	91.31
456.836	86.31
457.056	74.31
457.276	72.31
457.497	75.31
457.717	91.31
457.937	83.31
458.157	82.31
458.377	91.31
458.598	102.31
458.818	126.31
459.038	140.31
459.258	126.31
459.478	85.31
459.698	82.31
459.918	77.31
460.138	88.31
460.358	91.31
460.578	87.31
460.798	89.31
461.018	85.31
461.238	89.31
461.458	89.31
461.678	100.31
461.898	70.31
462.118	91.31
462.338	84.31
462.558	87.31
462.777	87.31
462.997	83.31
463.217	71.31
463.437	85.31
463.657	77.31
463.876	83.31
464.096	81.31
464.316	91.31
464.536	92.31
464.755	91.31
464.975	105.31
465.195	152.31
465.414	139.31
465.634	93.31
465.854	90.31
466.073	92.31
466.293	79.31
466.512	82.31
466.732	93.31
466.951	79.31
467.171	89.31
467.391	84.31
467.61	88.31
467.829	90.31
468.049	98.31
468.268	89.31
468.488	83.31
468.707	82.31
468.927	90.31
469.146	81.31
469.365	82.31
469.585	84.31
469.804	90.31
470.023	79.31
470.243	66.31
470.462	92.31
470.681	90.31
470.901	80.31
471.12	83.31
471.339	92.31
471.558	89.31
471.777	76.31
471.997	82.31
472.216	84.31
472.435	71.31
472.654	76.31
472.873	77.31
473.092	78.31
473.311	87.31
473.53	69.31
473.749	72.31
473.968	92.31
474.187	81.31
474.406	85.31
474.625	84.31
474.844	86.31
475.063	84.31
475.282	83.31
475.501	93.31
475.72	93.31
475.939	75.31
476.158	69.31
476.377	68.31
476.596	104.31
476.814	100.31
477.033	100.31
477.252	91.31
477.471	92.31
477.69	86.31
477.908	83.31
478.127	97.31
478.346	88.31
478.564	96.31
478.783	89.31
479.002	80.31
479.22	91.31
479.439	98.31
479.658	79.31
479.876	98.31
480.095	88.31
480.313	100.31
480.532	73.31
480.751	97.31
480.969	79.31
481.188	88.31
481.406	86.31
481.624	83.31
481.843	88.31
482.061	83.31
482.28	75.31
482.498	85.31
482.717	91.31
482.935	85.31
483.153	86.31
483.372	95.31
483.59	91.31
483.808	78.31
484.027	89.31
484.245	91.31
484.463	87.31
484.681	88.31
484.9	90.31
485.118	89.31
485.336	98.31
485.554	87.31
485.772	95.31
485.99	95.31
486.209	101.31
486.427	96.31
486.645	99.31
486.863	103.31
487.081	91.31
487.299	91.31
487.517	79.31
487.735	91.31
487.953	95.31
488.171	82.31
488.389	96.31
488.607	110.31
488.825	96.31
489.043	72.31
489.261	81.31
489.479	89.31
489.696	92.31
489.914	95.31
490.132	89.31
490.35	77.31
490.568	91.31
490.786	87.31
491.003	84.31
491.221	91.31
491.439	98.31
491.657	85.31
491.874	89.31
492.092	97.31
492.31	99.31
492.527	83.31
492.745	81.31
492.963	83.31
493.18	77.31
493.398	101.31
493.615	97.31
493.833	99.31
494.05	97.31
494.268	91.31
494.485	79.31
494.703	88.31
494.92	76.31
495.138	70.31
495.355	90.31
495.573	85.31
495.79	77.31
496.008	77.31
496.225	95.31
496.442	85.31
496.66	97.31
496.877	77.31
497.094	95.31
497.312	92.31
497.529	98.31
497.746	102.31
497.963	91.31
498.181	97.31
498.398	103.31
498.615	95.31
498.832	100.31
499.049	90.31
499.267	79.31
499.484	83.31
499.701	87.31
499.918	84.31
500.135	90.31
500.352	92.31
500.569	93.31
500.786	88.31
501.003	85.31
501.22	90.31
501.437	74.31
501.654	98.31
501.871	106.31
502.088	100.31
502.305	86.31
502.522	74.31
502.739	92.31
502.956	94.31
503.172	93.31
503.389	94.31
503.606	90.31
503.823	80.31
504.04	86.31
504.256	79.31
504.473	86.31
504.69	92.31
504.907	91.31
505.123	79.31
505.34	93.31
505.557	80.31
505.773	82.31
505.99	84.31
506.207	99.31
506.423	87.31
506.64	93.31
506.856	89.31
507.073	89.31
507.289	95.31
507.506	95.31
507.722	102.31
507.939	118.31
508.155	97.31
508.372	94.31
508.588	96.31
508.805	89.31
509.021	84.31
509.238	82.31
509.454	102.31
509.67	97.31
509.887	105.31
510.103	125.31
510.319	171.31
510.536	708.31
510.752	2174.31
510.968	605.31
511.184	157.31
511.401	109.31
511.617	100.31
511.833	86.31
512.049	89.31
512.265	93.31
512.481	97.31
512.698	95.31
512.914	92.31
513.13	100.31
513.346	104.31
513.562	100.31
513.778	96.31
513.994	93.31
514.21	94.31
514.426	113.31
514.642	117.31
514.858	116.31
515.074	162.31
515.29	415.31
515.506	1343.31
515.721	491.31
515.937	161.31
516.153	105.31
516.369	94.31
516.585	81.31
516.801	92.31
517.016	106.31
517.232	87.31
517.448	102.31
517.664	85.31
517.879	97.31
518.095	90.31
518.311	93.31
518.527	74.31
518.742	82.31
518.958	113.31
519.173	95.31
519.389	98.31
519.605	80.31
519.82	96.31
520.036	102.31
520.251	123.31
520.467	103.31
520.682	100.31
520.898	122.31
521.113	124.31
521.329	123.31
521.544	188.31
521.76	492.31
521.975	2121.31
522.19	1311.31
522.406	284.31
522.621	124.31
522.836	90.31
523.052	81.31
523.267	104.31
523.482	85.31
523.698	95.31
523.913	119.31
524.128	95.31
524.343	89.31
524.559	99.31
524.774	95.31
524.989	84.31
525.204	89.31
525.419	99.31
525.634	96.31
525.849	88.31
526.064	79.31
526.28	89.31
526.495	80.31
526.71	101.31
526.925	99.31
527.14	80.31
527.355	65.31
527.57	82.31
527.785	87.31
527.999	79.31
528.214	88.31
528.429	99.31
528.644	85.31
528.859	84.31
529.074	79.31
529.289	120.31
529.503	157.31
529.718	100.31
529.933	68.31
530.148	88.31
530.363	95.31
530.577	88.31
530.792	94.31
531.007	97.31
531.221	93.31
531.436	93.31
531.651	94.31
531.865	83.31
532.08	96.31
532.295	88.31
532.509	96.31
532.724	89.31
532.938	95.31
533.153	86.31
533.367	97.31
533.582	74.31
533.796	79.31
534.011	83.31
534.225	95.31
534.44	96.31
534.654	87.31
534.868	90.31
535.083	94.31
535.297	97.31
535.511	85.31
535.726	110.31
535.94	103.31
536.154	99.31
536.369	99.31
536.583	98.31
536.797	95.31
537.011	104.31
537.225	96.31
537.44	93.31
537.654	111.31
537.868	96.31
538.082	84.31
538.296	92.31
538.51	92.31
538.724	87.31
538.938	107.31
539.153	94.31
539.367	82.31
539.581	76.31
539.795	92.31
540.009	85.31
540.222	88.31
540.436	93.31
540.65	94.31
540.864	89.31
541.078	85.31
541.292	85.31
541.506	98.31
541.72	81.31
541.934	93.31
542.147	100.31
542.361	88.31
542.575	92.31
542.789	88.31
543.002	79.31
543.216	82.31
543.43	103.31
543.644	107.31
543.857	88.31
544.071	85.31
544.285	84.31
544.498	86.31
544.712	95.31
544.925	92.31
545.139	84.31
545.352	91.31
545.566	85.31
545.779	82.31
545.993	82.31
546.206	90.31
546.42	89.31
546.633	78.31
546.847	92.31
547.06	83.31
547.274	83.31
547.487	95.31
547.7	76.31
547.914	84.31
548.127	85.31
548.34	80.31
548.554	85.31
548.767	103.31
548.98	99.31
549.193	87.31
549.407	87.31
549.62	86.31
549.833	91.31
550.046	80.31
550.259	73.31
550.473	96.31
550.686	91.31
550.899	85.31
551.112	81.31
551.325	76.31
551.538	86.31
551.751	84.31
551.964	83.31
552.177	79.31
552.39	85.31
552.603	92.31
552.816	102.31
553.029	76.31
553.242	91.31
553.455	101.31
553.667	100.31
553.88	92.31
554.093	95.31
554.306	93.31
554.519	84.31
554.732	84.31
554.944	88.31
555.157	80.31
555.37	83.31
555.583	88.31
555.795	87.31
556.008	96.31
556.221	86.31
556.433	71.31
556.646	91.31
556.859	93.31
557.071	85.31
557.284	80.31
557.496	89.31
557.709	84.31
557.921	88.31
558.134	76.31
558.346	76.31
558.559	73.31
558.771	84.31
558.984	94.31
559.196	83.31
559.409	77.31
559.621	103.31
559.833	86.31
560.046	95.31
560.258	77.31
560.47	99.31
560.683	84.31
560.895	79.31
561.107	88.31
561.32	83.31
561.532	89.31
561.744	98.31
561.956	89.31
562.168	87.31
562.381	87.31
562.593	89.31
562.805	84.31
563.017	94.31
563.229	72.31
563.441	80.31
563.653	87.31
563.865	84.31
564.077	91.31
564.289	87.31
564.501	82.31
564.713	86.31
564.925	93.31
565.137	98.31
565.349	82.31
565.561	90.31
565.773	91.31
565.985	90.31
566.197	76.31
566.408	83.31
566.62	92.31
566.832	96.31
567.044	91.31
567.255	90.31
567.467	75.31
567.679	80.31
567.891	94.31
568.102	91.31
568.314	101.31
568.526	87.31
568.737	83.31
568.949	90.31
569.161	89.31
569.372	67.31
569.584	81.31
569.795	89.31
570.007	112.31
570.218	234.31
570.43	147.31
570.641	97.31
570.853	84.31
571.064	83.31
571.276	91.31
571.487	87.31
571.698	77.31
571.91	80.31
572.121	85.31
572.333	96.31
572.544	95.31
572.755	79.31
572.966	93.31
573.178	89.31
573.389	85.31
573.6	96.31
573.811	91.31
574.023	91.31
574.234	91.31
574.445	88.31
574.656	80.31
574.867	64.31
575.078	91.31
575.289	102.31
575.501	77.31
575.712	79.31
575.923	92.31
576.134	87.31
576.345	100.31
576.556	97.31
576.767	93.31
576.978	96.31
577.188	84.31
577.399	98.31
577.61	95.31
577.821	108.31
578.032	125.31
578.243	265.31
578.454	728.31
578.665	202.31
578.875	89.31
579.086	95.31
579.297	81.31
579.508	79.31
579.718	91.31
579.929	88.31
580.14	83.31
580.35	81.31
580.561	84.31
580.772	94.31
580.982	101.31
581.193	89.31
581.403	92.31
581.614	83.31
581.825	79.31
582.035	76.31
582.246	78.31
582.456	83.31
582.667	88.31
582.877	84.31
583.087	89.31
583.298	79.31
583.508	88.31
583.719	95.31
583.929	91.31
584.139	66.31
584.35	75.31
584.56	84.31
584.77	89.31
584.981	85.31
585.191	83.31
585.401	78.31
585.611	81.31
585.821	88.31
586.032	83.31
586.242	80.31
586.452	100.31
586.662	101.31
586.872	86.31
587.082	88.31
587.292	76.31
587.502	86.31
587.713	81.31
587.923	79.31
588.133	108.31
588.343	86.31
588.553	82.31
588.762	91.31
588.972	75.31
589.182	96.31
589.392	96.31
589.602	90.31
589.812	81.31
590.022	73.31
590.232	81.31
590.441	80.31
590.651	98.31
590.861	83.31
591.071	78.31
591.281	76.31
591.49	109.31
591.7	72.31
591.91	86.31
592.119	90.31
592.329	73.31
592.539	91.31
592.748	93.31
592.958	96.31
593.167	97.31
593.377	95.31
593.587	84.31
593.796	80.31
594.006	79.31
594.215	85.31
594.424	83.31
594.634	86.31
594.843	84.31
595.053	82.31
595.262	77.31
595.472	86.31
595.681	89.31
595.89	65.31
596.1	87.31
596.309	93.31
596.518	77.31
596.727	84.31
596.937	83.31
597.146	74.31
597.355	80.31
597.564	76.31
597.774	86.31
597.983	87.31
598.192	71.31
598.401	91.31
598.61	89.31
598.819	84.31
599.028	69.31
599.237	84.31
599.446	95.31
599.655	73.31
599.864	80.31
600.073	74.31
600.282	89.31
600.491	77.31
600.7	84.31
600.909	84.31
601.118	91.31
601.327	93.31
601.536	80.31
601.745	81.31
601.953	84.31
602.162	75.31
602.371	88.31
602.58	80.31
602.789	89.31
602.997	82.31
603.206	91.31
603.415	98.31
603.623	83.31
603.832	90.31
604.041	73.31
604.249	80.31
604.458	89.31
604.666	90.31
604.875	81.31
605.084	83.31
605.292	80.31
605.501	90.31
605.709	84.31
605.918	75.31
606.126	84.31
606.334	91.31
606.543	75.31
606.751	88.31
606.96	103.31
607.168	95.31
607.376	85.31
607.585	93.31
607.793	95.31
608.001	96.31
608.21	83.31
608.418	99.31
608.626	79.31
608.834	85.31
609.043	91.31
609.251	84.31
609.459	88.31
609.667	68.31
609.875	83.31
610.083	77.31
610.291	90.31
610.499	99.31
610.707	95.31
610.916	79.31
611.124	86.31
611.332	73.31
611.54	80.31
611.748	77.31
611.955	76.31
612.163	72.31
612.371	90.31
612.579	81.31
612.787	90.31
612.995	89.31
613.203	90.31
613.411	90.31
613.618	86.31
613.826	78.31
614.034	99.31
614.242	82.31
614.449	72.31
614.657	87.31
614.865	84.31
615.072	87.31
615.28	80.31
615.488	84.31
615.695	80.31
615.903	100.31
616.111	87.31
616.318	103.31
616.526	88.31
616.733	86.31
616.941	88.31
617.148	90.31
617.356	84.31
617.563	86.31
617.771	85.31
617.978	74.31
618.185	96.31
618.393	84.31
618.6	82.31
618.807	88.31
619.015	79.31
619.222	81.31
619.429	75.31
619.637	91.31
619.844	86.31
620.051	87.31
620.258	86.31
620.466	72.31
620.673	79.31
620.88	79.31
621.087	81.31
621.294	76.31
621.501	70.31
621.708	82.31
621.915	72.31
622.122	90.31
622.329	92.31
622.536	88.31
622.743	87.31
622.95	76.31
623.157	96.31
623.364	73.31
623.571	92.31
623.778	84.31
623.985	75.31
624.192	64.31
624.399	84.31
624.606	88.31
624.812	96.31
625.019	83.31
625.226	90.31
625.433	85.31
625.639	82.31
625.846	87.31
626.053	82.31
626.259	80.31
626.466	75.31
626.673	73.31
626.879	88.31
627.086	85.31
627.293	87.31
627.499	82.31
627.706	92.31
627.912	73.31
628.119	80.31
628.325	87.31
628.532	84.31
628.738	87.31
628.945	77.31
629.151	89.31
629.357	74.31
629.564	71.31
629.77	88.31
629.976	83.31
630.183	90.31
630.389	77.31
630.595	67.31
630.802	82.31
631.008	76.31
631.214	68.31
631.42	80.31
631.627	83.31
631.833	75.31
632.039	72.31
632.245	74.31
632.451	84.31
632.657	89.31
632.863	73.31
633.069	76.31
633.275	85.31
633.481	85.31
633.688	76.31
633.893	79.31
634.099	87.31
634.305	85.31
634.511	75.31
634.717	76.31
634.923	87.31
635.129	81.31
635.335	84.31
635.541	85.31
635.747	84.31
635.952	74.31
636.158	81.31
636.364	100.31
636.57	91.31
636.775	83.31
636.981	91.31
637.187	81.31
637.392	80.31
637.598	89.31
637.804	94.31
638.009	79.31
638.215	88.31
638.421	80.31
638.626	95.31
638.832	80.31
639.037	94.31
639.243	85.31
639.448	84.31
639.654	84.31
639.859	85.31
640.065	68.31
640.27	90.31
640.475	81.31
640.681	71.31
640.886	84.31
641.091	62.31
641.297	84.31
641.502	81.31
641.707	84.31
641.913	89.31
642.118	91.31
642.323	97.31
642.528	96.31
642.733	80.31
642.939	82.31
643.144	86.31
643.349	74.31
643.554	79.31
643.759	77.31
643.964	87.31
644.169	86.31
644.374	77.31
644.579	75.31
644.784	68.31
644.989	83.31
645.194	74.31
645.399	79.31
645.604	91.31
645.809	79.31
646.014	76.31
646.219	76.31
646.423	78.31
646.628	87.31
646.833	78.31
647.038	81.31
647.243	86.31
647.447	81.31
647.652	78.31
647.857	86.31
648.062	92.31
648.266	72.31
648.471	84.31
648.676	95.31
648.88	101.31
649.085	83.31
649.289	97.31
649.494	93.31
649.698	115.31
649.903	95.31
650.107	77.31
650.312	103.31
650.516	84.31
650.721	82.31
650.925	87.31
651.13	84.31
651.334	83.31
651.539	91.31
651.743	93.31
651.947	78.31
652.152	75.31
652.356	82.31
652.56	91.31
652.764	75.31
652.969	79.31
653.173	86.31
653.377	82.31
653.581	72.31
653.785	92.31
653.99	81.31
654.194	72.31
654.398	77.31
654.602	82.31
654.806	79.31
655.01	92.31
655.214	86.31
655.418	79.31
655.622	75.31
655.826	92.31
656.03	91.31
656.234	86.31
656.438	100.31
656.642	96.31
656.846	97.31
657.049	75.31
657.253	70.31
657.457	90.31
657.661	79.31
657.865	84.31
658.068	81.31
658.272	92.31
658.476	71.31
658.68	80.31
658.883	96.31
659.087	85.31
659.291	93.31
659.494	82.31
659.698	83.31
659.901	93.31
660.105	73.31
660.309	68.31
660.512	83.31
660.716	62.31
660.919	76.31
661.123	87.31
661.326	76.31
661.53	82.31
661.733	89.31
661.936	91.31
662.14	85.31
662.343	79.31
662.546	80.31
662.75	64.31
662.953	79.31
663.156	85.31
663.36	85.31
663.563	86.31
663.766	97.31
663.969	84.31
664.173	75.31
664.376	72.31
664.579	89.31
664.782	67.31
664.985	81.31
665.188	74.31
665.391	76.31
665.594	72.31
665.797	69.31
666	70.31
666.203	92.31
666.406	65.31
666.609	78.31
666.812	69.31
667.015	74.31
667.218	74.31
667.421	77.31
667.624	77.31
667.827	69.31
668.03	93.31
668.232	68.31
668.435	75.31
668.638	73.31
668.841	82.31
669.043	84.31
669.246	82.31
669.449	85.31
669.651	67.31
669.854	78.31
670.057	76.31
670.259	78.31
670.462	83.31
670.665	83.31
670.867	74.31
671.07	78.31
671.272	80.31
671.475	75.31
671.677	83.31
671.88	79.31
672.082	67.31
672.284	78.31
672.487	76.31
672.689	73.31
672.892	68.31
