Data from Uncirc_2006_H10_HRD10591_00081.txt Node
Date: Wed Jan 03 10:25:11 EST 2024
User: Yrep
Spectrometer: HR+D1059
Trigger mode: 1
Integration Time (sec): 1.000000E-1
Scans to average: 1
Electric dark correction enabled: true
Nonlinearity correction enabled: false
Boxcar width: 0
XAxis mode: Wavelengths
Number of Pixels in Spectrum: 2048
>>>>>Begin Spectral Data<<<<<
223.165	-18.19
223.4	-18.19
223.635	-18.19
223.869	-11.19
224.104	-5.19
224.338	-14.19
224.573	-24.19
224.808	-12.19
225.042	-5.19
225.277	-4.19
225.511	-15.19
225.746	-3.19
225.98	6.81
226.215	1.81
226.449	12.81
226.683	17.81
226.918	34.81
227.152	38.81
227.387	35.81
227.621	46.81
227.856	42.81
228.09	48.81
228.324	48.81
228.559	56.81
228.793	52.81
229.027	58.81
229.262	56.81
229.496	72.81
229.73	80.81
229.964	88.81
230.199	80.81
230.433	77.81
230.667	80.81
230.901	79.81
231.136	83.81
231.37	82.81
231.604	79.81
231.838	84.81
232.072	82.81
232.306	75.81
232.541	95.81
232.775	75.81
233.009	86.81
233.243	86.81
233.477	80.81
233.711	77.81
233.945	78.81
234.179	84.81
234.413	92.81
234.647	70.81
234.881	65.81
235.115	83.81
235.349	89.81
235.583	87.81
235.817	77.81
236.051	83.81
236.285	89.81
236.519	74.81
236.753	90.81
236.987	79.81
237.221	82.81
237.455	73.81
237.689	76.81
237.922	69.81
238.156	91.81
238.39	82.81
238.624	73.81
238.858	71.81
239.091	75.81
239.325	76.81
239.559	72.81
239.793	79.81
240.027	79.81
240.26	78.81
240.494	65.81
240.728	86.81
240.961	81.81
241.195	69.81
241.429	84.81
241.662	81.81
241.896	76.81
242.13	84.81
242.363	75.81
242.597	76.81
242.83	82.81
243.064	73.81
243.298	67.81
243.531	75.81
243.765	76.81
243.998	81.81
244.232	76.81
244.465	67.81
244.699	87.81
244.932	71.81
245.166	75.81
245.399	64.81
245.633	76.81
245.866	79.81
246.099	81.81
246.333	91.81
246.566	85.81
246.8	74.81
247.033	77.81
247.266	72.81
247.5	74.81
247.733	82.81
247.966	95.81
248.2	83.81
248.433	67.81
248.666	81.81
248.899	85.81
249.133	85.81
249.366	93.81
249.599	100.81
249.832	74.81
250.066	77.81
250.299	72.81
250.532	66.81
250.765	85.81
250.998	83.81
251.231	71.81
251.465	84.81
251.698	79.81
251.931	72.81
252.164	76.81
252.397	68.81
252.63	77.81
252.863	79.81
253.096	72.81
253.329	69.81
253.562	75.81
253.795	84.81
254.028	79.81
254.261	69.81
254.494	74.81
254.727	94.81
254.96	76.81
255.193	86.81
255.426	65.81
255.659	75.81
255.892	87.81
256.124	74.81
256.357	84.81
256.59	82.81
256.823	66.81
257.056	79.81
257.289	88.81
257.521	74.81
257.754	80.81
257.987	71.81
258.22	80.81
258.452	75.81
258.685	67.81
258.918	91.81
259.151	68.81
259.383	82.81
259.616	85.81
259.849	77.81
260.081	75.81
260.314	83.81
260.547	89.81
260.779	81.81
261.012	80.81
261.244	91.81
261.477	96.81
261.71	82.81
261.942	110.81
262.175	125.81
262.407	87.81
262.64	96.81
262.872	84.81
263.105	81.81
263.337	87.81
263.57	96.81
263.802	96.81
264.035	95.81
264.267	76.81
264.499	97.81
264.732	87.81
264.964	67.81
265.197	88.81
265.429	70.81
265.661	96.81
265.894	74.81
266.126	86.81
266.358	81.81
266.591	88.81
266.823	72.81
267.055	79.81
267.287	72.81
267.52	70.81
267.752	85.81
267.984	80.81
268.216	94.81
268.448	84.81
268.681	86.81
268.913	91.81
269.145	76.81
269.377	81.81
269.609	97.81
269.841	94.81
270.073	88.81
270.306	74.81
270.538	83.81
270.77	73.81
271.002	83.81
271.234	80.81
271.466	79.81
271.698	69.81
271.93	82.81
272.162	84.81
272.394	101.81
272.626	85.81
272.858	91.81
273.09	81.81
273.322	75.81
273.553	94.81
273.785	80.81
274.017	87.81
274.249	89.81
274.481	82.81
274.713	86.81
274.945	81.81
275.176	83.81
275.408	78.81
275.64	86.81
275.872	88.81
276.104	96.81
276.335	83.81
276.567	101.81
276.799	99.81
277.031	88.81
277.262	93.81
277.494	92.81
277.726	83.81
277.957	80.81
278.189	91.81
278.421	87.81
278.652	88.81
278.884	86.81
279.115	90.81
279.347	70.81
279.579	77.81
279.81	93.81
280.042	85.81
280.273	99.81
280.505	95.81
280.736	86.81
280.968	85.81
281.199	84.81
281.431	91.81
281.662	88.81
281.894	82.81
282.125	84.81
282.356	109.81
282.588	131.81
282.819	113.81
283.051	92.81
283.282	77.81
283.513	75.81
283.745	92.81
283.976	76.81
284.207	84.81
284.439	97.81
284.67	91.81
284.901	101.81
285.132	83.81
285.364	88.81
285.595	85.81
285.826	83.81
286.057	80.81
286.288	97.81
286.52	90.81
286.751	82.81
286.982	73.81
287.213	90.81
287.444	90.81
287.675	92.81
287.906	81.81
288.138	81.81
288.369	91.81
288.6	102.81
288.831	81.81
289.062	80.81
289.293	80.81
289.524	89.81
289.755	90.81
289.986	86.81
290.217	89.81
290.448	86.81
290.679	80.81
290.91	108.81
291.141	91.81
291.371	80.81
291.602	88.81
291.833	69.81
292.064	82.81
292.295	82.81
292.526	85.81
292.757	89.81
292.987	82.81
293.218	94.81
293.449	92.81
293.68	81.81
293.91	72.81
294.141	102.81
294.372	85.81
294.603	96.81
294.833	93.81
295.064	85.81
295.295	86.81
295.525	89.81
295.756	105.81
295.987	105.81
296.217	121.81
296.448	112.81
296.679	84.81
296.909	97.81
297.14	79.81
297.37	82.81
297.601	90.81
297.831	79.81
298.062	95.81
298.292	96.81
298.523	94.81
298.753	91.81
298.984	89.81
299.214	87.81
299.445	88.81
299.675	90.81
299.905	98.81
300.136	88.81
300.366	92.81
300.597	83.81
300.827	89.81
301.057	94.81
301.288	108.81
301.518	85.81
301.748	91.81
301.979	111.81
302.209	88.81
302.439	95.81
302.669	103.81
302.9	96.81
303.13	84.81
303.36	95.81
303.59	80.81
303.82	82.81
304.051	98.81
304.281	89.81
304.511	82.81
304.741	83.81
304.971	91.81
305.201	88.81
305.431	84.81
305.661	87.81
305.891	98.81
306.121	89.81
306.352	97.81
306.582	106.81
306.812	86.81
307.042	86.81
307.272	97.81
307.502	98.81
307.731	107.81
307.961	104.81
308.191	87.81
308.421	107.81
308.651	107.81
308.881	94.81
309.111	91.81
309.341	88.81
309.571	87.81
309.8	94.81
310.03	107.81
310.26	101.81
310.49	84.81
310.72	87.81
310.949	94.81
311.179	82.81
311.409	86.81
311.639	85.81
311.868	85.81
312.098	79.81
312.328	98.81
312.557	90.81
312.787	103.81
313.017	102.81
313.246	85.81
313.476	82.81
313.706	79.81
313.935	107.81
314.165	91.81
314.394	92.81
314.624	108.81
314.853	94.81
315.083	95.81
315.312	92.81
315.542	108.81
315.771	102.81
316.001	97.81
316.23	90.81
316.46	95.81
316.689	98.81
316.919	87.81
317.148	81.81
317.377	78.81
317.607	89.81
317.836	86.81
318.065	89.81
318.295	84.81
318.524	83.81
318.753	92.81
318.983	96.81
319.212	83.81
319.441	105.81
319.67	98.81
319.9	87.81
320.129	98.81
320.358	88.81
320.587	75.81
320.816	98.81
321.046	98.81
321.275	91.81
321.504	105.81
321.733	96.81
321.962	96.81
322.191	94.81
322.42	115.81
322.649	103.81
322.878	114.81
323.108	119.81
323.337	117.81
323.566	130.81
323.795	142.81
324.024	199.81
324.253	376.81
324.482	803.81
324.71	1628.81
324.939	2133.81
325.168	796.81
325.397	240.81
325.626	135.81
325.855	130.81
326.084	122.81
326.313	125.81
326.542	150.81
326.77	207.81
326.999	419.81
327.228	926.81
327.457	1710.81
327.686	1330.81
327.914	348.81
328.143	168.81
328.372	139.81
328.6	120.81
328.829	125.81
329.058	116.81
329.287	114.81
329.515	112.81
329.744	89.81
329.972	107.81
330.201	109.81
330.43	111.81
330.658	124.81
330.887	128.81
331.115	115.81
331.344	100.81
331.572	93.81
331.801	102.81
332.03	100.81
332.258	92.81
332.486	94.81
332.715	100.81
332.943	94.81
333.172	96.81
333.4	99.81
333.629	111.81
333.857	94.81
334.085	96.81
334.314	84.81
334.542	76.81
334.771	94.81
334.999	89.81
335.227	80.81
335.455	94.81
335.684	109.81
335.912	93.81
336.14	88.81
336.369	88.81
336.597	87.81
336.825	98.81
337.053	98.81
337.281	88.81
337.51	92.81
337.738	87.81
337.966	84.81
338.194	87.81
338.422	94.81
338.65	97.81
338.878	88.81
339.106	86.81
339.334	91.81
339.562	84.81
339.79	85.81
340.018	90.81
340.246	100.81
340.474	102.81
340.702	96.81
340.93	89.81
341.158	88.81
341.386	90.81
341.614	91.81
341.842	109.81
342.07	105.81
342.298	93.81
342.526	103.81
342.754	93.81
342.981	93.81
343.209	73.81
343.437	93.81
343.665	88.81
343.893	87.81
344.12	96.81
344.348	85.81
344.576	95.81
344.804	81.81
345.031	94.81
345.259	106.81
345.487	79.81
345.714	95.81
345.942	95.81
346.17	82.81
346.397	85.81
346.625	81.81
346.853	93.81
347.08	82.81
347.308	91.81
347.535	100.81
347.763	106.81
347.99	99.81
348.218	112.81
348.445	103.81
348.673	90.81
348.9	94.81
349.128	101.81
349.355	106.81
349.583	94.81
349.81	90.81
350.037	100.81
350.265	101.81
350.492	104.81
350.72	99.81
350.947	110.81
351.174	92.81
351.402	99.81
351.629	103.81
351.856	92.81
352.083	110.81
352.311	101.81
352.538	99.81
352.765	112.81
352.992	117.81
353.22	119.81
353.447	96.81
353.674	106.81
353.901	102.81
354.128	99.81
354.355	95.81
354.583	95.81
354.81	113.81
355.037	106.81
355.264	90.81
355.491	95.81
355.718	90.81
355.945	98.81
356.172	90.81
356.399	98.81
356.626	94.81
356.853	98.81
357.08	87.81
357.307	100.81
357.534	88.81
357.761	79.81
357.988	87.81
358.215	98.81
358.441	88.81
358.668	84.81
358.895	79.81
359.122	81.81
359.349	87.81
359.576	97.81
359.802	100.81
360.029	112.81
360.256	107.81
360.483	96.81
360.709	77.81
360.936	93.81
361.163	92.81
361.39	97.81
361.616	88.81
361.843	86.81
362.07	101.81
362.296	93.81
362.523	90.81
362.749	84.81
362.976	96.81
363.203	98.81
363.429	96.81
363.656	96.81
363.882	97.81
364.109	98.81
364.335	89.81
364.562	87.81
364.788	84.81
365.015	96.81
365.241	100.81
365.468	96.81
365.694	108.81
365.92	88.81
366.147	94.81
366.373	89.81
366.599	79.81
366.826	86.81
367.052	99.81
367.278	97.81
367.505	97.81
367.731	95.81
367.957	92.81
368.184	88.81
368.41	85.81
368.636	106.81
368.862	135.81
369.089	103.81
369.315	89.81
369.541	84.81
369.767	100.81
369.993	86.81
370.219	78.81
370.445	91.81
370.672	86.81
370.898	85.81
371.124	110.81
371.35	84.81
371.576	90.81
371.802	82.81
372.028	85.81
372.254	85.81
372.48	86.81
372.706	84.81
372.932	99.81
373.158	90.81
373.384	97.81
373.61	92.81
373.835	89.81
374.061	102.81
374.287	86.81
374.513	93.81
374.739	91.81
374.965	102.81
375.191	91.81
375.416	93.81
375.642	96.81
375.868	92.81
376.094	88.81
376.319	83.81
376.545	110.81
376.771	100.81
376.997	85.81
377.222	81.81
377.448	101.81
377.674	92.81
377.899	88.81
378.125	86.81
378.35	73.81
378.576	74.81
378.802	82.81
379.027	87.81
379.253	94.81
379.478	96.81
379.704	86.81
379.929	90.81
380.155	96.81
380.38	91.81
380.606	99.81
380.831	94.81
381.057	99.81
381.282	98.81
381.507	102.81
381.733	85.81
381.958	95.81
382.184	92.81
382.409	97.81
382.634	98.81
382.86	103.81
383.085	99.81
383.31	95.81
383.535	95.81
383.761	82.81
383.986	94.81
384.211	97.81
384.436	92.81
384.662	100.81
384.887	97.81
385.112	92.81
385.337	96.81
385.562	102.81
385.787	110.81
386.013	109.81
386.238	99.81
386.463	99.81
386.688	101.81
386.913	97.81
387.138	96.81
387.363	98.81
387.588	84.81
387.813	98.81
388.038	88.81
388.263	102.81
388.488	101.81
388.713	99.81
388.938	96.81
389.163	101.81
389.387	92.81
389.612	97.81
389.837	85.81
390.062	89.81
390.287	97.81
390.512	94.81
390.736	92.81
390.961	91.81
391.186	98.81
391.411	94.81
391.636	96.81
391.86	94.81
392.085	80.81
392.31	74.81
392.534	90.81
392.759	92.81
392.984	70.81
393.208	101.81
393.433	100.81
393.658	74.81
393.882	68.81
394.107	95.81
394.331	94.81
394.556	80.81
394.78	96.81
395.005	86.81
395.229	85.81
395.454	93.81
395.678	68.81
395.903	78.81
396.127	100.81
396.352	87.81
396.576	74.81
396.801	81.81
397.025	82.81
397.249	88.81
397.474	92.81
397.698	79.81
397.922	86.81
398.147	82.81
398.371	87.81
398.595	80.81
398.82	83.81
399.044	71.81
399.268	82.81
399.492	87.81
399.717	87.81
399.941	74.81
400.165	99.81
400.389	91.81
400.613	83.81
400.837	78.81
401.062	83.81
401.286	93.81
401.51	84.81
401.734	75.81
401.958	102.81
402.182	127.81
402.406	144.81
402.63	124.81
402.854	85.81
403.078	83.81
403.302	80.81
403.526	79.81
403.75	80.81
403.974	81.81
404.198	84.81
404.422	84.81
404.645	102.81
404.869	98.81
405.093	95.81
405.317	93.81
405.541	94.81
405.765	105.81
405.988	100.81
406.212	155.81
406.436	200.81
406.66	130.81
406.883	98.81
407.107	98.81
407.331	87.81
407.555	111.81
407.778	96.81
408.002	95.81
408.226	98.81
408.449	94.81
408.673	99.81
408.896	88.81
409.12	77.81
409.344	99.81
409.567	87.81
409.791	83.81
410.014	85.81
410.238	102.81
410.461	101.81
410.685	91.81
410.908	88.81
411.132	96.81
411.355	87.81
411.578	89.81
411.802	90.81
412.025	100.81
412.249	101.81
412.472	101.81
412.695	81.81
412.919	87.81
413.142	102.81
413.365	76.81
413.589	84.81
413.812	96.81
414.035	98.81
414.258	101.81
414.482	100.81
414.705	98.81
414.928	92.81
415.151	97.81
415.374	99.81
415.597	106.81
415.821	86.81
416.044	78.81
416.267	103.81
416.49	93.81
416.713	85.81
416.936	107.81
417.159	85.81
417.382	92.81
417.605	102.81
417.828	112.81
418.051	75.81
418.274	84.81
418.497	91.81
418.72	84.81
418.943	90.81
419.166	101.81
419.389	88.81
419.611	94.81
419.834	77.81
420.057	102.81
420.28	82.81
420.503	86.81
420.726	87.81
420.948	83.81
421.171	96.81
421.394	96.81
421.617	96.81
421.839	92.81
422.062	77.81
422.285	81.81
422.507	111.81
422.73	102.81
422.953	86.81
423.175	82.81
423.398	95.81
423.621	95.81
423.843	91.81
424.066	96.81
424.288	102.81
424.511	99.81
424.733	91.81
424.956	116.81
425.178	86.81
425.401	95.81
425.623	96.81
425.846	100.81
426.068	93.81
426.291	96.81
426.513	74.81
426.735	86.81
426.958	75.81
427.18	112.81
427.402	141.81
427.625	150.81
427.847	108.81
428.069	94.81
428.292	86.81
428.514	91.81
428.736	81.81
428.958	100.81
429.181	77.81
429.403	77.81
429.625	95.81
429.847	79.81
430.069	94.81
430.292	85.81
430.514	82.81
430.736	89.81
430.958	72.81
431.18	73.81
431.402	74.81
431.624	83.81
431.846	83.81
432.068	92.81
432.29	90.81
432.512	73.81
432.734	85.81
432.956	79.81
433.178	96.81
433.4	105.81
433.622	100.81
433.844	104.81
434.066	94.81
434.287	92.81
434.509	91.81
434.731	94.81
434.953	91.81
435.175	86.81
435.397	100.81
435.618	84.81
435.84	87.81
436.062	117.81
436.284	108.81
436.505	101.81
436.727	101.81
436.949	90.81
437.17	85.81
437.392	85.81
437.614	93.81
437.835	100.81
438.057	109.81
438.278	98.81
438.5	95.81
438.721	122.81
438.943	100.81
439.165	83.81
439.386	98.81
439.608	100.81
439.829	105.81
440.05	117.81
440.272	130.81
440.493	103.81
440.715	78.81
440.936	98.81
441.158	100.81
441.379	81.81
441.6	82.81
441.822	83.81
442.043	90.81
442.264	81.81
442.486	103.81
442.707	92.81
442.928	93.81
443.149	124.81
443.371	130.81
443.592	119.81
443.813	110.81
444.034	103.81
444.255	82.81
444.476	87.81
444.698	75.81
444.919	88.81
445.14	127.81
445.361	117.81
445.582	116.81
445.803	126.81
446.024	116.81
446.245	112.81
446.466	122.81
446.687	92.81
446.908	85.81
447.129	85.81
447.35	101.81
447.571	87.81
447.792	85.81
448.013	113.81
448.234	102.81
448.455	107.81
448.675	110.81
448.896	109.81
449.117	92.81
449.338	108.81
449.559	124.81
449.779	142.81
450	99.81
450.221	110.81
450.442	91.81
450.662	98.81
450.883	97.81
451.104	95.81
451.324	108.81
451.545	98.81
451.766	104.81
451.986	83.81
452.207	88.81
452.428	100.81
452.648	108.81
452.869	83.81
453.089	104.81
453.31	109.81
453.53	82.81
453.751	88.81
453.971	104.81
454.192	101.81
454.412	90.81
454.633	91.81
454.853	76.81
455.073	81.81
455.294	103.81
455.514	98.81
455.734	94.81
455.955	77.81
456.175	77.81
456.395	87.81
456.616	86.81
456.836	96.81
457.056	91.81
457.276	97.81
457.497	87.81
457.717	95.81
457.937	106.81
458.157	80.81
458.377	76.81
458.598	103.81
458.818	133.81
459.038	135.81
459.258	107.81
459.478	97.81
459.698	87.81
459.918	100.81
460.138	104.81
460.358	77.81
460.578	84.81
460.798	106.81
461.018	87.81
461.238	97.81
461.458	86.81
461.678	96.81
461.898	89.81
462.118	86.81
462.338	78.81
462.558	85.81
462.777	87.81
462.997	82.81
463.217	90.81
463.437	88.81
463.657	82.81
463.876	73.81
464.096	96.81
464.316	101.81
464.536	88.81
464.755	84.81
464.975	105.81
465.195	152.81
465.414	144.81
465.634	85.81
465.854	80.81
466.073	85.81
466.293	82.81
466.512	79.81
466.732	88.81
466.951	100.81
467.171	80.81
467.391	91.81
467.61	106.81
467.829	89.81
468.049	93.81
468.268	82.81
468.488	79.81
468.707	94.81
468.927	86.81
469.146	81.81
469.365	72.81
469.585	84.81
469.804	79.81
470.023	108.81
470.243	79.81
470.462	82.81
470.681	88.81
470.901	91.81
471.12	82.81
471.339	93.81
471.558	88.81
471.777	84.81
471.997	84.81
472.216	96.81
472.435	79.81
472.654	88.81
472.873	95.81
473.092	87.81
473.311	90.81
473.53	84.81
473.749	72.81
473.968	91.81
474.187	109.81
474.406	102.81
474.625	96.81
474.844	92.81
475.063	83.81
475.282	79.81
475.501	91.81
475.72	90.81
475.939	96.81
476.158	93.81
476.377	93.81
476.596	78.81
476.814	91.81
477.033	107.81
477.252	112.81
477.471	104.81
477.69	95.81
477.908	89.81
478.127	79.81
478.346	92.81
478.564	100.81
478.783	90.81
479.002	94.81
479.22	88.81
479.439	99.81
479.658	101.81
479.876	87.81
480.095	83.81
480.313	94.81
480.532	84.81
480.751	83.81
480.969	81.81
481.188	95.81
481.406	100.81
481.624	97.81
481.843	79.81
482.061	77.81
482.28	78.81
482.498	80.81
482.717	94.81
482.935	90.81
483.153	73.81
483.372	87.81
483.59	100.81
483.808	85.81
484.027	85.81
484.245	93.81
484.463	91.81
484.681	90.81
484.9	93.81
485.118	83.81
485.336	78.81
485.554	88.81
485.772	93.81
485.99	106.81
486.209	91.81
486.427	104.81
486.645	100.81
486.863	117.81
487.081	94.81
487.299	95.81
487.517	80.81
487.735	92.81
487.953	92.81
488.171	91.81
488.389	87.81
488.607	95.81
488.825	87.81
489.043	95.81
489.261	97.81
489.479	90.81
489.696	77.81
489.914	86.81
490.132	93.81
490.35	86.81
490.568	94.81
490.786	88.81
491.003	88.81
491.221	87.81
491.439	95.81
491.657	97.81
491.874	100.81
492.092	93.81
492.31	92.81
492.527	92.81
492.745	82.81
492.963	85.81
493.18	83.81
493.398	85.81
493.615	91.81
493.833	92.81
494.05	91.81
494.268	86.81
494.485	82.81
494.703	97.81
494.92	79.81
495.138	91.81
495.355	83.81
495.573	99.81
495.79	102.81
496.008	102.81
496.225	83.81
496.442	102.81
496.66	87.81
496.877	85.81
497.094	95.81
497.312	91.81
497.529	93.81
497.746	92.81
497.963	102.81
498.181	91.81
498.398	98.81
498.615	103.81
498.832	102.81
499.049	75.81
499.267	85.81
499.484	93.81
499.701	93.81
499.918	95.81
500.135	88.81
500.352	84.81
500.569	96.81
500.786	80.81
501.003	90.81
501.22	86.81
501.437	102.81
501.654	99.81
501.871	114.81
502.088	88.81
502.305	91.81
502.522	89.81
502.739	91.81
502.956	84.81
503.172	82.81
503.389	84.81
503.606	103.81
503.823	104.81
504.04	86.81
504.256	94.81
504.473	91.81
504.69	98.81
504.907	96.81
505.123	77.81
505.34	99.81
505.557	107.81
505.773	82.81
505.99	86.81
506.207	94.81
506.423	95.81
506.64	79.81
506.856	90.81
507.073	102.81
507.289	98.81
507.506	101.81
507.722	106.81
507.939	95.81
508.155	94.81
508.372	89.81
508.588	83.81
508.805	88.81
509.021	88.81
509.238	98.81
509.454	84.81
509.67	100.81
509.887	111.81
510.103	115.81
510.319	219.81
510.536	717.81
510.752	2172.81
510.968	623.81
511.184	147.81
511.401	101.81
511.617	103.81
511.833	94.81
512.049	91.81
512.265	98.81
512.481	94.81
512.698	97.81
512.914	78.81
513.13	82.81
513.346	102.81
513.562	100.81
513.778	85.81
513.994	78.81
514.21	92.81
514.426	110.81
514.642	130.81
514.858	125.81
515.074	169.81
515.29	412.81
515.506	1377.81
515.721	496.81
515.937	146.81
516.153	105.81
516.369	85.81
516.585	93.81
516.801	80.81
517.016	102.81
517.232	92.81
517.448	91.81
517.664	99.81
517.879	91.81
518.095	75.81
518.311	91.81
518.527	87.81
518.742	94.81
518.958	97.81
519.173	94.81
519.389	105.81
519.605	106.81
519.82	93.81
520.036	114.81
520.251	109.81
520.467	106.81
520.682	103.81
520.898	86.81
521.113	113.81
521.329	139.81
521.544	194.81
521.76	495.81
521.975	2163.81
522.19	1358.81
522.406	302.81
522.621	122.81
522.836	105.81
523.052	104.81
523.267	80.81
523.482	91.81
523.698	99.81
523.913	96.81
524.128	116.81
524.343	100.81
524.559	95.81
524.774	80.81
524.989	86.81
525.204	97.81
525.419	101.81
525.634	85.81
525.849	100.81
526.064	82.81
526.28	88.81
526.495	83.81
526.71	91.81
526.925	88.81
527.14	92.81
527.355	93.81
527.57	97.81
527.785	89.81
527.999	90.81
528.214	95.81
528.429	100.81
528.644	98.81
528.859	98.81
529.074	101.81
529.289	123.81
529.503	173.81
529.718	111.81
529.933	77.81
530.148	84.81
530.363	88.81
530.577	97.81
530.792	103.81
531.007	93.81
531.221	85.81
531.436	89.81
531.651	92.81
531.865	89.81
532.08	88.81
532.295	87.81
532.509	90.81
532.724	83.81
532.938	79.81
533.153	101.81
533.367	110.81
533.582	100.81
533.796	107.81
534.011	90.81
534.225	99.81
534.44	96.81
534.654	109.81
534.868	100.81
535.083	90.81
535.297	91.81
535.511	99.81
535.726	95.81
535.94	85.81
536.154	72.81
536.369	100.81
536.583	86.81
536.797	97.81
537.011	85.81
537.225	94.81
537.44	85.81
537.654	95.81
537.868	94.81
538.082	72.81
538.296	95.81
538.51	84.81
538.724	87.81
538.938	95.81
539.153	92.81
539.367	100.81
539.581	113.81
539.795	88.81
540.009	95.81
540.222	99.81
540.436	101.81
540.65	87.81
540.864	99.81
541.078	87.81
541.292	95.81
541.506	84.81
541.72	96.81
541.934	76.81
542.147	93.81
542.361	86.81
542.575	86.81
542.789	104.81
543.002	103.81
543.216	90.81
543.43	94.81
543.644	92.81
543.857	90.81
544.071	88.81
544.285	91.81
544.498	83.81
544.712	93.81
544.925	102.81
545.139	90.81
545.352	101.81
545.566	98.81
545.779	90.81
545.993	87.81
546.206	84.81
546.42	91.81
546.633	92.81
546.847	84.81
547.06	84.81
547.274	96.81
547.487	92.81
547.7	85.81
547.914	80.81
548.127	78.81
548.34	77.81
548.554	82.81
548.767	78.81
548.98	96.81
549.193	91.81
549.407	75.81
549.62	89.81
549.833	90.81
550.046	87.81
550.259	88.81
550.473	75.81
550.686	74.81
550.899	94.81
551.112	88.81
551.325	86.81
551.538	81.81
551.751	80.81
551.964	78.81
552.177	99.81
552.39	79.81
552.603	87.81
552.816	83.81
553.029	96.81
553.242	86.81
553.455	97.81
553.667	94.81
553.88	101.81
554.093	105.81
554.306	87.81
554.519	92.81
554.732	100.81
554.944	93.81
555.157	92.81
555.37	93.81
555.583	68.81
555.795	98.81
556.008	93.81
556.221	99.81
556.433	91.81
556.646	109.81
556.859	96.81
557.071	79.81
557.284	85.81
557.496	75.81
557.709	96.81
557.921	85.81
558.134	78.81
558.346	91.81
558.559	92.81
558.771	85.81
558.984	78.81
559.196	91.81
559.409	94.81
559.621	87.81
559.833	82.81
560.046	89.81
560.258	87.81
560.47	104.81
560.683	90.81
560.895	75.81
561.107	90.81
561.32	97.81
561.532	93.81
561.744	97.81
561.956	91.81
562.168	86.81
562.381	99.81
562.593	90.81
562.805	99.81
563.017	85.81
563.229	81.81
563.441	87.81
563.653	104.81
563.865	91.81
564.077	85.81
564.289	98.81
564.501	88.81
564.713	94.81
564.925	91.81
565.137	103.81
565.349	91.81
565.561	93.81
565.773	99.81
565.985	103.81
566.197	74.81
566.408	95.81
566.62	94.81
566.832	87.81
567.044	81.81
567.255	89.81
567.467	83.81
567.679	82.81
567.891	72.81
568.102	91.81
568.314	90.81
568.526	75.81
568.737	77.81
568.949	86.81
569.161	88.81
569.372	95.81
569.584	86.81
569.795	100.81
570.007	102.81
570.218	226.81
570.43	138.81
570.641	99.81
570.853	95.81
571.064	96.81
571.276	80.81
571.487	88.81
571.698	101.81
571.91	82.81
572.121	80.81
572.333	82.81
572.544	77.81
572.755	88.81
572.966	95.81
573.178	87.81
573.389	87.81
573.6	95.81
573.811	84.81
574.023	85.81
574.234	87.81
574.445	82.81
574.656	88.81
574.867	79.81
575.078	93.81
575.289	96.81
575.501	78.81
575.712	95.81
575.923	81.81
576.134	80.81
576.345	95.81
576.556	78.81
576.767	92.81
576.978	84.81
577.188	81.81
577.399	97.81
577.61	96.81
577.821	96.81
578.032	126.81
578.243	250.81
578.454	713.81
578.665	216.81
578.875	108.81
579.086	95.81
579.297	87.81
579.508	91.81
579.718	87.81
579.929	87.81
580.14	87.81
580.35	79.81
580.561	92.81
580.772	78.81
580.982	98.81
581.193	93.81
581.403	103.81
581.614	87.81
581.825	63.81
582.035	76.81
582.246	86.81
582.456	91.81
582.667	86.81
582.877	98.81
583.087	70.81
583.298	77.81
583.508	94.81
583.719	90.81
583.929	98.81
584.139	83.81
584.35	91.81
584.56	92.81
584.77	87.81
584.981	94.81
585.191	96.81
585.401	87.81
585.611	81.81
585.821	70.81
586.032	84.81
586.242	87.81
586.452	70.81
586.662	83.81
586.872	75.81
587.082	92.81
587.292	83.81
587.502	84.81
587.713	92.81
587.923	84.81
588.133	77.81
588.343	95.81
588.553	81.81
588.762	81.81
588.972	84.81
589.182	89.81
589.392	77.81
589.602	99.81
589.812	73.81
590.022	92.81
590.232	95.81
590.441	90.81
590.651	84.81
590.861	92.81
591.071	79.81
591.281	77.81
591.49	89.81
591.7	87.81
591.91	94.81
592.119	96.81
592.329	92.81
592.539	100.81
592.748	92.81
592.958	92.81
593.167	84.81
593.377	81.81
593.587	86.81
593.796	72.81
594.006	61.81
594.215	93.81
594.424	90.81
594.634	85.81
594.843	76.81
595.053	94.81
595.262	99.81
595.472	85.81
595.681	85.81
595.89	66.81
596.1	73.81
596.309	83.81
596.518	87.81
596.727	79.81
596.937	91.81
597.146	79.81
597.355	81.81
597.564	96.81
597.774	96.81
597.983	83.81
598.192	86.81
598.401	80.81
598.61	99.81
598.819	87.81
599.028	92.81
599.237	71.81
599.446	92.81
599.655	77.81
599.864	92.81
600.073	92.81
600.282	79.81
600.491	91.81
600.7	89.81
600.909	101.81
601.118	100.81
601.327	83.81
601.536	98.81
601.745	88.81
601.953	94.81
602.162	92.81
602.371	89.81
602.58	80.81
602.789	85.81
602.997	90.81
603.206	100.81
603.415	88.81
603.623	86.81
603.832	71.81
604.041	88.81
604.249	97.81
604.458	85.81
604.666	87.81
604.875	84.81
605.084	82.81
605.292	79.81
605.501	88.81
605.709	85.81
605.918	96.81
606.126	83.81
606.334	101.81
606.543	86.81
606.751	96.81
606.96	76.81
607.168	89.81
607.376	82.81
607.585	108.81
607.793	86.81
608.001	80.81
608.21	81.81
608.418	76.81
608.626	86.81
608.834	84.81
609.043	78.81
609.251	81.81
609.459	85.81
609.667	74.81
609.875	72.81
610.083	78.81
610.291	89.81
610.499	76.81
610.707	77.81
610.916	87.81
611.124	98.81
611.332	92.81
611.54	73.81
611.748	80.81
611.955	97.81
612.163	87.81
612.371	81.81
612.579	53.81
612.787	88.81
612.995	73.81
613.203	81.81
613.411	107.81
613.618	90.81
613.826	76.81
614.034	88.81
614.242	97.81
614.449	92.81
614.657	77.81
614.865	88.81
615.072	99.81
615.28	82.81
615.488	87.81
615.695	113.81
615.903	80.81
616.111	95.81
616.318	95.81
616.526	97.81
616.733	96.81
616.941	78.81
617.148	91.81
617.356	79.81
617.563	99.81
617.771	94.81
617.978	99.81
618.185	96.81
618.393	79.81
618.6	95.81
618.807	92.81
619.015	70.81
619.222	83.81
619.429	81.81
619.637	88.81
619.844	94.81
620.051	79.81
620.258	98.81
620.466	87.81
620.673	96.81
620.88	92.81
621.087	88.81
621.294	85.81
621.501	79.81
621.708	94.81
621.915	79.81
622.122	85.81
622.329	78.81
622.536	87.81
622.743	82.81
622.95	100.81
623.157	84.81
623.364	80.81
623.571	86.81
623.778	90.81
623.985	81.81
624.192	88.81
624.399	83.81
624.606	93.81
624.812	78.81
625.019	76.81
625.226	80.81
625.433	80.81
625.639	88.81
625.846	80.81
626.053	83.81
626.259	79.81
626.466	80.81
626.673	88.81
626.879	84.81
627.086	78.81
627.293	82.81
627.499	78.81
627.706	81.81
627.912	85.81
628.119	74.81
628.325	98.81
628.532	70.81
628.738	77.81
628.945	83.81
629.151	74.81
629.357	90.81
629.564	78.81
629.77	71.81
629.976	85.81
630.183	86.81
630.389	86.81
630.595	91.81
630.802	86.81
631.008	93.81
631.214	88.81
631.42	93.81
631.627	89.81
631.833	93.81
632.039	85.81
632.245	96.81
632.451	77.81
632.657	73.81
632.863	78.81
633.069	77.81
633.275	83.81
633.481	104.81
633.688	84.81
633.893	83.81
634.099	83.81
634.305	78.81
634.511	80.81
634.717	87.81
634.923	92.81
635.129	78.81
635.335	88.81
635.541	92.81
635.747	89.81
635.952	88.81
636.158	85.81
636.364	101.81
636.57	101.81
636.775	95.81
636.981	85.81
637.187	82.81
637.392	94.81
637.598	90.81
637.804	83.81
638.009	91.81
638.215	80.81
638.421	65.81
638.626	82.81
638.832	91.81
639.037	97.81
639.243	81.81
639.448	78.81
639.654	94.81
639.859	96.81
640.065	79.81
640.27	81.81
640.475	75.81
640.681	78.81
640.886	85.81
641.091	91.81
641.297	103.81
641.502	99.81
641.707	91.81
641.913	84.81
642.118	78.81
642.323	88.81
642.528	82.81
642.733	99.81
642.939	85.81
643.144	100.81
643.349	83.81
643.554	89.81
643.759	87.81
643.964	88.81
644.169	95.81
644.374	86.81
644.579	86.81
644.784	87.81
644.989	83.81
645.194	87.81
645.399	77.81
645.604	94.81
645.809	86.81
646.014	101.81
646.219	90.81
646.423	84.81
646.628	78.81
646.833	86.81
647.038	103.81
647.243	76.81
647.447	87.81
647.652	82.81
647.857	72.81
648.062	88.81
648.266	81.81
648.471	73.81
648.676	80.81
648.88	102.81
649.085	102.81
649.289	97.81
649.494	112.81
649.698	129.81
649.903	91.81
650.107	96.81
650.312	98.81
650.516	80.81
650.721	93.81
650.925	91.81
651.13	84.81
651.334	90.81
651.539	95.81
651.743	79.81
651.947	91.81
652.152	73.81
652.356	76.81
652.56	75.81
652.764	83.81
652.969	93.81
653.173	87.81
653.377	89.81
653.581	93.81
653.785	90.81
653.99	82.81
654.194	64.81
654.398	86.81
654.602	82.81
654.806	83.81
655.01	105.81
655.214	90.81
655.418	83.81
655.622	78.81
655.826	85.81
656.03	103.81
656.234	91.81
656.438	80.81
656.642	88.81
656.846	84.81
657.049	80.81
657.253	93.81
657.457	71.81
657.661	98.81
657.865	77.81
658.068	76.81
658.272	82.81
658.476	93.81
658.68	81.81
658.883	83.81
659.087	86.81
659.291	80.81
659.494	100.81
659.698	85.81
659.901	80.81
660.105	84.81
660.309	75.81
660.512	90.81
660.716	89.81
660.919	79.81
661.123	100.81
661.326	96.81
661.53	78.81
661.733	60.81
661.936	82.81
662.14	83.81
662.343	93.81
662.546	75.81
662.75	95.81
662.953	88.81
663.156	79.81
663.36	91.81
663.563	83.81
663.766	83.81
663.969	93.81
664.173	71.81
664.376	85.81
664.579	81.81
664.782	87.81
664.985	87.81
665.188	74.81
665.391	83.81
665.594	83.81
665.797	85.81
666	69.81
666.203	86.81
666.406	83.81
666.609	83.81
666.812	94.81
667.015	93.81
667.218	77.81
667.421	75.81
667.624	81.81
667.827	78.81
668.03	83.81
668.232	79.81
668.435	80.81
668.638	85.81
668.841	72.81
669.043	70.81
669.246	78.81
669.449	87.81
669.651	82.81
669.854	86.81
670.057	84.81
670.259	69.81
670.462	79.81
670.665	79.81
670.867	92.81
671.07	79.81
671.272	88.81
671.475	93.81
671.677	74.81
671.88	83.81
672.082	83.81
672.284	78.81
672.487	68.81
672.689	79.81
672.892	75.81
