Data from Uncirc_2006_H10_HRD10591_00043.txt Node
Date: Wed Jan 03 10:25:03 EST 2024
User: Yrep
Spectrometer: HR+D1059
Trigger mode: 1
Integration Time (sec): 1.000000E-1
Scans to average: 1
Electric dark correction enabled: true
Nonlinearity correction enabled: false
Boxcar width: 0
XAxis mode: Wavelengths
Number of Pixels in Spectrum: 2048
>>>>>Begin Spectral Data<<<<<
223.165	-20.88
223.4	-20.88
223.635	-20.88
223.869	-10.88
224.104	-15.88
224.338	-20.88
224.573	-2.88
224.808	-6.88
225.042	-8.88
225.277	-6.88
225.511	-7.88
225.746	5.12
225.98	16.12
226.215	8.12
226.449	10.12
226.683	0.12
226.918	26.12
227.152	36.12
227.387	42.12
227.621	36.12
227.856	36.12
228.09	43.12
228.324	50.12
228.559	52.12
228.793	60.12
229.027	67.12
229.262	58.12
229.496	78.12
229.73	69.12
229.964	73.12
230.199	69.12
230.433	85.12
230.667	68.12
230.901	75.12
231.136	84.12
231.37	85.12
231.604	74.12
231.838	79.12
232.072	82.12
232.306	73.12
232.541	80.12
232.775	76.12
233.009	87.12
233.243	74.12
233.477	77.12
233.711	85.12
233.945	80.12
234.179	81.12
234.413	73.12
234.647	84.12
234.881	72.12
235.115	78.12
235.349	82.12
235.583	85.12
235.817	76.12
236.051	83.12
236.285	96.12
236.519	70.12
236.753	74.12
236.987	83.12
237.221	89.12
237.455	86.12
237.689	70.12
237.922	73.12
238.156	65.12
238.39	81.12
238.624	72.12
238.858	73.12
239.091	72.12
239.325	81.12
239.559	74.12
239.793	77.12
240.027	85.12
240.26	77.12
240.494	74.12
240.728	67.12
240.961	67.12
241.195	98.12
241.429	63.12
241.662	69.12
241.896	92.12
242.13	93.12
242.363	85.12
242.597	77.12
242.83	77.12
243.064	76.12
243.298	73.12
243.531	69.12
243.765	72.12
243.998	74.12
244.232	78.12
244.465	82.12
244.699	82.12
244.932	74.12
245.166	91.12
245.399	84.12
245.633	75.12
245.866	64.12
246.099	88.12
246.333	84.12
246.566	83.12
246.8	77.12
247.033	80.12
247.266	84.12
247.5	82.12
247.733	82.12
247.966	95.12
248.2	80.12
248.433	65.12
248.666	74.12
248.899	75.12
249.133	83.12
249.366	91.12
249.599	97.12
249.832	79.12
250.066	82.12
250.299	91.12
250.532	89.12
250.765	87.12
250.998	81.12
251.231	77.12
251.465	81.12
251.698	73.12
251.931	82.12
252.164	84.12
252.397	78.12
252.63	83.12
252.863	91.12
253.096	70.12
253.329	78.12
253.562	79.12
253.795	73.12
254.028	85.12
254.261	87.12
254.494	79.12
254.727	73.12
254.96	84.12
255.193	93.12
255.426	67.12
255.659	78.12
255.892	87.12
256.124	83.12
256.357	87.12
256.59	75.12
256.823	66.12
257.056	79.12
257.289	75.12
257.521	84.12
257.754	81.12
257.987	87.12
258.22	87.12
258.452	96.12
258.685	80.12
258.918	70.12
259.151	90.12
259.383	88.12
259.616	84.12
259.849	80.12
260.081	89.12
260.314	94.12
260.547	82.12
260.779	83.12
261.012	75.12
261.244	83.12
261.477	87.12
261.71	96.12
261.942	107.12
262.175	107.12
262.407	93.12
262.64	91.12
262.872	78.12
263.105	73.12
263.337	89.12
263.57	74.12
263.802	73.12
264.035	83.12
264.267	69.12
264.499	78.12
264.732	83.12
264.964	72.12
265.197	81.12
265.429	83.12
265.661	75.12
265.894	74.12
266.126	81.12
266.358	95.12
266.591	77.12
266.823	90.12
267.055	80.12
267.287	83.12
267.52	97.12
267.752	92.12
267.984	94.12
268.216	85.12
268.448	89.12
268.681	98.12
268.913	87.12
269.145	78.12
269.377	80.12
269.609	81.12
269.841	73.12
270.073	78.12
270.306	84.12
270.538	91.12
270.77	83.12
271.002	93.12
271.234	80.12
271.466	94.12
271.698	85.12
271.93	94.12
272.162	75.12
272.394	85.12
272.626	80.12
272.858	86.12
273.09	88.12
273.322	78.12
273.553	82.12
273.785	84.12
274.017	85.12
274.249	89.12
274.481	82.12
274.713	74.12
274.945	82.12
275.176	71.12
275.408	82.12
275.64	85.12
275.872	86.12
276.104	83.12
276.335	87.12
276.567	93.12
276.799	105.12
277.031	98.12
277.262	73.12
277.494	81.12
277.726	95.12
277.957	84.12
278.189	86.12
278.421	74.12
278.652	87.12
278.884	87.12
279.115	91.12
279.347	109.12
279.579	84.12
279.81	85.12
280.042	88.12
280.273	73.12
280.505	85.12
280.736	71.12
280.968	97.12
281.199	84.12
281.431	69.12
281.662	95.12
281.894	81.12
282.125	87.12
282.356	100.12
282.588	119.12
282.819	101.12
283.051	88.12
283.282	94.12
283.513	103.12
283.745	86.12
283.976	90.12
284.207	79.12
284.439	78.12
284.67	79.12
284.901	82.12
285.132	87.12
285.364	80.12
285.595	61.12
285.826	84.12
286.057	80.12
286.288	85.12
286.52	93.12
286.751	93.12
286.982	91.12
287.213	94.12
287.444	91.12
287.675	81.12
287.906	77.12
288.138	84.12
288.369	89.12
288.6	73.12
288.831	71.12
289.062	73.12
289.293	82.12
289.524	81.12
289.755	82.12
289.986	82.12
290.217	91.12
290.448	88.12
290.679	64.12
290.91	92.12
291.141	84.12
291.371	78.12
291.602	79.12
291.833	98.12
292.064	75.12
292.295	85.12
292.526	92.12
292.757	63.12
292.987	89.12
293.218	86.12
293.449	88.12
293.68	91.12
293.91	80.12
294.141	86.12
294.372	86.12
294.603	87.12
294.833	94.12
295.064	86.12
295.295	91.12
295.525	91.12
295.756	109.12
295.987	99.12
296.217	144.12
296.448	112.12
296.679	87.12
296.909	79.12
297.14	87.12
297.37	92.12
297.601	84.12
297.831	96.12
298.062	89.12
298.292	94.12
298.523	87.12
298.753	83.12
298.984	76.12
299.214	89.12
299.445	95.12
299.675	107.12
299.905	97.12
300.136	75.12
300.366	98.12
300.597	73.12
300.827	87.12
301.057	105.12
301.288	99.12
301.518	88.12
301.748	86.12
301.979	103.12
302.209	77.12
302.439	79.12
302.669	87.12
302.9	88.12
303.13	105.12
303.36	100.12
303.59	88.12
303.82	98.12
304.051	83.12
304.281	85.12
304.511	97.12
304.741	95.12
304.971	82.12
305.201	83.12
305.431	94.12
305.661	93.12
305.891	92.12
306.121	97.12
306.352	89.12
306.582	84.12
306.812	90.12
307.042	80.12
307.272	78.12
307.502	86.12
307.731	92.12
307.961	86.12
308.191	85.12
308.421	85.12
308.651	69.12
308.881	81.12
309.111	96.12
309.341	88.12
309.571	92.12
309.8	102.12
310.03	103.12
310.26	85.12
310.49	97.12
310.72	94.12
310.949	96.12
311.179	98.12
311.409	99.12
311.639	100.12
311.868	111.12
312.098	83.12
312.328	93.12
312.557	100.12
312.787	100.12
313.017	93.12
313.246	97.12
313.476	105.12
313.706	96.12
313.935	75.12
314.165	98.12
314.394	92.12
314.624	105.12
314.853	86.12
315.083	98.12
315.312	86.12
315.542	91.12
315.771	75.12
316.001	94.12
316.23	100.12
316.46	92.12
316.689	78.12
316.919	77.12
317.148	76.12
317.377	86.12
317.607	97.12
317.836	97.12
318.065	82.12
318.295	88.12
318.524	86.12
318.753	87.12
318.983	95.12
319.212	104.12
319.441	100.12
319.67	104.12
319.9	93.12
320.129	84.12
320.358	91.12
320.587	83.12
320.816	86.12
321.046	101.12
321.275	101.12
321.504	91.12
321.733	110.12
321.962	105.12
322.191	99.12
322.42	97.12
322.649	96.12
322.878	101.12
323.108	113.12
323.337	120.12
323.566	122.12
323.795	158.12
324.024	206.12
324.253	406.12
324.482	856.12
324.71	1733.12
324.939	2294.12
325.168	833.12
325.397	238.12
325.626	142.12
325.855	117.12
326.084	142.12
326.313	137.12
326.542	148.12
326.77	238.12
326.999	477.12
327.228	995.12
327.457	1757.12
327.686	1425.12
327.914	354.12
328.143	184.12
328.372	144.12
328.6	118.12
328.829	118.12
329.058	127.12
329.287	100.12
329.515	103.12
329.744	93.12
329.972	110.12
330.201	103.12
330.43	99.12
330.658	106.12
330.887	125.12
331.115	114.12
331.344	115.12
331.572	86.12
331.801	99.12
332.03	106.12
332.258	86.12
332.486	91.12
332.715	92.12
332.943	91.12
333.172	106.12
333.4	92.12
333.629	98.12
333.857	117.12
334.085	112.12
334.314	87.12
334.542	101.12
334.771	92.12
334.999	102.12
335.227	91.12
335.455	100.12
335.684	91.12
335.912	93.12
336.14	92.12
336.369	103.12
336.597	94.12
336.825	94.12
337.053	87.12
337.281	90.12
337.51	84.12
337.738	91.12
337.966	86.12
338.194	105.12
338.422	92.12
338.65	82.12
338.878	91.12
339.106	79.12
339.334	95.12
339.562	99.12
339.79	89.12
340.018	87.12
340.246	94.12
340.474	81.12
340.702	90.12
340.93	90.12
341.158	84.12
341.386	105.12
341.614	89.12
341.842	92.12
342.07	91.12
342.298	91.12
342.526	81.12
342.754	69.12
342.981	93.12
343.209	87.12
343.437	87.12
343.665	82.12
343.893	92.12
344.12	88.12
344.348	84.12
344.576	89.12
344.804	92.12
345.031	98.12
345.259	92.12
345.487	94.12
345.714	102.12
345.942	101.12
346.17	81.12
346.397	83.12
346.625	85.12
346.853	103.12
347.08	96.12
347.308	91.12
347.535	99.12
347.763	101.12
347.99	88.12
348.218	107.12
348.445	98.12
348.673	101.12
348.9	81.12
349.128	94.12
349.355	104.12
349.583	102.12
349.81	98.12
350.037	104.12
350.265	77.12
350.492	73.12
350.72	85.12
350.947	96.12
351.174	107.12
351.402	110.12
351.629	108.12
351.856	101.12
352.083	87.12
352.311	88.12
352.538	105.12
352.765	113.12
352.992	110.12
353.22	100.12
353.447	104.12
353.674	105.12
353.901	97.12
354.128	93.12
354.355	102.12
354.583	97.12
354.81	98.12
355.037	89.12
355.264	82.12
355.491	81.12
355.718	85.12
355.945	97.12
356.172	91.12
356.399	86.12
356.626	100.12
356.853	95.12
357.08	96.12
357.307	77.12
357.534	90.12
357.761	88.12
357.988	89.12
358.215	106.12
358.441	108.12
358.668	104.12
358.895	95.12
359.122	99.12
359.349	96.12
359.576	76.12
359.802	87.12
360.029	101.12
360.256	112.12
360.483	101.12
360.709	79.12
360.936	100.12
361.163	89.12
361.39	98.12
361.616	102.12
361.843	95.12
362.07	89.12
362.296	85.12
362.523	97.12
362.749	90.12
362.976	105.12
363.203	80.12
363.429	93.12
363.656	79.12
363.882	94.12
364.109	87.12
364.335	95.12
364.562	96.12
364.788	93.12
365.015	93.12
365.241	101.12
365.468	100.12
365.694	101.12
365.92	95.12
366.147	91.12
366.373	85.12
366.599	89.12
366.826	78.12
367.052	94.12
367.278	85.12
367.505	104.12
367.731	92.12
367.957	100.12
368.184	86.12
368.41	89.12
368.636	106.12
368.862	109.12
369.089	104.12
369.315	84.12
369.541	94.12
369.767	87.12
369.993	79.12
370.219	82.12
370.445	91.12
370.672	91.12
370.898	77.12
371.124	75.12
371.35	94.12
371.576	82.12
371.802	84.12
372.028	85.12
372.254	87.12
372.48	83.12
372.706	96.12
372.932	77.12
373.158	83.12
373.384	78.12
373.61	93.12
373.835	86.12
374.061	88.12
374.287	105.12
374.513	86.12
374.739	93.12
374.965	98.12
375.191	89.12
375.416	95.12
375.642	98.12
375.868	70.12
376.094	75.12
376.319	92.12
376.545	105.12
376.771	78.12
376.997	85.12
377.222	108.12
377.448	87.12
377.674	97.12
377.899	96.12
378.125	92.12
378.35	97.12
378.576	96.12
378.802	100.12
379.027	85.12
379.253	91.12
379.478	100.12
379.704	85.12
379.929	81.12
380.155	83.12
380.38	97.12
380.606	86.12
380.831	105.12
381.057	110.12
381.282	86.12
381.507	94.12
381.733	96.12
381.958	93.12
382.184	91.12
382.409	98.12
382.634	100.12
382.86	101.12
383.085	96.12
383.31	102.12
383.535	107.12
383.761	108.12
383.986	111.12
384.211	97.12
384.436	95.12
384.662	126.12
384.887	93.12
385.112	104.12
385.337	94.12
385.562	106.12
385.787	78.12
386.013	130.12
386.238	118.12
386.463	97.12
386.688	112.12
386.913	105.12
387.138	99.12
387.363	88.12
387.588	100.12
387.813	93.12
388.038	114.12
388.263	125.12
388.488	106.12
388.713	91.12
388.938	90.12
389.163	97.12
389.387	103.12
389.612	101.12
389.837	95.12
390.062	97.12
390.287	104.12
390.512	84.12
390.736	93.12
390.961	94.12
391.186	95.12
391.411	105.12
391.636	83.12
391.86	92.12
392.085	87.12
392.31	84.12
392.534	86.12
392.759	92.12
392.984	98.12
393.208	76.12
393.433	92.12
393.658	85.12
393.882	85.12
394.107	88.12
394.331	89.12
394.556	90.12
394.78	96.12
395.005	86.12
395.229	86.12
395.454	83.12
395.678	70.12
395.903	82.12
396.127	83.12
396.352	99.12
396.576	88.12
396.801	91.12
397.025	84.12
397.249	89.12
397.474	81.12
397.698	93.12
397.922	92.12
398.147	79.12
398.371	103.12
398.595	85.12
398.82	98.12
399.044	95.12
399.268	85.12
399.492	92.12
399.717	98.12
399.941	105.12
400.165	97.12
400.389	101.12
400.613	87.12
400.837	96.12
401.062	76.12
401.286	90.12
401.51	86.12
401.734	96.12
401.958	95.12
402.182	126.12
402.406	158.12
402.63	106.12
402.854	87.12
403.078	94.12
403.302	71.12
403.526	87.12
403.75	87.12
403.974	86.12
404.198	82.12
404.422	98.12
404.645	89.12
404.869	82.12
405.093	93.12
405.317	91.12
405.541	95.12
405.765	95.12
405.988	119.12
406.212	170.12
406.436	222.12
406.66	142.12
406.883	90.12
407.107	80.12
407.331	99.12
407.555	91.12
407.778	99.12
408.002	102.12
408.226	94.12
408.449	73.12
408.673	85.12
408.896	90.12
409.12	101.12
409.344	93.12
409.567	98.12
409.791	100.12
410.014	94.12
410.238	79.12
410.461	78.12
410.685	86.12
410.908	109.12
411.132	104.12
411.355	106.12
411.578	95.12
411.802	94.12
412.025	93.12
412.249	91.12
412.472	109.12
412.695	87.12
412.919	107.12
413.142	90.12
413.365	93.12
413.589	89.12
413.812	89.12
414.035	115.12
414.258	99.12
414.482	98.12
414.705	68.12
414.928	93.12
415.151	89.12
415.374	97.12
415.597	79.12
415.821	101.12
416.044	93.12
416.267	77.12
416.49	87.12
416.713	95.12
416.936	96.12
417.159	85.12
417.382	104.12
417.605	85.12
417.828	93.12
418.051	82.12
418.274	90.12
418.497	92.12
418.72	91.12
418.943	97.12
419.166	91.12
419.389	78.12
419.611	86.12
419.834	87.12
420.057	85.12
420.28	104.12
420.503	80.12
420.726	83.12
420.948	85.12
421.171	83.12
421.394	96.12
421.617	105.12
421.839	96.12
422.062	84.12
422.285	96.12
422.507	87.12
422.73	115.12
422.953	104.12
423.175	95.12
423.398	83.12
423.621	77.12
423.843	90.12
424.066	83.12
424.288	99.12
424.511	79.12
424.733	92.12
424.956	96.12
425.178	92.12
425.401	108.12
425.623	102.12
425.846	91.12
426.068	93.12
426.291	90.12
426.513	96.12
426.735	94.12
426.958	97.12
427.18	112.12
427.402	129.12
427.625	157.12
427.847	137.12
428.069	75.12
428.292	83.12
428.514	88.12
428.736	82.12
428.958	87.12
429.181	87.12
429.403	94.12
429.625	80.12
429.847	87.12
430.069	100.12
430.292	100.12
430.514	78.12
430.736	93.12
430.958	80.12
431.18	88.12
431.402	84.12
431.624	87.12
431.846	99.12
432.068	89.12
432.29	90.12
432.512	86.12
432.734	86.12
432.956	107.12
433.178	89.12
433.4	95.12
433.622	85.12
433.844	81.12
434.066	81.12
434.287	100.12
434.509	83.12
434.731	93.12
434.953	77.12
435.175	83.12
435.397	97.12
435.618	95.12
435.84	91.12
436.062	106.12
436.284	115.12
436.505	116.12
436.727	84.12
436.949	106.12
437.17	101.12
437.392	89.12
437.614	87.12
437.835	106.12
438.057	115.12
438.278	102.12
438.5	88.12
438.721	115.12
438.943	100.12
439.165	87.12
439.386	89.12
439.608	86.12
439.829	91.12
440.05	105.12
440.272	145.12
440.493	90.12
440.715	94.12
440.936	90.12
441.158	77.12
441.379	85.12
441.6	73.12
441.822	103.12
442.043	98.12
442.264	97.12
442.486	95.12
442.707	103.12
442.928	113.12
443.149	139.12
443.371	125.12
443.592	121.12
443.813	96.12
444.034	115.12
444.255	96.12
444.476	82.12
444.698	106.12
444.919	91.12
445.14	124.12
445.361	127.12
445.582	116.12
445.803	125.12
446.024	138.12
446.245	127.12
446.466	107.12
446.687	103.12
446.908	80.12
447.129	88.12
447.35	89.12
447.571	94.12
447.792	88.12
448.013	97.12
448.234	90.12
448.455	113.12
448.675	123.12
448.896	121.12
449.117	82.12
449.338	95.12
449.559	117.12
449.779	131.12
450	96.12
450.221	83.12
450.442	94.12
450.662	99.12
450.883	82.12
451.104	100.12
451.324	101.12
451.545	85.12
451.766	96.12
451.986	97.12
452.207	98.12
452.428	85.12
452.648	82.12
452.869	112.12
453.089	96.12
453.31	114.12
453.53	99.12
453.751	103.12
453.971	105.12
454.192	114.12
454.412	90.12
454.633	83.12
454.853	86.12
455.073	79.12
455.294	77.12
455.514	90.12
455.734	80.12
455.955	73.12
456.175	90.12
456.395	81.12
456.616	79.12
456.836	81.12
457.056	79.12
457.276	91.12
457.497	78.12
457.717	92.12
457.937	101.12
458.157	84.12
458.377	91.12
458.598	98.12
458.818	134.12
459.038	143.12
459.258	110.12
459.478	98.12
459.698	78.12
459.918	84.12
460.138	86.12
460.358	76.12
460.578	81.12
460.798	99.12
461.018	102.12
461.238	89.12
461.458	78.12
461.678	91.12
461.898	86.12
462.118	73.12
462.338	88.12
462.558	95.12
462.777	81.12
462.997	89.12
463.217	75.12
463.437	81.12
463.657	99.12
463.876	92.12
464.096	104.12
464.316	102.12
464.536	95.12
464.755	100.12
464.975	116.12
465.195	150.12
465.414	162.12
465.634	106.12
465.854	98.12
466.073	77.12
466.293	91.12
466.512	88.12
466.732	91.12
466.951	83.12
467.171	87.12
467.391	100.12
467.61	95.12
467.829	96.12
468.049	75.12
468.268	82.12
468.488	98.12
468.707	78.12
468.927	87.12
469.146	91.12
469.365	81.12
469.585	84.12
469.804	92.12
470.023	82.12
470.243	107.12
470.462	107.12
470.681	101.12
470.901	73.12
471.12	93.12
471.339	88.12
471.558	89.12
471.777	92.12
471.997	90.12
472.216	84.12
472.435	79.12
472.654	81.12
472.873	91.12
473.092	89.12
473.311	82.12
473.53	76.12
473.749	93.12
473.968	90.12
474.187	102.12
474.406	91.12
474.625	89.12
474.844	86.12
475.063	93.12
475.282	95.12
475.501	91.12
475.72	94.12
475.939	88.12
476.158	80.12
476.377	84.12
476.596	106.12
476.814	93.12
477.033	76.12
477.252	87.12
477.471	63.12
477.69	82.12
477.908	86.12
478.127	82.12
478.346	82.12
478.564	85.12
478.783	94.12
479.002	84.12
479.22	99.12
479.439	88.12
479.658	85.12
479.876	93.12
480.095	85.12
480.313	106.12
480.532	86.12
480.751	92.12
480.969	92.12
481.188	94.12
481.406	102.12
481.624	93.12
481.843	96.12
482.061	79.12
482.28	91.12
482.498	83.12
482.717	85.12
482.935	84.12
483.153	75.12
483.372	81.12
483.59	85.12
483.808	79.12
484.027	85.12
484.245	89.12
484.463	97.12
484.681	100.12
484.9	89.12
485.118	78.12
485.336	89.12
485.554	102.12
485.772	99.12
485.99	110.12
486.209	89.12
486.427	90.12
486.645	114.12
486.863	102.12
487.081	95.12
487.299	80.12
487.517	101.12
487.735	115.12
487.953	113.12
488.171	102.12
488.389	110.12
488.607	103.12
488.825	93.12
489.043	102.12
489.261	84.12
489.479	91.12
489.696	86.12
489.914	81.12
490.132	69.12
490.35	76.12
490.568	105.12
490.786	99.12
491.003	89.12
491.221	87.12
491.439	99.12
491.657	94.12
491.874	96.12
492.092	98.12
492.31	95.12
492.527	86.12
492.745	84.12
492.963	85.12
493.18	86.12
493.398	80.12
493.615	95.12
493.833	90.12
494.05	89.12
494.268	93.12
494.485	91.12
494.703	81.12
494.92	93.12
495.138	90.12
495.355	93.12
495.573	96.12
495.79	85.12
496.008	90.12
496.225	91.12
496.442	97.12
496.66	92.12
496.877	84.12
497.094	75.12
497.312	96.12
497.529	82.12
497.746	94.12
497.963	91.12
498.181	84.12
498.398	83.12
498.615	103.12
498.832	99.12
499.049	92.12
499.267	95.12
499.484	89.12
499.701	91.12
499.918	96.12
500.135	91.12
500.352	98.12
500.569	102.12
500.786	96.12
501.003	96.12
501.22	88.12
501.437	91.12
501.654	87.12
501.871	103.12
502.088	84.12
502.305	84.12
502.522	94.12
502.739	87.12
502.956	99.12
503.172	101.12
503.389	96.12
503.606	96.12
503.823	96.12
504.04	99.12
504.256	87.12
504.473	95.12
504.69	102.12
504.907	89.12
505.123	85.12
505.34	88.12
505.557	81.12
505.773	100.12
505.99	102.12
506.207	99.12
506.423	92.12
506.64	73.12
506.856	91.12
507.073	101.12
507.289	87.12
507.506	109.12
507.722	117.12
507.939	100.12
508.155	90.12
508.372	84.12
508.588	97.12
508.805	94.12
509.021	74.12
509.238	108.12
509.454	82.12
509.67	92.12
509.887	108.12
510.103	126.12
510.319	203.12
510.536	754.12
510.752	2311.12
510.968	668.12
511.184	165.12
511.401	103.12
511.617	90.12
511.833	102.12
512.049	94.12
512.265	84.12
512.481	90.12
512.698	95.12
512.914	90.12
513.13	85.12
513.346	95.12
513.562	86.12
513.778	93.12
513.994	101.12
514.21	100.12
514.426	113.12
514.642	141.12
514.858	109.12
515.074	161.12
515.29	468.12
515.506	1449.12
515.721	548.12
515.937	144.12
516.153	107.12
516.369	97.12
516.585	87.12
516.801	92.12
517.016	80.12
517.232	87.12
517.448	83.12
517.664	100.12
517.879	85.12
518.095	90.12
518.311	96.12
518.527	87.12
518.742	86.12
518.958	89.12
519.173	85.12
519.389	91.12
519.605	94.12
519.82	91.12
520.036	98.12
520.251	110.12
520.467	113.12
520.682	113.12
520.898	101.12
521.113	102.12
521.329	141.12
521.544	198.12
521.76	552.12
521.975	2388.12
522.19	1441.12
522.406	313.12
522.621	123.12
522.836	102.12
523.052	84.12
523.267	107.12
523.482	91.12
523.698	116.12
523.913	118.12
524.128	111.12
524.343	87.12
524.559	87.12
524.774	89.12
524.989	94.12
525.204	106.12
525.419	90.12
525.634	91.12
525.849	97.12
526.064	99.12
526.28	97.12
526.495	89.12
526.71	83.12
526.925	100.12
527.14	90.12
527.355	87.12
527.57	79.12
527.785	86.12
527.999	94.12
528.214	98.12
528.429	88.12
528.644	90.12
528.859	96.12
529.074	108.12
529.289	123.12
529.503	171.12
529.718	106.12
529.933	93.12
530.148	95.12
530.363	92.12
530.577	97.12
530.792	101.12
531.007	101.12
531.221	93.12
531.436	72.12
531.651	97.12
531.865	79.12
532.08	101.12
532.295	91.12
532.509	91.12
532.724	92.12
532.938	85.12
533.153	98.12
533.367	89.12
533.582	86.12
533.796	100.12
534.011	93.12
534.225	82.12
534.44	86.12
534.654	105.12
534.868	113.12
535.083	91.12
535.297	90.12
535.511	96.12
535.726	98.12
535.94	116.12
536.154	103.12
536.369	105.12
536.583	91.12
536.797	98.12
537.011	89.12
537.225	101.12
537.44	93.12
537.654	85.12
537.868	88.12
538.082	106.12
538.296	99.12
538.51	96.12
538.724	87.12
538.938	84.12
539.153	100.12
539.367	97.12
539.581	99.12
539.795	86.12
540.009	95.12
540.222	100.12
540.436	93.12
540.65	76.12
540.864	99.12
541.078	95.12
541.292	91.12
541.506	81.12
541.72	90.12
541.934	77.12
542.147	86.12
542.361	74.12
542.575	92.12
542.789	90.12
543.002	95.12
543.216	100.12
543.43	95.12
543.644	83.12
543.857	89.12
544.071	86.12
544.285	90.12
544.498	84.12
544.712	95.12
544.925	82.12
545.139	86.12
545.352	78.12
545.566	99.12
545.779	105.12
545.993	88.12
546.206	84.12
546.42	71.12
546.633	105.12
546.847	94.12
547.06	77.12
547.274	101.12
547.487	90.12
547.7	95.12
547.914	114.12
548.127	97.12
548.34	90.12
548.554	97.12
548.767	82.12
548.98	91.12
549.193	91.12
549.407	99.12
549.62	94.12
549.833	92.12
550.046	76.12
550.259	77.12
550.473	80.12
550.686	91.12
550.899	93.12
551.112	83.12
551.325	90.12
551.538	77.12
551.751	99.12
551.964	80.12
552.177	71.12
552.39	76.12
552.603	79.12
552.816	111.12
553.029	86.12
553.242	83.12
553.455	100.12
553.667	120.12
553.88	110.12
554.093	98.12
554.306	76.12
554.519	98.12
554.732	96.12
554.944	102.12
555.157	82.12
555.37	104.12
555.583	97.12
555.795	99.12
556.008	94.12
556.221	106.12
556.433	101.12
556.646	87.12
556.859	86.12
557.071	96.12
557.284	95.12
557.496	82.12
557.709	85.12
557.921	91.12
558.134	88.12
558.346	93.12
558.559	95.12
558.771	94.12
558.984	92.12
559.196	93.12
559.409	78.12
559.621	87.12
559.833	89.12
560.046	90.12
560.258	93.12
560.47	97.12
560.683	83.12
560.895	77.12
561.107	79.12
561.32	93.12
561.532	86.12
561.744	87.12
561.956	85.12
562.168	86.12
562.381	93.12
562.593	94.12
562.805	86.12
563.017	96.12
563.229	94.12
563.441	100.12
563.653	84.12
563.865	82.12
564.077	95.12
564.289	83.12
564.501	95.12
564.713	90.12
564.925	97.12
565.137	109.12
565.349	93.12
565.561	98.12
565.773	89.12
565.985	76.12
566.197	92.12
566.408	75.12
566.62	99.12
566.832	86.12
567.044	98.12
567.255	87.12
567.467	100.12
567.679	83.12
567.891	83.12
568.102	90.12
568.314	86.12
568.526	92.12
568.737	91.12
568.949	74.12
569.161	105.12
569.372	82.12
569.584	88.12
569.795	106.12
570.007	111.12
570.218	246.12
570.43	132.12
570.641	87.12
570.853	87.12
571.064	91.12
571.276	78.12
571.487	83.12
571.698	101.12
571.91	86.12
572.121	95.12
572.333	87.12
572.544	78.12
572.755	70.12
572.966	89.12
573.178	87.12
573.389	87.12
573.6	83.12
573.811	90.12
574.023	90.12
574.234	97.12
574.445	92.12
574.656	92.12
574.867	83.12
575.078	85.12
575.289	97.12
575.501	94.12
575.712	82.12
575.923	85.12
576.134	85.12
576.345	86.12
576.556	95.12
576.767	97.12
576.978	87.12
577.188	99.12
577.399	109.12
577.61	106.12
577.821	102.12
578.032	115.12
578.243	284.12
578.454	805.12
578.665	220.12
578.875	97.12
579.086	77.12
579.297	73.12
579.508	94.12
579.718	90.12
579.929	85.12
580.14	78.12
580.35	87.12
580.561	83.12
580.772	73.12
580.982	79.12
581.193	82.12
581.403	82.12
581.614	92.12
581.825	84.12
582.035	88.12
582.246	91.12
582.456	74.12
582.667	73.12
582.877	86.12
583.087	88.12
583.298	83.12
583.508	101.12
583.719	94.12
583.929	96.12
584.139	71.12
584.35	88.12
584.56	91.12
584.77	91.12
584.981	81.12
585.191	86.12
585.401	86.12
585.611	87.12
585.821	86.12
586.032	84.12
586.242	84.12
586.452	91.12
586.662	85.12
586.872	91.12
587.082	78.12
587.292	98.12
587.502	92.12
587.713	82.12
587.923	93.12
588.133	85.12
588.343	70.12
588.553	78.12
588.762	75.12
588.972	73.12
589.182	95.12
589.392	85.12
589.602	82.12
589.812	89.12
590.022	77.12
590.232	93.12
590.441	91.12
590.651	84.12
590.861	82.12
591.071	94.12
591.281	85.12
591.49	81.12
591.7	75.12
591.91	104.12
592.119	95.12
592.329	79.12
592.539	103.12
592.748	89.12
592.958	80.12
593.167	86.12
593.377	75.12
593.587	97.12
593.796	84.12
594.006	92.12
594.215	88.12
594.424	99.12
594.634	85.12
594.843	94.12
595.053	94.12
595.262	92.12
595.472	79.12
595.681	88.12
595.89	87.12
596.1	88.12
596.309	95.12
596.518	98.12
596.727	90.12
596.937	81.12
597.146	93.12
597.355	79.12
597.564	85.12
597.774	93.12
597.983	93.12
598.192	84.12
598.401	82.12
598.61	84.12
598.819	79.12
599.028	93.12
599.237	96.12
599.446	72.12
599.655	78.12
599.864	75.12
600.073	89.12
600.282	86.12
600.491	91.12
600.7	91.12
600.909	100.12
601.118	84.12
601.327	87.12
601.536	88.12
601.745	80.12
601.953	90.12
602.162	93.12
602.371	100.12
602.58	85.12
602.789	85.12
602.997	87.12
603.206	86.12
603.415	96.12
603.623	70.12
603.832	87.12
604.041	85.12
604.249	88.12
604.458	81.12
604.666	78.12
604.875	86.12
605.084	70.12
605.292	90.12
605.501	94.12
605.709	96.12
605.918	97.12
606.126	92.12
606.334	78.12
606.543	81.12
606.751	92.12
606.96	79.12
607.168	82.12
607.376	93.12
607.585	84.12
607.793	84.12
608.001	97.12
608.21	77.12
608.418	85.12
608.626	72.12
608.834	97.12
609.043	86.12
609.251	100.12
609.459	75.12
609.667	78.12
609.875	91.12
610.083	83.12
610.291	76.12
610.499	82.12
610.707	82.12
610.916	80.12
611.124	80.12
611.332	105.12
611.54	92.12
611.748	95.12
611.955	84.12
612.163	73.12
612.371	86.12
612.579	83.12
612.787	85.12
612.995	90.12
613.203	89.12
613.411	83.12
613.618	91.12
613.826	92.12
614.034	83.12
614.242	84.12
614.449	93.12
614.657	89.12
614.865	101.12
615.072	72.12
615.28	86.12
615.488	82.12
615.695	93.12
615.903	98.12
616.111	107.12
616.318	102.12
616.526	97.12
616.733	91.12
616.941	91.12
617.148	97.12
617.356	87.12
617.563	83.12
617.771	87.12
617.978	79.12
618.185	82.12
618.393	93.12
618.6	73.12
618.807	78.12
619.015	88.12
619.222	85.12
619.429	76.12
619.637	94.12
619.844	82.12
620.051	82.12
620.258	75.12
620.466	82.12
620.673	79.12
620.88	81.12
621.087	75.12
621.294	100.12
621.501	83.12
621.708	92.12
621.915	95.12
622.122	95.12
622.329	68.12
622.536	85.12
622.743	88.12
622.95	92.12
623.157	90.12
623.364	85.12
623.571	96.12
623.778	87.12
623.985	95.12
624.192	81.12
624.399	86.12
624.606	80.12
624.812	80.12
625.019	78.12
625.226	96.12
625.433	94.12
625.639	78.12
625.846	86.12
626.053	93.12
626.259	86.12
626.466	80.12
626.673	81.12
626.879	88.12
627.086	92.12
627.293	90.12
627.499	66.12
627.706	80.12
627.912	80.12
628.119	93.12
628.325	80.12
628.532	94.12
628.738	82.12
628.945	78.12
629.151	86.12
629.357	95.12
629.564	86.12
629.77	80.12
629.976	97.12
630.183	72.12
630.389	81.12
630.595	80.12
630.802	97.12
631.008	82.12
631.214	102.12
631.42	84.12
631.627	89.12
631.833	73.12
632.039	83.12
632.245	86.12
632.451	63.12
632.657	77.12
632.863	82.12
633.069	104.12
633.275	71.12
633.481	84.12
633.688	83.12
633.893	98.12
634.099	71.12
634.305	76.12
634.511	93.12
634.717	86.12
634.923	78.12
635.129	85.12
635.335	92.12
635.541	68.12
635.747	90.12
635.952	92.12
636.158	83.12
636.364	83.12
636.57	79.12
636.775	81.12
636.981	75.12
637.187	80.12
637.392	78.12
637.598	81.12
637.804	79.12
638.009	90.12
638.215	73.12
638.421	77.12
638.626	92.12
638.832	68.12
639.037	76.12
639.243	72.12
639.448	93.12
639.654	93.12
639.859	97.12
640.065	84.12
640.27	93.12
640.475	84.12
640.681	75.12
640.886	87.12
641.091	76.12
641.297	76.12
641.502	77.12
641.707	79.12
641.913	85.12
642.118	87.12
642.323	82.12
642.528	85.12
642.733	84.12
642.939	85.12
643.144	86.12
643.349	86.12
643.554	90.12
643.759	87.12
643.964	83.12
644.169	73.12
644.374	85.12
644.579	76.12
644.784	89.12
644.989	89.12
645.194	86.12
645.399	76.12
645.604	89.12
645.809	98.12
646.014	79.12
646.219	81.12
646.423	74.12
646.628	82.12
646.833	84.12
647.038	70.12
647.243	99.12
647.447	84.12
647.652	80.12
647.857	92.12
648.062	76.12
648.266	87.12
648.471	99.12
648.676	93.12
648.88	84.12
649.085	86.12
649.289	80.12
649.494	104.12
649.698	137.12
649.903	100.12
650.107	79.12
650.312	73.12
650.516	90.12
650.721	95.12
650.925	102.12
651.13	83.12
651.334	74.12
651.539	86.12
651.743	77.12
651.947	83.12
652.152	85.12
652.356	87.12
652.56	79.12
652.764	73.12
652.969	82.12
653.173	76.12
653.377	95.12
653.581	83.12
653.785	86.12
653.99	88.12
654.194	86.12
654.398	81.12
654.602	79.12
654.806	102.12
655.01	96.12
655.214	81.12
655.418	79.12
655.622	82.12
655.826	93.12
656.03	86.12
656.234	89.12
656.438	101.12
656.642	98.12
656.846	99.12
657.049	98.12
657.253	90.12
657.457	90.12
657.661	62.12
657.865	81.12
658.068	65.12
658.272	75.12
658.476	83.12
658.68	89.12
658.883	69.12
659.087	71.12
659.291	69.12
659.494	96.12
659.698	91.12
659.901	80.12
660.105	69.12
660.309	78.12
660.512	81.12
660.716	91.12
660.919	90.12
661.123	76.12
661.326	70.12
661.53	81.12
661.733	93.12
661.936	74.12
662.14	77.12
662.343	86.12
662.546	77.12
662.75	70.12
662.953	73.12
663.156	86.12
663.36	69.12
663.563	80.12
663.766	81.12
663.969	77.12
664.173	95.12
664.376	90.12
664.579	75.12
664.782	75.12
664.985	80.12
665.188	89.12
665.391	94.12
665.594	79.12
665.797	98.12
666	84.12
666.203	84.12
666.406	74.12
666.609	81.12
666.812	84.12
667.015	77.12
667.218	74.12
667.421	87.12
667.624	99.12
667.827	91.12
668.03	86.12
668.232	83.12
668.435	74.12
668.638	80.12
668.841	93.12
669.043	75.12
669.246	78.12
669.449	85.12
669.651	78.12
669.854	78.12
670.057	79.12
670.259	98.12
670.462	82.12
670.665	78.12
670.867	83.12
671.07	95.12
671.272	79.12
671.475	78.12
671.677	79.12
671.88	81.12
672.082	75.12
672.284	70.12
672.487	74.12
672.689	84.12
672.892	71.12
