Data from Uncirc_2006_H10_HRD10591_00033.txt Node
Date: Wed Jan 03 10:25:01 EST 2024
User: Yrep
Spectrometer: HR+D1059
Trigger mode: 1
Integration Time (sec): 1.000000E-1
Scans to average: 1
Electric dark correction enabled: true
Nonlinearity correction enabled: false
Boxcar width: 0
XAxis mode: Wavelengths
Number of Pixels in Spectrum: 2048
>>>>>Begin Spectral Data<<<<<
223.165	-14.38
223.4	-14.38
223.635	-14.38
223.869	-18.38
224.104	-26.38
224.338	-17.38
224.573	0.62
224.808	-25.38
225.042	3.62
225.277	2.62
225.511	-4.38
225.746	4.62
225.98	5.62
226.215	5.62
226.449	10.62
226.683	22.62
226.918	19.62
227.152	30.62
227.387	34.62
227.621	41.62
227.856	50.62
228.09	44.62
228.324	54.62
228.559	60.62
228.793	54.62
229.027	74.62
229.262	65.62
229.496	63.62
229.73	66.62
229.964	76.62
230.199	78.62
230.433	82.62
230.667	81.62
230.901	86.62
231.136	87.62
231.37	83.62
231.604	90.62
231.838	76.62
232.072	75.62
232.306	93.62
232.541	76.62
232.775	67.62
233.009	86.62
233.243	76.62
233.477	76.62
233.711	92.62
233.945	83.62
234.179	78.62
234.413	78.62
234.647	86.62
234.881	85.62
235.115	73.62
235.349	71.62
235.583	73.62
235.817	59.62
236.051	80.62
236.285	79.62
236.519	81.62
236.753	86.62
236.987	73.62
237.221	80.62
237.455	87.62
237.689	68.62
237.922	98.62
238.156	77.62
238.39	65.62
238.624	70.62
238.858	78.62
239.091	78.62
239.325	67.62
239.559	71.62
239.793	86.62
240.027	81.62
240.26	77.62
240.494	66.62
240.728	76.62
240.961	70.62
241.195	90.62
241.429	86.62
241.662	82.62
241.896	81.62
242.13	69.62
242.363	81.62
242.597	86.62
242.83	88.62
243.064	79.62
243.298	72.62
243.531	75.62
243.765	68.62
243.998	73.62
244.232	78.62
244.465	75.62
244.699	70.62
244.932	59.62
245.166	75.62
245.399	91.62
245.633	70.62
245.866	70.62
246.099	78.62
246.333	73.62
246.566	75.62
246.8	79.62
247.033	79.62
247.266	89.62
247.5	76.62
247.733	83.62
247.966	75.62
248.2	78.62
248.433	79.62
248.666	89.62
248.899	81.62
249.133	69.62
249.366	81.62
249.599	96.62
249.832	71.62
250.066	86.62
250.299	77.62
250.532	69.62
250.765	93.62
250.998	86.62
251.231	84.62
251.465	93.62
251.698	87.62
251.931	74.62
252.164	71.62
252.397	74.62
252.63	89.62
252.863	82.62
253.096	91.62
253.329	74.62
253.562	77.62
253.795	89.62
254.028	80.62
254.261	75.62
254.494	94.62
254.727	83.62
254.96	62.62
255.193	94.62
255.426	94.62
255.659	82.62
255.892	74.62
256.124	80.62
256.357	72.62
256.59	78.62
256.823	78.62
257.056	68.62
257.289	90.62
257.521	77.62
257.754	79.62
257.987	77.62
258.22	78.62
258.452	82.62
258.685	80.62
258.918	84.62
259.151	81.62
259.383	90.62
259.616	95.62
259.849	78.62
260.081	95.62
260.314	86.62
260.547	85.62
260.779	74.62
261.012	103.62
261.244	78.62
261.477	92.62
261.71	97.62
261.942	104.62
262.175	114.62
262.407	78.62
262.64	83.62
262.872	92.62
263.105	81.62
263.337	75.62
263.57	84.62
263.802	77.62
264.035	89.62
264.267	78.62
264.499	84.62
264.732	80.62
264.964	89.62
265.197	90.62
265.429	84.62
265.661	86.62
265.894	83.62
266.126	87.62
266.358	80.62
266.591	89.62
266.823	78.62
267.055	94.62
267.287	63.62
267.52	67.62
267.752	74.62
267.984	71.62
268.216	93.62
268.448	90.62
268.681	98.62
268.913	88.62
269.145	85.62
269.377	87.62
269.609	87.62
269.841	76.62
270.073	92.62
270.306	82.62
270.538	82.62
270.77	74.62
271.002	83.62
271.234	78.62
271.466	77.62
271.698	80.62
271.93	79.62
272.162	73.62
272.394	93.62
272.626	73.62
272.858	73.62
273.09	101.62
273.322	77.62
273.553	86.62
273.785	88.62
274.017	84.62
274.249	79.62
274.481	82.62
274.713	80.62
274.945	80.62
275.176	93.62
275.408	77.62
275.64	86.62
275.872	85.62
276.104	82.62
276.335	96.62
276.567	90.62
276.799	86.62
277.031	97.62
277.262	101.62
277.494	80.62
277.726	86.62
277.957	79.62
278.189	84.62
278.421	89.62
278.652	95.62
278.884	101.62
279.115	87.62
279.347	84.62
279.579	81.62
279.81	81.62
280.042	75.62
280.273	79.62
280.505	83.62
280.736	97.62
280.968	91.62
281.199	67.62
281.431	93.62
281.662	91.62
281.894	88.62
282.125	90.62
282.356	108.62
282.588	124.62
282.819	114.62
283.051	84.62
283.282	84.62
283.513	84.62
283.745	98.62
283.976	82.62
284.207	91.62
284.439	86.62
284.67	86.62
284.901	83.62
285.132	87.62
285.364	94.62
285.595	86.62
285.826	84.62
286.057	99.62
286.288	91.62
286.52	84.62
286.751	85.62
286.982	81.62
287.213	99.62
287.444	77.62
287.675	78.62
287.906	83.62
288.138	90.62
288.369	84.62
288.6	84.62
288.831	91.62
289.062	88.62
289.293	90.62
289.524	85.62
289.755	100.62
289.986	98.62
290.217	93.62
290.448	82.62
290.679	100.62
290.91	82.62
291.141	82.62
291.371	87.62
291.602	97.62
291.833	101.62
292.064	86.62
292.295	75.62
292.526	85.62
292.757	105.62
292.987	110.62
293.218	97.62
293.449	78.62
293.68	91.62
293.91	76.62
294.141	80.62
294.372	74.62
294.603	83.62
294.833	87.62
295.064	91.62
295.295	94.62
295.525	103.62
295.756	98.62
295.987	108.62
296.217	127.62
296.448	117.62
296.679	91.62
296.909	83.62
297.14	83.62
297.37	89.62
297.601	88.62
297.831	93.62
298.062	85.62
298.292	97.62
298.523	100.62
298.753	92.62
298.984	94.62
299.214	93.62
299.445	96.62
299.675	85.62
299.905	79.62
300.136	84.62
300.366	78.62
300.597	105.62
300.827	95.62
301.057	94.62
301.288	114.62
301.518	100.62
301.748	78.62
301.979	86.62
302.209	85.62
302.439	84.62
302.669	81.62
302.9	84.62
303.13	91.62
303.36	98.62
303.59	112.62
303.82	92.62
304.051	99.62
304.281	86.62
304.511	87.62
304.741	83.62
304.971	75.62
305.201	87.62
305.431	95.62
305.661	91.62
305.891	84.62
306.121	107.62
306.352	97.62
306.582	116.62
306.812	93.62
307.042	81.62
307.272	86.62
307.502	93.62
307.731	86.62
307.961	87.62
308.191	79.62
308.421	95.62
308.651	85.62
308.881	98.62
309.111	87.62
309.341	92.62
309.571	91.62
309.8	94.62
310.03	96.62
310.26	85.62
310.49	92.62
310.72	85.62
310.949	101.62
311.179	99.62
311.409	98.62
311.639	86.62
311.868	94.62
312.098	81.62
312.328	96.62
312.557	95.62
312.787	113.62
313.017	95.62
313.246	101.62
313.476	90.62
313.706	86.62
313.935	101.62
314.165	106.62
314.394	93.62
314.624	95.62
314.853	93.62
315.083	97.62
315.312	95.62
315.542	95.62
315.771	88.62
316.001	89.62
316.23	97.62
316.46	98.62
316.689	96.62
316.919	107.62
317.148	95.62
317.377	103.62
317.607	83.62
317.836	86.62
318.065	92.62
318.295	90.62
318.524	91.62
318.753	83.62
318.983	92.62
319.212	93.62
319.441	105.62
319.67	125.62
319.9	110.62
320.129	102.62
320.358	95.62
320.587	94.62
320.816	93.62
321.046	104.62
321.275	104.62
321.504	87.62
321.733	103.62
321.962	96.62
322.191	111.62
322.42	85.62
322.649	98.62
322.878	103.62
323.108	115.62
323.337	128.62
323.566	117.62
323.795	145.62
324.024	200.62
324.253	386.62
324.482	805.62
324.71	1643.62
324.939	2166.62
325.168	798.62
325.397	242.62
325.626	124.62
325.855	122.62
326.084	121.62
326.313	127.62
326.542	158.62
326.77	239.62
326.999	438.62
327.228	904.62
327.457	1673.62
327.686	1324.62
327.914	360.62
328.143	191.62
328.372	139.62
328.6	121.62
328.829	114.62
329.058	128.62
329.287	99.62
329.515	118.62
329.744	97.62
329.972	93.62
330.201	104.62
330.43	93.62
330.658	103.62
330.887	125.62
331.115	118.62
331.344	106.62
331.572	100.62
331.801	87.62
332.03	88.62
332.258	98.62
332.486	95.62
332.715	90.62
332.943	83.62
333.172	82.62
333.4	83.62
333.629	106.62
333.857	110.62
334.085	100.62
334.314	105.62
334.542	95.62
334.771	89.62
334.999	98.62
335.227	87.62
335.455	94.62
335.684	109.62
335.912	103.62
336.14	101.62
336.369	87.62
336.597	104.62
336.825	98.62
337.053	110.62
337.281	106.62
337.51	99.62
337.738	80.62
337.966	88.62
338.194	91.62
338.422	89.62
338.65	105.62
338.878	95.62
339.106	94.62
339.334	97.62
339.562	95.62
339.79	91.62
340.018	93.62
340.246	93.62
340.474	85.62
340.702	112.62
340.93	104.62
341.158	97.62
341.386	95.62
341.614	103.62
341.842	98.62
342.07	108.62
342.298	100.62
342.526	90.62
342.754	95.62
342.981	94.62
343.209	78.62
343.437	82.62
343.665	73.62
343.893	85.62
344.12	109.62
344.348	84.62
344.576	92.62
344.804	79.62
345.031	74.62
345.259	88.62
345.487	99.62
345.714	97.62
345.942	109.62
346.17	93.62
346.397	107.62
346.625	89.62
346.853	99.62
347.08	92.62
347.308	89.62
347.535	105.62
347.763	101.62
347.99	87.62
348.218	104.62
348.445	97.62
348.673	108.62
348.9	89.62
349.128	97.62
349.355	100.62
349.583	82.62
349.81	92.62
350.037	102.62
350.265	91.62
350.492	91.62
350.72	95.62
350.947	105.62
351.174	108.62
351.402	95.62
351.629	102.62
351.856	92.62
352.083	108.62
352.311	97.62
352.538	113.62
352.765	108.62
352.992	104.62
353.22	99.62
353.447	122.62
353.674	106.62
353.901	109.62
354.128	97.62
354.355	106.62
354.583	96.62
354.81	103.62
355.037	91.62
355.264	90.62
355.491	94.62
355.718	91.62
355.945	92.62
356.172	99.62
356.399	94.62
356.626	87.62
356.853	89.62
357.08	104.62
357.307	88.62
357.534	78.62
357.761	102.62
357.988	110.62
358.215	104.62
358.441	98.62
358.668	108.62
358.895	103.62
359.122	90.62
359.349	78.62
359.576	94.62
359.802	99.62
360.029	108.62
360.256	106.62
360.483	93.62
360.709	100.62
360.936	94.62
361.163	101.62
361.39	86.62
361.616	88.62
361.843	82.62
362.07	102.62
362.296	105.62
362.523	95.62
362.749	89.62
362.976	90.62
363.203	98.62
363.429	96.62
363.656	91.62
363.882	86.62
364.109	101.62
364.335	86.62
364.562	90.62
364.788	84.62
365.015	101.62
365.241	96.62
365.468	115.62
365.694	121.62
365.92	91.62
366.147	85.62
366.373	94.62
366.599	91.62
366.826	88.62
367.052	79.62
367.278	101.62
367.505	84.62
367.731	84.62
367.957	87.62
368.184	82.62
368.41	81.62
368.636	101.62
368.862	102.62
369.089	97.62
369.315	85.62
369.541	86.62
369.767	75.62
369.993	82.62
370.219	70.62
370.445	84.62
370.672	95.62
370.898	95.62
371.124	107.62
371.35	92.62
371.576	81.62
371.802	78.62
372.028	82.62
372.254	103.62
372.48	86.62
372.706	94.62
372.932	94.62
373.158	86.62
373.384	74.62
373.61	93.62
373.835	77.62
374.061	77.62
374.287	87.62
374.513	90.62
374.739	96.62
374.965	93.62
375.191	90.62
375.416	82.62
375.642	81.62
375.868	90.62
376.094	90.62
376.319	75.62
376.545	93.62
376.771	96.62
376.997	94.62
377.222	87.62
377.448	105.62
377.674	103.62
377.899	106.62
378.125	91.62
378.35	92.62
378.576	92.62
378.802	86.62
379.027	87.62
379.253	90.62
379.478	96.62
379.704	95.62
379.929	92.62
380.155	100.62
380.38	86.62
380.606	79.62
380.831	106.62
381.057	105.62
381.282	96.62
381.507	83.62
381.733	98.62
381.958	100.62
382.184	90.62
382.409	95.62
382.634	97.62
382.86	101.62
383.085	94.62
383.31	91.62
383.535	103.62
383.761	95.62
383.986	101.62
384.211	102.62
384.436	110.62
384.662	95.62
384.887	109.62
385.112	105.62
385.337	98.62
385.562	97.62
385.787	114.62
386.013	119.62
386.238	111.62
386.463	105.62
386.688	117.62
386.913	101.62
387.138	102.62
387.363	114.62
387.588	110.62
387.813	109.62
388.038	113.62
388.263	114.62
388.488	116.62
388.713	106.62
388.938	102.62
389.163	96.62
389.387	103.62
389.612	82.62
389.837	93.62
390.062	99.62
390.287	81.62
390.512	108.62
390.736	101.62
390.961	89.62
391.186	91.62
391.411	100.62
391.636	99.62
391.86	90.62
392.085	85.62
392.31	75.62
392.534	85.62
392.759	95.62
392.984	92.62
393.208	80.62
393.433	94.62
393.658	101.62
393.882	80.62
394.107	90.62
394.331	93.62
394.556	94.62
394.78	88.62
395.005	82.62
395.229	83.62
395.454	88.62
395.678	91.62
395.903	72.62
396.127	91.62
396.352	99.62
396.576	85.62
396.801	93.62
397.025	95.62
397.249	80.62
397.474	93.62
397.698	84.62
397.922	79.62
398.147	68.62
398.371	84.62
398.595	93.62
398.82	67.62
399.044	89.62
399.268	85.62
399.492	90.62
399.717	84.62
399.941	80.62
400.165	97.62
400.389	102.62
400.613	84.62
400.837	93.62
401.062	94.62
401.286	98.62
401.51	99.62
401.734	91.62
401.958	82.62
402.182	113.62
402.406	137.62
402.63	104.62
402.854	90.62
403.078	80.62
403.302	83.62
403.526	82.62
403.75	85.62
403.974	86.62
404.198	80.62
404.422	93.62
404.645	85.62
404.869	90.62
405.093	93.62
405.317	88.62
405.541	86.62
405.765	92.62
405.988	98.62
406.212	158.62
406.436	217.62
406.66	141.62
406.883	101.62
407.107	87.62
407.331	98.62
407.555	89.62
407.778	94.62
408.002	87.62
408.226	85.62
408.449	97.62
408.673	92.62
408.896	84.62
409.12	95.62
409.344	94.62
409.567	92.62
409.791	102.62
410.014	96.62
410.238	103.62
410.461	92.62
410.685	98.62
410.908	88.62
411.132	101.62
411.355	81.62
411.578	78.62
411.802	88.62
412.025	92.62
412.249	88.62
412.472	83.62
412.695	89.62
412.919	87.62
413.142	87.62
413.365	91.62
413.589	85.62
413.812	80.62
414.035	80.62
414.258	84.62
414.482	80.62
414.705	70.62
414.928	100.62
415.151	106.62
415.374	86.62
415.597	85.62
415.821	91.62
416.044	82.62
416.267	86.62
416.49	96.62
416.713	101.62
416.936	82.62
417.159	88.62
417.382	89.62
417.605	86.62
417.828	90.62
418.051	96.62
418.274	99.62
418.497	87.62
418.72	71.62
418.943	86.62
419.166	90.62
419.389	93.62
419.611	67.62
419.834	94.62
420.057	91.62
420.28	86.62
420.503	84.62
420.726	106.62
420.948	90.62
421.171	84.62
421.394	89.62
421.617	93.62
421.839	90.62
422.062	99.62
422.285	91.62
422.507	97.62
422.73	99.62
422.953	92.62
423.175	81.62
423.398	87.62
423.621	87.62
423.843	73.62
424.066	91.62
424.288	106.62
424.511	83.62
424.733	88.62
424.956	110.62
425.178	102.62
425.401	90.62
425.623	91.62
425.846	96.62
426.068	100.62
426.291	89.62
426.513	84.62
426.735	76.62
426.958	92.62
427.18	102.62
427.402	121.62
427.625	154.62
427.847	110.62
428.069	102.62
428.292	90.62
428.514	102.62
428.736	73.62
428.958	105.62
429.181	106.62
429.403	92.62
429.625	81.62
429.847	102.62
430.069	85.62
430.292	95.62
430.514	104.62
430.736	86.62
430.958	86.62
431.18	86.62
431.402	92.62
431.624	86.62
431.846	84.62
432.068	87.62
432.29	97.62
432.512	91.62
432.734	88.62
432.956	83.62
433.178	91.62
433.4	87.62
433.622	95.62
433.844	87.62
434.066	98.62
434.287	83.62
434.509	86.62
434.731	85.62
434.953	94.62
435.175	92.62
435.397	105.62
435.618	107.62
435.84	103.62
436.062	104.62
436.284	104.62
436.505	92.62
436.727	86.62
436.949	105.62
437.17	92.62
437.392	93.62
437.614	87.62
437.835	96.62
438.057	109.62
438.278	107.62
438.5	98.62
438.721	106.62
438.943	82.62
439.165	84.62
439.386	72.62
439.608	95.62
439.829	91.62
440.05	117.62
440.272	131.62
440.493	98.62
440.715	90.62
440.936	96.62
441.158	100.62
441.379	95.62
441.6	84.62
441.822	90.62
442.043	86.62
442.264	83.62
442.486	87.62
442.707	93.62
442.928	102.62
443.149	119.62
443.371	110.62
443.592	104.62
443.813	116.62
444.034	104.62
444.255	85.62
444.476	85.62
444.698	93.62
444.919	84.62
445.14	118.62
445.361	119.62
445.582	108.62
445.803	121.62
446.024	117.62
446.245	119.62
446.466	102.62
446.687	93.62
446.908	90.62
447.129	93.62
447.35	91.62
447.571	86.62
447.792	78.62
448.013	87.62
448.234	89.62
448.455	89.62
448.675	106.62
448.896	104.62
449.117	93.62
449.338	108.62
449.559	121.62
449.779	125.62
450	98.62
450.221	92.62
450.442	88.62
450.662	97.62
450.883	103.62
451.104	107.62
451.324	90.62
451.545	80.62
451.766	77.62
451.986	90.62
452.207	84.62
452.428	86.62
452.648	101.62
452.869	115.62
453.089	114.62
453.31	101.62
453.53	86.62
453.751	83.62
453.971	115.62
454.192	86.62
454.412	91.62
454.633	76.62
454.853	74.62
455.073	80.62
455.294	98.62
455.514	109.62
455.734	84.62
455.955	87.62
456.175	83.62
456.395	82.62
456.616	90.62
456.836	85.62
457.056	89.62
457.276	77.62
457.497	100.62
457.717	79.62
457.937	84.62
458.157	90.62
458.377	72.62
458.598	90.62
458.818	141.62
459.038	145.62
459.258	98.62
459.478	92.62
459.698	78.62
459.918	91.62
460.138	92.62
460.358	85.62
460.578	87.62
460.798	86.62
461.018	94.62
461.238	84.62
461.458	95.62
461.678	82.62
461.898	83.62
462.118	96.62
462.338	87.62
462.558	87.62
462.777	88.62
462.997	87.62
463.217	89.62
463.437	92.62
463.657	92.62
463.876	91.62
464.096	94.62
464.316	88.62
464.536	97.62
464.755	99.62
464.975	97.62
465.195	138.62
465.414	159.62
465.634	81.62
465.854	91.62
466.073	81.62
466.293	100.62
466.512	82.62
466.732	85.62
466.951	84.62
467.171	96.62
467.391	77.62
467.61	107.62
467.829	93.62
468.049	81.62
468.268	75.62
468.488	96.62
468.707	95.62
468.927	77.62
469.146	83.62
469.365	90.62
469.585	77.62
469.804	95.62
470.023	88.62
470.243	90.62
470.462	100.62
470.681	94.62
470.901	85.62
471.12	92.62
471.339	83.62
471.558	86.62
471.777	100.62
471.997	94.62
472.216	87.62
472.435	86.62
472.654	94.62
472.873	90.62
473.092	80.62
473.311	99.62
473.53	78.62
473.749	83.62
473.968	88.62
474.187	100.62
474.406	90.62
474.625	79.62
474.844	83.62
475.063	81.62
475.282	93.62
475.501	85.62
475.72	98.62
475.939	86.62
476.158	82.62
476.377	91.62
476.596	91.62
476.814	81.62
477.033	101.62
477.252	79.62
477.471	89.62
477.69	76.62
477.908	85.62
478.127	82.62
478.346	94.62
478.564	73.62
478.783	102.62
479.002	85.62
479.22	94.62
479.439	112.62
479.658	101.62
479.876	91.62
480.095	102.62
480.313	82.62
480.532	109.62
480.751	103.62
480.969	77.62
481.188	102.62
481.406	90.62
481.624	84.62
481.843	85.62
482.061	87.62
482.28	83.62
482.498	80.62
482.717	90.62
482.935	83.62
483.153	83.62
483.372	82.62
483.59	89.62
483.808	80.62
484.027	90.62
484.245	97.62
484.463	80.62
484.681	107.62
484.9	94.62
485.118	101.62
485.336	97.62
485.554	85.62
485.772	93.62
485.99	98.62
486.209	106.62
486.427	108.62
486.645	102.62
486.863	100.62
487.081	99.62
487.299	102.62
487.517	88.62
487.735	94.62
487.953	87.62
488.171	94.62
488.389	98.62
488.607	105.62
488.825	87.62
489.043	90.62
489.261	95.62
489.479	83.62
489.696	92.62
489.914	88.62
490.132	96.62
490.35	84.62
490.568	84.62
490.786	101.62
491.003	89.62
491.221	83.62
491.439	87.62
491.657	92.62
491.874	93.62
492.092	94.62
492.31	99.62
492.527	82.62
492.745	77.62
492.963	85.62
493.18	88.62
493.398	81.62
493.615	94.62
493.833	104.62
494.05	85.62
494.268	102.62
494.485	97.62
494.703	95.62
494.92	79.62
495.138	107.62
495.355	85.62
495.573	99.62
495.79	86.62
496.008	93.62
496.225	85.62
496.442	82.62
496.66	87.62
496.877	73.62
497.094	105.62
497.312	79.62
497.529	92.62
497.746	75.62
497.963	89.62
498.181	98.62
498.398	92.62
498.615	107.62
498.832	92.62
499.049	95.62
499.267	94.62
499.484	97.62
499.701	93.62
499.918	89.62
500.135	87.62
500.352	89.62
500.569	92.62
500.786	94.62
501.003	79.62
501.22	91.62
501.437	95.62
501.654	93.62
501.871	97.62
502.088	103.62
502.305	104.62
502.522	95.62
502.739	82.62
502.956	95.62
503.172	89.62
503.389	88.62
503.606	106.62
503.823	103.62
504.04	80.62
504.256	95.62
504.473	91.62
504.69	90.62
504.907	83.62
505.123	92.62
505.34	80.62
505.557	98.62
505.773	95.62
505.99	64.62
506.207	90.62
506.423	93.62
506.64	83.62
506.856	93.62
507.073	102.62
507.289	78.62
507.506	90.62
507.722	107.62
507.939	106.62
508.155	98.62
508.372	98.62
508.588	69.62
508.805	96.62
509.021	104.62
509.238	93.62
509.454	99.62
509.67	115.62
509.887	107.62
510.103	118.62
510.319	209.62
510.536	713.62
510.752	2159.62
510.968	614.62
511.184	163.62
511.401	102.62
511.617	104.62
511.833	97.62
512.049	92.62
512.265	94.62
512.481	100.62
512.698	96.62
512.914	88.62
513.13	94.62
513.346	95.62
513.562	84.62
513.778	89.62
513.994	94.62
514.21	102.62
514.426	122.62
514.642	123.62
514.858	121.62
515.074	161.62
515.29	405.62
515.506	1319.62
515.721	484.62
515.937	150.62
516.153	113.62
516.369	93.62
516.585	102.62
516.801	97.62
517.016	86.62
517.232	90.62
517.448	95.62
517.664	101.62
517.879	82.62
518.095	109.62
518.311	87.62
518.527	97.62
518.742	99.62
518.958	90.62
519.173	95.62
519.389	84.62
519.605	89.62
519.82	105.62
520.036	103.62
520.251	107.62
520.467	92.62
520.682	109.62
520.898	111.62
521.113	126.62
521.329	130.62
521.544	191.62
521.76	502.62
521.975	2137.62
522.19	1294.62
522.406	291.62
522.621	116.62
522.836	102.62
523.052	109.62
523.267	92.62
523.482	104.62
523.698	89.62
523.913	122.62
524.128	116.62
524.343	99.62
524.559	93.62
524.774	94.62
524.989	92.62
525.204	94.62
525.419	84.62
525.634	91.62
525.849	102.62
526.064	83.62
526.28	102.62
526.495	100.62
526.71	92.62
526.925	85.62
527.14	82.62
527.355	91.62
527.57	94.62
527.785	89.62
527.999	92.62
528.214	95.62
528.429	96.62
528.644	87.62
528.859	96.62
529.074	78.62
529.289	110.62
529.503	172.62
529.718	105.62
529.933	108.62
530.148	101.62
530.363	111.62
530.577	92.62
530.792	82.62
531.007	83.62
531.221	90.62
531.436	96.62
531.651	100.62
531.865	92.62
532.08	84.62
532.295	88.62
532.509	86.62
532.724	90.62
532.938	87.62
533.153	92.62
533.367	92.62
533.582	113.62
533.796	95.62
534.011	95.62
534.225	94.62
534.44	88.62
534.654	84.62
534.868	95.62
535.083	90.62
535.297	105.62
535.511	110.62
535.726	100.62
535.94	93.62
536.154	91.62
536.369	90.62
536.583	101.62
536.797	96.62
537.011	79.62
537.225	85.62
537.44	82.62
537.654	96.62
537.868	84.62
538.082	95.62
538.296	84.62
538.51	100.62
538.724	93.62
538.938	82.62
539.153	89.62
539.367	101.62
539.581	107.62
539.795	82.62
540.009	83.62
540.222	79.62
540.436	86.62
540.65	92.62
540.864	89.62
541.078	97.62
541.292	82.62
541.506	73.62
541.72	85.62
541.934	91.62
542.147	81.62
542.361	86.62
542.575	90.62
542.789	86.62
543.002	103.62
543.216	105.62
543.43	92.62
543.644	87.62
543.857	78.62
544.071	87.62
544.285	85.62
544.498	94.62
544.712	85.62
544.925	85.62
545.139	87.62
545.352	81.62
545.566	99.62
545.779	97.62
545.993	97.62
546.206	84.62
546.42	89.62
546.633	109.62
546.847	93.62
547.06	85.62
547.274	96.62
547.487	82.62
547.7	95.62
547.914	89.62
548.127	81.62
548.34	81.62
548.554	88.62
548.767	100.62
548.98	88.62
549.193	90.62
549.407	79.62
549.62	79.62
549.833	100.62
550.046	105.62
550.259	97.62
550.473	92.62
550.686	73.62
550.899	94.62
551.112	95.62
551.325	84.62
551.538	81.62
551.751	85.62
551.964	78.62
552.177	89.62
552.39	89.62
552.603	90.62
552.816	101.62
553.029	79.62
553.242	97.62
553.455	95.62
553.667	97.62
553.88	99.62
554.093	92.62
554.306	102.62
554.519	85.62
554.732	98.62
554.944	100.62
555.157	96.62
555.37	92.62
555.583	87.62
555.795	97.62
556.008	84.62
556.221	82.62
556.433	90.62
556.646	97.62
556.859	96.62
557.071	85.62
557.284	78.62
557.496	100.62
557.709	81.62
557.921	95.62
558.134	96.62
558.346	79.62
558.559	83.62
558.771	102.62
558.984	90.62
559.196	90.62
559.409	102.62
559.621	94.62
559.833	79.62
560.046	82.62
560.258	95.62
560.47	94.62
560.683	76.62
560.895	85.62
561.107	104.62
561.32	85.62
561.532	80.62
561.744	102.62
561.956	90.62
562.168	88.62
562.381	77.62
562.593	97.62
562.805	86.62
563.017	91.62
563.229	79.62
563.441	94.62
563.653	96.62
563.865	93.62
564.077	91.62
564.289	75.62
564.501	91.62
564.713	84.62
564.925	102.62
565.137	103.62
565.349	103.62
565.561	99.62
565.773	90.62
565.985	102.62
566.197	94.62
566.408	96.62
566.62	89.62
566.832	87.62
567.044	84.62
567.255	82.62
567.467	89.62
567.679	87.62
567.891	89.62
568.102	81.62
568.314	89.62
568.526	91.62
568.737	91.62
568.949	80.62
569.161	89.62
569.372	90.62
569.584	93.62
569.795	98.62
570.007	105.62
570.218	225.62
570.43	126.62
570.641	108.62
570.853	89.62
571.064	85.62
571.276	83.62
571.487	82.62
571.698	93.62
571.91	85.62
572.121	75.62
572.333	88.62
572.544	79.62
572.755	87.62
572.966	87.62
573.178	78.62
573.389	85.62
573.6	86.62
573.811	87.62
574.023	79.62
574.234	91.62
574.445	93.62
574.656	86.62
574.867	98.62
575.078	97.62
575.289	102.62
575.501	96.62
575.712	99.62
575.923	85.62
576.134	79.62
576.345	81.62
576.556	87.62
576.767	86.62
576.978	93.62
577.188	102.62
577.399	101.62
577.61	94.62
577.821	103.62
578.032	127.62
578.243	256.62
578.454	749.62
578.665	222.62
578.875	102.62
579.086	74.62
579.297	88.62
579.508	95.62
579.718	95.62
579.929	93.62
580.14	104.62
580.35	87.62
580.561	93.62
580.772	97.62
580.982	81.62
581.193	83.62
581.403	76.62
581.614	77.62
581.825	92.62
582.035	81.62
582.246	81.62
582.456	79.62
582.667	91.62
582.877	89.62
583.087	84.62
583.298	86.62
583.508	91.62
583.719	91.62
583.929	106.62
584.139	91.62
584.35	85.62
584.56	86.62
584.77	87.62
584.981	96.62
585.191	82.62
585.401	93.62
585.611	83.62
585.821	83.62
586.032	90.62
586.242	82.62
586.452	92.62
586.662	87.62
586.872	97.62
587.082	81.62
587.292	89.62
587.502	85.62
587.713	78.62
587.923	82.62
588.133	87.62
588.343	89.62
588.553	90.62
588.762	70.62
588.972	91.62
589.182	95.62
589.392	97.62
589.602	78.62
589.812	91.62
590.022	99.62
590.232	99.62
590.441	91.62
590.651	81.62
590.861	83.62
591.071	87.62
591.281	87.62
591.49	82.62
591.7	82.62
591.91	92.62
592.119	83.62
592.329	94.62
592.539	83.62
592.748	89.62
592.958	96.62
593.167	93.62
593.377	90.62
593.587	81.62
593.796	85.62
594.006	86.62
594.215	81.62
594.424	84.62
594.634	82.62
594.843	91.62
595.053	82.62
595.262	94.62
595.472	99.62
595.681	86.62
595.89	83.62
596.1	88.62
596.309	86.62
596.518	93.62
596.727	69.62
596.937	87.62
597.146	69.62
597.355	85.62
597.564	84.62
597.774	89.62
597.983	80.62
598.192	69.62
598.401	85.62
598.61	61.62
598.819	81.62
599.028	77.62
599.237	91.62
599.446	96.62
599.655	90.62
599.864	86.62
600.073	98.62
600.282	102.62
600.491	74.62
600.7	95.62
600.909	94.62
601.118	76.62
601.327	91.62
601.536	89.62
601.745	84.62
601.953	81.62
602.162	93.62
602.371	78.62
602.58	89.62
602.789	94.62
602.997	98.62
603.206	93.62
603.415	87.62
603.623	96.62
603.832	89.62
604.041	91.62
604.249	89.62
604.458	77.62
604.666	96.62
604.875	89.62
605.084	82.62
605.292	105.62
605.501	84.62
605.709	94.62
605.918	82.62
606.126	81.62
606.334	82.62
606.543	84.62
606.751	81.62
606.96	86.62
607.168	86.62
607.376	85.62
607.585	85.62
607.793	83.62
608.001	86.62
608.21	78.62
608.418	94.62
608.626	87.62
608.834	70.62
609.043	84.62
609.251	99.62
609.459	76.62
609.667	80.62
609.875	97.62
610.083	78.62
610.291	87.62
610.499	76.62
610.707	92.62
610.916	86.62
611.124	91.62
611.332	68.62
611.54	82.62
611.748	84.62
611.955	93.62
612.163	93.62
612.371	92.62
612.579	80.62
612.787	79.62
612.995	90.62
613.203	84.62
613.411	88.62
613.618	93.62
613.826	85.62
614.034	84.62
614.242	84.62
614.449	77.62
614.657	88.62
614.865	82.62
615.072	85.62
615.28	81.62
615.488	83.62
615.695	84.62
615.903	107.62
616.111	97.62
616.318	109.62
616.526	85.62
616.733	94.62
616.941	90.62
617.148	94.62
617.356	80.62
617.563	89.62
617.771	82.62
617.978	85.62
618.185	87.62
618.393	85.62
618.6	84.62
618.807	89.62
619.015	97.62
619.222	76.62
619.429	94.62
619.637	95.62
619.844	93.62
620.051	91.62
620.258	68.62
620.466	84.62
620.673	69.62
620.88	94.62
621.087	82.62
621.294	76.62
621.501	90.62
621.708	87.62
621.915	78.62
622.122	90.62
622.329	103.62
622.536	100.62
622.743	70.62
622.95	86.62
623.157	83.62
623.364	81.62
623.571	75.62
623.778	85.62
623.985	96.62
624.192	86.62
624.399	82.62
624.606	82.62
624.812	87.62
625.019	92.62
625.226	67.62
625.433	83.62
625.639	84.62
625.846	83.62
626.053	86.62
626.259	89.62
626.466	87.62
626.673	73.62
626.879	87.62
627.086	66.62
627.293	83.62
627.499	96.62
627.706	97.62
627.912	93.62
628.119	91.62
628.325	99.62
628.532	93.62
628.738	86.62
628.945	79.62
629.151	77.62
629.357	84.62
629.564	91.62
629.77	75.62
629.976	88.62
630.183	81.62
630.389	77.62
630.595	85.62
630.802	94.62
631.008	102.62
631.214	101.62
631.42	86.62
631.627	90.62
631.833	89.62
632.039	81.62
632.245	81.62
632.451	86.62
632.657	92.62
632.863	91.62
633.069	83.62
633.275	73.62
633.481	76.62
633.688	89.62
633.893	78.62
634.099	85.62
634.305	76.62
634.511	91.62
634.717	87.62
634.923	81.62
635.129	70.62
635.335	84.62
635.541	81.62
635.747	95.62
635.952	80.62
636.158	77.62
636.364	79.62
636.57	82.62
636.775	87.62
636.981	94.62
637.187	94.62
637.392	90.62
637.598	80.62
637.804	93.62
638.009	76.62
638.215	78.62
638.421	84.62
638.626	78.62
638.832	91.62
639.037	87.62
639.243	76.62
639.448	81.62
639.654	96.62
639.859	94.62
640.065	92.62
640.27	92.62
640.475	75.62
640.681	77.62
640.886	86.62
641.091	80.62
641.297	84.62
641.502	95.62
641.707	80.62
641.913	84.62
642.118	91.62
642.323	77.62
642.528	76.62
642.733	61.62
642.939	84.62
643.144	76.62
643.349	78.62
643.554	92.62
643.759	88.62
643.964	88.62
644.169	94.62
644.374	84.62
644.579	98.62
644.784	97.62
644.989	89.62
645.194	86.62
645.399	80.62
645.604	85.62
645.809	96.62
646.014	83.62
646.219	80.62
646.423	89.62
646.628	101.62
646.833	73.62
647.038	84.62
647.243	67.62
647.447	75.62
647.652	93.62
647.857	92.62
648.062	90.62
648.266	75.62
648.471	76.62
648.676	85.62
648.88	99.62
649.085	92.62
649.289	97.62
649.494	100.62
649.698	134.62
649.903	103.62
650.107	78.62
650.312	78.62
650.516	82.62
650.721	94.62
650.925	83.62
651.13	86.62
651.334	100.62
651.539	76.62
651.743	97.62
651.947	94.62
652.152	86.62
652.356	83.62
652.56	90.62
652.764	84.62
652.969	82.62
653.173	87.62
653.377	82.62
653.581	75.62
653.785	84.62
653.99	79.62
654.194	87.62
654.398	76.62
654.602	64.62
654.806	95.62
655.01	98.62
655.214	91.62
655.418	97.62
655.622	78.62
655.826	91.62
656.03	95.62
656.234	77.62
656.438	92.62
656.642	94.62
656.846	96.62
657.049	95.62
657.253	93.62
657.457	70.62
657.661	79.62
657.865	98.62
658.068	83.62
658.272	72.62
658.476	93.62
658.68	87.62
658.883	79.62
659.087	81.62
659.291	63.62
659.494	87.62
659.698	97.62
659.901	95.62
660.105	79.62
660.309	83.62
660.512	67.62
660.716	84.62
660.919	86.62
661.123	85.62
661.326	71.62
661.53	74.62
661.733	76.62
661.936	100.62
662.14	80.62
662.343	75.62
662.546	73.62
662.75	80.62
662.953	86.62
663.156	74.62
663.36	75.62
663.563	87.62
663.766	74.62
663.969	90.62
664.173	87.62
664.376	84.62
664.579	77.62
664.782	85.62
664.985	70.62
665.188	73.62
665.391	85.62
665.594	80.62
665.797	80.62
666	89.62
666.203	89.62
666.406	74.62
666.609	86.62
666.812	75.62
667.015	83.62
667.218	81.62
667.421	81.62
667.624	87.62
667.827	64.62
668.03	62.62
668.232	79.62
668.435	82.62
668.638	73.62
668.841	92.62
669.043	61.62
669.246	79.62
669.449	82.62
669.651	83.62
669.854	70.62
670.057	79.62
670.259	81.62
670.462	82.62
670.665	90.62
670.867	93.62
671.07	79.62
671.272	91.62
671.475	83.62
671.677	85.62
671.88	83.62
672.082	83.62
672.284	88.62
672.487	77.62
672.689	84.62
672.892	81.62
