Data from Uncirc_2006_H10_HRD10591_00090.txt Node
Date: Wed Jan 03 10:25:13 EST 2024
User: Yrep
Spectrometer: HR+D1059
Trigger mode: 1
Integration Time (sec): 1.000000E-1
Scans to average: 1
Electric dark correction enabled: true
Nonlinearity correction enabled: false
Boxcar width: 0
XAxis mode: Wavelengths
Number of Pixels in Spectrum: 2048
>>>>>Begin Spectral Data<<<<<
223.165	-22.56
223.4	-22.56
223.635	-22.56
223.869	-5.56
224.104	-23.56
224.338	-8.56
224.573	-17.56
224.808	-15.56
225.042	0.44
225.277	-21.56
225.511	2.44
225.746	8.44
225.98	3.44
226.215	14.44
226.449	20.44
226.683	8.44
226.918	30.44
227.152	26.44
227.387	43.44
227.621	26.44
227.856	52.44
228.09	44.44
228.324	60.44
228.559	56.44
228.793	60.44
229.027	67.44
229.262	57.44
229.496	72.44
229.73	68.44
229.964	67.44
230.199	65.44
230.433	68.44
230.667	72.44
230.901	75.44
231.136	71.44
231.37	76.44
231.604	84.44
231.838	80.44
232.072	84.44
232.306	79.44
232.541	70.44
232.775	80.44
233.009	74.44
233.243	65.44
233.477	76.44
233.711	70.44
233.945	86.44
234.179	93.44
234.413	90.44
234.647	80.44
234.881	82.44
235.115	76.44
235.349	100.44
235.583	75.44
235.817	77.44
236.051	86.44
236.285	83.44
236.519	77.44
236.753	86.44
236.987	82.44
237.221	84.44
237.455	78.44
237.689	84.44
237.922	77.44
238.156	80.44
238.39	75.44
238.624	73.44
238.858	80.44
239.091	86.44
239.325	71.44
239.559	72.44
239.793	79.44
240.027	90.44
240.26	74.44
240.494	82.44
240.728	74.44
240.961	78.44
241.195	80.44
241.429	86.44
241.662	79.44
241.896	83.44
242.13	68.44
242.363	88.44
242.597	67.44
242.83	65.44
243.064	76.44
243.298	68.44
243.531	60.44
243.765	76.44
243.998	70.44
244.232	75.44
244.465	82.44
244.699	76.44
244.932	85.44
245.166	83.44
245.399	76.44
245.633	81.44
245.866	86.44
246.099	84.44
246.333	79.44
246.566	74.44
246.8	82.44
247.033	83.44
247.266	85.44
247.5	75.44
247.733	60.44
247.966	69.44
248.2	79.44
248.433	83.44
248.666	75.44
248.899	87.44
249.133	94.44
249.366	78.44
249.599	83.44
249.832	85.44
250.066	82.44
250.299	67.44
250.532	68.44
250.765	70.44
250.998	73.44
251.231	73.44
251.465	84.44
251.698	74.44
251.931	67.44
252.164	86.44
252.397	82.44
252.63	87.44
252.863	76.44
253.096	86.44
253.329	79.44
253.562	82.44
253.795	77.44
254.028	79.44
254.261	75.44
254.494	73.44
254.727	68.44
254.96	80.44
255.193	92.44
255.426	85.44
255.659	84.44
255.892	96.44
256.124	74.44
256.357	79.44
256.59	74.44
256.823	83.44
257.056	82.44
257.289	79.44
257.521	76.44
257.754	72.44
257.987	76.44
258.22	78.44
258.452	76.44
258.685	89.44
258.918	96.44
259.151	79.44
259.383	83.44
259.616	79.44
259.849	79.44
260.081	80.44
260.314	81.44
260.547	89.44
260.779	90.44
261.012	89.44
261.244	87.44
261.477	88.44
261.71	84.44
261.942	100.44
262.175	97.44
262.407	89.44
262.64	94.44
262.872	87.44
263.105	80.44
263.337	81.44
263.57	91.44
263.802	68.44
264.035	80.44
264.267	87.44
264.499	80.44
264.732	82.44
264.964	86.44
265.197	85.44
265.429	82.44
265.661	85.44
265.894	80.44
266.126	86.44
266.358	82.44
266.591	96.44
266.823	72.44
267.055	84.44
267.287	81.44
267.52	83.44
267.752	84.44
267.984	84.44
268.216	82.44
268.448	72.44
268.681	84.44
268.913	76.44
269.145	78.44
269.377	84.44
269.609	85.44
269.841	77.44
270.073	84.44
270.306	81.44
270.538	83.44
270.77	73.44
271.002	80.44
271.234	83.44
271.466	83.44
271.698	79.44
271.93	74.44
272.162	90.44
272.394	85.44
272.626	81.44
272.858	80.44
273.09	90.44
273.322	86.44
273.553	77.44
273.785	93.44
274.017	83.44
274.249	86.44
274.481	94.44
274.713	91.44
274.945	73.44
275.176	81.44
275.408	84.44
275.64	77.44
275.872	90.44
276.104	85.44
276.335	83.44
276.567	92.44
276.799	97.44
277.031	99.44
277.262	89.44
277.494	86.44
277.726	80.44
277.957	73.44
278.189	83.44
278.421	72.44
278.652	84.44
278.884	79.44
279.115	100.44
279.347	82.44
279.579	94.44
279.81	77.44
280.042	85.44
280.273	92.44
280.505	102.44
280.736	96.44
280.968	83.44
281.199	88.44
281.431	90.44
281.662	77.44
281.894	83.44
282.125	105.44
282.356	108.44
282.588	124.44
282.819	100.44
283.051	97.44
283.282	81.44
283.513	76.44
283.745	76.44
283.976	90.44
284.207	83.44
284.439	89.44
284.67	81.44
284.901	82.44
285.132	84.44
285.364	84.44
285.595	84.44
285.826	86.44
286.057	85.44
286.288	59.44
286.52	89.44
286.751	91.44
286.982	80.44
287.213	82.44
287.444	102.44
287.675	73.44
287.906	67.44
288.138	103.44
288.369	86.44
288.6	88.44
288.831	87.44
289.062	101.44
289.293	75.44
289.524	74.44
289.755	93.44
289.986	87.44
290.217	97.44
290.448	90.44
290.679	85.44
290.91	86.44
291.141	82.44
291.371	94.44
291.602	89.44
291.833	94.44
292.064	98.44
292.295	84.44
292.526	87.44
292.757	85.44
292.987	84.44
293.218	83.44
293.449	81.44
293.68	70.44
293.91	75.44
294.141	84.44
294.372	92.44
294.603	83.44
294.833	79.44
295.064	84.44
295.295	88.44
295.525	96.44
295.756	75.44
295.987	100.44
296.217	115.44
296.448	109.44
296.679	79.44
296.909	82.44
297.14	94.44
297.37	93.44
297.601	91.44
297.831	94.44
298.062	81.44
298.292	70.44
298.523	85.44
298.753	78.44
298.984	92.44
299.214	85.44
299.445	117.44
299.675	76.44
299.905	75.44
300.136	84.44
300.366	85.44
300.597	87.44
300.827	86.44
301.057	95.44
301.288	99.44
301.518	94.44
301.748	92.44
301.979	85.44
302.209	85.44
302.439	94.44
302.669	87.44
302.9	89.44
303.13	90.44
303.36	93.44
303.59	98.44
303.82	90.44
304.051	81.44
304.281	77.44
304.511	87.44
304.741	88.44
304.971	86.44
305.201	95.44
305.431	87.44
305.661	93.44
305.891	92.44
306.121	85.44
306.352	92.44
306.582	93.44
306.812	106.44
307.042	88.44
307.272	94.44
307.502	96.44
307.731	87.44
307.961	81.44
308.191	77.44
308.421	81.44
308.651	92.44
308.881	101.44
309.111	86.44
309.341	104.44
309.571	99.44
309.8	81.44
310.03	78.44
310.26	105.44
310.49	90.44
310.72	85.44
310.949	88.44
311.179	98.44
311.409	90.44
311.639	89.44
311.868	89.44
312.098	101.44
312.328	80.44
312.557	107.44
312.787	105.44
313.017	109.44
313.246	86.44
313.476	83.44
313.706	83.44
313.935	86.44
314.165	89.44
314.394	87.44
314.624	96.44
314.853	82.44
315.083	102.44
315.312	98.44
315.542	78.44
315.771	85.44
316.001	83.44
316.23	86.44
316.46	82.44
316.689	82.44
316.919	76.44
317.148	81.44
317.377	79.44
317.607	98.44
317.836	94.44
318.065	103.44
318.295	88.44
318.524	88.44
318.753	88.44
318.983	90.44
319.212	78.44
319.441	92.44
319.67	99.44
319.9	94.44
320.129	91.44
320.358	97.44
320.587	95.44
320.816	92.44
321.046	99.44
321.275	94.44
321.504	94.44
321.733	89.44
321.962	104.44
322.191	91.44
322.42	104.44
322.649	112.44
322.878	113.44
323.108	92.44
323.337	116.44
323.566	124.44
323.795	136.44
324.024	181.44
324.253	375.44
324.482	772.44
324.71	1592.44
324.939	2125.44
325.168	769.44
325.397	234.44
325.626	138.44
325.855	134.44
326.084	110.44
326.313	132.44
326.542	148.44
326.77	234.44
326.999	425.44
327.228	914.44
327.457	1624.44
327.686	1283.44
327.914	343.44
328.143	183.44
328.372	131.44
328.6	108.44
328.829	122.44
329.058	116.44
329.287	118.44
329.515	114.44
329.744	83.44
329.972	89.44
330.201	79.44
330.43	104.44
330.658	98.44
330.887	133.44
331.115	98.44
331.344	80.44
331.572	103.44
331.801	91.44
332.03	98.44
332.258	90.44
332.486	89.44
332.715	85.44
332.943	75.44
333.172	86.44
333.4	83.44
333.629	105.44
333.857	120.44
334.085	108.44
334.314	92.44
334.542	98.44
334.771	85.44
334.999	92.44
335.227	98.44
335.455	101.44
335.684	85.44
335.912	88.44
336.14	97.44
336.369	97.44
336.597	99.44
336.825	95.44
337.053	102.44
337.281	84.44
337.51	90.44
337.738	94.44
337.966	98.44
338.194	94.44
338.422	91.44
338.65	92.44
338.878	109.44
339.106	81.44
339.334	85.44
339.562	84.44
339.79	96.44
340.018	76.44
340.246	85.44
340.474	79.44
340.702	92.44
340.93	92.44
341.158	97.44
341.386	88.44
341.614	77.44
341.842	92.44
342.07	92.44
342.298	83.44
342.526	82.44
342.754	93.44
342.981	78.44
343.209	84.44
343.437	107.44
343.665	80.44
343.893	80.44
344.12	104.44
344.348	107.44
344.576	76.44
344.804	92.44
345.031	83.44
345.259	94.44
345.487	95.44
345.714	98.44
345.942	84.44
346.17	76.44
346.397	85.44
346.625	90.44
346.853	90.44
347.08	82.44
347.308	96.44
347.535	91.44
347.763	108.44
347.99	104.44
348.218	92.44
348.445	92.44
348.673	100.44
348.9	99.44
349.128	90.44
349.355	94.44
349.583	103.44
349.81	92.44
350.037	83.44
350.265	100.44
350.492	97.44
350.72	82.44
350.947	104.44
351.174	86.44
351.402	94.44
351.629	86.44
351.856	84.44
352.083	94.44
352.311	97.44
352.538	105.44
352.765	117.44
352.992	105.44
353.22	117.44
353.447	102.44
353.674	90.44
353.901	93.44
354.128	109.44
354.355	102.44
354.583	103.44
354.81	92.44
355.037	96.44
355.264	78.44
355.491	95.44
355.718	88.44
355.945	80.44
356.172	90.44
356.399	103.44
356.626	79.44
356.853	95.44
357.08	93.44
357.307	93.44
357.534	94.44
357.761	88.44
357.988	98.44
358.215	92.44
358.441	87.44
358.668	102.44
358.895	99.44
359.122	99.44
359.349	98.44
359.576	85.44
359.802	101.44
360.029	99.44
360.256	116.44
360.483	94.44
360.709	97.44
360.936	110.44
361.163	98.44
361.39	102.44
361.616	102.44
361.843	99.44
362.07	90.44
362.296	81.44
362.523	90.44
362.749	83.44
362.976	81.44
363.203	88.44
363.429	94.44
363.656	86.44
363.882	96.44
364.109	77.44
364.335	81.44
364.562	97.44
364.788	80.44
365.015	82.44
365.241	100.44
365.468	99.44
365.694	107.44
365.92	101.44
366.147	83.44
366.373	76.44
366.599	96.44
366.826	92.44
367.052	85.44
367.278	91.44
367.505	89.44
367.731	90.44
367.957	99.44
368.184	90.44
368.41	104.44
368.636	95.44
368.862	107.44
369.089	93.44
369.315	91.44
369.541	94.44
369.767	86.44
369.993	83.44
370.219	91.44
370.445	95.44
370.672	80.44
370.898	75.44
371.124	86.44
371.35	82.44
371.576	76.44
371.802	79.44
372.028	81.44
372.254	86.44
372.48	96.44
372.706	78.44
372.932	97.44
373.158	80.44
373.384	100.44
373.61	98.44
373.835	73.44
374.061	96.44
374.287	102.44
374.513	84.44
374.739	84.44
374.965	86.44
375.191	91.44
375.416	87.44
375.642	86.44
375.868	83.44
376.094	79.44
376.319	81.44
376.545	78.44
376.771	83.44
376.997	92.44
377.222	88.44
377.448	76.44
377.674	95.44
377.899	83.44
378.125	107.44
378.35	97.44
378.576	83.44
378.802	88.44
379.027	96.44
379.253	95.44
379.478	94.44
379.704	94.44
379.929	81.44
380.155	92.44
380.38	102.44
380.606	97.44
380.831	82.44
381.057	98.44
381.282	114.44
381.507	86.44
381.733	82.44
381.958	84.44
382.184	96.44
382.409	91.44
382.634	103.44
382.86	80.44
383.085	95.44
383.31	110.44
383.535	98.44
383.761	91.44
383.986	101.44
384.211	104.44
384.436	95.44
384.662	94.44
384.887	89.44
385.112	100.44
385.337	104.44
385.562	96.44
385.787	101.44
386.013	124.44
386.238	103.44
386.463	94.44
386.688	111.44
386.913	102.44
387.138	98.44
387.363	102.44
387.588	99.44
387.813	100.44
388.038	123.44
388.263	97.44
388.488	85.44
388.713	96.44
388.938	112.44
389.163	104.44
389.387	88.44
389.612	96.44
389.837	89.44
390.062	84.44
390.287	89.44
390.512	94.44
390.736	99.44
390.961	84.44
391.186	85.44
391.411	98.44
391.636	92.44
391.86	76.44
392.085	88.44
392.31	89.44
392.534	93.44
392.759	87.44
392.984	97.44
393.208	85.44
393.433	80.44
393.658	80.44
393.882	89.44
394.107	81.44
394.331	82.44
394.556	89.44
394.78	86.44
395.005	96.44
395.229	85.44
395.454	88.44
395.678	86.44
395.903	82.44
396.127	84.44
396.352	90.44
396.576	99.44
396.801	85.44
397.025	76.44
397.249	81.44
397.474	86.44
397.698	82.44
397.922	84.44
398.147	77.44
398.371	92.44
398.595	78.44
398.82	80.44
399.044	78.44
399.268	104.44
399.492	82.44
399.717	92.44
399.941	92.44
400.165	94.44
400.389	86.44
400.613	73.44
400.837	84.44
401.062	92.44
401.286	88.44
401.51	90.44
401.734	90.44
401.958	86.44
402.182	116.44
402.406	161.44
402.63	109.44
402.854	88.44
403.078	81.44
403.302	93.44
403.526	83.44
403.75	100.44
403.974	90.44
404.198	84.44
404.422	76.44
404.645	100.44
404.869	93.44
405.093	92.44
405.317	83.44
405.541	90.44
405.765	110.44
405.988	118.44
406.212	151.44
406.436	198.44
406.66	117.44
406.883	92.44
407.107	79.44
407.331	84.44
407.555	84.44
407.778	106.44
408.002	86.44
408.226	98.44
408.449	83.44
408.673	89.44
408.896	90.44
409.12	97.44
409.344	99.44
409.567	89.44
409.791	85.44
410.014	98.44
410.238	85.44
410.461	90.44
410.685	75.44
410.908	101.44
411.132	99.44
411.355	93.44
411.578	97.44
411.802	90.44
412.025	80.44
412.249	86.44
412.472	92.44
412.695	83.44
412.919	102.44
413.142	77.44
413.365	86.44
413.589	79.44
413.812	88.44
414.035	89.44
414.258	86.44
414.482	85.44
414.705	90.44
414.928	104.44
415.151	90.44
415.374	93.44
415.597	101.44
415.821	85.44
416.044	62.44
416.267	84.44
416.49	77.44
416.713	91.44
416.936	92.44
417.159	93.44
417.382	107.44
417.605	102.44
417.828	93.44
418.051	93.44
418.274	77.44
418.497	89.44
418.72	94.44
418.943	82.44
419.166	91.44
419.389	88.44
419.611	86.44
419.834	89.44
420.057	91.44
420.28	91.44
420.503	93.44
420.726	91.44
420.948	99.44
421.171	107.44
421.394	86.44
421.617	85.44
421.839	85.44
422.062	94.44
422.285	100.44
422.507	86.44
422.73	99.44
422.953	90.44
423.175	82.44
423.398	95.44
423.621	92.44
423.843	79.44
424.066	83.44
424.288	90.44
424.511	92.44
424.733	95.44
424.956	105.44
425.178	100.44
425.401	95.44
425.623	101.44
425.846	94.44
426.068	91.44
426.291	92.44
426.513	89.44
426.735	88.44
426.958	83.44
427.18	98.44
427.402	126.44
427.625	142.44
427.847	100.44
428.069	95.44
428.292	74.44
428.514	85.44
428.736	98.44
428.958	80.44
429.181	78.44
429.403	89.44
429.625	84.44
429.847	85.44
430.069	97.44
430.292	105.44
430.514	75.44
430.736	85.44
430.958	79.44
431.18	85.44
431.402	85.44
431.624	81.44
431.846	78.44
432.068	93.44
432.29	83.44
432.512	89.44
432.734	78.44
432.956	86.44
433.178	88.44
433.4	98.44
433.622	94.44
433.844	81.44
434.066	91.44
434.287	96.44
434.509	84.44
434.731	81.44
434.953	76.44
435.175	86.44
435.397	89.44
435.618	97.44
435.84	111.44
436.062	99.44
436.284	112.44
436.505	111.44
436.727	103.44
436.949	90.44
437.17	93.44
437.392	80.44
437.614	98.44
437.835	99.44
438.057	108.44
438.278	109.44
438.5	119.44
438.721	113.44
438.943	84.44
439.165	82.44
439.386	90.44
439.608	78.44
439.829	99.44
440.05	112.44
440.272	138.44
440.493	100.44
440.715	97.44
440.936	93.44
441.158	83.44
441.379	88.44
441.6	81.44
441.822	93.44
442.043	98.44
442.264	92.44
442.486	92.44
442.707	104.44
442.928	95.44
443.149	114.44
443.371	123.44
443.592	95.44
443.813	105.44
444.034	99.44
444.255	86.44
444.476	92.44
444.698	92.44
444.919	99.44
445.14	126.44
445.361	113.44
445.582	118.44
445.803	128.44
446.024	122.44
446.245	139.44
446.466	118.44
446.687	84.44
446.908	92.44
447.129	77.44
447.35	89.44
447.571	85.44
447.792	108.44
448.013	110.44
448.234	108.44
448.455	97.44
448.675	121.44
448.896	99.44
449.117	102.44
449.338	102.44
449.559	125.44
449.779	131.44
450	100.44
450.221	67.44
450.442	93.44
450.662	85.44
450.883	105.44
451.104	96.44
451.324	80.44
451.545	80.44
451.766	84.44
451.986	82.44
452.207	98.44
452.428	92.44
452.648	93.44
452.869	98.44
453.089	106.44
453.31	110.44
453.53	97.44
453.751	96.44
453.971	88.44
454.192	97.44
454.412	96.44
454.633	96.44
454.853	94.44
455.073	86.44
455.294	79.44
455.514	98.44
455.734	83.44
455.955	83.44
456.175	80.44
456.395	93.44
456.616	73.44
456.836	69.44
457.056	90.44
457.276	85.44
457.497	81.44
457.717	81.44
457.937	75.44
458.157	88.44
458.377	76.44
458.598	102.44
458.818	132.44
459.038	142.44
459.258	92.44
459.478	88.44
459.698	95.44
459.918	80.44
460.138	84.44
460.358	84.44
460.578	93.44
460.798	85.44
461.018	102.44
461.238	92.44
461.458	80.44
461.678	96.44
461.898	89.44
462.118	95.44
462.338	95.44
462.558	69.44
462.777	77.44
462.997	80.44
463.217	94.44
463.437	80.44
463.657	79.44
463.876	91.44
464.096	94.44
464.316	85.44
464.536	88.44
464.755	94.44
464.975	103.44
465.195	155.44
465.414	139.44
465.634	106.44
465.854	90.44
466.073	92.44
466.293	97.44
466.512	89.44
466.732	98.44
466.951	86.44
467.171	94.44
467.391	80.44
467.61	99.44
467.829	97.44
468.049	78.44
468.268	80.44
468.488	92.44
468.707	77.44
468.927	84.44
469.146	83.44
469.365	90.44
469.585	94.44
469.804	93.44
470.023	88.44
470.243	93.44
470.462	91.44
470.681	102.44
470.901	86.44
471.12	84.44
471.339	77.44
471.558	79.44
471.777	86.44
471.997	77.44
472.216	82.44
472.435	90.44
472.654	92.44
472.873	72.44
473.092	93.44
473.311	93.44
473.53	80.44
473.749	89.44
473.968	85.44
474.187	98.44
474.406	95.44
474.625	83.44
474.844	90.44
475.063	72.44
475.282	84.44
475.501	82.44
475.72	91.44
475.939	92.44
476.158	90.44
476.377	86.44
476.596	96.44
476.814	85.44
477.033	89.44
477.252	78.44
477.471	86.44
477.69	91.44
477.908	83.44
478.127	91.44
478.346	93.44
478.564	78.44
478.783	102.44
479.002	98.44
479.22	86.44
479.439	97.44
479.658	92.44
479.876	92.44
480.095	83.44
480.313	97.44
480.532	85.44
480.751	78.44
480.969	98.44
481.188	79.44
481.406	85.44
481.624	108.44
481.843	83.44
482.061	92.44
482.28	91.44
482.498	92.44
482.717	70.44
482.935	89.44
483.153	89.44
483.372	82.44
483.59	98.44
483.808	86.44
484.027	90.44
484.245	99.44
484.463	92.44
484.681	103.44
484.9	90.44
485.118	80.44
485.336	104.44
485.554	100.44
485.772	100.44
485.99	86.44
486.209	90.44
486.427	87.44
486.645	110.44
486.863	97.44
487.081	89.44
487.299	94.44
487.517	76.44
487.735	92.44
487.953	79.44
488.171	92.44
488.389	92.44
488.607	91.44
488.825	91.44
489.043	81.44
489.261	92.44
489.479	102.44
489.696	93.44
489.914	89.44
490.132	78.44
490.35	85.44
490.568	76.44
490.786	83.44
491.003	87.44
491.221	83.44
491.439	85.44
491.657	88.44
491.874	96.44
492.092	73.44
492.31	89.44
492.527	92.44
492.745	92.44
492.963	97.44
493.18	93.44
493.398	90.44
493.615	102.44
493.833	89.44
494.05	93.44
494.268	91.44
494.485	85.44
494.703	84.44
494.92	89.44
495.138	77.44
495.355	88.44
495.573	97.44
495.79	97.44
496.008	97.44
496.225	90.44
496.442	86.44
496.66	90.44
496.877	89.44
497.094	93.44
497.312	92.44
497.529	83.44
497.746	89.44
497.963	93.44
498.181	94.44
498.398	94.44
498.615	97.44
498.832	92.44
499.049	94.44
499.267	89.44
499.484	85.44
499.701	89.44
499.918	87.44
500.135	101.44
500.352	85.44
500.569	89.44
500.786	79.44
501.003	84.44
501.22	94.44
501.437	90.44
501.654	90.44
501.871	91.44
502.088	89.44
502.305	73.44
502.522	89.44
502.739	92.44
502.956	81.44
503.172	86.44
503.389	88.44
503.606	93.44
503.823	100.44
504.04	86.44
504.256	87.44
504.473	83.44
504.69	89.44
504.907	91.44
505.123	98.44
505.34	89.44
505.557	94.44
505.773	97.44
505.99	88.44
506.207	87.44
506.423	91.44
506.64	109.44
506.856	93.44
507.073	89.44
507.289	105.44
507.506	110.44
507.722	100.44
507.939	100.44
508.155	92.44
508.372	89.44
508.588	94.44
508.805	84.44
509.021	89.44
509.238	99.44
509.454	90.44
509.67	109.44
509.887	116.44
510.103	126.44
510.319	198.44
510.536	642.44
510.752	2056.44
510.968	604.44
511.184	140.44
511.401	100.44
511.617	87.44
511.833	87.44
512.049	95.44
512.265	92.44
512.481	88.44
512.698	96.44
512.914	100.44
513.13	100.44
513.346	90.44
513.562	81.44
513.778	106.44
513.994	83.44
514.21	83.44
514.426	105.44
514.642	109.44
514.858	108.44
515.074	146.44
515.29	396.44
515.506	1220.44
515.721	463.44
515.937	142.44
516.153	106.44
516.369	86.44
516.585	88.44
516.801	95.44
517.016	92.44
517.232	100.44
517.448	93.44
517.664	93.44
517.879	101.44
518.095	89.44
518.311	90.44
518.527	80.44
518.742	91.44
518.958	102.44
519.173	99.44
519.389	91.44
519.605	78.44
519.82	95.44
520.036	103.44
520.251	124.44
520.467	115.44
520.682	100.44
520.898	90.44
521.113	123.44
521.329	110.44
521.544	179.44
521.76	496.44
521.975	2026.44
522.19	1233.44
522.406	286.44
522.621	124.44
522.836	100.44
523.052	101.44
523.267	84.44
523.482	83.44
523.698	91.44
523.913	107.44
524.128	96.44
524.343	85.44
524.559	89.44
524.774	91.44
524.989	96.44
525.204	107.44
525.419	103.44
525.634	101.44
525.849	94.44
526.064	79.44
526.28	96.44
526.495	89.44
526.71	88.44
526.925	77.44
527.14	96.44
527.355	66.44
527.57	99.44
527.785	97.44
527.999	98.44
528.214	97.44
528.429	84.44
528.644	96.44
528.859	97.44
529.074	90.44
529.289	101.44
529.503	162.44
529.718	110.44
529.933	87.44
530.148	88.44
530.363	104.44
530.577	80.44
530.792	96.44
531.007	106.44
531.221	93.44
531.436	91.44
531.651	79.44
531.865	78.44
532.08	85.44
532.295	90.44
532.509	92.44
532.724	93.44
532.938	89.44
533.153	103.44
533.367	82.44
533.582	89.44
533.796	103.44
534.011	96.44
534.225	86.44
534.44	85.44
534.654	85.44
534.868	94.44
535.083	93.44
535.297	89.44
535.511	118.44
535.726	104.44
535.94	100.44
536.154	83.44
536.369	84.44
536.583	77.44
536.797	88.44
537.011	90.44
537.225	88.44
537.44	87.44
537.654	90.44
537.868	86.44
538.082	92.44
538.296	96.44
538.51	90.44
538.724	83.44
538.938	98.44
539.153	86.44
539.367	101.44
539.581	84.44
539.795	99.44
540.009	91.44
540.222	83.44
540.436	101.44
540.65	90.44
540.864	84.44
541.078	99.44
541.292	98.44
541.506	85.44
541.72	95.44
541.934	85.44
542.147	79.44
542.361	83.44
542.575	91.44
542.789	76.44
543.002	89.44
543.216	94.44
543.43	89.44
543.644	92.44
543.857	93.44
544.071	94.44
544.285	98.44
544.498	86.44
544.712	86.44
544.925	85.44
545.139	90.44
545.352	97.44
545.566	78.44
545.779	90.44
545.993	90.44
546.206	83.44
546.42	90.44
546.633	87.44
546.847	92.44
547.06	86.44
547.274	90.44
547.487	82.44
547.7	85.44
547.914	98.44
548.127	68.44
548.34	98.44
548.554	100.44
548.767	77.44
548.98	93.44
549.193	89.44
549.407	82.44
549.62	74.44
549.833	80.44
550.046	85.44
550.259	82.44
550.473	95.44
550.686	94.44
550.899	68.44
551.112	82.44
551.325	90.44
551.538	76.44
551.751	86.44
551.964	88.44
552.177	86.44
552.39	83.44
552.603	92.44
552.816	81.44
553.029	91.44
553.242	97.44
553.455	88.44
553.667	104.44
553.88	100.44
554.093	89.44
554.306	93.44
554.519	90.44
554.732	86.44
554.944	88.44
555.157	95.44
555.37	79.44
555.583	103.44
555.795	109.44
556.008	98.44
556.221	84.44
556.433	90.44
556.646	96.44
556.859	86.44
557.071	84.44
557.284	86.44
557.496	102.44
557.709	94.44
557.921	108.44
558.134	85.44
558.346	80.44
558.559	92.44
558.771	73.44
558.984	89.44
559.196	97.44
559.409	89.44
559.621	85.44
559.833	93.44
560.046	83.44
560.258	81.44
560.47	84.44
560.683	85.44
560.895	86.44
561.107	82.44
561.32	81.44
561.532	87.44
561.744	104.44
561.956	87.44
562.168	77.44
562.381	108.44
562.593	84.44
562.805	63.44
563.017	77.44
563.229	96.44
563.441	92.44
563.653	100.44
563.865	83.44
564.077	95.44
564.289	80.44
564.501	85.44
564.713	110.44
564.925	105.44
565.137	107.44
565.349	92.44
565.561	85.44
565.773	87.44
565.985	83.44
566.197	89.44
566.408	82.44
566.62	76.44
566.832	100.44
567.044	92.44
567.255	84.44
567.467	85.44
567.679	89.44
567.891	72.44
568.102	88.44
568.314	89.44
568.526	91.44
568.737	92.44
568.949	98.44
569.161	85.44
569.372	84.44
569.584	85.44
569.795	89.44
570.007	104.44
570.218	223.44
570.43	133.44
570.641	97.44
570.853	92.44
571.064	98.44
571.276	90.44
571.487	92.44
571.698	89.44
571.91	83.44
572.121	91.44
572.333	79.44
572.544	80.44
572.755	78.44
572.966	92.44
573.178	81.44
573.389	85.44
573.6	80.44
573.811	73.44
574.023	85.44
574.234	90.44
574.445	96.44
574.656	99.44
574.867	86.44
575.078	71.44
575.289	90.44
575.501	82.44
575.712	94.44
575.923	86.44
576.134	89.44
576.345	88.44
576.556	91.44
576.767	88.44
576.978	83.44
577.188	86.44
577.399	100.44
577.61	89.44
577.821	92.44
578.032	112.44
578.243	251.44
578.454	720.44
578.665	216.44
578.875	107.44
579.086	85.44
579.297	88.44
579.508	81.44
579.718	90.44
579.929	104.44
580.14	94.44
580.35	85.44
580.561	94.44
580.772	84.44
580.982	83.44
581.193	83.44
581.403	92.44
581.614	108.44
581.825	81.44
582.035	74.44
582.246	74.44
582.456	77.44
582.667	85.44
582.877	80.44
583.087	81.44
583.298	98.44
583.508	76.44
583.719	99.44
583.929	91.44
584.139	94.44
584.35	74.44
584.56	84.44
584.77	85.44
584.981	100.44
585.191	85.44
585.401	91.44
585.611	94.44
585.821	83.44
586.032	84.44
586.242	84.44
586.452	90.44
586.662	79.44
586.872	92.44
587.082	94.44
587.292	95.44
587.502	81.44
587.713	74.44
587.923	95.44
588.133	100.44
588.343	74.44
588.553	77.44
588.762	96.44
588.972	94.44
589.182	94.44
589.392	89.44
589.602	86.44
589.812	70.44
590.022	98.44
590.232	94.44
590.441	96.44
590.651	82.44
590.861	89.44
591.071	83.44
591.281	85.44
591.49	79.44
591.7	92.44
591.91	88.44
592.119	74.44
592.329	94.44
592.539	76.44
592.748	85.44
592.958	82.44
593.167	73.44
593.377	81.44
593.587	92.44
593.796	86.44
594.006	81.44
594.215	88.44
594.424	90.44
594.634	89.44
594.843	96.44
595.053	83.44
595.262	94.44
595.472	83.44
595.681	93.44
595.89	65.44
596.1	75.44
596.309	77.44
596.518	80.44
596.727	75.44
596.937	70.44
597.146	87.44
597.355	72.44
597.564	81.44
597.774	84.44
597.983	77.44
598.192	95.44
598.401	74.44
598.61	81.44
598.819	78.44
599.028	77.44
599.237	90.44
599.446	96.44
599.655	77.44
599.864	78.44
600.073	88.44
600.282	96.44
600.491	95.44
600.7	88.44
600.909	84.44
601.118	104.44
601.327	81.44
601.536	76.44
601.745	85.44
601.953	92.44
602.162	87.44
602.371	74.44
602.58	83.44
602.789	87.44
602.997	88.44
603.206	92.44
603.415	90.44
603.623	81.44
603.832	84.44
604.041	92.44
604.249	79.44
604.458	90.44
604.666	85.44
604.875	87.44
605.084	84.44
605.292	84.44
605.501	75.44
605.709	83.44
605.918	84.44
606.126	95.44
606.334	80.44
606.543	88.44
606.751	94.44
606.96	89.44
607.168	89.44
607.376	103.44
607.585	82.44
607.793	84.44
608.001	88.44
608.21	91.44
608.418	81.44
608.626	77.44
608.834	88.44
609.043	77.44
609.251	82.44
609.459	76.44
609.667	87.44
609.875	92.44
610.083	85.44
610.291	81.44
610.499	94.44
610.707	90.44
610.916	85.44
611.124	95.44
611.332	81.44
611.54	92.44
611.748	80.44
611.955	89.44
612.163	84.44
612.371	80.44
612.579	93.44
612.787	94.44
612.995	85.44
613.203	92.44
613.411	91.44
613.618	89.44
613.826	95.44
614.034	87.44
614.242	89.44
614.449	95.44
614.657	80.44
614.865	70.44
615.072	85.44
615.28	94.44
615.488	91.44
615.695	101.44
615.903	85.44
616.111	90.44
616.318	96.44
616.526	90.44
616.733	94.44
616.941	83.44
617.148	79.44
617.356	87.44
617.563	85.44
617.771	77.44
617.978	79.44
618.185	85.44
618.393	85.44
618.6	90.44
618.807	84.44
619.015	78.44
619.222	86.44
619.429	80.44
619.637	88.44
619.844	79.44
620.051	85.44
620.258	83.44
620.466	80.44
620.673	88.44
620.88	89.44
621.087	88.44
621.294	67.44
621.501	78.44
621.708	93.44
621.915	79.44
622.122	96.44
622.329	88.44
622.536	78.44
622.743	69.44
622.95	90.44
623.157	77.44
623.364	92.44
623.571	85.44
623.778	87.44
623.985	96.44
624.192	87.44
624.399	84.44
624.606	77.44
624.812	90.44
625.019	76.44
625.226	72.44
625.433	76.44
625.639	79.44
625.846	71.44
626.053	81.44
626.259	91.44
626.466	92.44
626.673	78.44
626.879	75.44
627.086	85.44
627.293	90.44
627.499	82.44
627.706	84.44
627.912	76.44
628.119	73.44
628.325	80.44
628.532	96.44
628.738	70.44
628.945	75.44
629.151	77.44
629.357	68.44
629.564	88.44
629.77	73.44
629.976	81.44
630.183	82.44
630.389	86.44
630.595	73.44
630.802	83.44
631.008	76.44
631.214	86.44
631.42	93.44
631.627	88.44
631.833	81.44
632.039	64.44
632.245	72.44
632.451	98.44
632.657	89.44
632.863	84.44
633.069	80.44
633.275	76.44
633.481	67.44
633.688	98.44
633.893	87.44
634.099	77.44
634.305	75.44
634.511	76.44
634.717	97.44
634.923	73.44
635.129	91.44
635.335	77.44
635.541	80.44
635.747	81.44
635.952	84.44
636.158	75.44
636.364	91.44
636.57	82.44
636.775	89.44
636.981	85.44
637.187	93.44
637.392	89.44
637.598	84.44
637.804	84.44
638.009	73.44
638.215	86.44
638.421	87.44
638.626	80.44
638.832	81.44
639.037	73.44
639.243	77.44
639.448	86.44
639.654	91.44
639.859	70.44
640.065	72.44
640.27	79.44
640.475	89.44
640.681	90.44
640.886	88.44
641.091	95.44
641.297	90.44
641.502	89.44
641.707	76.44
641.913	79.44
642.118	78.44
642.323	74.44
642.528	97.44
642.733	85.44
642.939	92.44
643.144	70.44
643.349	89.44
643.554	80.44
643.759	93.44
643.964	80.44
644.169	96.44
644.374	89.44
644.579	81.44
644.784	95.44
644.989	86.44
645.194	65.44
645.399	65.44
645.604	83.44
645.809	90.44
646.014	96.44
646.219	84.44
646.423	91.44
646.628	93.44
646.833	77.44
647.038	81.44
647.243	75.44
647.447	83.44
647.652	97.44
647.857	90.44
648.062	94.44
648.266	81.44
648.471	89.44
648.676	83.44
648.88	84.44
649.085	94.44
649.289	83.44
649.494	80.44
649.698	132.44
649.903	97.44
650.107	80.44
650.312	85.44
650.516	82.44
650.721	76.44
650.925	89.44
651.13	76.44
651.334	84.44
651.539	85.44
651.743	75.44
651.947	91.44
652.152	76.44
652.356	80.44
652.56	67.44
652.764	82.44
652.969	78.44
653.173	80.44
653.377	63.44
653.581	70.44
653.785	92.44
653.99	75.44
654.194	81.44
654.398	83.44
654.602	78.44
654.806	89.44
655.01	99.44
655.214	95.44
655.418	74.44
655.622	76.44
655.826	89.44
656.03	76.44
656.234	84.44
656.438	96.44
656.642	85.44
656.846	81.44
657.049	90.44
657.253	85.44
657.457	76.44
657.661	76.44
657.865	85.44
658.068	69.44
658.272	79.44
658.476	78.44
658.68	84.44
658.883	84.44
659.087	83.44
659.291	87.44
659.494	81.44
659.698	80.44
659.901	82.44
660.105	72.44
660.309	83.44
660.512	77.44
660.716	70.44
660.919	79.44
661.123	70.44
661.326	78.44
661.53	86.44
661.733	84.44
661.936	82.44
662.14	77.44
662.343	70.44
662.546	68.44
662.75	63.44
662.953	56.44
663.156	82.44
663.36	56.44
663.563	89.44
663.766	83.44
663.969	81.44
664.173	90.44
664.376	82.44
664.579	69.44
664.782	72.44
664.985	73.44
665.188	81.44
665.391	93.44
665.594	74.44
665.797	82.44
666	82.44
666.203	73.44
666.406	73.44
666.609	80.44
666.812	75.44
667.015	80.44
667.218	90.44
667.421	82.44
667.624	86.44
667.827	76.44
668.03	66.44
668.232	72.44
668.435	87.44
668.638	92.44
668.841	79.44
669.043	80.44
669.246	80.44
669.449	81.44
669.651	74.44
669.854	70.44
670.057	76.44
670.259	75.44
670.462	73.44
670.665	88.44
670.867	80.44
671.07	69.44
671.272	74.44
671.475	78.44
671.677	82.44
671.88	64.44
672.082	76.44
672.284	73.44
672.487	85.44
672.689	70.44
672.892	89.44
