Data from Uncirc_2006_H10_HRD10591_00042.txt Node
Date: Wed Jan 03 10:25:03 EST 2024
User: Yrep
Spectrometer: HR+D1059
Trigger mode: 1
Integration Time (sec): 1.000000E-1
Scans to average: 1
Electric dark correction enabled: true
Nonlinearity correction enabled: false
Boxcar width: 0
XAxis mode: Wavelengths
Number of Pixels in Spectrum: 2048
>>>>>Begin Spectral Data<<<<<
223.165	-13.12
223.4	-13.12
223.635	-13.12
223.869	-20.12
224.104	-22.12
224.338	-33.12
224.573	-15.12
224.808	-11.12
225.042	-16.12
225.277	7.88
225.511	-7.12
225.746	3.88
225.98	7.88
226.215	16.88
226.449	7.88
226.683	27.88
226.918	34.88
227.152	30.88
227.387	35.88
227.621	52.88
227.856	48.88
228.09	43.88
228.324	38.88
228.559	46.88
228.793	60.88
229.027	59.88
229.262	54.88
229.496	62.88
229.73	85.88
229.964	63.88
230.199	73.88
230.433	83.88
230.667	79.88
230.901	77.88
231.136	68.88
231.37	99.88
231.604	75.88
231.838	79.88
232.072	76.88
232.306	93.88
232.541	82.88
232.775	85.88
233.009	95.88
233.243	87.88
233.477	82.88
233.711	79.88
233.945	80.88
234.179	88.88
234.413	73.88
234.647	79.88
234.881	81.88
235.115	86.88
235.349	80.88
235.583	81.88
235.817	86.88
236.051	80.88
236.285	71.88
236.519	72.88
236.753	98.88
236.987	69.88
237.221	95.88
237.455	86.88
237.689	84.88
237.922	79.88
238.156	77.88
238.39	77.88
238.624	69.88
238.858	77.88
239.091	82.88
239.325	74.88
239.559	77.88
239.793	78.88
240.027	80.88
240.26	79.88
240.494	87.88
240.728	88.88
240.961	74.88
241.195	82.88
241.429	81.88
241.662	81.88
241.896	69.88
242.13	92.88
242.363	71.88
242.597	72.88
242.83	80.88
243.064	86.88
243.298	80.88
243.531	71.88
243.765	78.88
243.998	88.88
244.232	91.88
244.465	80.88
244.699	83.88
244.932	75.88
245.166	82.88
245.399	95.88
245.633	90.88
245.866	82.88
246.099	75.88
246.333	93.88
246.566	74.88
246.8	66.88
247.033	94.88
247.266	88.88
247.5	95.88
247.733	82.88
247.966	79.88
248.2	74.88
248.433	79.88
248.666	80.88
248.899	76.88
249.133	73.88
249.366	88.88
249.599	89.88
249.832	89.88
250.066	91.88
250.299	97.88
250.532	68.88
250.765	79.88
250.998	71.88
251.231	70.88
251.465	83.88
251.698	86.88
251.931	87.88
252.164	83.88
252.397	80.88
252.63	77.88
252.863	66.88
253.096	86.88
253.329	79.88
253.562	80.88
253.795	76.88
254.028	76.88
254.261	75.88
254.494	81.88
254.727	69.88
254.96	89.88
255.193	85.88
255.426	67.88
255.659	80.88
255.892	78.88
256.124	95.88
256.357	80.88
256.59	72.88
256.823	86.88
257.056	84.88
257.289	61.88
257.521	88.88
257.754	79.88
257.987	84.88
258.22	86.88
258.452	100.88
258.685	72.88
258.918	93.88
259.151	82.88
259.383	84.88
259.616	83.88
259.849	93.88
260.081	73.88
260.314	76.88
260.547	100.88
260.779	76.88
261.012	76.88
261.244	83.88
261.477	93.88
261.71	95.88
261.942	98.88
262.175	124.88
262.407	88.88
262.64	78.88
262.872	76.88
263.105	87.88
263.337	87.88
263.57	99.88
263.802	88.88
264.035	88.88
264.267	91.88
264.499	94.88
264.732	87.88
264.964	79.88
265.197	81.88
265.429	99.88
265.661	84.88
265.894	63.88
266.126	85.88
266.358	81.88
266.591	84.88
266.823	92.88
267.055	89.88
267.287	95.88
267.52	90.88
267.752	89.88
267.984	68.88
268.216	70.88
268.448	86.88
268.681	81.88
268.913	86.88
269.145	78.88
269.377	74.88
269.609	81.88
269.841	99.88
270.073	80.88
270.306	74.88
270.538	98.88
270.77	89.88
271.002	89.88
271.234	91.88
271.466	91.88
271.698	94.88
271.93	91.88
272.162	82.88
272.394	90.88
272.626	90.88
272.858	98.88
273.09	62.88
273.322	78.88
273.553	87.88
273.785	90.88
274.017	88.88
274.249	77.88
274.481	87.88
274.713	84.88
274.945	79.88
275.176	97.88
275.408	91.88
275.64	68.88
275.872	92.88
276.104	79.88
276.335	88.88
276.567	87.88
276.799	91.88
277.031	89.88
277.262	104.88
277.494	97.88
277.726	78.88
277.957	75.88
278.189	89.88
278.421	81.88
278.652	85.88
278.884	82.88
279.115	85.88
279.347	87.88
279.579	80.88
279.81	87.88
280.042	79.88
280.273	92.88
280.505	83.88
280.736	93.88
280.968	87.88
281.199	72.88
281.431	82.88
281.662	87.88
281.894	94.88
282.125	97.88
282.356	112.88
282.588	125.88
282.819	105.88
283.051	91.88
283.282	81.88
283.513	97.88
283.745	81.88
283.976	96.88
284.207	84.88
284.439	94.88
284.67	90.88
284.901	86.88
285.132	92.88
285.364	83.88
285.595	102.88
285.826	104.88
286.057	96.88
286.288	85.88
286.52	87.88
286.751	71.88
286.982	89.88
287.213	92.88
287.444	88.88
287.675	106.88
287.906	91.88
288.138	88.88
288.369	89.88
288.6	91.88
288.831	93.88
289.062	96.88
289.293	89.88
289.524	86.88
289.755	85.88
289.986	84.88
290.217	92.88
290.448	86.88
290.679	95.88
290.91	93.88
291.141	85.88
291.371	89.88
291.602	96.88
291.833	94.88
292.064	80.88
292.295	94.88
292.526	86.88
292.757	91.88
292.987	76.88
293.218	94.88
293.449	98.88
293.68	95.88
293.91	101.88
294.141	88.88
294.372	78.88
294.603	87.88
294.833	84.88
295.064	85.88
295.295	98.88
295.525	107.88
295.756	105.88
295.987	117.88
296.217	115.88
296.448	112.88
296.679	108.88
296.909	104.88
297.14	97.88
297.37	100.88
297.601	84.88
297.831	83.88
298.062	88.88
298.292	81.88
298.523	95.88
298.753	89.88
298.984	83.88
299.214	95.88
299.445	88.88
299.675	111.88
299.905	98.88
300.136	91.88
300.366	87.88
300.597	87.88
300.827	88.88
301.057	97.88
301.288	105.88
301.518	103.88
301.748	75.88
301.979	105.88
302.209	93.88
302.439	84.88
302.669	95.88
302.9	86.88
303.13	94.88
303.36	96.88
303.59	98.88
303.82	105.88
304.051	97.88
304.281	89.88
304.511	100.88
304.741	89.88
304.971	83.88
305.201	86.88
305.431	94.88
305.661	88.88
305.891	92.88
306.121	95.88
306.352	110.88
306.582	105.88
306.812	89.88
307.042	97.88
307.272	109.88
307.502	88.88
307.731	90.88
307.961	87.88
308.191	77.88
308.421	85.88
308.651	90.88
308.881	95.88
309.111	88.88
309.341	83.88
309.571	95.88
309.8	90.88
310.03	95.88
310.26	100.88
310.49	85.88
310.72	107.88
310.949	107.88
311.179	96.88
311.409	99.88
311.639	87.88
311.868	91.88
312.098	87.88
312.328	99.88
312.557	91.88
312.787	95.88
313.017	120.88
313.246	85.88
313.476	86.88
313.706	106.88
313.935	112.88
314.165	92.88
314.394	96.88
314.624	88.88
314.853	96.88
315.083	84.88
315.312	99.88
315.542	100.88
315.771	95.88
316.001	89.88
316.23	94.88
316.46	98.88
316.689	101.88
316.919	91.88
317.148	88.88
317.377	100.88
317.607	93.88
317.836	110.88
318.065	97.88
318.295	87.88
318.524	107.88
318.753	95.88
318.983	96.88
319.212	117.88
319.441	99.88
319.67	115.88
319.9	112.88
320.129	101.88
320.358	93.88
320.587	104.88
320.816	97.88
321.046	103.88
321.275	94.88
321.504	101.88
321.733	88.88
321.962	107.88
322.191	107.88
322.42	114.88
322.649	110.88
322.878	120.88
323.108	115.88
323.337	118.88
323.566	136.88
323.795	154.88
324.024	198.88
324.253	397.88
324.482	809.88
324.71	1657.88
324.939	2121.88
325.168	811.88
325.397	235.88
325.626	163.88
325.855	134.88
326.084	118.88
326.313	128.88
326.542	163.88
326.77	246.88
326.999	474.88
327.228	947.88
327.457	1697.88
327.686	1348.88
327.914	368.88
328.143	175.88
328.372	144.88
328.6	127.88
328.829	110.88
329.058	131.88
329.287	125.88
329.515	105.88
329.744	116.88
329.972	98.88
330.201	108.88
330.43	117.88
330.658	111.88
330.887	131.88
331.115	119.88
331.344	115.88
331.572	98.88
331.801	108.88
332.03	104.88
332.258	114.88
332.486	109.88
332.715	92.88
332.943	89.88
333.172	88.88
333.4	82.88
333.629	108.88
333.857	112.88
334.085	115.88
334.314	89.88
334.542	93.88
334.771	101.88
334.999	95.88
335.227	94.88
335.455	95.88
335.684	91.88
335.912	88.88
336.14	102.88
336.369	98.88
336.597	103.88
336.825	108.88
337.053	102.88
337.281	103.88
337.51	98.88
337.738	92.88
337.966	95.88
338.194	103.88
338.422	100.88
338.65	98.88
338.878	94.88
339.106	84.88
339.334	93.88
339.562	94.88
339.79	114.88
340.018	88.88
340.246	93.88
340.474	87.88
340.702	96.88
340.93	103.88
341.158	99.88
341.386	99.88
341.614	85.88
341.842	90.88
342.07	79.88
342.298	93.88
342.526	83.88
342.754	84.88
342.981	90.88
343.209	93.88
343.437	110.88
343.665	92.88
343.893	103.88
344.12	100.88
344.348	82.88
344.576	83.88
344.804	82.88
345.031	89.88
345.259	84.88
345.487	95.88
345.714	96.88
345.942	97.88
346.17	99.88
346.397	95.88
346.625	91.88
346.853	88.88
347.08	100.88
347.308	89.88
347.535	97.88
347.763	107.88
347.99	103.88
348.218	95.88
348.445	95.88
348.673	98.88
348.9	104.88
349.128	107.88
349.355	89.88
349.583	79.88
349.81	85.88
350.037	81.88
350.265	105.88
350.492	89.88
350.72	100.88
350.947	88.88
351.174	116.88
351.402	109.88
351.629	101.88
351.856	109.88
352.083	97.88
352.311	109.88
352.538	105.88
352.765	116.88
352.992	98.88
353.22	104.88
353.447	118.88
353.674	104.88
353.901	107.88
354.128	91.88
354.355	99.88
354.583	91.88
354.81	100.88
355.037	88.88
355.264	101.88
355.491	100.88
355.718	103.88
355.945	111.88
356.172	86.88
356.399	88.88
356.626	95.88
356.853	86.88
357.08	94.88
357.307	107.88
357.534	93.88
357.761	104.88
357.988	95.88
358.215	97.88
358.441	108.88
358.668	95.88
358.895	93.88
359.122	97.88
359.349	101.88
359.576	87.88
359.802	106.88
360.029	116.88
360.256	118.88
360.483	86.88
360.709	99.88
360.936	110.88
361.163	81.88
361.39	99.88
361.616	93.88
361.843	83.88
362.07	101.88
362.296	111.88
362.523	94.88
362.749	82.88
362.976	92.88
363.203	86.88
363.429	82.88
363.656	80.88
363.882	96.88
364.109	87.88
364.335	102.88
364.562	86.88
364.788	95.88
365.015	105.88
365.241	115.88
365.468	100.88
365.694	91.88
365.92	93.88
366.147	101.88
366.373	90.88
366.599	89.88
366.826	96.88
367.052	88.88
367.278	87.88
367.505	81.88
367.731	84.88
367.957	95.88
368.184	85.88
368.41	107.88
368.636	114.88
368.862	120.88
369.089	102.88
369.315	92.88
369.541	83.88
369.767	80.88
369.993	101.88
370.219	91.88
370.445	86.88
370.672	88.88
370.898	89.88
371.124	88.88
371.35	93.88
371.576	93.88
371.802	91.88
372.028	101.88
372.254	88.88
372.48	103.88
372.706	99.88
372.932	88.88
373.158	96.88
373.384	92.88
373.61	91.88
373.835	95.88
374.061	88.88
374.287	91.88
374.513	95.88
374.739	101.88
374.965	95.88
375.191	88.88
375.416	79.88
375.642	87.88
375.868	100.88
376.094	85.88
376.319	97.88
376.545	99.88
376.771	86.88
376.997	95.88
377.222	104.88
377.448	89.88
377.674	93.88
377.899	85.88
378.125	89.88
378.35	90.88
378.576	92.88
378.802	93.88
379.027	102.88
379.253	90.88
379.478	89.88
379.704	107.88
379.929	106.88
380.155	83.88
380.38	90.88
380.606	104.88
380.831	89.88
381.057	101.88
381.282	92.88
381.507	91.88
381.733	113.88
381.958	100.88
382.184	107.88
382.409	105.88
382.634	107.88
382.86	103.88
383.085	93.88
383.31	101.88
383.535	104.88
383.761	110.88
383.986	110.88
384.211	99.88
384.436	102.88
384.662	112.88
384.887	112.88
385.112	104.88
385.337	116.88
385.562	111.88
385.787	104.88
386.013	107.88
386.238	123.88
386.463	104.88
386.688	108.88
386.913	107.88
387.138	103.88
387.363	112.88
387.588	108.88
387.813	104.88
388.038	99.88
388.263	118.88
388.488	120.88
388.713	98.88
388.938	107.88
389.163	97.88
389.387	107.88
389.612	81.88
389.837	99.88
390.062	94.88
390.287	95.88
390.512	84.88
390.736	90.88
390.961	96.88
391.186	82.88
391.411	88.88
391.636	89.88
391.86	83.88
392.085	105.88
392.31	102.88
392.534	87.88
392.759	81.88
392.984	92.88
393.208	81.88
393.433	79.88
393.658	92.88
393.882	86.88
394.107	102.88
394.331	109.88
394.556	96.88
394.78	90.88
395.005	101.88
395.229	88.88
395.454	89.88
395.678	93.88
395.903	86.88
396.127	89.88
396.352	89.88
396.576	81.88
396.801	90.88
397.025	102.88
397.249	87.88
397.474	84.88
397.698	97.88
397.922	76.88
398.147	78.88
398.371	82.88
398.595	92.88
398.82	76.88
399.044	83.88
399.268	82.88
399.492	86.88
399.717	84.88
399.941	92.88
400.165	95.88
400.389	92.88
400.613	78.88
400.837	71.88
401.062	87.88
401.286	96.88
401.51	105.88
401.734	89.88
401.958	98.88
402.182	113.88
402.406	156.88
402.63	120.88
402.854	100.88
403.078	105.88
403.302	101.88
403.526	84.88
403.75	89.88
403.974	95.88
404.198	83.88
404.422	80.88
404.645	98.88
404.869	109.88
405.093	91.88
405.317	95.88
405.541	86.88
405.765	94.88
405.988	113.88
406.212	160.88
406.436	194.88
406.66	128.88
406.883	111.88
407.107	83.88
407.331	91.88
407.555	93.88
407.778	109.88
408.002	75.88
408.226	93.88
408.449	92.88
408.673	88.88
408.896	88.88
409.12	92.88
409.344	87.88
409.567	92.88
409.791	93.88
410.014	96.88
410.238	92.88
410.461	88.88
410.685	91.88
410.908	105.88
411.132	114.88
411.355	111.88
411.578	82.88
411.802	86.88
412.025	97.88
412.249	104.88
412.472	84.88
412.695	81.88
412.919	75.88
413.142	93.88
413.365	81.88
413.589	100.88
413.812	81.88
414.035	80.88
414.258	95.88
414.482	97.88
414.705	90.88
414.928	99.88
415.151	105.88
415.374	96.88
415.597	100.88
415.821	73.88
416.044	84.88
416.267	90.88
416.49	89.88
416.713	83.88
416.936	78.88
417.159	79.88
417.382	86.88
417.605	96.88
417.828	97.88
418.051	106.88
418.274	91.88
418.497	99.88
418.72	81.88
418.943	94.88
419.166	87.88
419.389	90.88
419.611	87.88
419.834	81.88
420.057	85.88
420.28	82.88
420.503	86.88
420.726	97.88
420.948	86.88
421.171	87.88
421.394	83.88
421.617	69.88
421.839	96.88
422.062	101.88
422.285	90.88
422.507	85.88
422.73	105.88
422.953	93.88
423.175	97.88
423.398	96.88
423.621	94.88
423.843	100.88
424.066	90.88
424.288	95.88
424.511	81.88
424.733	96.88
424.956	115.88
425.178	108.88
425.401	85.88
425.623	90.88
425.846	89.88
426.068	101.88
426.291	98.88
426.513	87.88
426.735	81.88
426.958	79.88
427.18	114.88
427.402	124.88
427.625	159.88
427.847	125.88
428.069	100.88
428.292	81.88
428.514	98.88
428.736	92.88
428.958	77.88
429.181	85.88
429.403	88.88
429.625	82.88
429.847	89.88
430.069	89.88
430.292	101.88
430.514	94.88
430.736	88.88
430.958	82.88
431.18	85.88
431.402	80.88
431.624	86.88
431.846	97.88
432.068	87.88
432.29	94.88
432.512	77.88
432.734	80.88
432.956	79.88
433.178	87.88
433.4	99.88
433.622	89.88
433.844	92.88
434.066	100.88
434.287	88.88
434.509	92.88
434.731	92.88
434.953	92.88
435.175	91.88
435.397	84.88
435.618	93.88
435.84	95.88
436.062	112.88
436.284	116.88
436.505	105.88
436.727	113.88
436.949	93.88
437.17	82.88
437.392	101.88
437.614	98.88
437.835	103.88
438.057	119.88
438.278	107.88
438.5	110.88
438.721	118.88
438.943	85.88
439.165	94.88
439.386	87.88
439.608	78.88
439.829	88.88
440.05	124.88
440.272	119.88
440.493	115.88
440.715	92.88
440.936	83.88
441.158	94.88
441.379	89.88
441.6	85.88
441.822	86.88
442.043	97.88
442.264	105.88
442.486	99.88
442.707	98.88
442.928	102.88
443.149	119.88
443.371	111.88
443.592	117.88
443.813	107.88
444.034	97.88
444.255	95.88
444.476	98.88
444.698	89.88
444.919	92.88
445.14	115.88
445.361	115.88
445.582	114.88
445.803	137.88
446.024	127.88
446.245	140.88
446.466	107.88
446.687	98.88
446.908	100.88
447.129	80.88
447.35	95.88
447.571	80.88
447.792	85.88
448.013	91.88
448.234	113.88
448.455	84.88
448.675	109.88
448.896	99.88
449.117	102.88
449.338	85.88
449.559	116.88
449.779	121.88
450	98.88
450.221	98.88
450.442	93.88
450.662	101.88
450.883	104.88
451.104	112.88
451.324	88.88
451.545	86.88
451.766	80.88
451.986	94.88
452.207	104.88
452.428	89.88
452.648	88.88
452.869	110.88
453.089	115.88
453.31	123.88
453.53	103.88
453.751	91.88
453.971	101.88
454.192	95.88
454.412	93.88
454.633	72.88
454.853	94.88
455.073	100.88
455.294	87.88
455.514	105.88
455.734	88.88
455.955	85.88
456.175	86.88
456.395	85.88
456.616	83.88
456.836	94.88
457.056	83.88
457.276	88.88
457.497	94.88
457.717	80.88
457.937	84.88
458.157	102.88
458.377	80.88
458.598	97.88
458.818	137.88
459.038	140.88
459.258	97.88
459.478	104.88
459.698	92.88
459.918	79.88
460.138	88.88
460.358	86.88
460.578	78.88
460.798	82.88
461.018	100.88
461.238	97.88
461.458	95.88
461.678	89.88
461.898	80.88
462.118	84.88
462.338	77.88
462.558	83.88
462.777	84.88
462.997	81.88
463.217	85.88
463.437	101.88
463.657	97.88
463.876	88.88
464.096	85.88
464.316	103.88
464.536	84.88
464.755	94.88
464.975	109.88
465.195	154.88
465.414	150.88
465.634	87.88
465.854	87.88
466.073	93.88
466.293	93.88
466.512	90.88
466.732	95.88
466.951	110.88
467.171	92.88
467.391	100.88
467.61	109.88
467.829	98.88
468.049	99.88
468.268	92.88
468.488	91.88
468.707	84.88
468.927	81.88
469.146	85.88
469.365	78.88
469.585	82.88
469.804	100.88
470.023	76.88
470.243	97.88
470.462	104.88
470.681	105.88
470.901	88.88
471.12	74.88
471.339	92.88
471.558	84.88
471.777	93.88
471.997	82.88
472.216	93.88
472.435	87.88
472.654	93.88
472.873	83.88
473.092	97.88
473.311	88.88
473.53	79.88
473.749	79.88
473.968	89.88
474.187	104.88
474.406	86.88
474.625	101.88
474.844	96.88
475.063	82.88
475.282	82.88
475.501	88.88
475.72	80.88
475.939	85.88
476.158	103.88
476.377	93.88
476.596	91.88
476.814	97.88
477.033	89.88
477.252	79.88
477.471	86.88
477.69	88.88
477.908	97.88
478.127	96.88
478.346	88.88
478.564	87.88
478.783	87.88
479.002	92.88
479.22	102.88
479.439	109.88
479.658	92.88
479.876	84.88
480.095	88.88
480.313	97.88
480.532	98.88
480.751	80.88
480.969	91.88
481.188	85.88
481.406	80.88
481.624	83.88
481.843	74.88
482.061	93.88
482.28	88.88
482.498	87.88
482.717	103.88
482.935	87.88
483.153	79.88
483.372	87.88
483.59	98.88
483.808	80.88
484.027	87.88
484.245	96.88
484.463	103.88
484.681	104.88
484.9	83.88
485.118	102.88
485.336	91.88
485.554	107.88
485.772	109.88
485.99	90.88
486.209	99.88
486.427	87.88
486.645	109.88
486.863	112.88
487.081	115.88
487.299	91.88
487.517	93.88
487.735	92.88
487.953	89.88
488.171	92.88
488.389	95.88
488.607	102.88
488.825	95.88
489.043	78.88
489.261	96.88
489.479	100.88
489.696	84.88
489.914	96.88
490.132	96.88
490.35	95.88
490.568	85.88
490.786	86.88
491.003	96.88
491.221	99.88
491.439	91.88
491.657	86.88
491.874	77.88
492.092	96.88
492.31	81.88
492.527	88.88
492.745	95.88
492.963	90.88
493.18	82.88
493.398	84.88
493.615	93.88
493.833	102.88
494.05	102.88
494.268	73.88
494.485	80.88
494.703	86.88
494.92	82.88
495.138	82.88
495.355	89.88
495.573	99.88
495.79	87.88
496.008	99.88
496.225	98.88
496.442	100.88
496.66	88.88
496.877	99.88
497.094	99.88
497.312	96.88
497.529	102.88
497.746	102.88
497.963	95.88
498.181	83.88
498.398	87.88
498.615	112.88
498.832	103.88
499.049	82.88
499.267	83.88
499.484	92.88
499.701	80.88
499.918	89.88
500.135	87.88
500.352	105.88
500.569	96.88
500.786	101.88
501.003	74.88
501.22	86.88
501.437	91.88
501.654	87.88
501.871	95.88
502.088	85.88
502.305	96.88
502.522	94.88
502.739	87.88
502.956	92.88
503.172	104.88
503.389	77.88
503.606	84.88
503.823	96.88
504.04	85.88
504.256	93.88
504.473	93.88
504.69	96.88
504.907	109.88
505.123	92.88
505.34	91.88
505.557	82.88
505.773	97.88
505.99	77.88
506.207	86.88
506.423	98.88
506.64	96.88
506.856	86.88
507.073	89.88
507.289	100.88
507.506	91.88
507.722	105.88
507.939	111.88
508.155	94.88
508.372	92.88
508.588	92.88
508.805	107.88
509.021	95.88
509.238	94.88
509.454	100.88
509.67	109.88
509.887	104.88
510.103	135.88
510.319	184.88
510.536	678.88
510.752	2136.88
510.968	629.88
511.184	141.88
511.401	113.88
511.617	93.88
511.833	89.88
512.049	105.88
512.265	98.88
512.481	89.88
512.698	88.88
512.914	93.88
513.13	81.88
513.346	87.88
513.562	98.88
513.778	110.88
513.994	102.88
514.21	110.88
514.426	105.88
514.642	120.88
514.858	124.88
515.074	168.88
515.29	420.88
515.506	1291.88
515.721	488.88
515.937	152.88
516.153	119.88
516.369	100.88
516.585	99.88
516.801	111.88
517.016	94.88
517.232	99.88
517.448	89.88
517.664	106.88
517.879	75.88
518.095	84.88
518.311	92.88
518.527	105.88
518.742	94.88
518.958	89.88
519.173	100.88
519.389	92.88
519.605	97.88
519.82	96.88
520.036	103.88
520.251	104.88
520.467	118.88
520.682	95.88
520.898	112.88
521.113	107.88
521.329	138.88
521.544	208.88
521.76	496.88
521.975	2113.88
522.19	1312.88
522.406	279.88
522.621	125.88
522.836	103.88
523.052	103.88
523.267	100.88
523.482	84.88
523.698	96.88
523.913	120.88
524.128	112.88
524.343	99.88
524.559	95.88
524.774	90.88
524.989	93.88
525.204	113.88
525.419	92.88
525.634	72.88
525.849	88.88
526.064	100.88
526.28	87.88
526.495	99.88
526.71	88.88
526.925	87.88
527.14	86.88
527.355	86.88
527.57	103.88
527.785	75.88
527.999	100.88
528.214	93.88
528.429	88.88
528.644	86.88
528.859	94.88
529.074	98.88
529.289	142.88
529.503	159.88
529.718	94.88
529.933	89.88
530.148	80.88
530.363	101.88
530.577	100.88
530.792	93.88
531.007	93.88
531.221	89.88
531.436	94.88
531.651	95.88
531.865	88.88
532.08	100.88
532.295	108.88
532.509	98.88
532.724	98.88
532.938	98.88
533.153	88.88
533.367	102.88
533.582	106.88
533.796	100.88
534.011	98.88
534.225	98.88
534.44	101.88
534.654	99.88
534.868	99.88
535.083	72.88
535.297	75.88
535.511	98.88
535.726	105.88
535.94	112.88
536.154	100.88
536.369	107.88
536.583	65.88
536.797	80.88
537.011	95.88
537.225	81.88
537.44	92.88
537.654	91.88
537.868	85.88
538.082	99.88
538.296	105.88
538.51	100.88
538.724	87.88
538.938	91.88
539.153	111.88
539.367	94.88
539.581	94.88
539.795	104.88
540.009	105.88
540.222	92.88
540.436	95.88
540.65	87.88
540.864	103.88
541.078	93.88
541.292	103.88
541.506	83.88
541.72	81.88
541.934	92.88
542.147	91.88
542.361	92.88
542.575	81.88
542.789	100.88
543.002	94.88
543.216	101.88
543.43	113.88
543.644	88.88
543.857	94.88
544.071	100.88
544.285	96.88
544.498	98.88
544.712	89.88
544.925	89.88
545.139	98.88
545.352	95.88
545.566	81.88
545.779	90.88
545.993	85.88
546.206	89.88
546.42	73.88
546.633	97.88
546.847	100.88
547.06	87.88
547.274	91.88
547.487	89.88
547.7	99.88
547.914	100.88
548.127	93.88
548.34	83.88
548.554	87.88
548.767	91.88
548.98	104.88
549.193	93.88
549.407	88.88
549.62	96.88
549.833	88.88
550.046	94.88
550.259	96.88
550.473	99.88
550.686	95.88
550.899	93.88
551.112	89.88
551.325	107.88
551.538	95.88
551.751	86.88
551.964	101.88
552.177	93.88
552.39	97.88
552.603	99.88
552.816	88.88
553.029	95.88
553.242	89.88
553.455	104.88
553.667	102.88
553.88	127.88
554.093	89.88
554.306	93.88
554.519	83.88
554.732	102.88
554.944	98.88
555.157	86.88
555.37	87.88
555.583	89.88
555.795	90.88
556.008	85.88
556.221	89.88
556.433	92.88
556.646	96.88
556.859	86.88
557.071	96.88
557.284	103.88
557.496	89.88
557.709	96.88
557.921	102.88
558.134	94.88
558.346	98.88
558.559	92.88
558.771	86.88
558.984	99.88
559.196	91.88
559.409	84.88
559.621	86.88
559.833	83.88
560.046	85.88
560.258	90.88
560.47	100.88
560.683	91.88
560.895	85.88
561.107	89.88
561.32	96.88
561.532	89.88
561.744	108.88
561.956	110.88
562.168	100.88
562.381	93.88
562.593	90.88
562.805	102.88
563.017	98.88
563.229	95.88
563.441	106.88
563.653	94.88
563.865	91.88
564.077	80.88
564.289	96.88
564.501	100.88
564.713	107.88
564.925	97.88
565.137	121.88
565.349	96.88
565.561	84.88
565.773	97.88
565.985	93.88
566.197	91.88
566.408	93.88
566.62	73.88
566.832	84.88
567.044	89.88
567.255	91.88
567.467	94.88
567.679	92.88
567.891	84.88
568.102	73.88
568.314	70.88
568.526	76.88
568.737	88.88
568.949	101.88
569.161	108.88
569.372	96.88
569.584	84.88
569.795	85.88
570.007	104.88
570.218	242.88
570.43	151.88
570.641	97.88
570.853	98.88
571.064	78.88
571.276	87.88
571.487	91.88
571.698	91.88
571.91	77.88
572.121	89.88
572.333	74.88
572.544	85.88
572.755	91.88
572.966	83.88
573.178	84.88
573.389	82.88
573.6	90.88
573.811	91.88
574.023	96.88
574.234	101.88
574.445	87.88
574.656	85.88
574.867	87.88
575.078	100.88
575.289	103.88
575.501	95.88
575.712	92.88
575.923	95.88
576.134	97.88
576.345	108.88
576.556	99.88
576.767	95.88
576.978	100.88
577.188	88.88
577.399	100.88
577.61	101.88
577.821	98.88
578.032	120.88
578.243	236.88
578.454	713.88
578.665	207.88
578.875	105.88
579.086	93.88
579.297	73.88
579.508	91.88
579.718	84.88
579.929	94.88
580.14	88.88
580.35	99.88
580.561	75.88
580.772	85.88
580.982	98.88
581.193	92.88
581.403	75.88
581.614	92.88
581.825	85.88
582.035	93.88
582.246	92.88
582.456	100.88
582.667	81.88
582.877	96.88
583.087	83.88
583.298	95.88
583.508	86.88
583.719	105.88
583.929	94.88
584.139	77.88
584.35	90.88
584.56	93.88
584.77	79.88
584.981	88.88
585.191	84.88
585.401	88.88
585.611	82.88
585.821	88.88
586.032	73.88
586.242	87.88
586.452	80.88
586.662	93.88
586.872	93.88
587.082	90.88
587.292	91.88
587.502	88.88
587.713	98.88
587.923	96.88
588.133	89.88
588.343	86.88
588.553	84.88
588.762	88.88
588.972	88.88
589.182	88.88
589.392	97.88
589.602	97.88
589.812	76.88
590.022	87.88
590.232	85.88
590.441	90.88
590.651	89.88
590.861	96.88
591.071	86.88
591.281	89.88
591.49	83.88
591.7	93.88
591.91	90.88
592.119	88.88
592.329	98.88
592.539	102.88
592.748	87.88
592.958	85.88
593.167	87.88
593.377	89.88
593.587	88.88
593.796	99.88
594.006	89.88
594.215	88.88
594.424	87.88
594.634	89.88
594.843	71.88
595.053	80.88
595.262	93.88
595.472	93.88
595.681	96.88
595.89	91.88
596.1	96.88
596.309	93.88
596.518	87.88
596.727	90.88
596.937	94.88
597.146	90.88
597.355	78.88
597.564	88.88
597.774	84.88
597.983	77.88
598.192	85.88
598.401	84.88
598.61	88.88
598.819	98.88
599.028	97.88
599.237	81.88
599.446	94.88
599.655	80.88
599.864	80.88
600.073	84.88
600.282	88.88
600.491	87.88
600.7	104.88
600.909	90.88
601.118	98.88
601.327	85.88
601.536	83.88
601.745	87.88
601.953	87.88
602.162	86.88
602.371	94.88
602.58	93.88
602.789	90.88
602.997	103.88
603.206	88.88
603.415	84.88
603.623	95.88
603.832	98.88
604.041	90.88
604.249	87.88
604.458	105.88
604.666	95.88
604.875	96.88
605.084	93.88
605.292	82.88
605.501	109.88
605.709	100.88
605.918	83.88
606.126	81.88
606.334	88.88
606.543	84.88
606.751	92.88
606.96	86.88
607.168	83.88
607.376	101.88
607.585	88.88
607.793	91.88
608.001	84.88
608.21	84.88
608.418	72.88
608.626	86.88
608.834	90.88
609.043	85.88
609.251	92.88
609.459	102.88
609.667	80.88
609.875	83.88
610.083	85.88
610.291	84.88
610.499	96.88
610.707	87.88
610.916	98.88
611.124	84.88
611.332	92.88
611.54	87.88
611.748	89.88
611.955	85.88
612.163	80.88
612.371	81.88
612.579	85.88
612.787	89.88
612.995	89.88
613.203	89.88
613.411	85.88
613.618	94.88
613.826	97.88
614.034	91.88
614.242	89.88
614.449	86.88
614.657	89.88
614.865	85.88
615.072	91.88
615.28	86.88
615.488	88.88
615.695	94.88
615.903	97.88
616.111	97.88
616.318	108.88
616.526	92.88
616.733	103.88
616.941	94.88
617.148	86.88
617.356	95.88
617.563	82.88
617.771	85.88
617.978	84.88
618.185	97.88
618.393	88.88
618.6	88.88
618.807	82.88
619.015	81.88
619.222	91.88
619.429	93.88
619.637	91.88
619.844	76.88
620.051	94.88
620.258	88.88
620.466	87.88
620.673	78.88
620.88	96.88
621.087	79.88
621.294	93.88
621.501	94.88
621.708	91.88
621.915	77.88
622.122	80.88
622.329	93.88
622.536	90.88
622.743	93.88
622.95	83.88
623.157	72.88
623.364	85.88
623.571	82.88
623.778	95.88
623.985	99.88
624.192	87.88
624.399	83.88
624.606	95.88
624.812	85.88
625.019	90.88
625.226	96.88
625.433	86.88
625.639	101.88
625.846	88.88
626.053	76.88
626.259	81.88
626.466	81.88
626.673	93.88
626.879	94.88
627.086	101.88
627.293	110.88
627.499	92.88
627.706	90.88
627.912	93.88
628.119	88.88
628.325	88.88
628.532	85.88
628.738	92.88
628.945	93.88
629.151	86.88
629.357	76.88
629.564	84.88
629.77	88.88
629.976	93.88
630.183	80.88
630.389	88.88
630.595	92.88
630.802	106.88
631.008	95.88
631.214	92.88
631.42	85.88
631.627	95.88
631.833	83.88
632.039	97.88
632.245	87.88
632.451	85.88
632.657	85.88
632.863	97.88
633.069	99.88
633.275	84.88
633.481	83.88
633.688	81.88
633.893	89.88
634.099	93.88
634.305	87.88
634.511	86.88
634.717	69.88
634.923	85.88
635.129	98.88
635.335	88.88
635.541	94.88
635.747	76.88
635.952	86.88
636.158	86.88
636.364	91.88
636.57	81.88
636.775	88.88
636.981	74.88
637.187	76.88
637.392	86.88
637.598	81.88
637.804	92.88
638.009	95.88
638.215	99.88
638.421	86.88
638.626	88.88
638.832	85.88
639.037	84.88
639.243	91.88
639.448	89.88
639.654	86.88
639.859	86.88
640.065	83.88
640.27	89.88
640.475	90.88
640.681	103.88
640.886	86.88
641.091	88.88
641.297	100.88
641.502	96.88
641.707	91.88
641.913	88.88
642.118	83.88
642.323	92.88
642.528	83.88
642.733	87.88
642.939	83.88
643.144	79.88
643.349	89.88
643.554	104.88
643.759	80.88
643.964	91.88
644.169	102.88
644.374	96.88
644.579	95.88
644.784	76.88
644.989	100.88
645.194	99.88
645.399	95.88
645.604	111.88
645.809	96.88
646.014	97.88
646.219	94.88
646.423	82.88
646.628	87.88
646.833	94.88
647.038	89.88
647.243	90.88
647.447	67.88
647.652	73.88
647.857	84.88
648.062	87.88
648.266	72.88
648.471	81.88
648.676	93.88
648.88	87.88
649.085	89.88
649.289	96.88
649.494	82.88
649.698	125.88
649.903	107.88
650.107	87.88
650.312	76.88
650.516	94.88
650.721	85.88
650.925	82.88
651.13	85.88
651.334	91.88
651.539	87.88
651.743	80.88
651.947	78.88
652.152	88.88
652.356	87.88
652.56	88.88
652.764	85.88
652.969	105.88
653.173	83.88
653.377	78.88
653.581	85.88
653.785	85.88
653.99	79.88
654.194	79.88
654.398	83.88
654.602	93.88
654.806	100.88
655.01	100.88
655.214	84.88
655.418	76.88
655.622	94.88
655.826	81.88
656.03	83.88
656.234	89.88
656.438	87.88
656.642	84.88
656.846	97.88
657.049	103.88
657.253	86.88
657.457	104.88
657.661	85.88
657.865	87.88
658.068	85.88
658.272	87.88
658.476	81.88
658.68	87.88
658.883	77.88
659.087	88.88
659.291	99.88
659.494	95.88
659.698	97.88
659.901	96.88
660.105	72.88
660.309	82.88
660.512	92.88
660.716	72.88
660.919	87.88
661.123	83.88
661.326	81.88
661.53	77.88
661.733	92.88
661.936	79.88
662.14	66.88
662.343	92.88
662.546	91.88
662.75	82.88
662.953	88.88
663.156	85.88
663.36	73.88
663.563	89.88
663.766	86.88
663.969	86.88
664.173	85.88
664.376	82.88
664.579	82.88
664.782	86.88
664.985	79.88
665.188	90.88
665.391	74.88
665.594	102.88
665.797	101.88
666	71.88
666.203	81.88
666.406	79.88
666.609	78.88
666.812	106.88
667.015	85.88
667.218	73.88
667.421	83.88
667.624	69.88
667.827	87.88
668.03	88.88
668.232	78.88
668.435	75.88
668.638	79.88
668.841	81.88
669.043	92.88
669.246	89.88
669.449	85.88
669.651	75.88
669.854	93.88
670.057	83.88
670.259	84.88
670.462	82.88
670.665	90.88
670.867	81.88
671.07	84.88
671.272	95.88
671.475	100.88
671.677	88.88
671.88	79.88
672.082	72.88
672.284	90.88
672.487	81.88
672.689	81.88
672.892	86.88
