Data from Uncirc_2006_H10_HRD10591_00098.txt Node
Date: Wed Jan 03 10:25:14 EST 2024
User: Yrep
Spectrometer: HR+D1059
Trigger mode: 1
Integration Time (sec): 1.000000E-1
Scans to average: 1
Electric dark correction enabled: true
Nonlinearity correction enabled: false
Boxcar width: 0
XAxis mode: Wavelengths
Number of Pixels in Spectrum: 2048
>>>>>Begin Spectral Data<<<<<
223.165	-20.19
223.4	-20.19
223.635	-20.19
223.869	-11.19
224.104	-20.19
224.338	-19.19
224.573	-28.19
224.808	-14.19
225.042	-11.19
225.277	9.81
225.511	-3.19
225.746	1.81
225.98	3.81
226.215	18.81
226.449	21.81
226.683	22.81
226.918	20.81
227.152	27.81
227.387	32.81
227.621	41.81
227.856	51.81
228.09	49.81
228.324	67.81
228.559	76.81
228.793	52.81
229.027	68.81
229.262	60.81
229.496	72.81
229.73	81.81
229.964	79.81
230.199	86.81
230.433	74.81
230.667	70.81
230.901	89.81
231.136	78.81
231.37	75.81
231.604	86.81
231.838	81.81
232.072	77.81
232.306	76.81
232.541	72.81
232.775	78.81
233.009	84.81
233.243	83.81
233.477	77.81
233.711	77.81
233.945	69.81
234.179	86.81
234.413	78.81
234.647	84.81
234.881	67.81
235.115	86.81
235.349	83.81
235.583	73.81
235.817	77.81
236.051	77.81
236.285	66.81
236.519	82.81
236.753	89.81
236.987	74.81
237.221	90.81
237.455	78.81
237.689	79.81
237.922	75.81
238.156	65.81
238.39	79.81
238.624	73.81
238.858	80.81
239.091	73.81
239.325	86.81
239.559	85.81
239.793	71.81
240.027	73.81
240.26	85.81
240.494	70.81
240.728	73.81
240.961	79.81
241.195	90.81
241.429	74.81
241.662	92.81
241.896	74.81
242.13	73.81
242.363	80.81
242.597	71.81
242.83	78.81
243.064	75.81
243.298	90.81
243.531	78.81
243.765	77.81
243.998	80.81
244.232	88.81
244.465	82.81
244.699	77.81
244.932	78.81
245.166	75.81
245.399	82.81
245.633	76.81
245.866	98.81
246.099	80.81
246.333	74.81
246.566	80.81
246.8	76.81
247.033	85.81
247.266	95.81
247.5	77.81
247.733	83.81
247.966	72.81
248.2	80.81
248.433	91.81
248.666	76.81
248.899	83.81
249.133	79.81
249.366	95.81
249.599	91.81
249.832	83.81
250.066	84.81
250.299	81.81
250.532	77.81
250.765	76.81
250.998	70.81
251.231	76.81
251.465	78.81
251.698	78.81
251.931	81.81
252.164	70.81
252.397	75.81
252.63	67.81
252.863	72.81
253.096	79.81
253.329	71.81
253.562	81.81
253.795	88.81
254.028	87.81
254.261	78.81
254.494	80.81
254.727	77.81
254.96	85.81
255.193	69.81
255.426	76.81
255.659	74.81
255.892	83.81
256.124	72.81
256.357	86.81
256.59	85.81
256.823	85.81
257.056	81.81
257.289	82.81
257.521	80.81
257.754	75.81
257.987	79.81
258.22	81.81
258.452	86.81
258.685	92.81
258.918	79.81
259.151	76.81
259.383	98.81
259.616	88.81
259.849	77.81
260.081	73.81
260.314	83.81
260.547	82.81
260.779	83.81
261.012	83.81
261.244	79.81
261.477	87.81
261.71	94.81
261.942	103.81
262.175	93.81
262.407	90.81
262.64	85.81
262.872	77.81
263.105	80.81
263.337	74.81
263.57	84.81
263.802	76.81
264.035	81.81
264.267	90.81
264.499	88.81
264.732	77.81
264.964	81.81
265.197	77.81
265.429	67.81
265.661	83.81
265.894	70.81
266.126	83.81
266.358	78.81
266.591	68.81
266.823	79.81
267.055	83.81
267.287	69.81
267.52	72.81
267.752	77.81
267.984	74.81
268.216	89.81
268.448	92.81
268.681	93.81
268.913	87.81
269.145	86.81
269.377	89.81
269.609	91.81
269.841	78.81
270.073	83.81
270.306	78.81
270.538	80.81
270.77	86.81
271.002	88.81
271.234	89.81
271.466	86.81
271.698	102.81
271.93	95.81
272.162	92.81
272.394	87.81
272.626	83.81
272.858	90.81
273.09	78.81
273.322	83.81
273.553	77.81
273.785	75.81
274.017	71.81
274.249	106.81
274.481	101.81
274.713	86.81
274.945	90.81
275.176	90.81
275.408	89.81
275.64	81.81
275.872	79.81
276.104	85.81
276.335	89.81
276.567	101.81
276.799	96.81
277.031	95.81
277.262	96.81
277.494	90.81
277.726	75.81
277.957	86.81
278.189	87.81
278.421	89.81
278.652	92.81
278.884	92.81
279.115	74.81
279.347	81.81
279.579	79.81
279.81	85.81
280.042	77.81
280.273	97.81
280.505	94.81
280.736	86.81
280.968	95.81
281.199	76.81
281.431	92.81
281.662	95.81
281.894	89.81
282.125	106.81
282.356	111.81
282.588	128.81
282.819	102.81
283.051	89.81
283.282	94.81
283.513	94.81
283.745	77.81
283.976	86.81
284.207	75.81
284.439	82.81
284.67	82.81
284.901	80.81
285.132	76.81
285.364	93.81
285.595	89.81
285.826	73.81
286.057	82.81
286.288	85.81
286.52	75.81
286.751	83.81
286.982	76.81
287.213	100.81
287.444	86.81
287.675	85.81
287.906	90.81
288.138	103.81
288.369	90.81
288.6	88.81
288.831	72.81
289.062	85.81
289.293	78.81
289.524	76.81
289.755	77.81
289.986	74.81
290.217	86.81
290.448	85.81
290.679	82.81
290.91	91.81
291.141	108.81
291.371	94.81
291.602	92.81
291.833	76.81
292.064	87.81
292.295	76.81
292.526	87.81
292.757	97.81
292.987	95.81
293.218	74.81
293.449	90.81
293.68	88.81
293.91	99.81
294.141	87.81
294.372	84.81
294.603	93.81
294.833	85.81
295.064	95.81
295.295	90.81
295.525	102.81
295.756	97.81
295.987	107.81
296.217	113.81
296.448	119.81
296.679	92.81
296.909	98.81
297.14	92.81
297.37	90.81
297.601	96.81
297.831	78.81
298.062	94.81
298.292	93.81
298.523	87.81
298.753	83.81
298.984	91.81
299.214	86.81
299.445	87.81
299.675	98.81
299.905	106.81
300.136	85.81
300.366	81.81
300.597	101.81
300.827	89.81
301.057	112.81
301.288	93.81
301.518	96.81
301.748	92.81
301.979	92.81
302.209	93.81
302.439	84.81
302.669	89.81
302.9	80.81
303.13	82.81
303.36	82.81
303.59	107.81
303.82	112.81
304.051	96.81
304.281	101.81
304.511	101.81
304.741	82.81
304.971	82.81
305.201	90.81
305.431	86.81
305.661	82.81
305.891	86.81
306.121	101.81
306.352	89.81
306.582	95.81
306.812	78.81
307.042	79.81
307.272	97.81
307.502	91.81
307.731	84.81
307.961	75.81
308.191	83.81
308.421	98.81
308.651	83.81
308.881	80.81
309.111	93.81
309.341	79.81
309.571	93.81
309.8	94.81
310.03	90.81
310.26	99.81
310.49	102.81
310.72	79.81
310.949	91.81
311.179	101.81
311.409	91.81
311.639	95.81
311.868	103.81
312.098	109.81
312.328	99.81
312.557	100.81
312.787	104.81
313.017	108.81
313.246	92.81
313.476	79.81
313.706	84.81
313.935	102.81
314.165	93.81
314.394	106.81
314.624	107.81
314.853	102.81
315.083	94.81
315.312	90.81
315.542	90.81
315.771	93.81
316.001	80.81
316.23	78.81
316.46	98.81
316.689	83.81
316.919	82.81
317.148	85.81
317.377	101.81
317.607	85.81
317.836	90.81
318.065	108.81
318.295	73.81
318.524	81.81
318.753	75.81
318.983	86.81
319.212	93.81
319.441	97.81
319.67	112.81
319.9	97.81
320.129	82.81
320.358	110.81
320.587	105.81
320.816	100.81
321.046	83.81
321.275	95.81
321.504	106.81
321.733	95.81
321.962	92.81
322.191	101.81
322.42	113.81
322.649	109.81
322.878	94.81
323.108	114.81
323.337	109.81
323.566	113.81
323.795	151.81
324.024	196.81
324.253	402.81
324.482	833.81
324.71	1734.81
324.939	2194.81
325.168	797.81
325.397	254.81
325.626	145.81
325.855	129.81
326.084	140.81
326.313	117.81
326.542	150.81
326.77	241.81
326.999	464.81
327.228	963.81
327.457	1707.81
327.686	1369.81
327.914	361.81
328.143	187.81
328.372	148.81
328.6	132.81
328.829	103.81
329.058	119.81
329.287	103.81
329.515	103.81
329.744	106.81
329.972	112.81
330.201	85.81
330.43	105.81
330.658	100.81
330.887	126.81
331.115	112.81
331.344	107.81
331.572	105.81
331.801	86.81
332.03	102.81
332.258	91.81
332.486	77.81
332.715	92.81
332.943	98.81
333.172	75.81
333.4	102.81
333.629	107.81
333.857	111.81
334.085	112.81
334.314	96.81
334.542	94.81
334.771	110.81
334.999	92.81
335.227	105.81
335.455	97.81
335.684	88.81
335.912	95.81
336.14	93.81
336.369	97.81
336.597	101.81
336.825	99.81
337.053	94.81
337.281	98.81
337.51	90.81
337.738	93.81
337.966	104.81
338.194	101.81
338.422	92.81
338.65	86.81
338.878	102.81
339.106	94.81
339.334	90.81
339.562	92.81
339.79	94.81
340.018	87.81
340.246	70.81
340.474	93.81
340.702	82.81
340.93	90.81
341.158	97.81
341.386	91.81
341.614	83.81
341.842	84.81
342.07	106.81
342.298	95.81
342.526	92.81
342.754	97.81
342.981	91.81
343.209	80.81
343.437	96.81
343.665	89.81
343.893	82.81
344.12	96.81
344.348	94.81
344.576	100.81
344.804	72.81
345.031	89.81
345.259	100.81
345.487	89.81
345.714	76.81
345.942	89.81
346.17	82.81
346.397	84.81
346.625	74.81
346.853	96.81
347.08	86.81
347.308	85.81
347.535	94.81
347.763	99.81
347.99	95.81
348.218	108.81
348.445	89.81
348.673	94.81
348.9	107.81
349.128	92.81
349.355	86.81
349.583	98.81
349.81	100.81
350.037	115.81
350.265	101.81
350.492	83.81
350.72	79.81
350.947	108.81
351.174	94.81
351.402	135.81
351.629	96.81
351.856	100.81
352.083	110.81
352.311	98.81
352.538	113.81
352.765	104.81
352.992	107.81
353.22	125.81
353.447	108.81
353.674	94.81
353.901	90.81
354.128	104.81
354.355	84.81
354.583	99.81
354.81	102.81
355.037	96.81
355.264	89.81
355.491	92.81
355.718	98.81
355.945	102.81
356.172	103.81
356.399	68.81
356.626	88.81
356.853	90.81
357.08	103.81
357.307	102.81
357.534	97.81
357.761	98.81
357.988	108.81
358.215	84.81
358.441	90.81
358.668	92.81
358.895	89.81
359.122	97.81
359.349	96.81
359.576	92.81
359.802	102.81
360.029	102.81
360.256	90.81
360.483	92.81
360.709	92.81
360.936	97.81
361.163	100.81
361.39	84.81
361.616	95.81
361.843	82.81
362.07	96.81
362.296	81.81
362.523	92.81
362.749	85.81
362.976	96.81
363.203	96.81
363.429	80.81
363.656	98.81
363.882	89.81
364.109	97.81
364.335	91.81
364.562	99.81
364.788	102.81
365.015	108.81
365.241	92.81
365.468	113.81
365.694	99.81
365.92	91.81
366.147	86.81
366.373	76.81
366.599	84.81
366.826	91.81
367.052	101.81
367.278	102.81
367.505	97.81
367.731	95.81
367.957	93.81
368.184	87.81
368.41	102.81
368.636	103.81
368.862	143.81
369.089	122.81
369.315	95.81
369.541	80.81
369.767	92.81
369.993	84.81
370.219	77.81
370.445	99.81
370.672	87.81
370.898	83.81
371.124	93.81
371.35	98.81
371.576	81.81
371.802	90.81
372.028	93.81
372.254	82.81
372.48	92.81
372.706	87.81
372.932	94.81
373.158	98.81
373.384	89.81
373.61	100.81
373.835	97.81
374.061	85.81
374.287	97.81
374.513	80.81
374.739	86.81
374.965	83.81
375.191	104.81
375.416	97.81
375.642	82.81
375.868	97.81
376.094	101.81
376.319	99.81
376.545	99.81
376.771	90.81
376.997	79.81
377.222	83.81
377.448	92.81
377.674	86.81
377.899	89.81
378.125	84.81
378.35	85.81
378.576	84.81
378.802	104.81
379.027	102.81
379.253	81.81
379.478	86.81
379.704	93.81
379.929	85.81
380.155	87.81
380.38	91.81
380.606	98.81
380.831	97.81
381.057	114.81
381.282	89.81
381.507	95.81
381.733	95.81
381.958	103.81
382.184	95.81
382.409	109.81
382.634	105.81
382.86	109.81
383.085	97.81
383.31	107.81
383.535	94.81
383.761	103.81
383.986	110.81
384.211	92.81
384.436	85.81
384.662	110.81
384.887	106.81
385.112	83.81
385.337	103.81
385.562	101.81
385.787	105.81
386.013	83.81
386.238	119.81
386.463	107.81
386.688	111.81
386.913	101.81
387.138	99.81
387.363	108.81
387.588	93.81
387.813	107.81
388.038	108.81
388.263	125.81
388.488	126.81
388.713	101.81
388.938	93.81
389.163	93.81
389.387	103.81
389.612	99.81
389.837	90.81
390.062	94.81
390.287	90.81
390.512	94.81
390.736	103.81
390.961	88.81
391.186	82.81
391.411	96.81
391.636	76.81
391.86	77.81
392.085	93.81
392.31	93.81
392.534	80.81
392.759	79.81
392.984	89.81
393.208	98.81
393.433	72.81
393.658	76.81
393.882	89.81
394.107	88.81
394.331	96.81
394.556	89.81
394.78	89.81
395.005	94.81
395.229	75.81
395.454	81.81
395.678	97.81
395.903	89.81
396.127	83.81
396.352	79.81
396.576	91.81
396.801	83.81
397.025	85.81
397.249	91.81
397.474	83.81
397.698	91.81
397.922	78.81
398.147	99.81
398.371	87.81
398.595	86.81
398.82	90.81
399.044	78.81
399.268	77.81
399.492	101.81
399.717	85.81
399.941	84.81
400.165	97.81
400.389	101.81
400.613	78.81
400.837	81.81
401.062	65.81
401.286	76.81
401.51	80.81
401.734	83.81
401.958	96.81
402.182	123.81
402.406	150.81
402.63	115.81
402.854	93.81
403.078	90.81
403.302	80.81
403.526	69.81
403.75	86.81
403.974	83.81
404.198	88.81
404.422	90.81
404.645	93.81
404.869	89.81
405.093	94.81
405.317	95.81
405.541	87.81
405.765	102.81
405.988	105.81
406.212	151.81
406.436	228.81
406.66	141.81
406.883	96.81
407.107	87.81
407.331	82.81
407.555	99.81
407.778	101.81
408.002	93.81
408.226	82.81
408.449	101.81
408.673	90.81
408.896	86.81
409.12	87.81
409.344	77.81
409.567	85.81
409.791	94.81
410.014	99.81
410.238	92.81
410.461	101.81
410.685	95.81
410.908	79.81
411.132	96.81
411.355	110.81
411.578	105.81
411.802	99.81
412.025	81.81
412.249	84.81
412.472	83.81
412.695	81.81
412.919	93.81
413.142	96.81
413.365	84.81
413.589	80.81
413.812	94.81
414.035	85.81
414.258	90.81
414.482	91.81
414.705	96.81
414.928	98.81
415.151	89.81
415.374	97.81
415.597	100.81
415.821	101.81
416.044	93.81
416.267	93.81
416.49	95.81
416.713	91.81
416.936	93.81
417.159	90.81
417.382	86.81
417.605	81.81
417.828	92.81
418.051	76.81
418.274	81.81
418.497	86.81
418.72	81.81
418.943	83.81
419.166	80.81
419.389	85.81
419.611	84.81
419.834	93.81
420.057	95.81
420.28	90.81
420.503	91.81
420.726	74.81
420.948	85.81
421.171	99.81
421.394	100.81
421.617	77.81
421.839	87.81
422.062	83.81
422.285	82.81
422.507	91.81
422.73	95.81
422.953	87.81
423.175	87.81
423.398	78.81
423.621	96.81
423.843	95.81
424.066	85.81
424.288	88.81
424.511	75.81
424.733	95.81
424.956	104.81
425.178	84.81
425.401	91.81
425.623	95.81
425.846	101.81
426.068	87.81
426.291	97.81
426.513	71.81
426.735	75.81
426.958	90.81
427.18	106.81
427.402	126.81
427.625	151.81
427.847	137.81
428.069	101.81
428.292	86.81
428.514	87.81
428.736	92.81
428.958	97.81
429.181	85.81
429.403	85.81
429.625	94.81
429.847	85.81
430.069	89.81
430.292	99.81
430.514	81.81
430.736	81.81
430.958	88.81
431.18	95.81
431.402	86.81
431.624	102.81
431.846	84.81
432.068	68.81
432.29	87.81
432.512	94.81
432.734	84.81
432.956	89.81
433.178	99.81
433.4	89.81
433.622	87.81
433.844	96.81
434.066	90.81
434.287	97.81
434.509	79.81
434.731	90.81
434.953	98.81
435.175	80.81
435.397	100.81
435.618	78.81
435.84	98.81
436.062	112.81
436.284	95.81
436.505	95.81
436.727	91.81
436.949	102.81
437.17	93.81
437.392	88.81
437.614	91.81
437.835	95.81
438.057	107.81
438.278	98.81
438.5	113.81
438.721	110.81
438.943	105.81
439.165	86.81
439.386	89.81
439.608	89.81
439.829	92.81
440.05	103.81
440.272	117.81
440.493	73.81
440.715	83.81
440.936	86.81
441.158	96.81
441.379	75.81
441.6	100.81
441.822	93.81
442.043	90.81
442.264	96.81
442.486	95.81
442.707	95.81
442.928	102.81
443.149	124.81
443.371	126.81
443.592	120.81
443.813	107.81
444.034	98.81
444.255	91.81
444.476	92.81
444.698	92.81
444.919	90.81
445.14	126.81
445.361	119.81
445.582	94.81
445.803	132.81
446.024	119.81
446.245	138.81
446.466	103.81
446.687	90.81
446.908	87.81
447.129	100.81
447.35	76.81
447.571	85.81
447.792	105.81
448.013	100.81
448.234	109.81
448.455	95.81
448.675	95.81
448.896	113.81
449.117	99.81
449.338	106.81
449.559	120.81
449.779	124.81
450	93.81
450.221	80.81
450.442	92.81
450.662	107.81
450.883	115.81
451.104	117.81
451.324	97.81
451.545	84.81
451.766	83.81
451.986	84.81
452.207	81.81
452.428	98.81
452.648	95.81
452.869	97.81
453.089	123.81
453.31	114.81
453.53	102.81
453.751	94.81
453.971	98.81
454.192	97.81
454.412	92.81
454.633	107.81
454.853	69.81
455.073	75.81
455.294	99.81
455.514	82.81
455.734	94.81
455.955	83.81
456.175	73.81
456.395	86.81
456.616	94.81
456.836	92.81
457.056	86.81
457.276	97.81
457.497	79.81
457.717	92.81
457.937	94.81
458.157	82.81
458.377	99.81
458.598	98.81
458.818	136.81
459.038	135.81
459.258	106.81
459.478	80.81
459.698	89.81
459.918	86.81
460.138	82.81
460.358	84.81
460.578	96.81
460.798	89.81
461.018	86.81
461.238	85.81
461.458	81.81
461.678	87.81
461.898	92.81
462.118	92.81
462.338	83.81
462.558	95.81
462.777	86.81
462.997	86.81
463.217	74.81
463.437	89.81
463.657	94.81
463.876	94.81
464.096	83.81
464.316	97.81
464.536	77.81
464.755	96.81
464.975	110.81
465.195	158.81
465.414	140.81
465.634	98.81
465.854	81.81
466.073	84.81
466.293	73.81
466.512	75.81
466.732	78.81
466.951	83.81
467.171	84.81
467.391	84.81
467.61	100.81
467.829	91.81
468.049	84.81
468.268	84.81
468.488	78.81
468.707	84.81
468.927	78.81
469.146	101.81
469.365	93.81
469.585	86.81
469.804	88.81
470.023	95.81
470.243	83.81
470.462	94.81
470.681	105.81
470.901	74.81
471.12	85.81
471.339	89.81
471.558	89.81
471.777	84.81
471.997	69.81
472.216	92.81
472.435	83.81
472.654	75.81
472.873	89.81
473.092	93.81
473.311	95.81
473.53	87.81
473.749	98.81
473.968	102.81
474.187	90.81
474.406	95.81
474.625	90.81
474.844	93.81
475.063	85.81
475.282	86.81
475.501	82.81
475.72	93.81
475.939	91.81
476.158	84.81
476.377	104.81
476.596	97.81
476.814	85.81
477.033	82.81
477.252	91.81
477.471	82.81
477.69	87.81
477.908	86.81
478.127	83.81
478.346	85.81
478.564	80.81
478.783	103.81
479.002	90.81
479.22	82.81
479.439	86.81
479.658	95.81
479.876	93.81
480.095	83.81
480.313	90.81
480.532	109.81
480.751	99.81
480.969	98.81
481.188	89.81
481.406	111.81
481.624	79.81
481.843	81.81
482.061	81.81
482.28	86.81
482.498	100.81
482.717	94.81
482.935	89.81
483.153	90.81
483.372	91.81
483.59	97.81
483.808	87.81
484.027	96.81
484.245	95.81
484.463	82.81
484.681	78.81
484.9	81.81
485.118	101.81
485.336	91.81
485.554	102.81
485.772	101.81
485.99	107.81
486.209	103.81
486.427	95.81
486.645	93.81
486.863	106.81
487.081	81.81
487.299	87.81
487.517	82.81
487.735	95.81
487.953	106.81
488.171	92.81
488.389	101.81
488.607	109.81
488.825	81.81
489.043	85.81
489.261	98.81
489.479	104.81
489.696	83.81
489.914	87.81
490.132	96.81
490.35	99.81
490.568	90.81
490.786	84.81
491.003	99.81
491.221	87.81
491.439	88.81
491.657	78.81
491.874	93.81
492.092	96.81
492.31	94.81
492.527	90.81
492.745	86.81
492.963	82.81
493.18	80.81
493.398	89.81
493.615	98.81
493.833	98.81
494.05	90.81
494.268	91.81
494.485	89.81
494.703	84.81
494.92	96.81
495.138	84.81
495.355	98.81
495.573	95.81
495.79	84.81
496.008	77.81
496.225	94.81
496.442	78.81
496.66	87.81
496.877	95.81
497.094	90.81
497.312	84.81
497.529	87.81
497.746	99.81
497.963	94.81
498.181	81.81
498.398	89.81
498.615	90.81
498.832	86.81
499.049	79.81
499.267	95.81
499.484	83.81
499.701	88.81
499.918	89.81
500.135	89.81
500.352	88.81
500.569	85.81
500.786	89.81
501.003	80.81
501.22	109.81
501.437	82.81
501.654	101.81
501.871	101.81
502.088	87.81
502.305	95.81
502.522	92.81
502.739	98.81
502.956	82.81
503.172	94.81
503.389	97.81
503.606	101.81
503.823	90.81
504.04	94.81
504.256	82.81
504.473	85.81
504.69	80.81
504.907	100.81
505.123	95.81
505.34	89.81
505.557	100.81
505.773	92.81
505.99	93.81
506.207	81.81
506.423	101.81
506.64	105.81
506.856	94.81
507.073	97.81
507.289	85.81
507.506	98.81
507.722	109.81
507.939	99.81
508.155	93.81
508.372	91.81
508.588	97.81
508.805	90.81
509.021	118.81
509.238	93.81
509.454	98.81
509.67	97.81
509.887	108.81
510.103	139.81
510.319	229.81
510.536	758.81
510.752	2373.81
510.968	655.81
511.184	158.81
511.401	103.81
511.617	108.81
511.833	94.81
512.049	87.81
512.265	90.81
512.481	91.81
512.698	83.81
512.914	90.81
513.13	100.81
513.346	89.81
513.562	110.81
513.778	93.81
513.994	87.81
514.21	104.81
514.426	106.81
514.642	133.81
514.858	117.81
515.074	166.81
515.29	437.81
515.506	1443.81
515.721	540.81
515.937	151.81
516.153	109.81
516.369	109.81
516.585	94.81
516.801	85.81
517.016	89.81
517.232	85.81
517.448	93.81
517.664	94.81
517.879	106.81
518.095	94.81
518.311	105.81
518.527	105.81
518.742	95.81
518.958	101.81
519.173	93.81
519.389	90.81
519.605	91.81
519.82	99.81
520.036	106.81
520.251	125.81
520.467	104.81
520.682	109.81
520.898	106.81
521.113	112.81
521.329	128.81
521.544	199.81
521.76	544.81
521.975	2393.81
522.19	1515.81
522.406	313.81
522.621	121.81
522.836	97.81
523.052	100.81
523.267	91.81
523.482	90.81
523.698	99.81
523.913	94.81
524.128	106.81
524.343	100.81
524.559	91.81
524.774	89.81
524.989	86.81
525.204	121.81
525.419	96.81
525.634	108.81
525.849	78.81
526.064	97.81
526.28	85.81
526.495	108.81
526.71	78.81
526.925	87.81
527.14	79.81
527.355	84.81
527.57	106.81
527.785	87.81
527.999	78.81
528.214	78.81
528.429	82.81
528.644	98.81
528.859	88.81
529.074	87.81
529.289	131.81
529.503	178.81
529.718	94.81
529.933	85.81
530.148	89.81
530.363	84.81
530.577	86.81
530.792	84.81
531.007	87.81
531.221	80.81
531.436	90.81
531.651	95.81
531.865	97.81
532.08	83.81
532.295	78.81
532.509	101.81
532.724	87.81
532.938	93.81
533.153	97.81
533.367	91.81
533.582	83.81
533.796	89.81
534.011	93.81
534.225	104.81
534.44	92.81
534.654	91.81
534.868	95.81
535.083	101.81
535.297	97.81
535.511	93.81
535.726	101.81
535.94	96.81
536.154	96.81
536.369	94.81
536.583	98.81
536.797	91.81
537.011	102.81
537.225	95.81
537.44	99.81
537.654	71.81
537.868	79.81
538.082	98.81
538.296	87.81
538.51	90.81
538.724	90.81
538.938	94.81
539.153	100.81
539.367	97.81
539.581	91.81
539.795	88.81
540.009	102.81
540.222	90.81
540.436	80.81
540.65	110.81
540.864	102.81
541.078	98.81
541.292	78.81
541.506	79.81
541.72	85.81
541.934	92.81
542.147	81.81
542.361	82.81
542.575	98.81
542.789	96.81
543.002	93.81
543.216	91.81
543.43	93.81
543.644	82.81
543.857	87.81
544.071	93.81
544.285	69.81
544.498	91.81
544.712	93.81
544.925	92.81
545.139	90.81
545.352	81.81
545.566	86.81
545.779	77.81
545.993	93.81
546.206	90.81
546.42	89.81
546.633	88.81
546.847	82.81
547.06	87.81
547.274	104.81
547.487	94.81
547.7	90.81
547.914	85.81
548.127	88.81
548.34	92.81
548.554	93.81
548.767	81.81
548.98	100.81
549.193	91.81
549.407	82.81
549.62	87.81
549.833	100.81
550.046	81.81
550.259	101.81
550.473	101.81
550.686	78.81
550.899	92.81
551.112	98.81
551.325	82.81
551.538	86.81
551.751	96.81
551.964	93.81
552.177	85.81
552.39	80.81
552.603	80.81
552.816	78.81
553.029	82.81
553.242	90.81
553.455	90.81
553.667	94.81
553.88	94.81
554.093	98.81
554.306	96.81
554.519	102.81
554.732	68.81
554.944	92.81
555.157	93.81
555.37	93.81
555.583	84.81
555.795	78.81
556.008	99.81
556.221	101.81
556.433	92.81
556.646	94.81
556.859	95.81
557.071	93.81
557.284	93.81
557.496	106.81
557.709	81.81
557.921	91.81
558.134	91.81
558.346	92.81
558.559	86.81
558.771	97.81
558.984	101.81
559.196	82.81
559.409	98.81
559.621	88.81
559.833	92.81
560.046	84.81
560.258	93.81
560.47	88.81
560.683	97.81
560.895	95.81
561.107	84.81
561.32	89.81
561.532	98.81
561.744	81.81
561.956	101.81
562.168	97.81
562.381	89.81
562.593	98.81
562.805	95.81
563.017	102.81
563.229	103.81
563.441	90.81
563.653	90.81
563.865	86.81
564.077	90.81
564.289	85.81
564.501	91.81
564.713	105.81
564.925	78.81
565.137	87.81
565.349	93.81
565.561	90.81
565.773	87.81
565.985	88.81
566.197	94.81
566.408	94.81
566.62	84.81
566.832	95.81
567.044	90.81
567.255	98.81
567.467	89.81
567.679	91.81
567.891	85.81
568.102	89.81
568.314	88.81
568.526	73.81
568.737	87.81
568.949	74.81
569.161	95.81
569.372	92.81
569.584	97.81
569.795	96.81
570.007	134.81
570.218	245.81
570.43	157.81
570.641	92.81
570.853	97.81
571.064	93.81
571.276	87.81
571.487	90.81
571.698	78.81
571.91	96.81
572.121	93.81
572.333	81.81
572.544	100.81
572.755	86.81
572.966	88.81
573.178	81.81
573.389	94.81
573.6	85.81
573.811	88.81
574.023	94.81
574.234	80.81
574.445	101.81
574.656	85.81
574.867	100.81
575.078	96.81
575.289	97.81
575.501	83.81
575.712	100.81
575.923	79.81
576.134	81.81
576.345	90.81
576.556	86.81
576.767	86.81
576.978	97.81
577.188	89.81
577.399	107.81
577.61	90.81
577.821	95.81
578.032	101.81
578.243	278.81
578.454	785.81
578.665	210.81
578.875	107.81
579.086	84.81
579.297	90.81
579.508	93.81
579.718	89.81
579.929	96.81
580.14	85.81
580.35	94.81
580.561	91.81
580.772	92.81
580.982	93.81
581.193	80.81
581.403	82.81
581.614	75.81
581.825	74.81
582.035	81.81
582.246	91.81
582.456	87.81
582.667	84.81
582.877	77.81
583.087	71.81
583.298	98.81
583.508	89.81
583.719	90.81
583.929	82.81
584.139	93.81
584.35	85.81
584.56	79.81
584.77	96.81
584.981	85.81
585.191	81.81
585.401	91.81
585.611	94.81
585.821	91.81
586.032	102.81
586.242	81.81
586.452	93.81
586.662	84.81
586.872	87.81
587.082	87.81
587.292	78.81
587.502	78.81
587.713	76.81
587.923	91.81
588.133	87.81
588.343	81.81
588.553	83.81
588.762	92.81
588.972	91.81
589.182	88.81
589.392	98.81
589.602	85.81
589.812	76.81
590.022	105.81
590.232	100.81
590.441	88.81
590.651	90.81
590.861	83.81
591.071	85.81
591.281	96.81
591.49	90.81
591.7	93.81
591.91	95.81
592.119	76.81
592.329	88.81
592.539	90.81
592.748	92.81
592.958	80.81
593.167	87.81
593.377	82.81
593.587	100.81
593.796	98.81
594.006	81.81
594.215	89.81
594.424	92.81
594.634	87.81
594.843	74.81
595.053	92.81
595.262	81.81
595.472	73.81
595.681	84.81
595.89	82.81
596.1	84.81
596.309	82.81
596.518	80.81
596.727	90.81
596.937	82.81
597.146	94.81
597.355	88.81
597.564	88.81
597.774	84.81
597.983	73.81
598.192	89.81
598.401	80.81
598.61	82.81
598.819	88.81
599.028	93.81
599.237	84.81
599.446	102.81
599.655	84.81
599.864	82.81
600.073	86.81
600.282	89.81
600.491	91.81
600.7	70.81
600.909	87.81
601.118	86.81
601.327	94.81
601.536	87.81
601.745	90.81
601.953	68.81
602.162	85.81
602.371	72.81
602.58	92.81
602.789	84.81
602.997	85.81
603.206	86.81
603.415	91.81
603.623	92.81
603.832	85.81
604.041	76.81
604.249	96.81
604.458	76.81
604.666	82.81
604.875	94.81
605.084	85.81
605.292	95.81
605.501	88.81
605.709	86.81
605.918	92.81
606.126	93.81
606.334	91.81
606.543	84.81
606.751	93.81
606.96	86.81
607.168	93.81
607.376	101.81
607.585	84.81
607.793	82.81
608.001	99.81
608.21	97.81
608.418	87.81
608.626	90.81
608.834	86.81
609.043	90.81
609.251	98.81
609.459	86.81
609.667	96.81
609.875	81.81
610.083	93.81
610.291	87.81
610.499	87.81
610.707	91.81
610.916	82.81
611.124	95.81
611.332	83.81
611.54	85.81
611.748	86.81
611.955	88.81
612.163	76.81
612.371	92.81
612.579	87.81
612.787	101.81
612.995	93.81
613.203	93.81
613.411	82.81
613.618	87.81
613.826	79.81
614.034	81.81
614.242	96.81
614.449	78.81
614.657	90.81
614.865	89.81
615.072	86.81
615.28	87.81
615.488	74.81
615.695	100.81
615.903	90.81
616.111	98.81
616.318	108.81
616.526	102.81
616.733	85.81
616.941	96.81
617.148	96.81
617.356	95.81
617.563	79.81
617.771	103.81
617.978	76.81
618.185	86.81
618.393	68.81
618.6	85.81
618.807	94.81
619.015	94.81
619.222	96.81
619.429	74.81
619.637	91.81
619.844	94.81
620.051	86.81
620.258	87.81
620.466	92.81
620.673	79.81
620.88	79.81
621.087	90.81
621.294	84.81
621.501	89.81
621.708	83.81
621.915	96.81
622.122	88.81
622.329	82.81
622.536	83.81
622.743	70.81
622.95	85.81
623.157	98.81
623.364	71.81
623.571	84.81
623.778	87.81
623.985	92.81
624.192	79.81
624.399	77.81
624.606	74.81
624.812	81.81
625.019	80.81
625.226	81.81
625.433	90.81
625.639	86.81
625.846	106.81
626.053	81.81
626.259	78.81
626.466	79.81
626.673	88.81
626.879	81.81
627.086	84.81
627.293	90.81
627.499	79.81
627.706	98.81
627.912	77.81
628.119	75.81
628.325	79.81
628.532	77.81
628.738	90.81
628.945	62.81
629.151	82.81
629.357	80.81
629.564	94.81
629.77	94.81
629.976	99.81
630.183	90.81
630.389	70.81
630.595	71.81
630.802	98.81
631.008	82.81
631.214	81.81
631.42	102.81
631.627	82.81
631.833	78.81
632.039	96.81
632.245	83.81
632.451	89.81
632.657	92.81
632.863	86.81
633.069	82.81
633.275	92.81
633.481	83.81
633.688	79.81
633.893	76.81
634.099	87.81
634.305	78.81
634.511	75.81
634.717	89.81
634.923	80.81
635.129	81.81
635.335	79.81
635.541	79.81
635.747	93.81
635.952	84.81
636.158	74.81
636.364	83.81
636.57	80.81
636.775	81.81
636.981	92.81
637.187	96.81
637.392	73.81
637.598	81.81
637.804	76.81
638.009	92.81
638.215	81.81
638.421	75.81
638.626	92.81
638.832	96.81
639.037	81.81
639.243	77.81
639.448	82.81
639.654	85.81
639.859	82.81
640.065	77.81
640.27	94.81
640.475	76.81
640.681	85.81
640.886	70.81
641.091	82.81
641.297	85.81
641.502	83.81
641.707	86.81
641.913	98.81
642.118	78.81
642.323	92.81
642.528	71.81
642.733	76.81
642.939	91.81
643.144	89.81
643.349	94.81
643.554	93.81
643.759	83.81
643.964	87.81
644.169	82.81
644.374	76.81
644.579	79.81
644.784	86.81
644.989	82.81
645.194	81.81
645.399	75.81
645.604	93.81
645.809	100.81
646.014	92.81
646.219	83.81
646.423	86.81
646.628	76.81
646.833	69.81
647.038	79.81
647.243	96.81
647.447	83.81
647.652	90.81
647.857	82.81
648.062	87.81
648.266	74.81
648.471	82.81
648.676	92.81
648.88	87.81
649.085	98.81
649.289	89.81
649.494	104.81
649.698	130.81
649.903	105.81
650.107	99.81
650.312	95.81
650.516	94.81
650.721	81.81
650.925	93.81
651.13	95.81
651.334	87.81
651.539	86.81
651.743	86.81
651.947	81.81
652.152	84.81
652.356	83.81
652.56	83.81
652.764	78.81
652.969	88.81
653.173	84.81
653.377	78.81
653.581	82.81
653.785	84.81
653.99	73.81
654.194	90.81
654.398	74.81
654.602	84.81
654.806	81.81
655.01	107.81
655.214	87.81
655.418	80.81
655.622	99.81
655.826	83.81
656.03	81.81
656.234	82.81
656.438	88.81
656.642	94.81
656.846	74.81
657.049	87.81
657.253	74.81
657.457	90.81
657.661	83.81
657.865	67.81
658.068	92.81
658.272	83.81
658.476	82.81
658.68	83.81
658.883	81.81
659.087	84.81
659.291	65.81
659.494	76.81
659.698	79.81
659.901	81.81
660.105	75.81
660.309	94.81
660.512	76.81
660.716	80.81
660.919	78.81
661.123	98.81
661.326	68.81
661.53	66.81
661.733	74.81
661.936	80.81
662.14	86.81
662.343	94.81
662.546	81.81
662.75	71.81
662.953	79.81
663.156	92.81
663.36	79.81
663.563	84.81
663.766	74.81
663.969	81.81
664.173	68.81
664.376	73.81
664.579	80.81
664.782	85.81
664.985	90.81
665.188	83.81
665.391	92.81
665.594	71.81
665.797	75.81
666	82.81
666.203	96.81
666.406	73.81
666.609	83.81
666.812	76.81
667.015	71.81
667.218	77.81
667.421	84.81
667.624	70.81
667.827	89.81
668.03	92.81
668.232	73.81
668.435	88.81
668.638	95.81
668.841	91.81
669.043	76.81
669.246	71.81
669.449	86.81
669.651	91.81
669.854	89.81
670.057	80.81
670.259	79.81
670.462	76.81
670.665	80.81
670.867	78.81
671.07	91.81
671.272	82.81
671.475	90.81
671.677	78.81
671.88	78.81
672.082	89.81
672.284	87.81
672.487	72.81
672.689	79.81
672.892	70.81
