Data from 10100_2_HRD10591_00010.txt Node
Date: Mon Jan 19 14:01:29 EST 2026
User: Yrep
Spectrometer: HR+D1059
Trigger mode: 1
Integration Time (sec): 1.000000E-1
Scans to average: 1
Electric dark correction enabled: true
Nonlinearity correction enabled: false
Boxcar width: 0
XAxis mode: Wavelengths
Number of Pixels in Spectrum: 2048
>>>>>Begin Spectral Data<<<<<
223.165	-21.5
223.4	-21.5
223.635	-21.5
223.869	-15.5
224.104	-14.5
224.338	-27.5
224.573	-8.5
224.808	-8.5
225.042	1.5
225.277	-9.5
225.511	-2.5
225.746	6.5
225.98	10.5
226.215	-2.5
226.449	30.5
226.683	23.5
226.918	11.5
227.152	26.5
227.387	30.5
227.621	33.5
227.856	29.5
228.09	49.5
228.324	51.5
228.559	38.5
228.793	61.5
229.027	51.5
229.262	55.5
229.496	52.5
229.73	72.5
229.964	79.5
230.199	69.5
230.433	62.5
230.667	84.5
230.901	67.5
231.136	70.5
231.37	81.5
231.604	78.5
231.838	68.5
232.072	75.5
232.306	95.5
232.541	87.5
232.775	82.5
233.009	79.5
233.243	75.5
233.477	67.5
233.711	80.5
233.945	71.5
234.179	79.5
234.413	86.5
234.647	79.5
234.881	84.5
235.115	83.5
235.349	85.5
235.583	95.5
235.817	81.5
236.051	69.5
236.285	64.5
236.519	82.5
236.753	75.5
236.987	63.5
237.221	63.5
237.455	80.5
237.689	80.5
237.922	68.5
238.156	73.5
238.39	73.5
238.624	80.5
238.858	66.5
239.091	72.5
239.325	82.5
239.559	57.5
239.793	67.5
240.027	74.5
240.26	81.5
240.494	80.5
240.728	82.5
240.961	73.5
241.195	81.5
241.429	64.5
241.662	69.5
241.896	73.5
242.13	80.5
242.363	81.5
242.597	74.5
242.83	81.5
243.064	67.5
243.298	79.5
243.531	73.5
243.765	81.5
243.998	74.5
244.232	76.5
244.465	64.5
244.699	82.5
244.932	91.5
245.166	64.5
245.399	84.5
245.633	72.5
245.866	70.5
246.099	66.5
246.333	88.5
246.566	79.5
246.8	95.5
247.033	79.5
247.266	80.5
247.5	68.5
247.733	75.5
247.966	87.5
248.2	65.5
248.433	75.5
248.666	79.5
248.899	85.5
249.133	85.5
249.366	81.5
249.599	67.5
249.832	81.5
250.066	77.5
250.299	78.5
250.532	73.5
250.765	95.5
250.998	79.5
251.231	74.5
251.465	80.5
251.698	91.5
251.931	73.5
252.164	77.5
252.397	75.5
252.63	85.5
252.863	84.5
253.096	75.5
253.329	89.5
253.562	78.5
253.795	66.5
254.028	81.5
254.261	82.5
254.494	89.5
254.727	69.5
254.96	77.5
255.193	88.5
255.426	70.5
255.659	81.5
255.892	68.5
256.124	80.5
256.357	86.5
256.59	83.5
256.823	71.5
257.056	70.5
257.289	86.5
257.521	81.5
257.754	81.5
257.987	85.5
258.22	85.5
258.452	78.5
258.685	82.5
258.918	94.5
259.151	85.5
259.383	83.5
259.616	76.5
259.849	85.5
260.081	77.5
260.314	76.5
260.547	70.5
260.779	81.5
261.012	75.5
261.244	72.5
261.477	69.5
261.71	91.5
261.942	74.5
262.175	87.5
262.407	76.5
262.64	70.5
262.872	90.5
263.105	84.5
263.337	77.5
263.57	81.5
263.802	83.5
264.035	76.5
264.267	71.5
264.499	63.5
264.732	82.5
264.964	87.5
265.197	73.5
265.429	76.5
265.661	71.5
265.894	82.5
266.126	95.5
266.358	89.5
266.591	68.5
266.823	76.5
267.055	64.5
267.287	85.5
267.52	95.5
267.752	93.5
267.984	86.5
268.216	79.5
268.448	95.5
268.681	84.5
268.913	85.5
269.145	74.5
269.377	74.5
269.609	81.5
269.841	63.5
270.073	78.5
270.306	76.5
270.538	85.5
270.77	74.5
271.002	93.5
271.234	80.5
271.466	94.5
271.698	77.5
271.93	76.5
272.162	79.5
272.394	84.5
272.626	84.5
272.858	77.5
273.09	91.5
273.322	76.5
273.553	78.5
273.785	95.5
274.017	77.5
274.249	79.5
274.481	87.5
274.713	78.5
274.945	87.5
275.176	85.5
275.408	82.5
275.64	72.5
275.872	84.5
276.104	79.5
276.335	78.5
276.567	70.5
276.799	79.5
277.031	83.5
277.262	70.5
277.494	83.5
277.726	71.5
277.957	78.5
278.189	84.5
278.421	81.5
278.652	88.5
278.884	90.5
279.115	89.5
279.347	91.5
279.579	80.5
279.81	80.5
280.042	84.5
280.273	93.5
280.505	87.5
280.736	80.5
280.968	84.5
281.199	97.5
281.431	96.5
281.662	72.5
281.894	68.5
282.125	89.5
282.356	88.5
282.588	86.5
282.819	89.5
283.051	70.5
283.282	86.5
283.513	76.5
283.745	93.5
283.976	73.5
284.207	88.5
284.439	84.5
284.67	86.5
284.901	89.5
285.132	91.5
285.364	97.5
285.595	104.5
285.826	91.5
286.057	87.5
286.288	91.5
286.52	83.5
286.751	76.5
286.982	79.5
287.213	90.5
287.444	79.5
287.675	99.5
287.906	91.5
288.138	83.5
288.369	91.5
288.6	93.5
288.831	85.5
289.062	101.5
289.293	97.5
289.524	92.5
289.755	82.5
289.986	81.5
290.217	94.5
290.448	91.5
290.679	97.5
290.91	93.5
291.141	89.5
291.371	80.5
291.602	71.5
291.833	99.5
292.064	90.5
292.295	67.5
292.526	82.5
292.757	84.5
292.987	81.5
293.218	91.5
293.449	71.5
293.68	86.5
293.91	83.5
294.141	88.5
294.372	71.5
294.603	92.5
294.833	77.5
295.064	96.5
295.295	86.5
295.525	80.5
295.756	95.5
295.987	95.5
296.217	97.5
296.448	96.5
296.679	81.5
296.909	94.5
297.14	80.5
297.37	94.5
297.601	104.5
297.831	83.5
298.062	82.5
298.292	79.5
298.523	78.5
298.753	91.5
298.984	83.5
299.214	87.5
299.445	74.5
299.675	99.5
299.905	93.5
300.136	84.5
300.366	84.5
300.597	79.5
300.827	93.5
301.057	107.5
301.288	79.5
301.518	78.5
301.748	100.5
301.979	103.5
302.209	95.5
302.439	92.5
302.669	77.5
302.9	94.5
303.13	85.5
303.36	79.5
303.59	82.5
303.82	91.5
304.051	89.5
304.281	83.5
304.511	80.5
304.741	88.5
304.971	95.5
305.201	88.5
305.431	80.5
305.661	86.5
305.891	76.5
306.121	95.5
306.352	90.5
306.582	78.5
306.812	79.5
307.042	74.5
307.272	79.5
307.502	78.5
307.731	89.5
307.961	104.5
308.191	92.5
308.421	87.5
308.651	87.5
308.881	83.5
309.111	82.5
309.341	99.5
309.571	85.5
309.8	89.5
310.03	105.5
310.26	82.5
310.49	88.5
310.72	83.5
310.949	81.5
311.179	89.5
311.409	85.5
311.639	94.5
311.868	78.5
312.098	91.5
312.328	77.5
312.557	91.5
312.787	104.5
313.017	91.5
313.246	59.5
313.476	83.5
313.706	87.5
313.935	82.5
314.165	92.5
314.394	83.5
314.624	80.5
314.853	102.5
315.083	88.5
315.312	77.5
315.542	95.5
315.771	113.5
316.001	86.5
316.23	94.5
316.46	99.5
316.689	83.5
316.919	79.5
317.148	91.5
317.377	89.5
317.607	74.5
317.836	91.5
318.065	112.5
318.295	91.5
318.524	91.5
318.753	93.5
318.983	87.5
319.212	96.5
319.441	99.5
319.67	65.5
319.9	74.5
320.129	77.5
320.358	88.5
320.587	80.5
320.816	88.5
321.046	89.5
321.275	86.5
321.504	87.5
321.733	85.5
321.962	74.5
322.191	96.5
322.42	93.5
322.649	94.5
322.878	77.5
323.108	87.5
323.337	87.5
323.566	91.5
323.795	96.5
324.024	86.5
324.253	89.5
324.482	84.5
324.71	104.5
324.939	79.5
325.168	81.5
325.397	89.5
325.626	81.5
325.855	105.5
326.084	97.5
326.313	91.5
326.542	91.5
326.77	92.5
326.999	86.5
327.228	85.5
327.457	85.5
327.686	77.5
327.914	87.5
328.143	103.5
328.372	89.5
328.6	91.5
328.829	105.5
329.058	81.5
329.287	74.5
329.515	86.5
329.744	80.5
329.972	72.5
330.201	79.5
330.43	98.5
330.658	91.5
330.887	99.5
331.115	91.5
331.344	89.5
331.572	94.5
331.801	82.5
332.03	82.5
332.258	91.5
332.486	80.5
332.715	78.5
332.943	92.5
333.172	84.5
333.4	85.5
333.629	96.5
333.857	100.5
334.085	93.5
334.314	95.5
334.542	85.5
334.771	92.5
334.999	108.5
335.227	95.5
335.455	88.5
335.684	105.5
335.912	104.5
336.14	110.5
336.369	96.5
336.597	92.5
336.825	91.5
337.053	101.5
337.281	98.5
337.51	91.5
337.738	82.5
337.966	89.5
338.194	82.5
338.422	94.5
338.65	91.5
338.878	76.5
339.106	93.5
339.334	98.5
339.562	70.5
339.79	81.5
340.018	70.5
340.246	85.5
340.474	91.5
340.702	100.5
340.93	79.5
341.158	83.5
341.386	85.5
341.614	81.5
341.842	84.5
342.07	96.5
342.298	83.5
342.526	91.5
342.754	86.5
342.981	86.5
343.209	87.5
343.437	109.5
343.665	79.5
343.893	90.5
344.12	94.5
344.348	96.5
344.576	80.5
344.804	103.5
345.031	84.5
345.259	80.5
345.487	83.5
345.714	107.5
345.942	87.5
346.17	80.5
346.397	87.5
346.625	77.5
346.853	79.5
347.08	80.5
347.308	87.5
347.535	92.5
347.763	88.5
347.99	105.5
348.218	96.5
348.445	91.5
348.673	93.5
348.9	89.5
349.128	96.5
349.355	81.5
349.583	100.5
349.81	83.5
350.037	87.5
350.265	81.5
350.492	93.5
350.72	88.5
350.947	86.5
351.174	96.5
351.402	86.5
351.629	99.5
351.856	88.5
352.083	93.5
352.311	95.5
352.538	78.5
352.765	79.5
352.992	99.5
353.22	95.5
353.447	79.5
353.674	78.5
353.901	92.5
354.128	95.5
354.355	80.5
354.583	75.5
354.81	88.5
355.037	82.5
355.264	78.5
355.491	95.5
355.718	87.5
355.945	86.5
356.172	88.5
356.399	94.5
356.626	105.5
356.853	91.5
357.08	87.5
357.307	91.5
357.534	97.5
357.761	100.5
357.988	96.5
358.215	104.5
358.441	95.5
358.668	93.5
358.895	91.5
359.122	102.5
359.349	87.5
359.576	82.5
359.802	81.5
360.029	94.5
360.256	81.5
360.483	91.5
360.709	96.5
360.936	100.5
361.163	81.5
361.39	89.5
361.616	95.5
361.843	98.5
362.07	99.5
362.296	99.5
362.523	108.5
362.749	112.5
362.976	130.5
363.203	155.5
363.429	105.5
363.656	89.5
363.882	113.5
364.109	141.5
364.335	170.5
364.562	195.5
364.788	126.5
365.015	93.5
365.241	98.5
365.468	101.5
365.694	90.5
365.92	101.5
366.147	94.5
366.373	93.5
366.599	84.5
366.826	80.5
367.052	92.5
367.278	80.5
367.505	83.5
367.731	92.5
367.957	99.5
368.184	97.5
368.41	94.5
368.636	74.5
368.862	76.5
369.089	75.5
369.315	95.5
369.541	85.5
369.767	91.5
369.993	91.5
370.219	81.5
370.445	79.5
370.672	111.5
370.898	109.5
371.124	86.5
371.35	94.5
371.576	78.5
371.802	69.5
372.028	107.5
372.254	107.5
372.48	85.5
372.706	83.5
372.932	91.5
373.158	92.5
373.384	100.5
373.61	124.5
373.835	125.5
374.061	95.5
374.287	107.5
374.513	111.5
374.739	100.5
374.965	101.5
375.191	108.5
375.416	103.5
375.642	87.5
375.868	96.5
376.094	88.5
376.319	95.5
376.545	93.5
376.771	94.5
376.997	100.5
377.222	77.5
377.448	86.5
377.674	84.5
377.899	96.5
378.125	83.5
378.35	87.5
378.576	86.5
378.802	78.5
379.027	97.5
379.253	93.5
379.478	92.5
379.704	76.5
379.929	94.5
380.155	87.5
380.38	98.5
380.606	76.5
380.831	91.5
381.057	93.5
381.282	99.5
381.507	97.5
381.733	118.5
381.958	91.5
382.184	122.5
382.409	103.5
382.634	106.5
382.86	113.5
383.085	104.5
383.31	101.5
383.535	108.5
383.761	107.5
383.986	119.5
384.211	93.5
384.436	102.5
384.662	91.5
384.887	84.5
385.112	109.5
385.337	95.5
385.562	97.5
385.787	100.5
386.013	104.5
386.238	100.5
386.463	96.5
386.688	89.5
386.913	92.5
387.138	113.5
387.363	115.5
387.588	113.5
387.813	112.5
388.038	108.5
388.263	111.5
388.488	100.5
388.713	89.5
388.938	95.5
389.163	99.5
389.387	95.5
389.612	101.5
389.837	95.5
390.062	99.5
390.287	99.5
390.512	92.5
390.736	101.5
390.961	101.5
391.186	85.5
391.411	91.5
391.636	96.5
391.86	90.5
392.085	93.5
392.31	102.5
392.534	105.5
392.759	121.5
392.984	212.5
393.208	359.5
393.433	515.5
393.658	384.5
393.882	182.5
394.107	139.5
394.331	130.5
394.556	147.5
394.78	109.5
395.005	100.5
395.229	111.5
395.454	108.5
395.678	132.5
395.903	137.5
396.127	152.5
396.352	198.5
396.576	209.5
396.801	361.5
397.025	396.5
397.249	225.5
397.474	152.5
397.698	128.5
397.922	100.5
398.147	102.5
398.371	97.5
398.595	96.5
398.82	101.5
399.044	97.5
399.268	86.5
399.492	96.5
399.717	109.5
399.941	102.5
400.165	83.5
400.389	99.5
400.613	79.5
400.837	76.5
401.062	99.5
401.286	81.5
401.51	82.5
401.734	95.5
401.958	81.5
402.182	84.5
402.406	72.5
402.63	82.5
402.854	97.5
403.078	102.5
403.302	82.5
403.526	81.5
403.75	88.5
403.974	89.5
404.198	100.5
404.422	99.5
404.645	104.5
404.869	93.5
405.093	109.5
405.317	86.5
405.541	86.5
405.765	88.5
405.988	85.5
406.212	87.5
406.436	93.5
406.66	93.5
406.883	94.5
407.107	93.5
407.331	94.5
407.555	109.5
407.778	134.5
408.002	133.5
408.226	94.5
408.449	89.5
408.673	101.5
408.896	95.5
409.12	100.5
409.344	116.5
409.567	123.5
409.791	123.5
410.014	126.5
410.238	109.5
410.461	96.5
410.685	96.5
410.908	92.5
411.132	90.5
411.355	87.5
411.578	83.5
411.802	85.5
412.025	81.5
412.249	79.5
412.472	88.5
412.695	77.5
412.919	84.5
413.142	87.5
413.365	82.5
413.589	84.5
413.812	93.5
414.035	87.5
414.258	87.5
414.482	101.5
414.705	88.5
414.928	80.5
415.151	79.5
415.374	80.5
415.597	79.5
415.821	94.5
416.044	101.5
416.267	84.5
416.49	71.5
416.713	88.5
416.936	84.5
417.159	84.5
417.382	88.5
417.605	83.5
417.828	102.5
418.051	96.5
418.274	91.5
418.497	83.5
418.72	88.5
418.943	95.5
419.166	105.5
419.389	108.5
419.611	92.5
419.834	83.5
420.057	101.5
420.28	85.5
420.503	91.5
420.726	99.5
420.948	88.5
421.171	102.5
421.394	129.5
421.617	151.5
421.839	155.5
422.062	161.5
422.285	221.5
422.507	357.5
422.73	461.5
422.953	450.5
423.175	276.5
423.398	171.5
423.621	149.5
423.843	127.5
424.066	102.5
424.288	110.5
424.511	97.5
424.733	101.5
424.956	99.5
425.178	95.5
425.401	96.5
425.623	103.5
425.846	104.5
426.068	86.5
426.291	84.5
426.513	94.5
426.735	86.5
426.958	100.5
427.18	74.5
427.402	101.5
427.625	89.5
427.847	81.5
428.069	113.5
428.292	158.5
428.514	184.5
428.736	111.5
428.958	171.5
429.181	154.5
429.403	111.5
429.625	110.5
429.847	140.5
430.069	183.5
430.292	235.5
430.514	201.5
430.736	148.5
430.958	168.5
431.18	108.5
431.402	92.5
431.624	101.5
431.846	147.5
432.068	175.5
432.29	100.5
432.512	82.5
432.734	102.5
432.956	102.5
433.178	88.5
433.4	88.5
433.622	81.5
433.844	93.5
434.066	100.5
434.287	100.5
434.509	83.5
434.731	63.5
434.953	85.5
435.175	72.5
435.397	102.5
435.618	100.5
435.84	107.5
436.062	81.5
436.284	93.5
436.505	83.5
436.727	92.5
436.949	93.5
437.17	91.5
437.392	82.5
437.614	85.5
437.835	89.5
438.057	85.5
438.278	96.5
438.5	99.5
438.721	91.5
438.943	100.5
439.165	78.5
439.386	98.5
439.608	86.5
439.829	94.5
440.05	87.5
440.272	102.5
440.493	78.5
440.715	97.5
440.936	81.5
441.158	91.5
441.379	80.5
441.6	91.5
441.822	85.5
442.043	85.5
442.264	97.5
442.486	158.5
442.707	214.5
442.928	153.5
443.149	133.5
443.371	183.5
443.592	339.5
443.813	286.5
444.034	135.5
444.255	107.5
444.476	96.5
444.698	102.5
444.919	108.5
445.14	207.5
445.361	255.5
445.582	402.5
445.803	326.5
446.024	159.5
446.245	121.5
446.466	108.5
446.687	93.5
446.908	81.5
447.129	84.5
447.35	83.5
447.571	79.5
447.792	91.5
448.013	100.5
448.234	88.5
448.455	80.5
448.675	87.5
448.896	72.5
449.117	95.5
449.338	85.5
449.559	88.5
449.779	94.5
450	87.5
450.221	95.5
450.442	81.5
450.662	87.5
450.883	72.5
451.104	92.5
451.324	93.5
451.545	91.5
451.766	102.5
451.986	87.5
452.207	96.5
452.428	98.5
452.648	94.5
452.869	121.5
453.089	99.5
453.31	110.5
453.53	99.5
453.751	89.5
453.971	83.5
454.192	88.5
454.412	93.5
454.633	78.5
454.853	92.5
455.073	80.5
455.294	87.5
455.514	112.5
455.734	82.5
455.955	75.5
456.175	82.5
456.395	84.5
456.616	94.5
456.836	83.5
457.056	73.5
457.276	91.5
457.497	82.5
457.717	88.5
457.937	136.5
458.157	158.5
458.377	168.5
458.598	155.5
458.818	182.5
459.038	100.5
459.258	91.5
459.478	92.5
459.698	87.5
459.918	72.5
460.138	101.5
460.358	100.5
460.578	111.5
460.798	131.5
461.018	131.5
461.238	75.5
461.458	86.5
461.678	72.5
461.898	76.5
462.118	89.5
462.338	97.5
462.558	92.5
462.777	79.5
462.997	75.5
463.217	87.5
463.437	97.5
463.657	107.5
463.876	95.5
464.096	89.5
464.316	81.5
464.536	82.5
464.755	90.5
464.975	74.5
465.195	80.5
465.414	81.5
465.634	83.5
465.854	74.5
466.073	82.5
466.293	80.5
466.512	84.5
466.732	101.5
466.951	78.5
467.171	89.5
467.391	84.5
467.61	92.5
467.829	101.5
468.049	81.5
468.268	94.5
468.488	97.5
468.707	96.5
468.927	88.5
469.146	73.5
469.365	98.5
469.585	77.5
469.804	97.5
470.023	74.5
470.243	91.5
470.462	96.5
470.681	103.5
470.901	94.5
471.12	70.5
471.339	96.5
471.558	87.5
471.777	91.5
471.997	82.5
472.216	74.5
472.435	86.5
472.654	86.5
472.873	95.5
473.092	96.5
473.311	95.5
473.53	94.5
473.749	97.5
473.968	99.5
474.187	77.5
474.406	95.5
474.625	88.5
474.844	87.5
475.063	83.5
475.282	78.5
475.501	88.5
475.72	106.5
475.939	97.5
476.158	96.5
476.377	83.5
476.596	75.5
476.814	99.5
477.033	90.5
477.252	80.5
477.471	83.5
477.69	89.5
477.908	92.5
478.127	84.5
478.346	88.5
478.564	99.5
478.783	88.5
479.002	92.5
479.22	88.5
479.439	96.5
479.658	93.5
479.876	92.5
480.095	94.5
480.313	95.5
480.532	80.5
480.751	93.5
480.969	101.5
481.188	87.5
481.406	83.5
481.624	93.5
481.843	93.5
482.061	95.5
482.28	85.5
482.498	101.5
482.717	81.5
482.935	98.5
483.153	96.5
483.372	93.5
483.59	93.5
483.808	73.5
484.027	94.5
484.245	95.5
484.463	93.5
484.681	125.5
484.9	101.5
485.118	110.5
485.336	102.5
485.554	88.5
485.772	97.5
485.99	84.5
486.209	84.5
486.427	83.5
486.645	96.5
486.863	97.5
487.081	95.5
487.299	87.5
487.517	129.5
487.735	145.5
487.953	269.5
488.171	202.5
488.389	101.5
488.607	88.5
488.825	92.5
489.043	103.5
489.261	99.5
489.479	87.5
489.696	101.5
489.914	97.5
490.132	95.5
490.35	119.5
490.568	89.5
490.786	94.5
491.003	70.5
491.221	99.5
491.439	88.5
491.657	100.5
491.874	73.5
492.092	93.5
492.31	82.5
492.527	93.5
492.745	91.5
492.963	107.5
493.18	106.5
493.398	111.5
493.615	96.5
493.833	103.5
494.05	107.5
494.268	93.5
494.485	80.5
494.703	97.5
494.92	93.5
495.138	87.5
495.355	83.5
495.573	85.5
495.79	86.5
496.008	91.5
496.225	98.5
496.442	107.5
496.66	93.5
496.877	89.5
497.094	106.5
497.312	85.5
497.529	88.5
497.746	94.5
497.963	105.5
498.181	104.5
498.398	113.5
498.615	87.5
498.832	80.5
499.049	93.5
499.267	115.5
499.484	89.5
499.701	87.5
499.918	103.5
500.135	103.5
500.352	98.5
500.569	94.5
500.786	96.5
501.003	98.5
501.22	89.5
501.437	107.5
501.654	101.5
501.871	89.5
502.088	85.5
502.305	104.5
502.522	93.5
502.739	98.5
502.956	86.5
503.172	101.5
503.389	114.5
503.606	93.5
503.823	113.5
504.04	124.5
504.256	183.5
504.473	189.5
504.69	107.5
504.907	96.5
505.123	85.5
505.34	95.5
505.557	97.5
505.773	103.5
505.99	91.5
506.207	97.5
506.423	94.5
506.64	85.5
506.856	81.5
507.073	83.5
507.289	89.5
507.506	93.5
507.722	102.5
507.939	93.5
508.155	88.5
508.372	87.5
508.588	90.5
508.805	97.5
509.021	92.5
509.238	83.5
509.454	89.5
509.67	80.5
509.887	102.5
510.103	97.5
510.319	85.5
510.536	89.5
510.752	94.5
510.968	85.5
511.184	91.5
511.401	99.5
511.617	84.5
511.833	88.5
512.049	91.5
512.265	99.5
512.481	88.5
512.698	91.5
512.914	96.5
513.13	98.5
513.346	95.5
513.562	112.5
513.778	99.5
513.994	91.5
514.21	97.5
514.426	96.5
514.642	90.5
514.858	86.5
515.074	87.5
515.29	97.5
515.506	85.5
515.721	86.5
515.937	85.5
516.153	91.5
516.369	87.5
516.585	86.5
516.801	97.5
517.016	126.5
517.232	89.5
517.448	113.5
517.664	101.5
517.879	92.5
518.095	96.5
518.311	107.5
518.527	124.5
518.742	133.5
518.958	220.5
519.173	257.5
519.389	126.5
519.605	108.5
519.82	98.5
520.036	99.5
520.251	88.5
520.467	87.5
520.682	89.5
520.898	84.5
521.113	94.5
521.329	108.5
521.544	93.5
521.76	91.5
521.975	92.5
522.19	94.5
522.406	87.5
522.621	98.5
522.836	99.5
523.052	92.5
523.267	95.5
523.482	96.5
523.698	98.5
523.913	103.5
524.128	93.5
524.343	108.5
524.559	105.5
524.774	98.5
524.989	97.5
525.204	102.5
525.419	107.5
525.634	94.5
525.849	115.5
526.064	154.5
526.28	320.5
526.495	479.5
526.71	513.5
526.925	327.5
527.14	405.5
527.355	363.5
527.57	128.5
527.785	102.5
527.999	108.5
528.214	113.5
528.429	86.5
528.644	102.5
528.859	111.5
529.074	105.5
529.289	89.5
529.503	100.5
529.718	100.5
529.933	107.5
530.148	107.5
530.363	88.5
530.577	110.5
530.792	94.5
531.007	89.5
531.221	89.5
531.436	113.5
531.651	107.5
531.865	105.5
532.08	105.5
532.295	108.5
532.509	119.5
532.724	101.5
532.938	131.5
533.153	115.5
533.367	114.5
533.582	99.5
533.796	127.5
534.011	109.5
534.225	117.5
534.44	113.5
534.654	115.5
534.868	132.5
535.083	224.5
535.297	198.5
535.511	127.5
535.726	119.5
535.94	115.5
536.154	103.5
536.369	114.5
536.583	101.5
536.797	105.5
537.011	121.5
537.225	112.5
537.44	115.5
537.654	102.5
537.868	116.5
538.082	109.5
538.296	128.5
538.51	112.5
538.724	103.5
538.938	104.5
539.153	101.5
539.367	103.5
539.581	118.5
539.795	119.5
540.009	111.5
540.222	118.5
540.436	135.5
540.65	116.5
540.864	121.5
541.078	129.5
541.292	119.5
541.506	119.5
541.72	128.5
541.934	109.5
542.147	111.5
542.361	113.5
542.575	109.5
542.789	117.5
543.002	116.5
543.216	114.5
543.43	124.5
543.644	112.5
543.857	126.5
544.071	114.5
544.285	116.5
544.498	119.5
544.712	132.5
544.925	119.5
545.139	135.5
545.352	129.5
545.566	141.5
545.779	109.5
545.993	125.5
546.206	133.5
546.42	126.5
546.633	149.5
546.847	157.5
547.06	156.5
547.274	184.5
547.487	223.5
547.7	226.5
547.914	241.5
548.127	266.5
548.34	235.5
548.554	256.5
548.767	255.5
548.98	257.5
549.193	251.5
549.407	269.5
549.62	265.5
549.833	308.5
550.046	323.5
550.259	363.5
550.473	347.5
550.686	356.5
550.899	384.5
551.112	427.5
551.325	473.5
551.538	493.5
551.751	459.5
551.964	424.5
552.177	423.5
552.39	431.5
552.603	432.5
552.816	406.5
553.029	415.5
553.242	400.5
553.455	422.5
553.667	451.5
553.88	488.5
554.093	470.5
554.306	476.5
554.519	470.5
554.732	472.5
554.944	496.5
555.157	435.5
555.37	445.5
555.583	430.5
555.795	375.5
556.008	373.5
556.221	359.5
556.433	341.5
556.646	302.5
556.859	293.5
557.071	294.5
557.284	266.5
557.496	274.5
557.709	255.5
557.921	227.5
558.134	245.5
558.346	327.5
558.559	291.5
558.771	255.5
558.984	465.5
559.196	583.5
559.409	330.5
559.621	455.5
559.833	352.5
560.046	416.5
560.258	371.5
560.47	368.5
560.683	198.5
560.895	162.5
561.107	149.5
561.32	141.5
561.532	152.5
561.744	126.5
561.956	134.5
562.168	136.5
562.381	140.5
562.593	127.5
562.805	127.5
563.017	130.5
563.229	145.5
563.441	127.5
563.653	136.5
563.865	116.5
564.077	115.5
564.289	124.5
564.501	128.5
564.713	102.5
564.925	119.5
565.137	104.5
565.349	124.5
565.561	103.5
565.773	125.5
565.985	114.5
566.197	100.5
566.408	104.5
566.62	85.5
566.832	111.5
567.044	111.5
567.255	119.5
567.467	114.5
567.679	113.5
567.891	113.5
568.102	95.5
568.314	116.5
568.526	132.5
568.737	128.5
568.949	127.5
569.161	137.5
569.372	122.5
569.584	102.5
569.795	110.5
570.007	119.5
570.218	120.5
570.43	115.5
570.641	109.5
570.853	119.5
571.064	128.5
571.276	115.5
571.487	117.5
571.698	116.5
571.91	123.5
572.121	133.5
572.333	117.5
572.544	127.5
572.755	135.5
572.966	121.5
573.178	113.5
573.389	134.5
573.6	118.5
573.811	109.5
574.023	131.5
574.234	117.5
574.445	120.5
574.656	117.5
574.867	103.5
575.078	102.5
575.289	94.5
575.501	94.5
575.712	108.5
575.923	99.5
576.134	105.5
576.345	100.5
576.556	97.5
576.767	111.5
576.978	96.5
577.188	103.5
577.399	92.5
577.61	103.5
577.821	99.5
578.032	94.5
578.243	110.5
578.454	103.5
578.665	94.5
578.875	91.5
579.086	109.5
579.297	117.5
579.508	101.5
579.718	102.5
579.929	119.5
580.14	107.5
580.35	103.5
580.561	96.5
580.772	98.5
580.982	101.5
581.193	111.5
581.403	113.5
581.614	112.5
581.825	100.5
582.035	100.5
582.246	108.5
582.456	125.5
582.667	110.5
582.877	115.5
583.087	98.5
583.298	109.5
583.508	104.5
583.719	96.5
583.929	99.5
584.139	111.5
584.35	93.5
584.56	100.5
584.77	98.5
584.981	103.5
585.191	110.5
585.401	117.5
585.611	127.5
585.821	221.5
586.032	358.5
586.242	176.5
586.452	126.5
586.662	109.5
586.872	117.5
587.082	125.5
587.292	128.5
587.502	129.5
587.713	116.5
587.923	124.5
588.133	123.5
588.343	147.5
588.553	151.5
588.762	188.5
588.972	304.5
589.182	648.5
589.392	468.5
589.602	358.5
589.812	566.5
590.022	334.5
590.232	189.5
590.441	156.5
590.651	131.5
590.861	135.5
591.071	133.5
591.281	156.5
591.49	143.5
591.7	141.5
591.91	135.5
592.119	130.5
592.329	142.5
592.539	156.5
592.748	149.5
592.958	162.5
593.167	146.5
593.377	153.5
593.587	158.5
593.796	153.5
594.006	159.5
594.215	168.5
594.424	160.5
594.634	169.5
594.843	187.5
595.053	169.5
595.262	187.5
595.472	202.5
595.681	197.5
595.89	207.5
596.1	227.5
596.309	209.5
596.518	229.5
596.727	241.5
596.937	234.5
597.146	249.5
597.355	269.5
597.564	261.5
597.774	261.5
597.983	241.5
598.192	259.5
598.401	258.5
598.61	291.5
598.819	287.5
599.028	285.5
599.237	275.5
599.446	286.5
599.655	266.5
599.864	287.5
600.073	268.5
600.282	275.5
600.491	285.5
600.7	309.5
600.909	264.5
601.118	237.5
601.327	241.5
601.536	237.5
601.745	240.5
601.953	242.5
602.162	248.5
602.371	246.5
602.58	250.5
602.789	270.5
602.997	271.5
603.206	261.5
603.415	274.5
603.623	299.5
603.832	282.5
604.041	282.5
604.249	269.5
604.458	263.5
604.666	319.5
604.875	298.5
605.084	302.5
605.292	307.5
605.501	313.5
605.709	303.5
605.918	319.5
606.126	338.5
606.334	323.5
606.543	344.5
606.751	335.5
606.96	343.5
607.168	281.5
607.376	292.5
607.585	295.5
607.793	299.5
608.001	281.5
608.21	285.5
608.418	318.5
608.626	313.5
608.834	294.5
609.043	325.5
609.251	323.5
609.459	297.5
609.667	314.5
609.875	365.5
610.083	336.5
610.291	349.5
610.499	475.5
610.707	341.5
610.916	306.5
611.124	333.5
611.332	337.5
611.54	335.5
611.748	347.5
611.955	363.5
612.163	397.5
612.371	566.5
612.579	504.5
612.787	386.5
612.995	354.5
613.203	358.5
613.411	345.5
613.618	331.5
613.826	346.5
614.034	369.5
614.242	388.5
614.449	348.5
614.657	357.5
614.865	362.5
615.072	381.5
615.28	362.5
615.488	360.5
615.695	375.5
615.903	386.5
616.111	396.5
616.318	567.5
616.526	646.5
616.733	450.5
616.941	458.5
617.148	535.5
617.356	451.5
617.563	404.5
617.771	376.5
617.978	356.5
618.185	335.5
618.393	357.5
618.6	341.5
618.807	338.5
619.015	332.5
619.222	351.5
619.429	351.5
619.637	324.5
619.844	341.5
620.051	331.5
620.258	345.5
620.466	324.5
620.673	323.5
620.88	338.5
621.087	329.5
621.294	326.5
621.501	339.5
621.708	351.5
621.915	317.5
622.122	334.5
622.329	339.5
622.536	367.5
622.743	353.5
622.95	353.5
623.157	352.5
623.364	333.5
623.571	337.5
623.778	361.5
623.985	335.5
624.192	322.5
624.399	331.5
624.606	332.5
624.812	335.5
625.019	327.5
625.226	342.5
625.433	324.5
625.639	319.5
625.846	333.5
626.053	307.5
626.259	295.5
626.466	294.5
626.673	275.5
626.879	278.5
627.086	251.5
627.293	250.5
627.499	239.5
627.706	216.5
627.912	224.5
628.119	202.5
628.325	201.5
628.532	189.5
628.738	179.5
628.945	152.5
629.151	146.5
629.357	153.5
629.564	153.5
629.77	127.5
629.976	125.5
630.183	143.5
630.389	132.5
630.595	143.5
630.802	136.5
631.008	141.5
631.214	141.5
631.42	128.5
631.627	131.5
631.833	145.5
632.039	140.5
632.245	124.5
632.451	111.5
632.657	139.5
632.863	123.5
633.069	114.5
633.275	140.5
633.481	113.5
633.688	127.5
633.893	137.5
634.099	119.5
634.305	130.5
634.511	125.5
634.717	133.5
634.923	135.5
635.129	113.5
635.335	119.5
635.541	135.5
635.747	143.5
635.952	142.5
636.158	133.5
636.364	126.5
636.57	120.5
636.775	133.5
636.981	127.5
637.187	113.5
637.392	125.5
637.598	116.5
637.804	109.5
638.009	136.5
638.215	132.5
638.421	122.5
638.626	119.5
638.832	127.5
639.037	131.5
639.243	103.5
639.448	113.5
639.654	119.5
639.859	117.5
640.065	128.5
640.27	127.5
640.475	128.5
640.681	124.5
640.886	120.5
641.091	120.5
641.297	118.5
641.502	105.5
641.707	116.5
641.913	111.5
642.118	117.5
642.323	116.5
642.528	132.5
642.733	116.5
642.939	111.5
643.144	113.5
643.349	120.5
643.554	132.5
643.759	133.5
643.964	176.5
644.169	235.5
644.374	139.5
644.579	115.5
644.784	125.5
644.989	129.5
645.194	160.5
645.399	125.5
645.604	132.5
645.809	109.5
646.014	120.5
646.219	131.5
646.423	208.5
646.628	159.5
646.833	136.5
647.038	112.5
647.243	122.5
647.447	140.5
647.652	113.5
647.857	109.5
648.062	114.5
648.266	112.5
648.471	100.5
648.676	76.5
648.88	102.5
649.085	111.5
649.289	123.5
649.494	148.5
649.698	151.5
649.903	107.5
650.107	123.5
650.312	131.5
650.516	109.5
650.721	95.5
650.925	101.5
651.13	86.5
651.334	97.5
651.539	93.5
651.743	92.5
651.947	90.5
652.152	102.5
652.356	81.5
652.56	91.5
652.764	102.5
652.969	112.5
653.173	90.5
653.377	95.5
653.581	91.5
653.785	101.5
653.99	89.5
654.194	94.5
654.398	88.5
654.602	91.5
654.806	95.5
655.01	90.5
655.214	91.5
655.418	73.5
655.622	91.5
655.826	72.5
656.03	73.5
656.234	84.5
656.438	80.5
656.642	92.5
656.846	84.5
657.049	89.5
657.253	74.5
657.457	86.5
657.661	84.5
657.865	100.5
658.068	88.5
658.272	84.5
658.476	86.5
658.68	84.5
658.883	81.5
659.087	70.5
659.291	88.5
659.494	85.5
659.698	74.5
659.901	90.5
660.105	80.5
660.309	75.5
660.512	67.5
660.716	79.5
660.919	84.5
661.123	84.5
661.326	85.5
661.53	83.5
661.733	85.5
661.936	92.5
662.14	70.5
662.343	85.5
662.546	78.5
662.75	79.5
662.953	87.5
663.156	84.5
663.36	92.5
663.563	88.5
663.766	80.5
663.969	82.5
664.173	75.5
664.376	85.5
664.579	86.5
664.782	79.5
664.985	82.5
665.188	69.5
665.391	89.5
665.594	75.5
665.797	70.5
666	83.5
666.203	90.5
666.406	90.5
666.609	77.5
666.812	85.5
667.015	73.5
667.218	83.5
667.421	95.5
667.624	67.5
667.827	79.5
668.03	82.5
668.232	78.5
668.435	72.5
668.638	91.5
668.841	89.5
669.043	79.5
669.246	89.5
669.449	73.5
669.651	93.5
669.854	86.5
670.057	83.5
670.259	76.5
670.462	83.5
670.665	83.5
670.867	66.5
671.07	66.5
671.272	76.5
671.475	80.5
671.677	80.5
671.88	71.5
672.082	89.5
672.284	81.5
672.487	80.5
672.689	94.5
672.892	79.5
