Data from 10100_2_HRD10591_00021.txt Node
Date: Mon Jan 19 14:01:34 EST 2026
User: Yrep
Spectrometer: HR+D1059
Trigger mode: 1
Integration Time (sec): 1.000000E-1
Scans to average: 1
Electric dark correction enabled: true
Nonlinearity correction enabled: false
Boxcar width: 0
XAxis mode: Wavelengths
Number of Pixels in Spectrum: 2048
>>>>>Begin Spectral Data<<<<<
223.165	-17.06
223.4	-17.06
223.635	-17.06
223.869	-29.06
224.104	-24.06
224.338	-23.06
224.573	-13.06
224.808	-15.06
225.042	-9.06
225.277	-3.06
225.511	-3.06
225.746	1.94
225.98	17.94
226.215	17.94
226.449	9.94
226.683	17.94
226.918	35.94
227.152	34.94
227.387	30.94
227.621	29.94
227.856	48.94
228.09	36.94
228.324	36.94
228.559	59.94
228.793	64.94
229.027	62.94
229.262	68.94
229.496	76.94
229.73	57.94
229.964	67.94
230.199	64.94
230.433	71.94
230.667	82.94
230.901	72.94
231.136	85.94
231.37	82.94
231.604	77.94
231.838	84.94
232.072	76.94
232.306	80.94
232.541	82.94
232.775	81.94
233.009	82.94
233.243	76.94
233.477	76.94
233.711	79.94
233.945	82.94
234.179	72.94
234.413	98.94
234.647	79.94
234.881	80.94
235.115	76.94
235.349	73.94
235.583	82.94
235.817	85.94
236.051	71.94
236.285	82.94
236.519	79.94
236.753	81.94
236.987	73.94
237.221	81.94
237.455	66.94
237.689	75.94
237.922	84.94
238.156	70.94
238.39	76.94
238.624	79.94
238.858	77.94
239.091	74.94
239.325	66.94
239.559	82.94
239.793	75.94
240.027	76.94
240.26	75.94
240.494	66.94
240.728	81.94
240.961	76.94
241.195	60.94
241.429	73.94
241.662	67.94
241.896	84.94
242.13	71.94
242.363	56.94
242.597	66.94
242.83	73.94
243.064	77.94
243.298	66.94
243.531	82.94
243.765	75.94
243.998	71.94
244.232	92.94
244.465	75.94
244.699	77.94
244.932	81.94
245.166	68.94
245.399	76.94
245.633	81.94
245.866	70.94
246.099	90.94
246.333	61.94
246.566	75.94
246.8	82.94
247.033	77.94
247.266	85.94
247.5	69.94
247.733	72.94
247.966	78.94
248.2	60.94
248.433	82.94
248.666	86.94
248.899	81.94
249.133	68.94
249.366	88.94
249.599	73.94
249.832	87.94
250.066	72.94
250.299	83.94
250.532	86.94
250.765	85.94
250.998	69.94
251.231	89.94
251.465	79.94
251.698	75.94
251.931	100.94
252.164	89.94
252.397	84.94
252.63	103.94
252.863	78.94
253.096	96.94
253.329	92.94
253.562	88.94
253.795	82.94
254.028	82.94
254.261	79.94
254.494	82.94
254.727	86.94
254.96	80.94
255.193	79.94
255.426	88.94
255.659	63.94
255.892	86.94
256.124	73.94
256.357	86.94
256.59	74.94
256.823	77.94
257.056	76.94
257.289	86.94
257.521	79.94
257.754	84.94
257.987	82.94
258.22	93.94
258.452	84.94
258.685	70.94
258.918	80.94
259.151	66.94
259.383	74.94
259.616	88.94
259.849	84.94
260.081	82.94
260.314	88.94
260.547	83.94
260.779	75.94
261.012	92.94
261.244	87.94
261.477	87.94
261.71	87.94
261.942	78.94
262.175	88.94
262.407	82.94
262.64	77.94
262.872	61.94
263.105	73.94
263.337	89.94
263.57	83.94
263.802	80.94
264.035	84.94
264.267	86.94
264.499	73.94
264.732	96.94
264.964	80.94
265.197	74.94
265.429	85.94
265.661	84.94
265.894	88.94
266.126	87.94
266.358	84.94
266.591	65.94
266.823	79.94
267.055	92.94
267.287	80.94
267.52	73.94
267.752	86.94
267.984	82.94
268.216	86.94
268.448	88.94
268.681	79.94
268.913	88.94
269.145	84.94
269.377	79.94
269.609	92.94
269.841	108.94
270.073	83.94
270.306	79.94
270.538	96.94
270.77	84.94
271.002	80.94
271.234	80.94
271.466	93.94
271.698	85.94
271.93	73.94
272.162	88.94
272.394	101.94
272.626	87.94
272.858	90.94
273.09	80.94
273.322	79.94
273.553	70.94
273.785	88.94
274.017	96.94
274.249	94.94
274.481	84.94
274.713	92.94
274.945	97.94
275.176	80.94
275.408	88.94
275.64	97.94
275.872	80.94
276.104	89.94
276.335	86.94
276.567	82.94
276.799	74.94
277.031	93.94
277.262	70.94
277.494	74.94
277.726	92.94
277.957	84.94
278.189	83.94
278.421	83.94
278.652	89.94
278.884	87.94
279.115	101.94
279.347	86.94
279.579	102.94
279.81	105.94
280.042	86.94
280.273	97.94
280.505	100.94
280.736	76.94
280.968	93.94
281.199	86.94
281.431	80.94
281.662	75.94
281.894	94.94
282.125	96.94
282.356	89.94
282.588	98.94
282.819	75.94
283.051	80.94
283.282	81.94
283.513	96.94
283.745	70.94
283.976	94.94
284.207	87.94
284.439	93.94
284.67	98.94
284.901	83.94
285.132	101.94
285.364	113.94
285.595	105.94
285.826	96.94
286.057	98.94
286.288	99.94
286.52	95.94
286.751	87.94
286.982	76.94
287.213	94.94
287.444	84.94
287.675	90.94
287.906	94.94
288.138	110.94
288.369	93.94
288.6	89.94
288.831	88.94
289.062	99.94
289.293	100.94
289.524	85.94
289.755	78.94
289.986	84.94
290.217	72.94
290.448	96.94
290.679	84.94
290.91	99.94
291.141	83.94
291.371	80.94
291.602	104.94
291.833	96.94
292.064	98.94
292.295	92.94
292.526	90.94
292.757	76.94
292.987	83.94
293.218	77.94
293.449	74.94
293.68	89.94
293.91	84.94
294.141	86.94
294.372	86.94
294.603	82.94
294.833	97.94
295.064	87.94
295.295	95.94
295.525	88.94
295.756	106.94
295.987	80.94
296.217	91.94
296.448	99.94
296.679	90.94
296.909	88.94
297.14	88.94
297.37	104.94
297.601	95.94
297.831	90.94
298.062	93.94
298.292	72.94
298.523	102.94
298.753	85.94
298.984	98.94
299.214	102.94
299.445	99.94
299.675	108.94
299.905	132.94
300.136	110.94
300.366	120.94
300.597	100.94
300.827	115.94
301.057	114.94
301.288	102.94
301.518	104.94
301.748	86.94
301.979	98.94
302.209	108.94
302.439	84.94
302.669	86.94
302.9	89.94
303.13	95.94
303.36	94.94
303.59	86.94
303.82	88.94
304.051	85.94
304.281	84.94
304.511	96.94
304.741	82.94
304.971	92.94
305.201	97.94
305.431	97.94
305.661	95.94
305.891	97.94
306.121	105.94
306.352	88.94
306.582	89.94
306.812	88.94
307.042	86.94
307.272	94.94
307.502	93.94
307.731	97.94
307.961	103.94
308.191	118.94
308.421	117.94
308.651	116.94
308.881	109.94
309.111	122.94
309.341	132.94
309.571	114.94
309.8	107.94
310.03	88.94
310.26	86.94
310.49	86.94
310.72	82.94
310.949	92.94
311.179	86.94
311.409	88.94
311.639	79.94
311.868	77.94
312.098	97.94
312.328	89.94
312.557	89.94
312.787	84.94
313.017	75.94
313.246	89.94
313.476	82.94
313.706	96.94
313.935	104.94
314.165	117.94
314.394	86.94
314.624	97.94
314.853	105.94
315.083	87.94
315.312	97.94
315.542	125.94
315.771	116.94
316.001	119.94
316.23	117.94
316.46	95.94
316.689	104.94
316.919	100.94
317.148	100.94
317.377	124.94
317.607	109.94
317.836	142.94
318.065	163.94
318.295	135.94
318.524	116.94
318.753	102.94
318.983	116.94
319.212	91.94
319.441	87.94
319.67	99.94
319.9	105.94
320.129	102.94
320.358	94.94
320.587	108.94
320.816	113.94
321.046	101.94
321.275	99.94
321.504	115.94
321.733	114.94
321.962	109.94
322.191	102.94
322.42	110.94
322.649	106.94
322.878	108.94
323.108	95.94
323.337	92.94
323.566	110.94
323.795	95.94
324.024	100.94
324.253	88.94
324.482	89.94
324.71	106.94
324.939	109.94
325.168	75.94
325.397	92.94
325.626	82.94
325.855	92.94
326.084	81.94
326.313	89.94
326.542	93.94
326.77	96.94
326.999	92.94
327.228	93.94
327.457	96.94
327.686	88.94
327.914	83.94
328.143	95.94
328.372	84.94
328.6	90.94
328.829	108.94
329.058	95.94
329.287	84.94
329.515	87.94
329.744	93.94
329.972	102.94
330.201	107.94
330.43	92.94
330.658	84.94
330.887	97.94
331.115	84.94
331.344	92.94
331.572	93.94
331.801	84.94
332.03	86.94
332.258	79.94
332.486	87.94
332.715	111.94
332.943	78.94
333.172	88.94
333.4	110.94
333.629	101.94
333.857	97.94
334.085	98.94
334.314	121.94
334.542	120.94
334.771	137.94
334.999	137.94
335.227	145.94
335.455	112.94
335.684	131.94
335.912	148.94
336.14	164.94
336.369	136.94
336.597	115.94
336.825	112.94
337.053	109.94
337.281	106.94
337.51	91.94
337.738	80.94
337.966	89.94
338.194	102.94
338.422	94.94
338.65	85.94
338.878	115.94
339.106	92.94
339.334	95.94
339.562	108.94
339.79	86.94
340.018	81.94
340.246	97.94
340.474	104.94
340.702	100.94
340.93	90.94
341.158	96.94
341.386	108.94
341.614	84.94
341.842	85.94
342.07	100.94
342.298	89.94
342.526	94.94
342.754	92.94
342.981	89.94
343.209	73.94
343.437	108.94
343.665	97.94
343.893	90.94
344.12	128.94
344.348	105.94
344.576	105.94
344.804	103.94
345.031	101.94
345.259	101.94
345.487	97.94
345.714	87.94
345.942	108.94
346.17	93.94
346.397	98.94
346.625	104.94
346.853	110.94
347.08	110.94
347.308	97.94
347.535	108.94
347.763	124.94
347.99	94.94
348.218	98.94
348.445	85.94
348.673	116.94
348.9	110.94
349.128	119.94
349.355	94.94
349.583	95.94
349.81	94.94
350.037	94.94
350.265	108.94
350.492	87.94
350.72	88.94
350.947	92.94
351.174	101.94
351.402	94.94
351.629	102.94
351.856	113.94
352.083	110.94
352.311	100.94
352.538	98.94
352.765	91.94
352.992	89.94
353.22	88.94
353.447	96.94
353.674	87.94
353.901	90.94
354.128	104.94
354.355	97.94
354.583	96.94
354.81	82.94
355.037	93.94
355.264	89.94
355.491	94.94
355.718	113.94
355.945	112.94
356.172	92.94
356.399	99.94
356.626	116.94
356.853	118.94
357.08	111.94
357.307	116.94
357.534	93.94
357.761	103.94
357.988	126.94
358.215	139.94
358.441	126.94
358.668	120.94
358.895	99.94
359.122	104.94
359.349	114.94
359.576	125.94
359.802	115.94
360.029	96.94
360.256	110.94
360.483	106.94
360.709	114.94
360.936	133.94
361.163	110.94
361.39	103.94
361.616	116.94
361.843	126.94
362.07	146.94
362.296	170.94
362.523	219.94
362.749	199.94
362.976	271.94
363.203	303.94
363.429	212.94
363.656	152.94
363.882	151.94
364.109	223.94
364.335	330.94
364.562	390.94
364.788	236.94
365.015	154.94
365.241	108.94
365.468	120.94
365.694	110.94
365.92	112.94
366.147	110.94
366.373	99.94
366.599	90.94
366.826	113.94
367.052	92.94
367.278	106.94
367.505	124.94
367.731	121.94
367.957	110.94
368.184	105.94
368.41	108.94
368.636	92.94
368.862	118.94
369.089	103.94
369.315	92.94
369.541	88.94
369.767	79.94
369.993	96.94
370.219	109.94
370.445	127.94
370.672	161.94
370.898	133.94
371.124	118.94
371.35	97.94
371.576	96.94
371.802	110.94
372.028	130.94
372.254	126.94
372.48	105.94
372.706	107.94
372.932	114.94
373.158	122.94
373.384	165.94
373.61	216.94
373.835	204.94
374.061	153.94
374.287	140.94
374.513	164.94
374.739	159.94
374.965	152.94
375.191	161.94
375.416	135.94
375.642	133.94
375.868	130.94
376.094	123.94
376.319	120.94
376.545	123.94
376.771	120.94
376.997	106.94
377.222	94.94
377.448	97.94
377.674	103.94
377.899	96.94
378.125	87.94
378.35	112.94
378.576	87.94
378.802	102.94
379.027	108.94
379.253	117.94
379.478	98.94
379.704	112.94
379.929	124.94
380.155	101.94
380.38	96.94
380.606	112.94
380.831	130.94
381.057	104.94
381.282	111.94
381.507	129.94
381.733	130.94
381.958	136.94
382.184	148.94
382.409	147.94
382.634	164.94
382.86	164.94
383.085	138.94
383.31	161.94
383.535	172.94
383.761	180.94
383.986	178.94
384.211	143.94
384.436	133.94
384.662	119.94
384.887	113.94
385.112	137.94
385.337	118.94
385.562	137.94
385.787	150.94
386.013	158.94
386.238	152.94
386.463	130.94
386.688	158.94
386.913	138.94
387.138	143.94
387.363	143.94
387.588	153.94
387.813	165.94
388.038	169.94
388.263	143.94
388.488	154.94
388.713	142.94
388.938	133.94
389.163	116.94
389.387	129.94
389.612	127.94
389.837	121.94
390.062	114.94
390.287	128.94
390.512	126.94
390.736	124.94
390.961	128.94
391.186	127.94
391.411	126.94
391.636	120.94
391.86	135.94
392.085	162.94
392.31	186.94
392.534	214.94
392.759	302.94
392.984	486.94
393.208	943.94
393.433	1368.94
393.658	1026.94
393.882	394.94
394.107	256.94
394.331	248.94
394.556	273.94
394.78	222.94
395.005	164.94
395.229	157.94
395.454	199.94
395.678	212.94
395.903	268.94
396.127	344.94
396.352	400.94
396.576	535.94
396.801	898.94
397.025	1060.94
397.249	548.94
397.474	329.94
397.698	201.94
397.922	145.94
398.147	137.94
398.371	133.94
398.595	122.94
398.82	101.94
399.044	121.94
399.268	108.94
399.492	116.94
399.717	121.94
399.941	128.94
400.165	118.94
400.389	94.94
400.613	106.94
400.837	114.94
401.062	100.94
401.286	102.94
401.51	111.94
401.734	101.94
401.958	90.94
402.182	109.94
402.406	100.94
402.63	104.94
402.854	105.94
403.078	110.94
403.302	108.94
403.526	112.94
403.75	109.94
403.974	111.94
404.198	98.94
404.422	110.94
404.645	130.94
404.869	127.94
405.093	119.94
405.317	98.94
405.541	97.94
405.765	100.94
405.988	111.94
406.212	110.94
406.436	132.94
406.66	126.94
406.883	104.94
407.107	124.94
407.331	136.94
407.555	144.94
407.778	201.94
408.002	214.94
408.226	126.94
408.449	101.94
408.673	114.94
408.896	118.94
409.12	124.94
409.344	157.94
409.567	179.94
409.791	206.94
410.014	205.94
410.238	190.94
410.461	132.94
410.685	128.94
410.908	111.94
411.132	114.94
411.355	118.94
411.578	121.94
411.802	103.94
412.025	119.94
412.249	108.94
412.472	106.94
412.695	116.94
412.919	99.94
413.142	108.94
413.365	122.94
413.589	97.94
413.812	103.94
414.035	103.94
414.258	118.94
414.482	104.94
414.705	94.94
414.928	104.94
415.151	116.94
415.374	105.94
415.597	100.94
415.821	110.94
416.044	102.94
416.267	103.94
416.49	90.94
416.713	94.94
416.936	103.94
417.159	105.94
417.382	104.94
417.605	96.94
417.828	98.94
418.051	92.94
418.274	94.94
418.497	100.94
418.72	105.94
418.943	113.94
419.166	112.94
419.389	101.94
419.611	98.94
419.834	113.94
420.057	111.94
420.28	116.94
420.503	140.94
420.726	121.94
420.948	138.94
421.171	152.94
421.394	191.94
421.617	247.94
421.839	287.94
422.062	316.94
422.285	499.94
422.507	963.94
422.73	1422.94
422.953	1260.94
423.175	711.94
423.398	378.94
423.621	248.94
423.843	203.94
424.066	179.94
424.288	165.94
424.511	140.94
424.733	111.94
424.956	136.94
425.178	141.94
425.401	135.94
425.623	123.94
425.846	114.94
426.068	103.94
426.291	112.94
426.513	106.94
426.735	108.94
426.958	112.94
427.18	145.94
427.402	143.94
427.625	119.94
427.847	146.94
428.069	163.94
428.292	304.94
428.514	350.94
428.736	230.94
428.958	308.94
429.181	340.94
429.403	178.94
429.625	174.94
429.847	268.94
430.069	466.94
430.292	545.94
430.514	505.94
430.736	336.94
430.958	388.94
431.18	195.94
431.402	129.94
431.624	153.94
431.846	282.94
432.068	341.94
432.29	160.94
432.512	145.94
432.734	133.94
432.956	105.94
433.178	93.94
433.4	118.94
433.622	95.94
433.844	112.94
434.066	95.94
434.287	87.94
434.509	109.94
434.731	95.94
434.953	94.94
435.175	112.94
435.397	134.94
435.618	139.94
435.84	143.94
436.062	118.94
436.284	123.94
436.505	105.94
436.727	109.94
436.949	96.94
437.17	80.94
437.392	95.94
437.614	104.94
437.835	105.94
438.057	98.94
438.278	121.94
438.5	143.94
438.721	119.94
438.943	111.94
439.165	110.94
439.386	101.94
439.608	108.94
439.829	102.94
440.05	116.94
440.272	101.94
440.493	124.94
440.715	119.94
440.936	101.94
441.158	103.94
441.379	111.94
441.6	125.94
441.822	108.94
442.043	127.94
442.264	168.94
442.486	346.94
442.707	521.94
442.928	306.94
443.149	237.94
443.371	446.94
443.592	874.94
443.813	733.94
444.034	249.94
444.255	153.94
444.476	142.94
444.698	124.94
444.919	153.94
445.14	308.94
445.361	568.94
445.582	1084.94
445.803	954.94
446.024	297.94
446.245	151.94
446.466	126.94
446.687	105.94
446.908	92.94
447.129	112.94
447.35	97.94
447.571	98.94
447.792	91.94
448.013	100.94
448.234	102.94
448.455	111.94
448.675	92.94
448.896	84.94
449.117	94.94
449.338	99.94
449.559	98.94
449.779	87.94
450	94.94
450.221	86.94
450.442	78.94
450.662	95.94
450.883	104.94
451.104	112.94
451.324	102.94
451.545	100.94
451.766	95.94
451.986	102.94
452.207	121.94
452.428	112.94
452.648	132.94
452.869	184.94
453.089	156.94
453.31	140.94
453.53	132.94
453.751	122.94
453.971	87.94
454.192	101.94
454.412	97.94
454.633	111.94
454.853	89.94
455.073	101.94
455.294	125.94
455.514	132.94
455.734	122.94
455.955	102.94
456.175	94.94
456.395	91.94
456.616	98.94
456.836	102.94
457.056	109.94
457.276	105.94
457.497	108.94
457.717	142.94
457.937	240.94
458.157	348.94
458.377	352.94
458.598	330.94
458.818	372.94
459.038	184.94
459.258	105.94
459.478	95.94
459.698	102.94
459.918	89.94
460.138	102.94
460.358	109.94
460.578	141.94
460.798	212.94
461.018	202.94
461.238	111.94
461.458	116.94
461.678	97.94
461.898	85.94
462.118	104.94
462.338	108.94
462.558	88.94
462.777	100.94
462.997	98.94
463.217	99.94
463.437	93.94
463.657	91.94
463.876	98.94
464.096	88.94
464.316	97.94
464.536	92.94
464.755	101.94
464.975	96.94
465.195	94.94
465.414	93.94
465.634	110.94
465.854	86.94
466.073	88.94
466.293	91.94
466.512	84.94
466.732	103.94
466.951	99.94
467.171	82.94
467.391	94.94
467.61	96.94
467.829	97.94
468.049	96.94
468.268	105.94
468.488	121.94
468.707	122.94
468.927	117.94
469.146	95.94
469.365	102.94
469.585	96.94
469.804	97.94
470.023	94.94
470.243	96.94
470.462	82.94
470.681	91.94
470.901	104.94
471.12	103.94
471.339	108.94
471.558	86.94
471.777	110.94
471.997	89.94
472.216	97.94
472.435	78.94
472.654	91.94
472.873	99.94
473.092	98.94
473.311	114.94
473.53	106.94
473.749	93.94
473.968	103.94
474.187	103.94
474.406	99.94
474.625	88.94
474.844	101.94
475.063	95.94
475.282	97.94
475.501	100.94
475.72	105.94
475.939	100.94
476.158	93.94
476.377	90.94
476.596	97.94
476.814	114.94
477.033	97.94
477.252	97.94
477.471	99.94
477.69	119.94
477.908	101.94
478.127	101.94
478.346	94.94
478.564	99.94
478.783	90.94
479.002	99.94
479.22	96.94
479.439	102.94
479.658	105.94
479.876	101.94
480.095	112.94
480.313	94.94
480.532	112.94
480.751	92.94
480.969	123.94
481.188	116.94
481.406	128.94
481.624	112.94
481.843	112.94
482.061	112.94
482.28	103.94
482.498	111.94
482.717	114.94
482.935	108.94
483.153	123.94
483.372	130.94
483.59	120.94
483.808	101.94
484.027	121.94
484.245	119.94
484.463	102.94
484.681	134.94
484.9	131.94
485.118	103.94
485.336	101.94
485.554	101.94
485.772	118.94
485.99	117.94
486.209	94.94
486.427	101.94
486.645	101.94
486.863	98.94
487.081	123.94
487.299	127.94
487.517	159.94
487.735	279.94
487.953	602.94
488.171	471.94
488.389	157.94
488.607	114.94
488.825	110.94
489.043	119.94
489.261	127.94
489.479	102.94
489.696	103.94
489.914	98.94
490.132	98.94
490.35	111.94
490.568	100.94
490.786	95.94
491.003	104.94
491.221	100.94
491.439	104.94
491.657	113.94
491.874	105.94
492.092	108.94
492.31	120.94
492.527	99.94
492.745	102.94
492.963	106.94
493.18	104.94
493.398	129.94
493.615	143.94
493.833	124.94
494.05	105.94
494.268	110.94
494.485	86.94
494.703	107.94
494.92	100.94
495.138	103.94
495.355	105.94
495.573	104.94
495.79	100.94
496.008	135.94
496.225	110.94
496.442	110.94
496.66	99.94
496.877	126.94
497.094	116.94
497.312	102.94
497.529	102.94
497.746	107.94
497.963	114.94
498.181	130.94
498.398	176.94
498.615	125.94
498.832	89.94
499.049	99.94
499.267	150.94
499.484	116.94
499.701	111.94
499.918	125.94
500.135	137.94
500.352	125.94
500.569	113.94
500.786	126.94
501.003	129.94
501.22	110.94
501.437	129.94
501.654	159.94
501.871	105.94
502.088	113.94
502.305	112.94
502.522	104.94
502.739	102.94
502.956	103.94
503.172	118.94
503.389	121.94
503.606	121.94
503.823	154.94
504.04	202.94
504.256	406.94
504.473	421.94
504.69	165.94
504.907	128.94
505.123	115.94
505.34	97.94
505.557	120.94
505.773	104.94
505.99	100.94
506.207	96.94
506.423	89.94
506.64	106.94
506.856	113.94
507.073	96.94
507.289	108.94
507.506	103.94
507.722	118.94
507.939	101.94
508.155	109.94
508.372	88.94
508.588	112.94
508.805	112.94
509.021	107.94
509.238	91.94
509.454	95.94
509.67	101.94
509.887	96.94
510.103	87.94
510.319	92.94
510.536	95.94
510.752	102.94
510.968	96.94
511.184	106.94
511.401	109.94
511.617	121.94
511.833	102.94
512.049	112.94
512.265	109.94
512.481	108.94
512.698	117.94
512.914	96.94
513.13	114.94
513.346	96.94
513.562	108.94
513.778	111.94
513.994	101.94
514.21	103.94
514.426	109.94
514.642	113.94
514.858	99.94
515.074	110.94
515.29	112.94
515.506	110.94
515.721	114.94
515.937	112.94
516.153	122.94
516.369	126.94
516.585	109.94
516.801	125.94
517.016	136.94
517.232	122.94
517.448	176.94
517.664	142.94
517.879	113.94
518.095	136.94
518.311	150.94
518.527	216.94
518.742	268.94
518.958	542.94
519.173	644.94
519.389	225.94
519.605	138.94
519.82	114.94
520.036	127.94
520.251	112.94
520.467	108.94
520.682	118.94
520.898	110.94
521.113	130.94
521.329	124.94
521.544	109.94
521.76	110.94
521.975	115.94
522.19	124.94
522.406	116.94
522.621	111.94
522.836	114.94
523.052	119.94
523.267	120.94
523.482	117.94
523.698	115.94
523.913	111.94
524.128	103.94
524.343	122.94
524.559	122.94
524.774	129.94
524.989	130.94
525.204	128.94
525.419	120.94
525.634	148.94
525.849	172.94
526.064	316.94
526.28	829.94
526.495	1316.94
526.71	1415.94
526.925	786.94
527.14	1033.94
527.355	933.94
527.57	254.94
527.785	142.94
527.999	114.94
528.214	109.94
528.429	118.94
528.644	108.94
528.859	120.94
529.074	119.94
529.289	109.94
529.503	133.94
529.718	117.94
529.933	120.94
530.148	130.94
530.363	128.94
530.577	108.94
530.792	127.94
531.007	130.94
531.221	126.94
531.436	136.94
531.651	114.94
531.865	120.94
532.08	123.94
532.295	136.94
532.509	143.94
532.724	133.94
532.938	156.94
533.153	151.94
533.367	142.94
533.582	143.94
533.796	132.94
534.011	132.94
534.225	136.94
534.44	156.94
534.654	168.94
534.868	242.94
535.083	527.94
535.297	429.94
535.511	178.94
535.726	149.94
535.94	147.94
536.154	153.94
536.369	142.94
536.583	143.94
536.797	157.94
537.011	142.94
537.225	148.94
537.44	153.94
537.654	164.94
537.868	140.94
538.082	137.94
538.296	137.94
538.51	138.94
538.724	152.94
538.938	148.94
539.153	138.94
539.367	151.94
539.581	146.94
539.795	137.94
540.009	138.94
540.222	155.94
540.436	140.94
540.65	164.94
540.864	163.94
541.078	145.94
541.292	151.94
541.506	148.94
541.72	153.94
541.934	145.94
542.147	144.94
542.361	145.94
542.575	152.94
542.789	144.94
543.002	156.94
543.216	151.94
543.43	147.94
543.644	154.94
543.857	142.94
544.071	154.94
544.285	155.94
544.498	144.94
544.712	167.94
544.925	164.94
545.139	150.94
545.352	148.94
545.566	160.94
545.779	156.94
545.993	171.94
546.206	163.94
546.42	195.94
546.633	188.94
546.847	228.94
547.06	245.94
547.274	304.94
547.487	358.94
547.7	417.94
547.914	429.94
548.127	420.94
548.34	465.94
548.554	477.94
548.767	452.94
548.98	472.94
549.193	454.94
549.407	454.94
549.62	476.94
549.833	542.94
550.046	601.94
550.259	653.94
550.473	604.94
550.686	658.94
550.899	724.94
551.112	807.94
551.325	966.94
551.538	1025.94
551.751	850.94
551.964	790.94
552.177	791.94
552.39	772.94
552.603	788.94
552.816	753.94
553.029	755.94
553.242	757.94
553.455	764.94
553.667	838.94
553.88	872.94
554.093	864.94
554.306	850.94
554.519	870.94
554.732	828.94
554.944	854.94
555.157	801.94
555.37	753.94
555.583	756.94
555.795	708.94
556.008	657.94
556.221	604.94
556.433	598.94
556.646	570.94
556.859	528.94
557.071	533.94
557.284	472.94
557.496	473.94
557.709	414.94
557.921	400.94
558.134	434.94
558.346	684.94
558.559	583.94
558.771	496.94
558.984	1125.94
559.196	1504.94
559.409	732.94
559.621	1081.94
559.833	801.94
560.046	1008.94
560.258	852.94
560.47	870.94
560.683	414.94
560.895	249.94
561.107	233.94
561.32	194.94
561.532	208.94
561.744	214.94
561.956	174.94
562.168	180.94
562.381	190.94
562.593	193.94
562.805	172.94
563.017	166.94
563.229	168.94
563.441	171.94
563.653	157.94
563.865	169.94
564.077	154.94
564.289	165.94
564.501	159.94
564.713	167.94
564.925	151.94
565.137	152.94
565.349	165.94
565.561	146.94
565.773	139.94
565.985	164.94
566.197	153.94
566.408	152.94
566.62	140.94
566.832	146.94
567.044	141.94
567.255	138.94
567.467	148.94
567.679	147.94
567.891	151.94
568.102	137.94
568.314	158.94
568.526	154.94
568.737	163.94
568.949	172.94
569.161	170.94
569.372	162.94
569.584	148.94
569.795	156.94
570.007	154.94
570.218	142.94
570.43	154.94
570.641	161.94
570.853	137.94
571.064	144.94
571.276	150.94
571.487	146.94
571.698	156.94
571.91	170.94
572.121	153.94
572.333	135.94
572.544	151.94
572.755	164.94
572.966	162.94
573.178	141.94
573.389	142.94
573.6	158.94
573.811	150.94
574.023	148.94
574.234	146.94
574.445	131.94
574.656	148.94
574.867	128.94
575.078	116.94
575.289	111.94
575.501	135.94
575.712	124.94
575.923	134.94
576.134	129.94
576.345	129.94
576.556	143.94
576.767	127.94
576.978	140.94
577.188	124.94
577.399	117.94
577.61	117.94
577.821	139.94
578.032	127.94
578.243	123.94
578.454	119.94
578.665	123.94
578.875	117.94
579.086	121.94
579.297	132.94
579.508	122.94
579.718	110.94
579.929	125.94
580.14	131.94
580.35	130.94
580.561	115.94
580.772	116.94
580.982	126.94
581.193	135.94
581.403	123.94
581.614	124.94
581.825	127.94
582.035	122.94
582.246	133.94
582.456	140.94
582.667	132.94
582.877	129.94
583.087	131.94
583.298	119.94
583.508	124.94
583.719	136.94
583.929	146.94
584.139	132.94
584.35	135.94
584.56	138.94
584.77	138.94
584.981	141.94
585.191	142.94
585.401	133.94
585.611	196.94
585.821	506.94
586.032	947.94
586.242	320.94
586.452	184.94
586.662	152.94
586.872	159.94
587.082	186.94
587.292	172.94
587.502	161.94
587.713	167.94
587.923	180.94
588.133	180.94
588.343	190.94
588.553	206.94
588.762	261.94
588.972	538.94
589.182	1360.94
589.392	882.94
589.602	593.94
589.812	1164.94
590.022	549.94
590.232	271.94
590.441	202.94
590.651	202.94
590.861	208.94
591.071	195.94
591.281	203.94
591.49	204.94
591.7	201.94
591.91	195.94
592.119	207.94
592.329	221.94
592.539	221.94
592.748	229.94
592.958	226.94
593.167	222.94
593.377	241.94
593.587	256.94
593.796	262.94
594.006	241.94
594.215	256.94
594.424	258.94
594.634	269.94
594.843	274.94
595.053	278.94
595.262	303.94
595.472	314.94
595.681	331.94
595.89	338.94
596.1	351.94
596.309	366.94
596.518	404.94
596.727	402.94
596.937	414.94
597.146	448.94
597.355	445.94
597.564	439.94
597.774	418.94
597.983	443.94
598.192	437.94
598.401	445.94
598.61	514.94
598.819	489.94
599.028	485.94
599.237	500.94
599.446	476.94
599.655	508.94
599.864	480.94
600.073	462.94
600.282	471.94
600.491	489.94
600.7	520.94
600.909	487.94
601.118	417.94
601.327	398.94
601.536	404.94
601.745	414.94
601.953	414.94
602.162	415.94
602.371	442.94
602.58	426.94
602.789	416.94
602.997	435.94
603.206	455.94
603.415	488.94
603.623	466.94
603.832	454.94
604.041	492.94
604.249	496.94
604.458	511.94
604.666	513.94
604.875	520.94
605.084	542.94
605.292	545.94
605.501	567.94
605.709	586.94
605.918	623.94
606.126	633.94
606.334	608.94
606.543	583.94
606.751	612.94
606.96	580.94
607.168	557.94
607.376	526.94
607.585	568.94
607.793	531.94
608.001	511.94
608.21	506.94
608.418	522.94
608.626	530.94
608.834	545.94
609.043	575.94
609.251	592.94
609.459	556.94
609.667	558.94
609.875	621.94
610.083	616.94
610.291	677.94
610.499	1047.94
610.707	696.94
610.916	584.94
611.124	601.94
611.332	624.94
611.54	617.94
611.748	634.94
611.955	700.94
612.163	764.94
612.371	1277.94
612.579	1121.94
612.787	780.94
612.995	724.94
613.203	702.94
613.411	651.94
613.618	641.94
613.826	633.94
614.034	639.94
614.242	659.94
614.449	682.94
614.657	700.94
614.865	678.94
615.072	653.94
615.28	671.94
615.488	711.94
615.695	724.94
615.903	764.94
616.111	777.94
616.318	1347.94
616.526	1564.94
616.733	988.94
616.941	932.94
617.148	1239.94
617.356	872.94
617.563	698.94
617.771	677.94
617.978	658.94
618.185	630.94
618.393	671.94
618.6	647.94
618.807	609.94
619.015	593.94
619.222	612.94
619.429	594.94
619.637	607.94
619.844	585.94
620.051	586.94
620.258	572.94
620.466	592.94
620.673	606.94
620.88	590.94
621.087	601.94
621.294	607.94
621.501	606.94
621.708	605.94
621.915	594.94
622.122	595.94
622.329	594.94
622.536	626.94
622.743	582.94
622.95	598.94
623.157	604.94
623.364	617.94
623.571	622.94
623.778	602.94
623.985	591.94
624.192	571.94
624.399	572.94
624.606	602.94
624.812	572.94
625.019	579.94
625.226	549.94
625.433	568.94
625.639	554.94
625.846	544.94
626.053	505.94
626.259	514.94
626.466	483.94
626.673	448.94
626.879	420.94
627.086	421.94
627.293	410.94
627.499	398.94
627.706	365.94
627.912	353.94
628.119	355.94
628.325	294.94
628.532	287.94
628.738	276.94
628.945	263.94
629.151	259.94
629.357	249.94
629.564	226.94
629.77	220.94
629.976	219.94
630.183	210.94
630.389	215.94
630.595	188.94
630.802	195.94
631.008	175.94
631.214	173.94
631.42	179.94
631.627	188.94
631.833	195.94
632.039	178.94
632.245	168.94
632.451	169.94
632.657	168.94
632.863	182.94
633.069	177.94
633.275	162.94
633.481	175.94
633.688	167.94
633.893	168.94
634.099	188.94
634.305	181.94
634.511	204.94
634.717	188.94
634.923	196.94
635.129	174.94
635.335	182.94
635.541	176.94
635.747	156.94
635.952	165.94
636.158	190.94
636.364	207.94
636.57	197.94
636.775	187.94
636.981	159.94
637.187	166.94
637.392	166.94
637.598	178.94
637.804	164.94
638.009	170.94
638.215	172.94
638.421	148.94
638.626	158.94
638.832	170.94
639.037	144.94
639.243	154.94
639.448	149.94
639.654	154.94
639.859	153.94
640.065	163.94
640.27	156.94
640.475	156.94
640.681	147.94
640.886	157.94
641.091	161.94
641.297	176.94
641.502	156.94
641.707	159.94
641.913	163.94
642.118	167.94
642.323	161.94
642.528	161.94
642.733	145.94
642.939	148.94
643.144	166.94
643.349	156.94
643.554	170.94
643.759	189.94
643.964	320.94
644.169	477.94
644.374	251.94
644.579	166.94
644.784	161.94
644.989	172.94
645.194	278.94
645.399	198.94
645.604	180.94
645.809	194.94
646.014	177.94
646.219	215.94
646.423	416.94
646.628	299.94
646.833	169.94
647.038	164.94
647.243	193.94
647.447	230.94
647.652	151.94
647.857	144.94
648.062	134.94
648.266	129.94
648.471	121.94
648.676	133.94
648.88	144.94
649.085	136.94
649.289	132.94
649.494	271.94
649.698	261.94
649.903	153.94
650.107	188.94
650.312	160.94
650.516	123.94
650.721	109.94
650.925	108.94
651.13	100.94
651.334	105.94
651.539	112.94
651.743	95.94
651.947	109.94
652.152	110.94
652.356	92.94
652.56	103.94
652.764	103.94
652.969	105.94
653.173	116.94
653.377	104.94
653.581	97.94
653.785	94.94
653.99	114.94
654.194	88.94
654.398	108.94
654.602	91.94
654.806	89.94
655.01	99.94
655.214	97.94
655.418	87.94
655.622	89.94
655.826	88.94
656.03	79.94
656.234	81.94
656.438	95.94
656.642	89.94
656.846	95.94
657.049	100.94
657.253	103.94
657.457	87.94
657.661	102.94
657.865	80.94
658.068	82.94
658.272	80.94
658.476	76.94
658.68	94.94
658.883	95.94
659.087	96.94
659.291	89.94
659.494	74.94
659.698	60.94
659.901	80.94
660.105	84.94
660.309	85.94
660.512	77.94
660.716	66.94
660.919	86.94
661.123	96.94
661.326	91.94
661.53	94.94
661.733	83.94
661.936	86.94
662.14	88.94
662.343	80.94
662.546	78.94
662.75	89.94
662.953	86.94
663.156	75.94
663.36	79.94
663.563	65.94
663.766	75.94
663.969	82.94
664.173	92.94
664.376	75.94
664.579	72.94
664.782	83.94
664.985	84.94
665.188	81.94
665.391	72.94
665.594	79.94
665.797	76.94
666	88.94
666.203	81.94
666.406	78.94
666.609	77.94
666.812	88.94
667.015	79.94
667.218	77.94
667.421	80.94
667.624	74.94
667.827	93.94
668.03	94.94
668.232	83.94
668.435	85.94
668.638	79.94
668.841	86.94
669.043	89.94
669.246	66.94
669.449	84.94
669.651	78.94
669.854	94.94
670.057	72.94
670.259	82.94
670.462	80.94
670.665	77.94
670.867	82.94
671.07	82.94
671.272	85.94
671.475	86.94
671.677	97.94
671.88	96.94
672.082	81.94
672.284	78.94
672.487	86.94
672.689	74.94
672.892	80.94
