Data from 10100_2_HRD10591_00046.txt Node
Date: Mon Jan 19 14:01:47 EST 2026
User: Yrep
Spectrometer: HR+D1059
Trigger mode: 1
Integration Time (sec): 1.000000E-1
Scans to average: 1
Electric dark correction enabled: true
Nonlinearity correction enabled: false
Boxcar width: 0
XAxis mode: Wavelengths
Number of Pixels in Spectrum: 2048
>>>>>Begin Spectral Data<<<<<
223.165	-11.38
223.4	-11.38
223.635	-11.38
223.869	-23.38
224.104	-20.38
224.338	-7.38
224.573	-20.38
224.808	-6.38
225.042	-11.38
225.277	-2.38
225.511	-6.38
225.746	13.62
225.98	-3.38
226.215	3.62
226.449	14.62
226.683	16.62
226.918	26.62
227.152	37.62
227.387	54.62
227.621	48.62
227.856	54.62
228.09	52.62
228.324	52.62
228.559	68.62
228.793	67.62
229.027	72.62
229.262	74.62
229.496	64.62
229.73	71.62
229.964	62.62
230.199	57.62
230.433	63.62
230.667	89.62
230.901	70.62
231.136	56.62
231.37	88.62
231.604	76.62
231.838	78.62
232.072	80.62
232.306	92.62
232.541	85.62
232.775	80.62
233.009	80.62
233.243	95.62
233.477	82.62
233.711	82.62
233.945	85.62
234.179	77.62
234.413	92.62
234.647	84.62
234.881	79.62
235.115	78.62
235.349	72.62
235.583	68.62
235.817	72.62
236.051	67.62
236.285	80.62
236.519	81.62
236.753	72.62
236.987	86.62
237.221	70.62
237.455	75.62
237.689	92.62
237.922	79.62
238.156	83.62
238.39	86.62
238.624	84.62
238.858	87.62
239.091	82.62
239.325	87.62
239.559	72.62
239.793	76.62
240.027	82.62
240.26	72.62
240.494	86.62
240.728	80.62
240.961	68.62
241.195	86.62
241.429	67.62
241.662	60.62
241.896	76.62
242.13	77.62
242.363	68.62
242.597	67.62
242.83	75.62
243.064	75.62
243.298	82.62
243.531	86.62
243.765	60.62
243.998	83.62
244.232	77.62
244.465	70.62
244.699	80.62
244.932	74.62
245.166	65.62
245.399	93.62
245.633	80.62
245.866	81.62
246.099	91.62
246.333	87.62
246.566	79.62
246.8	87.62
247.033	83.62
247.266	67.62
247.5	91.62
247.733	90.62
247.966	91.62
248.2	89.62
248.433	75.62
248.666	76.62
248.899	71.62
249.133	75.62
249.366	83.62
249.599	85.62
249.832	82.62
250.066	88.62
250.299	92.62
250.532	95.62
250.765	82.62
250.998	91.62
251.231	75.62
251.465	91.62
251.698	89.62
251.931	72.62
252.164	88.62
252.397	83.62
252.63	82.62
252.863	75.62
253.096	69.62
253.329	82.62
253.562	74.62
253.795	81.62
254.028	80.62
254.261	86.62
254.494	91.62
254.727	84.62
254.96	91.62
255.193	77.62
255.426	93.62
255.659	81.62
255.892	88.62
256.124	80.62
256.357	83.62
256.59	83.62
256.823	98.62
257.056	84.62
257.289	78.62
257.521	89.62
257.754	82.62
257.987	79.62
258.22	74.62
258.452	66.62
258.685	84.62
258.918	94.62
259.151	76.62
259.383	86.62
259.616	74.62
259.849	96.62
260.081	75.62
260.314	86.62
260.547	81.62
260.779	79.62
261.012	84.62
261.244	90.62
261.477	86.62
261.71	73.62
261.942	84.62
262.175	82.62
262.407	79.62
262.64	84.62
262.872	93.62
263.105	91.62
263.337	80.62
263.57	73.62
263.802	83.62
264.035	78.62
264.267	98.62
264.499	83.62
264.732	90.62
264.964	66.62
265.197	90.62
265.429	89.62
265.661	73.62
265.894	82.62
266.126	99.62
266.358	82.62
266.591	79.62
266.823	82.62
267.055	86.62
267.287	85.62
267.52	81.62
267.752	99.62
267.984	90.62
268.216	74.62
268.448	83.62
268.681	77.62
268.913	71.62
269.145	87.62
269.377	90.62
269.609	86.62
269.841	81.62
270.073	95.62
270.306	73.62
270.538	90.62
270.77	86.62
271.002	86.62
271.234	77.62
271.466	74.62
271.698	93.62
271.93	91.62
272.162	88.62
272.394	87.62
272.626	83.62
272.858	92.62
273.09	98.62
273.322	77.62
273.553	80.62
273.785	87.62
274.017	94.62
274.249	95.62
274.481	86.62
274.713	70.62
274.945	72.62
275.176	89.62
275.408	88.62
275.64	80.62
275.872	81.62
276.104	74.62
276.335	78.62
276.567	85.62
276.799	80.62
277.031	82.62
277.262	76.62
277.494	80.62
277.726	84.62
277.957	82.62
278.189	75.62
278.421	84.62
278.652	74.62
278.884	83.62
279.115	71.62
279.347	82.62
279.579	84.62
279.81	91.62
280.042	80.62
280.273	86.62
280.505	83.62
280.736	80.62
280.968	87.62
281.199	85.62
281.431	79.62
281.662	82.62
281.894	92.62
282.125	90.62
282.356	94.62
282.588	91.62
282.819	78.62
283.051	86.62
283.282	79.62
283.513	88.62
283.745	94.62
283.976	94.62
284.207	87.62
284.439	89.62
284.67	80.62
284.901	100.62
285.132	79.62
285.364	91.62
285.595	81.62
285.826	83.62
286.057	89.62
286.288	82.62
286.52	90.62
286.751	70.62
286.982	76.62
287.213	76.62
287.444	95.62
287.675	96.62
287.906	90.62
288.138	75.62
288.369	86.62
288.6	80.62
288.831	98.62
289.062	100.62
289.293	82.62
289.524	78.62
289.755	75.62
289.986	84.62
290.217	81.62
290.448	82.62
290.679	89.62
290.91	106.62
291.141	84.62
291.371	91.62
291.602	91.62
291.833	87.62
292.064	83.62
292.295	99.62
292.526	92.62
292.757	82.62
292.987	93.62
293.218	92.62
293.449	74.62
293.68	87.62
293.91	89.62
294.141	84.62
294.372	92.62
294.603	96.62
294.833	90.62
295.064	86.62
295.295	70.62
295.525	86.62
295.756	85.62
295.987	82.62
296.217	76.62
296.448	85.62
296.679	85.62
296.909	77.62
297.14	92.62
297.37	86.62
297.601	83.62
297.831	86.62
298.062	78.62
298.292	89.62
298.523	103.62
298.753	70.62
298.984	89.62
299.214	91.62
299.445	73.62
299.675	84.62
299.905	80.62
300.136	91.62
300.366	78.62
300.597	76.62
300.827	89.62
301.057	90.62
301.288	89.62
301.518	92.62
301.748	81.62
301.979	97.62
302.209	103.62
302.439	94.62
302.669	83.62
302.9	91.62
303.13	92.62
303.36	89.62
303.59	98.62
303.82	89.62
304.051	86.62
304.281	90.62
304.511	86.62
304.741	73.62
304.971	82.62
305.201	101.62
305.431	78.62
305.661	82.62
305.891	80.62
306.121	90.62
306.352	89.62
306.582	97.62
306.812	86.62
307.042	86.62
307.272	86.62
307.502	93.62
307.731	91.62
307.961	82.62
308.191	98.62
308.421	95.62
308.651	84.62
308.881	76.62
309.111	93.62
309.341	90.62
309.571	90.62
309.8	84.62
310.03	78.62
310.26	91.62
310.49	80.62
310.72	103.62
310.949	92.62
311.179	89.62
311.409	89.62
311.639	99.62
311.868	95.62
312.098	75.62
312.328	82.62
312.557	91.62
312.787	88.62
313.017	86.62
313.246	88.62
313.476	95.62
313.706	75.62
313.935	85.62
314.165	78.62
314.394	99.62
314.624	91.62
314.853	92.62
315.083	83.62
315.312	84.62
315.542	87.62
315.771	90.62
316.001	82.62
316.23	79.62
316.46	87.62
316.689	86.62
316.919	89.62
317.148	85.62
317.377	85.62
317.607	75.62
317.836	96.62
318.065	82.62
318.295	72.62
318.524	84.62
318.753	86.62
318.983	92.62
319.212	97.62
319.441	83.62
319.67	93.62
319.9	84.62
320.129	79.62
320.358	87.62
320.587	85.62
320.816	80.62
321.046	87.62
321.275	77.62
321.504	71.62
321.733	77.62
321.962	82.62
322.191	88.62
322.42	83.62
322.649	88.62
322.878	75.62
323.108	74.62
323.337	95.62
323.566	91.62
323.795	86.62
324.024	78.62
324.253	92.62
324.482	79.62
324.71	77.62
324.939	84.62
325.168	80.62
325.397	89.62
325.626	84.62
325.855	93.62
326.084	81.62
326.313	86.62
326.542	80.62
326.77	86.62
326.999	74.62
327.228	88.62
327.457	79.62
327.686	92.62
327.914	91.62
328.143	96.62
328.372	94.62
328.6	86.62
328.829	84.62
329.058	65.62
329.287	88.62
329.515	79.62
329.744	90.62
329.972	90.62
330.201	97.62
330.43	94.62
330.658	82.62
330.887	89.62
331.115	88.62
331.344	94.62
331.572	82.62
331.801	87.62
332.03	100.62
332.258	88.62
332.486	93.62
332.715	104.62
332.943	78.62
333.172	83.62
333.4	78.62
333.629	71.62
333.857	79.62
334.085	77.62
334.314	77.62
334.542	84.62
334.771	91.62
334.999	92.62
335.227	102.62
335.455	95.62
335.684	82.62
335.912	76.62
336.14	84.62
336.369	91.62
336.597	87.62
336.825	89.62
337.053	71.62
337.281	81.62
337.51	102.62
337.738	78.62
337.966	94.62
338.194	82.62
338.422	80.62
338.65	89.62
338.878	82.62
339.106	90.62
339.334	88.62
339.562	85.62
339.79	91.62
340.018	71.62
340.246	80.62
340.474	84.62
340.702	85.62
340.93	89.62
341.158	88.62
341.386	85.62
341.614	83.62
341.842	82.62
342.07	76.62
342.298	88.62
342.526	94.62
342.754	75.62
342.981	95.62
343.209	90.62
343.437	107.62
343.665	80.62
343.893	80.62
344.12	96.62
344.348	91.62
344.576	83.62
344.804	86.62
345.031	90.62
345.259	79.62
345.487	73.62
345.714	104.62
345.942	78.62
346.17	76.62
346.397	98.62
346.625	82.62
346.853	82.62
347.08	82.62
347.308	79.62
347.535	82.62
347.763	86.62
347.99	85.62
348.218	87.62
348.445	87.62
348.673	90.62
348.9	86.62
349.128	86.62
349.355	71.62
349.583	75.62
349.81	75.62
350.037	83.62
350.265	78.62
350.492	90.62
350.72	83.62
350.947	86.62
351.174	91.62
351.402	83.62
351.629	82.62
351.856	88.62
352.083	70.62
352.311	88.62
352.538	91.62
352.765	91.62
352.992	99.62
353.22	90.62
353.447	73.62
353.674	88.62
353.901	88.62
354.128	76.62
354.355	83.62
354.583	93.62
354.81	82.62
355.037	86.62
355.264	85.62
355.491	76.62
355.718	91.62
355.945	83.62
356.172	74.62
356.399	87.62
356.626	110.62
356.853	98.62
357.08	80.62
357.307	83.62
357.534	85.62
357.761	94.62
357.988	87.62
358.215	84.62
358.441	76.62
358.668	104.62
358.895	95.62
359.122	88.62
359.349	69.62
359.576	82.62
359.802	80.62
360.029	82.62
360.256	76.62
360.483	90.62
360.709	90.62
360.936	89.62
361.163	85.62
361.39	90.62
361.616	80.62
361.843	87.62
362.07	77.62
362.296	95.62
362.523	84.62
362.749	93.62
362.976	89.62
363.203	92.62
363.429	83.62
363.656	90.62
363.882	81.62
364.109	91.62
364.335	90.62
364.562	77.62
364.788	81.62
365.015	90.62
365.241	90.62
365.468	80.62
365.694	79.62
365.92	86.62
366.147	80.62
366.373	73.62
366.599	82.62
366.826	82.62
367.052	91.62
367.278	88.62
367.505	74.62
367.731	76.62
367.957	71.62
368.184	104.62
368.41	85.62
368.636	97.62
368.862	80.62
369.089	81.62
369.315	81.62
369.541	90.62
369.767	77.62
369.993	78.62
370.219	96.62
370.445	79.62
370.672	83.62
370.898	76.62
371.124	92.62
371.35	90.62
371.576	91.62
371.802	103.62
372.028	95.62
372.254	78.62
372.48	84.62
372.706	86.62
372.932	77.62
373.158	91.62
373.384	96.62
373.61	98.62
373.835	96.62
374.061	99.62
374.287	90.62
374.513	92.62
374.739	87.62
374.965	63.62
375.191	84.62
375.416	75.62
375.642	87.62
375.868	95.62
376.094	89.62
376.319	83.62
376.545	71.62
376.771	90.62
376.997	91.62
377.222	66.62
377.448	83.62
377.674	79.62
377.899	98.62
378.125	101.62
378.35	92.62
378.576	70.62
378.802	90.62
379.027	82.62
379.253	82.62
379.478	88.62
379.704	93.62
379.929	88.62
380.155	94.62
380.38	80.62
380.606	80.62
380.831	83.62
381.057	89.62
381.282	73.62
381.507	84.62
381.733	83.62
381.958	77.62
382.184	85.62
382.409	81.62
382.634	84.62
382.86	74.62
383.085	85.62
383.31	87.62
383.535	86.62
383.761	85.62
383.986	84.62
384.211	91.62
384.436	75.62
384.662	80.62
384.887	80.62
385.112	92.62
385.337	82.62
385.562	98.62
385.787	80.62
386.013	82.62
386.238	92.62
386.463	94.62
386.688	102.62
386.913	76.62
387.138	72.62
387.363	75.62
387.588	86.62
387.813	78.62
388.038	87.62
388.263	90.62
388.488	75.62
388.713	76.62
388.938	78.62
389.163	87.62
389.387	88.62
389.612	92.62
389.837	109.62
390.062	93.62
390.287	88.62
390.512	83.62
390.736	85.62
390.961	89.62
391.186	71.62
391.411	73.62
391.636	83.62
391.86	90.62
392.085	74.62
392.31	83.62
392.534	73.62
392.759	91.62
392.984	99.62
393.208	108.62
393.433	135.62
393.658	129.62
393.882	82.62
394.107	84.62
394.331	80.62
394.556	80.62
394.78	83.62
395.005	76.62
395.229	87.62
395.454	92.62
395.678	85.62
395.903	95.62
396.127	106.62
396.352	99.62
396.576	94.62
396.801	125.62
397.025	124.62
397.249	98.62
397.474	82.62
397.698	88.62
397.922	82.62
398.147	86.62
398.371	86.62
398.595	82.62
398.82	93.62
399.044	75.62
399.268	84.62
399.492	89.62
399.717	80.62
399.941	98.62
400.165	91.62
400.389	83.62
400.613	82.62
400.837	93.62
401.062	88.62
401.286	89.62
401.51	86.62
401.734	82.62
401.958	70.62
402.182	83.62
402.406	87.62
402.63	80.62
402.854	82.62
403.078	74.62
403.302	81.62
403.526	84.62
403.75	82.62
403.974	60.62
404.198	88.62
404.422	84.62
404.645	97.62
404.869	86.62
405.093	93.62
405.317	77.62
405.541	94.62
405.765	84.62
405.988	86.62
406.212	91.62
406.436	89.62
406.66	88.62
406.883	90.62
407.107	81.62
407.331	74.62
407.555	85.62
407.778	89.62
408.002	105.62
408.226	85.62
408.449	82.62
408.673	76.62
408.896	86.62
409.12	91.62
409.344	81.62
409.567	88.62
409.791	89.62
410.014	95.62
410.238	86.62
410.461	86.62
410.685	73.62
410.908	77.62
411.132	77.62
411.355	77.62
411.578	78.62
411.802	82.62
412.025	74.62
412.249	88.62
412.472	78.62
412.695	87.62
412.919	86.62
413.142	84.62
413.365	85.62
413.589	81.62
413.812	86.62
414.035	82.62
414.258	99.62
414.482	70.62
414.705	84.62
414.928	95.62
415.151	84.62
415.374	74.62
415.597	84.62
415.821	90.62
416.044	84.62
416.267	83.62
416.49	71.62
416.713	80.62
416.936	76.62
417.159	89.62
417.382	74.62
417.605	80.62
417.828	99.62
418.051	82.62
418.274	74.62
418.497	93.62
418.72	81.62
418.943	88.62
419.166	80.62
419.389	91.62
419.611	99.62
419.834	76.62
420.057	84.62
420.28	86.62
420.503	80.62
420.726	74.62
420.948	88.62
421.171	84.62
421.394	95.62
421.617	79.62
421.839	83.62
422.062	83.62
422.285	99.62
422.507	110.62
422.73	147.62
422.953	130.62
423.175	105.62
423.398	97.62
423.621	82.62
423.843	82.62
424.066	86.62
424.288	92.62
424.511	90.62
424.733	100.62
424.956	75.62
425.178	86.62
425.401	82.62
425.623	68.62
425.846	77.62
426.068	78.62
426.291	86.62
426.513	84.62
426.735	78.62
426.958	80.62
427.18	96.62
427.402	88.62
427.625	93.62
427.847	86.62
428.069	83.62
428.292	96.62
428.514	76.62
428.736	84.62
428.958	94.62
429.181	90.62
429.403	82.62
429.625	88.62
429.847	85.62
430.069	78.62
430.292	110.62
430.514	109.62
430.736	91.62
430.958	97.62
431.18	77.62
431.402	84.62
431.624	84.62
431.846	83.62
432.068	103.62
432.29	80.62
432.512	84.62
432.734	94.62
432.956	95.62
433.178	83.62
433.4	97.62
433.622	96.62
433.844	67.62
434.066	86.62
434.287	83.62
434.509	84.62
434.731	85.62
434.953	92.62
435.175	83.62
435.397	83.62
435.618	76.62
435.84	89.62
436.062	80.62
436.284	78.62
436.505	71.62
436.727	80.62
436.949	79.62
437.17	87.62
437.392	75.62
437.614	81.62
437.835	87.62
438.057	90.62
438.278	77.62
438.5	90.62
438.721	78.62
438.943	84.62
439.165	67.62
439.386	86.62
439.608	74.62
439.829	93.62
440.05	98.62
440.272	74.62
440.493	80.62
440.715	69.62
440.936	95.62
441.158	79.62
441.379	106.62
441.6	94.62
441.822	71.62
442.043	86.62
442.264	88.62
442.486	94.62
442.707	99.62
442.928	94.62
443.149	85.62
443.371	102.62
443.592	105.62
443.813	103.62
444.034	100.62
444.255	70.62
444.476	85.62
444.698	76.62
444.919	92.62
445.14	175.62
445.361	138.62
445.582	132.62
445.803	105.62
446.024	97.62
446.245	88.62
446.466	95.62
446.687	70.62
446.908	90.62
447.129	86.62
447.35	86.62
447.571	94.62
447.792	70.62
448.013	70.62
448.234	85.62
448.455	91.62
448.675	92.62
448.896	84.62
449.117	82.62
449.338	89.62
449.559	88.62
449.779	85.62
450	86.62
450.221	84.62
450.442	80.62
450.662	76.62
450.883	88.62
451.104	80.62
451.324	96.62
451.545	90.62
451.766	90.62
451.986	99.62
452.207	81.62
452.428	75.62
452.648	88.62
452.869	79.62
453.089	95.62
453.31	84.62
453.53	88.62
453.751	86.62
453.971	81.62
454.192	81.62
454.412	81.62
454.633	84.62
454.853	92.62
455.073	66.62
455.294	68.62
455.514	81.62
455.734	89.62
455.955	83.62
456.175	71.62
456.395	88.62
456.616	69.62
456.836	83.62
457.056	84.62
457.276	81.62
457.497	77.62
457.717	86.62
457.937	59.62
458.157	94.62
458.377	87.62
458.598	88.62
458.818	91.62
459.038	99.62
459.258	95.62
459.478	74.62
459.698	74.62
459.918	88.62
460.138	71.62
460.358	97.62
460.578	92.62
460.798	71.62
461.018	82.62
461.238	94.62
461.458	81.62
461.678	84.62
461.898	79.62
462.118	92.62
462.338	84.62
462.558	87.62
462.777	86.62
462.997	88.62
463.217	80.62
463.437	89.62
463.657	86.62
463.876	87.62
464.096	78.62
464.316	98.62
464.536	72.62
464.755	84.62
464.975	97.62
465.195	83.62
465.414	85.62
465.634	84.62
465.854	81.62
466.073	87.62
466.293	95.62
466.512	76.62
466.732	77.62
466.951	80.62
467.171	78.62
467.391	82.62
467.61	94.62
467.829	78.62
468.049	82.62
468.268	89.62
468.488	69.62
468.707	82.62
468.927	76.62
469.146	92.62
469.365	102.62
469.585	104.62
469.804	90.62
470.023	83.62
470.243	76.62
470.462	66.62
470.681	85.62
470.901	82.62
471.12	75.62
471.339	80.62
471.558	78.62
471.777	65.62
471.997	74.62
472.216	98.62
472.435	77.62
472.654	84.62
472.873	86.62
473.092	81.62
473.311	83.62
473.53	79.62
473.749	70.62
473.968	94.62
474.187	93.62
474.406	79.62
474.625	85.62
474.844	92.62
475.063	77.62
475.282	74.62
475.501	89.62
475.72	95.62
475.939	92.62
476.158	75.62
476.377	99.62
476.596	82.62
476.814	86.62
477.033	84.62
477.252	74.62
477.471	85.62
477.69	82.62
477.908	82.62
478.127	87.62
478.346	80.62
478.564	78.62
478.783	81.62
479.002	87.62
479.22	85.62
479.439	75.62
479.658	80.62
479.876	60.62
480.095	94.62
480.313	89.62
480.532	84.62
480.751	80.62
480.969	84.62
481.188	63.62
481.406	96.62
481.624	80.62
481.843	89.62
482.061	90.62
482.28	90.62
482.498	95.62
482.717	76.62
482.935	83.62
483.153	86.62
483.372	82.62
483.59	87.62
483.808	73.62
484.027	89.62
484.245	96.62
484.463	77.62
484.681	80.62
484.9	79.62
485.118	86.62
485.336	77.62
485.554	70.62
485.772	78.62
485.99	79.62
486.209	86.62
486.427	74.62
486.645	83.62
486.863	71.62
487.081	79.62
487.299	90.62
487.517	69.62
487.735	78.62
487.953	96.62
488.171	91.62
488.389	66.62
488.607	89.62
488.825	68.62
489.043	75.62
489.261	77.62
489.479	82.62
489.696	76.62
489.914	77.62
490.132	96.62
490.35	88.62
490.568	85.62
490.786	89.62
491.003	91.62
491.221	79.62
491.439	73.62
491.657	87.62
491.874	90.62
492.092	81.62
492.31	76.62
492.527	75.62
492.745	67.62
492.963	79.62
493.18	82.62
493.398	96.62
493.615	84.62
493.833	87.62
494.05	75.62
494.268	80.62
494.485	96.62
494.703	98.62
494.92	79.62
495.138	84.62
495.355	88.62
495.573	108.62
495.79	74.62
496.008	91.62
496.225	89.62
496.442	91.62
496.66	87.62
496.877	80.62
497.094	97.62
497.312	82.62
497.529	82.62
497.746	83.62
497.963	74.62
498.181	73.62
498.398	97.62
498.615	85.62
498.832	74.62
499.049	88.62
499.267	94.62
499.484	84.62
499.701	92.62
499.918	84.62
500.135	106.62
500.352	96.62
500.569	70.62
500.786	83.62
501.003	90.62
501.22	88.62
501.437	91.62
501.654	78.62
501.871	66.62
502.088	82.62
502.305	92.62
502.522	87.62
502.739	89.62
502.956	86.62
503.172	92.62
503.389	83.62
503.606	87.62
503.823	87.62
504.04	94.62
504.256	80.62
504.473	94.62
504.69	87.62
504.907	102.62
505.123	70.62
505.34	72.62
505.557	92.62
505.773	92.62
505.99	80.62
506.207	82.62
506.423	76.62
506.64	86.62
506.856	69.62
507.073	72.62
507.289	86.62
507.506	73.62
507.722	91.62
507.939	84.62
508.155	71.62
508.372	80.62
508.588	82.62
508.805	92.62
509.021	79.62
509.238	87.62
509.454	82.62
509.67	80.62
509.887	71.62
510.103	75.62
510.319	103.62
510.536	94.62
510.752	80.62
510.968	86.62
511.184	94.62
511.401	75.62
511.617	79.62
511.833	89.62
512.049	90.62
512.265	71.62
512.481	94.62
512.698	87.62
512.914	87.62
513.13	89.62
513.346	78.62
513.562	87.62
513.778	99.62
513.994	95.62
514.21	96.62
514.426	91.62
514.642	86.62
514.858	80.62
515.074	87.62
515.29	88.62
515.506	78.62
515.721	92.62
515.937	76.62
516.153	100.62
516.369	94.62
516.585	88.62
516.801	99.62
517.016	91.62
517.232	91.62
517.448	76.62
517.664	91.62
517.879	84.62
518.095	85.62
518.311	74.62
518.527	88.62
518.742	90.62
518.958	90.62
519.173	99.62
519.389	91.62
519.605	78.62
519.82	73.62
520.036	78.62
520.251	71.62
520.467	82.62
520.682	76.62
520.898	89.62
521.113	93.62
521.329	84.62
521.544	90.62
521.76	77.62
521.975	83.62
522.19	88.62
522.406	80.62
522.621	91.62
522.836	82.62
523.052	95.62
523.267	87.62
523.482	89.62
523.698	77.62
523.913	101.62
524.128	96.62
524.343	83.62
524.559	91.62
524.774	92.62
524.989	74.62
525.204	90.62
525.419	87.62
525.634	83.62
525.849	84.62
526.064	85.62
526.28	95.62
526.495	123.62
526.71	108.62
526.925	104.62
527.14	113.62
527.355	102.62
527.57	72.62
527.785	78.62
527.999	80.62
528.214	94.62
528.429	100.62
528.644	84.62
528.859	82.62
529.074	82.62
529.289	90.62
529.503	81.62
529.718	75.62
529.933	80.62
530.148	100.62
530.363	90.62
530.577	87.62
530.792	94.62
531.007	83.62
531.221	67.62
531.436	94.62
531.651	95.62
531.865	80.62
532.08	84.62
532.295	87.62
532.509	84.62
532.724	92.62
532.938	77.62
533.153	89.62
533.367	74.62
533.582	90.62
533.796	90.62
534.011	100.62
534.225	88.62
534.44	93.62
534.654	84.62
534.868	88.62
535.083	109.62
535.297	96.62
535.511	95.62
535.726	80.62
535.94	103.62
536.154	70.62
536.369	96.62
536.583	94.62
536.797	89.62
537.011	84.62
537.225	76.62
537.44	79.62
537.654	98.62
537.868	94.62
538.082	92.62
538.296	90.62
538.51	93.62
538.724	96.62
538.938	89.62
539.153	81.62
539.367	94.62
539.581	87.62
539.795	84.62
540.009	97.62
540.222	90.62
540.436	81.62
540.65	91.62
540.864	93.62
541.078	74.62
541.292	84.62
541.506	98.62
541.72	96.62
541.934	84.62
542.147	83.62
542.361	101.62
542.575	88.62
542.789	90.62
543.002	87.62
543.216	98.62
543.43	91.62
543.644	87.62
543.857	87.62
544.071	93.62
544.285	107.62
544.498	84.62
544.712	86.62
544.925	88.62
545.139	89.62
545.352	91.62
545.566	92.62
545.779	80.62
545.993	90.62
546.206	82.62
546.42	89.62
546.633	90.62
546.847	91.62
547.06	85.62
547.274	88.62
547.487	103.62
547.7	88.62
547.914	96.62
548.127	92.62
548.34	90.62
548.554	119.62
548.767	93.62
548.98	102.62
549.193	110.62
549.407	97.62
549.62	102.62
549.833	110.62
550.046	121.62
550.259	108.62
550.473	94.62
550.686	102.62
550.899	98.62
551.112	101.62
551.325	87.62
551.538	116.62
551.751	117.62
551.964	115.62
552.177	116.62
552.39	105.62
552.603	108.62
552.816	107.62
553.029	99.62
553.242	106.62
553.455	116.62
553.667	121.62
553.88	129.62
554.093	120.62
554.306	106.62
554.519	128.62
554.732	119.62
554.944	116.62
555.157	112.62
555.37	102.62
555.583	119.62
555.795	91.62
556.008	84.62
556.221	97.62
556.433	120.62
556.646	95.62
556.859	90.62
557.071	89.62
557.284	96.62
557.496	82.62
557.709	82.62
557.921	96.62
558.134	103.62
558.346	114.62
558.559	106.62
558.771	96.62
558.984	129.62
559.196	139.62
559.409	93.62
559.621	116.62
559.833	110.62
560.046	114.62
560.258	117.62
560.47	114.62
560.683	87.62
560.895	84.62
561.107	86.62
561.32	77.62
561.532	94.62
561.744	100.62
561.956	77.62
562.168	91.62
562.381	77.62
562.593	80.62
562.805	92.62
563.017	81.62
563.229	96.62
563.441	92.62
563.653	87.62
563.865	93.62
564.077	99.62
564.289	80.62
564.501	80.62
564.713	95.62
564.925	77.62
565.137	80.62
565.349	97.62
565.561	95.62
565.773	80.62
565.985	102.62
566.197	94.62
566.408	99.62
566.62	89.62
566.832	73.62
567.044	95.62
567.255	78.62
567.467	94.62
567.679	96.62
567.891	94.62
568.102	85.62
568.314	68.62
568.526	89.62
568.737	90.62
568.949	87.62
569.161	87.62
569.372	79.62
569.584	95.62
569.795	88.62
570.007	80.62
570.218	85.62
570.43	98.62
570.641	91.62
570.853	88.62
571.064	90.62
571.276	94.62
571.487	93.62
571.698	86.62
571.91	91.62
572.121	75.62
572.333	86.62
572.544	91.62
572.755	84.62
572.966	90.62
573.178	99.62
573.389	95.62
573.6	90.62
573.811	102.62
574.023	80.62
574.234	83.62
574.445	74.62
574.656	82.62
574.867	85.62
575.078	82.62
575.289	91.62
575.501	86.62
575.712	82.62
575.923	87.62
576.134	88.62
576.345	87.62
576.556	95.62
576.767	98.62
576.978	80.62
577.188	90.62
577.399	82.62
577.61	103.62
577.821	93.62
578.032	92.62
578.243	99.62
578.454	85.62
578.665	84.62
578.875	72.62
579.086	92.62
579.297	84.62
579.508	94.62
579.718	92.62
579.929	95.62
580.14	74.62
580.35	86.62
580.561	94.62
580.772	84.62
580.982	80.62
581.193	90.62
581.403	86.62
581.614	83.62
581.825	76.62
582.035	80.62
582.246	100.62
582.456	100.62
582.667	90.62
582.877	74.62
583.087	82.62
583.298	68.62
583.508	85.62
583.719	90.62
583.929	95.62
584.139	75.62
584.35	88.62
584.56	94.62
584.77	87.62
584.981	83.62
585.191	82.62
585.401	88.62
585.611	90.62
585.821	98.62
586.032	116.62
586.242	85.62
586.452	94.62
586.662	85.62
586.872	96.62
587.082	102.62
587.292	83.62
587.502	88.62
587.713	78.62
587.923	100.62
588.133	92.62
588.343	100.62
588.553	90.62
588.762	91.62
588.972	111.62
589.182	192.62
589.392	163.62
589.602	113.62
589.812	176.62
590.022	111.62
590.232	98.62
590.441	89.62
590.651	96.62
590.861	96.62
591.071	89.62
591.281	96.62
591.49	88.62
591.7	88.62
591.91	97.62
592.119	83.62
592.329	84.62
592.539	90.62
592.748	100.62
592.958	78.62
593.167	86.62
593.377	90.62
593.587	100.62
593.796	102.62
594.006	86.62
594.215	88.62
594.424	99.62
594.634	83.62
594.843	96.62
595.053	100.62
595.262	84.62
595.472	83.62
595.681	96.62
595.89	110.62
596.1	106.62
596.309	92.62
596.518	92.62
596.727	105.62
596.937	94.62
597.146	97.62
597.355	97.62
597.564	95.62
597.774	102.62
597.983	114.62
598.192	112.62
598.401	103.62
598.61	105.62
598.819	95.62
599.028	115.62
599.237	110.62
599.446	97.62
599.655	105.62
599.864	106.62
600.073	92.62
600.282	114.62
600.491	111.62
600.7	114.62
600.909	106.62
601.118	84.62
601.327	103.62
601.536	97.62
601.745	107.62
601.953	93.62
602.162	83.62
602.371	104.62
602.58	95.62
602.789	106.62
602.997	98.62
603.206	104.62
603.415	109.62
603.623	116.62
603.832	103.62
604.041	93.62
604.249	99.62
604.458	119.62
604.666	117.62
604.875	104.62
605.084	87.62
605.292	103.62
605.501	121.62
605.709	106.62
605.918	116.62
606.126	107.62
606.334	97.62
606.543	98.62
606.751	99.62
606.96	114.62
607.168	97.62
607.376	106.62
607.585	114.62
607.793	101.62
608.001	108.62
608.21	114.62
608.418	110.62
608.626	106.62
608.834	105.62
609.043	111.62
609.251	94.62
609.459	89.62
609.667	98.62
609.875	116.62
610.083	110.62
610.291	104.62
610.499	126.62
610.707	123.62
610.916	104.62
611.124	112.62
611.332	95.62
611.54	121.62
611.748	102.62
611.955	102.62
612.163	113.62
612.371	143.62
612.579	104.62
612.787	107.62
612.995	109.62
613.203	100.62
613.411	103.62
613.618	99.62
613.826	104.62
614.034	93.62
614.242	111.62
614.449	107.62
614.657	110.62
614.865	108.62
615.072	103.62
615.28	111.62
615.488	110.62
615.695	94.62
615.903	98.62
616.111	119.62
616.318	123.62
616.526	148.62
616.733	115.62
616.941	111.62
617.148	122.62
617.356	115.62
617.563	106.62
617.771	103.62
617.978	118.62
618.185	98.62
618.393	104.62
618.6	112.62
618.807	98.62
619.015	117.62
619.222	107.62
619.429	106.62
619.637	101.62
619.844	112.62
620.051	99.62
620.258	91.62
620.466	98.62
620.673	98.62
620.88	110.62
621.087	114.62
621.294	112.62
621.501	94.62
621.708	94.62
621.915	106.62
622.122	102.62
622.329	101.62
622.536	111.62
622.743	110.62
622.95	115.62
623.157	106.62
623.364	102.62
623.571	100.62
623.778	99.62
623.985	105.62
624.192	105.62
624.399	97.62
624.606	106.62
624.812	99.62
625.019	109.62
625.226	109.62
625.433	92.62
625.639	88.62
625.846	90.62
626.053	102.62
626.259	100.62
626.466	90.62
626.673	95.62
626.879	99.62
627.086	102.62
627.293	88.62
627.499	87.62
627.706	86.62
627.912	86.62
628.119	84.62
628.325	98.62
628.532	87.62
628.738	102.62
628.945	78.62
629.151	87.62
629.357	87.62
629.564	102.62
629.77	85.62
629.976	74.62
630.183	80.62
630.389	92.62
630.595	98.62
630.802	87.62
631.008	100.62
631.214	80.62
631.42	88.62
631.627	101.62
631.833	88.62
632.039	92.62
632.245	94.62
632.451	96.62
632.657	85.62
632.863	94.62
633.069	84.62
633.275	90.62
633.481	78.62
633.688	73.62
633.893	86.62
634.099	97.62
634.305	98.62
634.511	91.62
634.717	88.62
634.923	83.62
635.129	80.62
635.335	90.62
635.541	77.62
635.747	98.62
635.952	92.62
636.158	86.62
636.364	100.62
636.57	86.62
636.775	98.62
636.981	89.62
637.187	74.62
637.392	100.62
637.598	86.62
637.804	90.62
638.009	88.62
638.215	79.62
638.421	87.62
638.626	83.62
638.832	99.62
639.037	79.62
639.243	83.62
639.448	87.62
639.654	104.62
639.859	83.62
640.065	90.62
640.27	89.62
640.475	83.62
640.681	83.62
640.886	77.62
641.091	99.62
641.297	104.62
641.502	102.62
641.707	81.62
641.913	101.62
642.118	94.62
642.323	84.62
642.528	79.62
642.733	80.62
642.939	86.62
643.144	94.62
643.349	84.62
643.554	88.62
643.759	83.62
643.964	86.62
644.169	97.62
644.374	99.62
644.579	86.62
644.784	88.62
644.989	91.62
645.194	97.62
645.399	89.62
645.604	80.62
645.809	98.62
646.014	88.62
646.219	103.62
646.423	110.62
646.628	88.62
646.833	80.62
647.038	100.62
647.243	88.62
647.447	92.62
647.652	84.62
647.857	76.62
648.062	90.62
648.266	91.62
648.471	81.62
648.676	74.62
648.88	84.62
649.085	78.62
649.289	84.62
649.494	88.62
649.698	93.62
649.903	88.62
650.107	79.62
650.312	86.62
650.516	88.62
650.721	82.62
650.925	83.62
651.13	107.62
651.334	95.62
651.539	86.62
651.743	90.62
651.947	91.62
652.152	89.62
652.356	90.62
652.56	83.62
652.764	88.62
652.969	87.62
653.173	87.62
653.377	99.62
653.581	76.62
653.785	82.62
653.99	87.62
654.194	80.62
654.398	98.62
654.602	76.62
654.806	90.62
655.01	71.62
655.214	94.62
655.418	91.62
655.622	94.62
655.826	87.62
656.03	91.62
656.234	99.62
656.438	96.62
656.642	84.62
656.846	87.62
657.049	90.62
657.253	87.62
657.457	72.62
657.661	84.62
657.865	94.62
658.068	68.62
658.272	82.62
658.476	78.62
658.68	76.62
658.883	87.62
659.087	87.62
659.291	84.62
659.494	88.62
659.698	99.62
659.901	92.62
660.105	98.62
660.309	92.62
660.512	94.62
660.716	96.62
660.919	81.62
661.123	68.62
661.326	78.62
661.53	81.62
661.733	88.62
661.936	98.62
662.14	84.62
662.343	70.62
662.546	76.62
662.75	70.62
662.953	106.62
663.156	97.62
663.36	98.62
663.563	107.62
663.766	98.62
663.969	86.62
664.173	84.62
664.376	78.62
664.579	87.62
664.782	80.62
664.985	86.62
665.188	72.62
665.391	78.62
665.594	73.62
665.797	91.62
666	89.62
666.203	85.62
666.406	69.62
666.609	80.62
666.812	99.62
667.015	80.62
667.218	80.62
667.421	92.62
667.624	79.62
667.827	91.62
668.03	91.62
668.232	88.62
668.435	88.62
668.638	87.62
668.841	98.62
669.043	83.62
669.246	88.62
669.449	95.62
669.651	100.62
669.854	89.62
670.057	76.62
670.259	77.62
670.462	90.62
670.665	75.62
670.867	82.62
671.07	84.62
671.272	91.62
671.475	84.62
671.677	87.62
671.88	75.62
672.082	77.62
672.284	86.62
672.487	76.62
672.689	81.62
672.892	85.62
