Data from Circ_1990_H10_HRD10591_00018.txt Node
Date: Wed Jan 03 11:55:07 EST 2024
User: Yrep
Spectrometer: HR+D1059
Trigger mode: 1
Integration Time (sec): 1.000000E-1
Scans to average: 1
Electric dark correction enabled: true
Nonlinearity correction enabled: false
Boxcar width: 0
XAxis mode: Wavelengths
Number of Pixels in Spectrum: 2048
>>>>>Begin Spectral Data<<<<<
223.165	-5.12
223.4	-5.12
223.635	-5.12
223.869	-20.12
224.104	-19.12
224.338	-16.12
224.573	-10.12
224.808	-13.12
225.042	-20.12
225.277	-17.12
225.511	6.88
225.746	4.88
225.98	6.88
226.215	16.88
226.449	14.88
226.683	27.88
226.918	22.88
227.152	19.88
227.387	35.88
227.621	38.88
227.856	42.88
228.09	52.88
228.324	39.88
228.559	63.88
228.793	62.88
229.027	66.88
229.262	53.88
229.496	66.88
229.73	66.88
229.964	87.88
230.199	59.88
230.433	72.88
230.667	55.88
230.901	53.88
231.136	70.88
231.37	69.88
231.604	87.88
231.838	90.88
232.072	84.88
232.306	64.88
232.541	61.88
232.775	84.88
233.009	74.88
233.243	90.88
233.477	74.88
233.711	68.88
233.945	79.88
234.179	81.88
234.413	75.88
234.647	87.88
234.881	75.88
235.115	64.88
235.349	82.88
235.583	61.88
235.817	78.88
236.051	80.88
236.285	90.88
236.519	90.88
236.753	76.88
236.987	86.88
237.221	88.88
237.455	81.88
237.689	74.88
237.922	71.88
238.156	87.88
238.39	61.88
238.624	85.88
238.858	78.88
239.091	74.88
239.325	58.88
239.559	88.88
239.793	71.88
240.027	70.88
240.26	86.88
240.494	79.88
240.728	72.88
240.961	88.88
241.195	56.88
241.429	70.88
241.662	63.88
241.896	66.88
242.13	80.88
242.363	66.88
242.597	80.88
242.83	92.88
243.064	71.88
243.298	55.88
243.531	63.88
243.765	84.88
243.998	64.88
244.232	82.88
244.465	70.88
244.699	84.88
244.932	74.88
245.166	73.88
245.399	56.88
245.633	73.88
245.866	75.88
246.099	74.88
246.333	75.88
246.566	75.88
246.8	80.88
247.033	63.88
247.266	70.88
247.5	57.88
247.733	81.88
247.966	79.88
248.2	84.88
248.433	74.88
248.666	74.88
248.899	88.88
249.133	81.88
249.366	78.88
249.599	84.88
249.832	70.88
250.066	76.88
250.299	65.88
250.532	57.88
250.765	73.88
250.998	76.88
251.231	78.88
251.465	80.88
251.698	88.88
251.931	64.88
252.164	78.88
252.397	58.88
252.63	73.88
252.863	78.88
253.096	82.88
253.329	72.88
253.562	76.88
253.795	62.88
254.028	65.88
254.261	86.88
254.494	82.88
254.727	78.88
254.96	86.88
255.193	84.88
255.426	59.88
255.659	72.88
255.892	78.88
256.124	56.88
256.357	104.88
256.59	70.88
256.823	63.88
257.056	76.88
257.289	81.88
257.521	67.88
257.754	81.88
257.987	64.88
258.22	76.88
258.452	76.88
258.685	79.88
258.918	67.88
259.151	80.88
259.383	72.88
259.616	54.88
259.849	79.88
260.081	89.88
260.314	75.88
260.547	72.88
260.779	70.88
261.012	65.88
261.244	79.88
261.477	75.88
261.71	70.88
261.942	89.88
262.175	96.88
262.407	74.88
262.64	88.88
262.872	87.88
263.105	71.88
263.337	82.88
263.57	77.88
263.802	71.88
264.035	84.88
264.267	73.88
264.499	76.88
264.732	71.88
264.964	82.88
265.197	74.88
265.429	86.88
265.661	67.88
265.894	81.88
266.126	91.88
266.358	90.88
266.591	78.88
266.823	71.88
267.055	56.88
267.287	68.88
267.52	76.88
267.752	85.88
267.984	62.88
268.216	75.88
268.448	81.88
268.681	82.88
268.913	82.88
269.145	66.88
269.377	70.88
269.609	84.88
269.841	80.88
270.073	80.88
270.306	81.88
270.538	84.88
270.77	79.88
271.002	85.88
271.234	95.88
271.466	78.88
271.698	87.88
271.93	92.88
272.162	82.88
272.394	88.88
272.626	81.88
272.858	67.88
273.09	90.88
273.322	86.88
273.553	86.88
273.785	77.88
274.017	74.88
274.249	78.88
274.481	81.88
274.713	83.88
274.945	94.88
275.176	74.88
275.408	85.88
275.64	91.88
275.872	72.88
276.104	69.88
276.335	77.88
276.567	91.88
276.799	107.88
277.031	104.88
277.262	93.88
277.494	95.88
277.726	89.88
277.957	88.88
278.189	96.88
278.421	70.88
278.652	91.88
278.884	90.88
279.115	73.88
279.347	76.88
279.579	87.88
279.81	86.88
280.042	94.88
280.273	103.88
280.505	87.88
280.736	75.88
280.968	86.88
281.199	86.88
281.431	91.88
281.662	82.88
281.894	87.88
282.125	80.88
282.356	103.88
282.588	113.88
282.819	106.88
283.051	88.88
283.282	88.88
283.513	99.88
283.745	74.88
283.976	75.88
284.207	78.88
284.439	94.88
284.67	79.88
284.901	62.88
285.132	86.88
285.364	75.88
285.595	76.88
285.826	81.88
286.057	88.88
286.288	74.88
286.52	87.88
286.751	75.88
286.982	88.88
287.213	86.88
287.444	91.88
287.675	84.88
287.906	90.88
288.138	93.88
288.369	97.88
288.6	84.88
288.831	79.88
289.062	93.88
289.293	90.88
289.524	81.88
289.755	92.88
289.986	99.88
290.217	78.88
290.448	81.88
290.679	88.88
290.91	80.88
291.141	83.88
291.371	85.88
291.602	75.88
291.833	84.88
292.064	79.88
292.295	83.88
292.526	67.88
292.757	81.88
292.987	89.88
293.218	74.88
293.449	83.88
293.68	70.88
293.91	82.88
294.141	84.88
294.372	91.88
294.603	86.88
294.833	82.88
295.064	88.88
295.295	83.88
295.525	93.88
295.756	98.88
295.987	106.88
296.217	104.88
296.448	113.88
296.679	81.88
296.909	91.88
297.14	82.88
297.37	84.88
297.601	72.88
297.831	94.88
298.062	75.88
298.292	92.88
298.523	68.88
298.753	95.88
298.984	72.88
299.214	77.88
299.445	83.88
299.675	80.88
299.905	89.88
300.136	87.88
300.366	65.88
300.597	87.88
300.827	81.88
301.057	85.88
301.288	95.88
301.518	87.88
301.748	73.88
301.979	92.88
302.209	84.88
302.439	90.88
302.669	84.88
302.9	85.88
303.13	84.88
303.36	104.88
303.59	97.88
303.82	80.88
304.051	81.88
304.281	82.88
304.511	80.88
304.741	83.88
304.971	93.88
305.201	86.88
305.431	92.88
305.661	89.88
305.891	77.88
306.121	96.88
306.352	79.88
306.582	84.88
306.812	93.88
307.042	84.88
307.272	100.88
307.502	87.88
307.731	92.88
307.961	100.88
308.191	97.88
308.421	87.88
308.651	80.88
308.881	89.88
309.111	99.88
309.341	97.88
309.571	96.88
309.8	87.88
310.03	89.88
310.26	82.88
310.49	88.88
310.72	78.88
310.949	102.88
311.179	95.88
311.409	90.88
311.639	81.88
311.868	83.88
312.098	84.88
312.328	87.88
312.557	107.88
312.787	92.88
313.017	100.88
313.246	114.88
313.476	85.88
313.706	82.88
313.935	98.88
314.165	84.88
314.394	85.88
314.624	87.88
314.853	91.88
315.083	101.88
315.312	84.88
315.542	88.88
315.771	79.88
316.001	91.88
316.23	90.88
316.46	82.88
316.689	78.88
316.919	86.88
317.148	88.88
317.377	95.88
317.607	94.88
317.836	91.88
318.065	91.88
318.295	91.88
318.524	76.88
318.753	89.88
318.983	81.88
319.212	101.88
319.441	95.88
319.67	106.88
319.9	94.88
320.129	96.88
320.358	92.88
320.587	95.88
320.816	86.88
321.046	82.88
321.275	90.88
321.504	90.88
321.733	76.88
321.962	88.88
322.191	105.88
322.42	100.88
322.649	110.88
322.878	91.88
323.108	106.88
323.337	121.88
323.566	140.88
323.795	149.88
324.024	180.88
324.253	294.88
324.482	646.88
324.71	1286.88
324.939	1722.88
325.168	654.88
325.397	207.88
325.626	125.88
325.855	104.88
326.084	111.88
326.313	115.88
326.542	129.88
326.77	194.88
326.999	352.88
327.228	711.88
327.457	1352.88
327.686	1062.88
327.914	310.88
328.143	194.88
328.372	171.88
328.6	125.88
328.829	112.88
329.058	107.88
329.287	111.88
329.515	114.88
329.744	107.88
329.972	119.88
330.201	160.88
330.43	201.88
330.658	150.88
330.887	119.88
331.115	117.88
331.344	96.88
331.572	111.88
331.801	94.88
332.03	100.88
332.258	90.88
332.486	107.88
332.715	95.88
332.943	86.88
333.172	104.88
333.4	94.88
333.629	93.88
333.857	119.88
334.085	123.88
334.314	151.88
334.542	231.88
334.771	236.88
334.999	117.88
335.227	86.88
335.455	91.88
335.684	91.88
335.912	102.88
336.14	85.88
336.369	90.88
336.597	78.88
336.825	68.88
337.053	94.88
337.281	83.88
337.51	80.88
337.738	84.88
337.966	82.88
338.194	82.88
338.422	93.88
338.65	87.88
338.878	94.88
339.106	83.88
339.334	88.88
339.562	77.88
339.79	90.88
340.018	86.88
340.246	81.88
340.474	102.88
340.702	95.88
340.93	99.88
341.158	80.88
341.386	87.88
341.614	102.88
341.842	102.88
342.07	86.88
342.298	84.88
342.526	91.88
342.754	102.88
342.981	87.88
343.209	92.88
343.437	103.88
343.665	81.88
343.893	89.88
344.12	96.88
344.348	86.88
344.576	97.88
344.804	89.88
345.031	88.88
345.259	96.88
345.487	88.88
345.714	112.88
345.942	96.88
346.17	83.88
346.397	77.88
346.625	81.88
346.853	87.88
347.08	77.88
347.308	90.88
347.535	87.88
347.763	86.88
347.99	101.88
348.218	92.88
348.445	102.88
348.673	100.88
348.9	90.88
349.128	78.88
349.355	88.88
349.583	79.88
349.81	89.88
350.037	87.88
350.265	100.88
350.492	95.88
350.72	82.88
350.947	81.88
351.174	105.88
351.402	97.88
351.629	98.88
351.856	96.88
352.083	108.88
352.311	101.88
352.538	97.88
352.765	81.88
352.992	101.88
353.22	95.88
353.447	95.88
353.674	89.88
353.901	104.88
354.128	91.88
354.355	92.88
354.583	74.88
354.81	98.88
355.037	99.88
355.264	97.88
355.491	93.88
355.718	99.88
355.945	97.88
356.172	92.88
356.399	90.88
356.626	102.88
356.853	104.88
357.08	87.88
357.307	97.88
357.534	99.88
357.761	111.88
357.988	102.88
358.215	123.88
358.441	99.88
358.668	96.88
358.895	80.88
359.122	80.88
359.349	97.88
359.576	99.88
359.802	88.88
360.029	95.88
360.256	95.88
360.483	91.88
360.709	89.88
360.936	92.88
361.163	78.88
361.39	75.88
361.616	91.88
361.843	91.88
362.07	86.88
362.296	79.88
362.523	97.88
362.749	79.88
362.976	80.88
363.203	84.88
363.429	84.88
363.656	92.88
363.882	81.88
364.109	92.88
364.335	82.88
364.562	75.88
364.788	87.88
365.015	82.88
365.241	96.88
365.468	117.88
365.694	101.88
365.92	97.88
366.147	82.88
366.373	91.88
366.599	80.88
366.826	66.88
367.052	80.88
367.278	99.88
367.505	86.88
367.731	74.88
367.957	77.88
368.184	92.88
368.41	92.88
368.636	86.88
368.862	105.88
369.089	99.88
369.315	101.88
369.541	95.88
369.767	89.88
369.993	90.88
370.219	97.88
370.445	85.88
370.672	90.88
370.898	86.88
371.124	86.88
371.35	83.88
371.576	95.88
371.802	84.88
372.028	86.88
372.254	92.88
372.48	75.88
372.706	77.88
372.932	91.88
373.158	87.88
373.384	99.88
373.61	79.88
373.835	87.88
374.061	87.88
374.287	97.88
374.513	89.88
374.739	100.88
374.965	87.88
375.191	89.88
375.416	98.88
375.642	95.88
375.868	93.88
376.094	101.88
376.319	79.88
376.545	84.88
376.771	89.88
376.997	93.88
377.222	85.88
377.448	96.88
377.674	86.88
377.899	90.88
378.125	88.88
378.35	93.88
378.576	88.88
378.802	91.88
379.027	91.88
379.253	102.88
379.478	97.88
379.704	107.88
379.929	100.88
380.155	101.88
380.38	98.88
380.606	108.88
380.831	102.88
381.057	97.88
381.282	103.88
381.507	97.88
381.733	106.88
381.958	99.88
382.184	90.88
382.409	124.88
382.634	100.88
382.86	118.88
383.085	116.88
383.31	111.88
383.535	122.88
383.761	126.88
383.986	116.88
384.211	112.88
384.436	125.88
384.662	120.88
384.887	132.88
385.112	129.88
385.337	134.88
385.562	134.88
385.787	129.88
386.013	135.88
386.238	136.88
386.463	128.88
386.688	124.88
386.913	113.88
387.138	148.88
387.363	132.88
387.588	121.88
387.813	130.88
388.038	147.88
388.263	157.88
388.488	138.88
388.713	105.88
388.938	82.88
389.163	80.88
389.387	100.88
389.612	97.88
389.837	80.88
390.062	88.88
390.287	93.88
390.512	92.88
390.736	82.88
390.961	82.88
391.186	92.88
391.411	87.88
391.636	88.88
391.86	81.88
392.085	89.88
392.31	78.88
392.534	82.88
392.759	81.88
392.984	80.88
393.208	86.88
393.433	82.88
393.658	106.88
393.882	78.88
394.107	75.88
394.331	74.88
394.556	88.88
394.78	87.88
395.005	84.88
395.229	77.88
395.454	93.88
395.678	69.88
395.903	92.88
396.127	72.88
396.352	95.88
396.576	80.88
396.801	93.88
397.025	87.88
397.249	79.88
397.474	74.88
397.698	77.88
397.922	78.88
398.147	80.88
398.371	73.88
398.595	75.88
398.82	91.88
399.044	81.88
399.268	88.88
399.492	68.88
399.717	80.88
399.941	77.88
400.165	82.88
400.389	89.88
400.613	97.88
400.837	89.88
401.062	95.88
401.286	79.88
401.51	91.88
401.734	98.88
401.958	100.88
402.182	106.88
402.406	136.88
402.63	110.88
402.854	85.88
403.078	71.88
403.302	92.88
403.526	91.88
403.75	88.88
403.974	84.88
404.198	80.88
404.422	91.88
404.645	91.88
404.869	73.88
405.093	97.88
405.317	116.88
405.541	89.88
405.765	88.88
405.988	105.88
406.212	143.88
406.436	181.88
406.66	134.88
406.883	98.88
407.107	101.88
407.331	96.88
407.555	89.88
407.778	92.88
408.002	75.88
408.226	98.88
408.449	88.88
408.673	76.88
408.896	85.88
409.12	90.88
409.344	93.88
409.567	98.88
409.791	91.88
410.014	80.88
410.238	81.88
410.461	102.88
410.685	97.88
410.908	86.88
411.132	99.88
411.355	94.88
411.578	84.88
411.802	78.88
412.025	89.88
412.249	98.88
412.472	84.88
412.695	111.88
412.919	100.88
413.142	91.88
413.365	67.88
413.589	82.88
413.812	84.88
414.035	92.88
414.258	84.88
414.482	86.88
414.705	83.88
414.928	107.88
415.151	89.88
415.374	90.88
415.597	94.88
415.821	92.88
416.044	97.88
416.267	86.88
416.49	88.88
416.713	86.88
416.936	94.88
417.159	83.88
417.382	83.88
417.605	95.88
417.828	106.88
418.051	95.88
418.274	88.88
418.497	92.88
418.72	92.88
418.943	93.88
419.166	87.88
419.389	90.88
419.611	84.88
419.834	80.88
420.057	90.88
420.28	87.88
420.503	85.88
420.726	88.88
420.948	86.88
421.171	111.88
421.394	99.88
421.617	95.88
421.839	92.88
422.062	87.88
422.285	89.88
422.507	91.88
422.73	85.88
422.953	90.88
423.175	87.88
423.398	84.88
423.621	78.88
423.843	89.88
424.066	92.88
424.288	89.88
424.511	88.88
424.733	104.88
424.956	95.88
425.178	71.88
425.401	110.88
425.623	87.88
425.846	79.88
426.068	90.88
426.291	83.88
426.513	81.88
426.735	77.88
426.958	80.88
427.18	95.88
427.402	117.88
427.625	130.88
427.847	118.88
428.069	127.88
428.292	85.88
428.514	82.88
428.736	63.88
428.958	86.88
429.181	81.88
429.403	74.88
429.625	92.88
429.847	87.88
430.069	87.88
430.292	77.88
430.514	87.88
430.736	84.88
430.958	90.88
431.18	89.88
431.402	96.88
431.624	88.88
431.846	86.88
432.068	69.88
432.29	81.88
432.512	82.88
432.734	59.88
432.956	79.88
433.178	90.88
433.4	91.88
433.622	88.88
433.844	82.88
434.066	95.88
434.287	82.88
434.509	77.88
434.731	82.88
434.953	84.88
435.175	79.88
435.397	88.88
435.618	94.88
435.84	104.88
436.062	100.88
436.284	104.88
436.505	90.88
436.727	98.88
436.949	87.88
437.17	85.88
437.392	89.88
437.614	79.88
437.835	89.88
438.057	105.88
438.278	109.88
438.5	104.88
438.721	116.88
438.943	104.88
439.165	75.88
439.386	84.88
439.608	84.88
439.829	100.88
440.05	100.88
440.272	117.88
440.493	90.88
440.715	74.88
440.936	82.88
441.158	77.88
441.379	86.88
441.6	83.88
441.822	95.88
442.043	94.88
442.264	104.88
442.486	89.88
442.707	84.88
442.928	88.88
443.149	112.88
443.371	114.88
443.592	109.88
443.813	95.88
444.034	104.88
444.255	96.88
444.476	79.88
444.698	92.88
444.919	75.88
445.14	134.88
445.361	126.88
445.582	102.88
445.803	116.88
446.024	107.88
446.245	102.88
446.466	108.88
446.687	81.88
446.908	89.88
447.129	81.88
447.35	95.88
447.571	97.88
447.792	93.88
448.013	91.88
448.234	94.88
448.455	82.88
448.675	93.88
448.896	109.88
449.117	99.88
449.338	104.88
449.559	121.88
449.779	133.88
450	94.88
450.221	70.88
450.442	85.88
450.662	78.88
450.883	85.88
451.104	94.88
451.324	92.88
451.545	87.88
451.766	65.88
451.986	88.88
452.207	89.88
452.428	88.88
452.648	96.88
452.869	96.88
453.089	97.88
453.31	98.88
453.53	80.88
453.751	86.88
453.971	83.88
454.192	102.88
454.412	86.88
454.633	76.88
454.853	97.88
455.073	80.88
455.294	84.88
455.514	90.88
455.734	85.88
455.955	91.88
456.175	101.88
456.395	80.88
456.616	68.88
456.836	82.88
457.056	86.88
457.276	79.88
457.497	77.88
457.717	91.88
457.937	86.88
458.157	83.88
458.377	91.88
458.598	99.88
458.818	119.88
459.038	129.88
459.258	97.88
459.478	78.88
459.698	80.88
459.918	77.88
460.138	66.88
460.358	86.88
460.578	78.88
460.798	78.88
461.018	90.88
461.238	67.88
461.458	81.88
461.678	88.88
461.898	76.88
462.118	92.88
462.338	76.88
462.558	86.88
462.777	79.88
462.997	94.88
463.217	72.88
463.437	87.88
463.657	86.88
463.876	72.88
464.096	84.88
464.316	84.88
464.536	92.88
464.755	94.88
464.975	99.88
465.195	140.88
465.414	148.88
465.634	85.88
465.854	89.88
466.073	91.88
466.293	79.88
466.512	82.88
466.732	80.88
466.951	89.88
467.171	89.88
467.391	79.88
467.61	84.88
467.829	105.88
468.049	125.88
468.268	144.88
468.488	98.88
468.707	88.88
468.927	88.88
469.146	89.88
469.365	74.88
469.585	86.88
469.804	98.88
470.023	84.88
470.243	81.88
470.462	88.88
470.681	98.88
470.901	91.88
471.12	83.88
471.339	89.88
471.558	92.88
471.777	91.88
471.997	85.88
472.216	179.88
472.435	294.88
472.654	119.88
472.873	109.88
473.092	92.88
473.311	84.88
473.53	78.88
473.749	98.88
473.968	94.88
474.187	82.88
474.406	89.88
474.625	76.88
474.844	73.88
475.063	84.88
475.282	82.88
475.501	78.88
475.72	75.88
475.939	89.88
476.158	87.88
476.377	92.88
476.596	80.88
476.814	82.88
477.033	85.88
477.252	89.88
477.471	94.88
477.69	81.88
477.908	76.88
478.127	85.88
478.346	82.88
478.564	84.88
478.783	87.88
479.002	85.88
479.22	88.88
479.439	98.88
479.658	74.88
479.876	76.88
480.095	84.88
480.313	78.88
480.532	95.88
480.751	97.88
480.969	183.88
481.188	481.88
481.406	306.88
481.624	97.88
481.843	87.88
482.061	84.88
482.28	84.88
482.498	64.88
482.717	75.88
482.935	97.88
483.153	93.88
483.372	84.88
483.59	78.88
483.808	83.88
484.027	92.88
484.245	89.88
484.463	76.88
484.681	94.88
484.9	97.88
485.118	103.88
485.336	100.88
485.554	90.88
485.772	105.88
485.99	103.88
486.209	104.88
486.427	116.88
486.645	98.88
486.863	102.88
487.081	97.88
487.299	88.88
487.517	96.88
487.735	82.88
487.953	96.88
488.171	97.88
488.389	91.88
488.607	87.88
488.825	86.88
489.043	74.88
489.261	73.88
489.479	73.88
489.696	95.88
489.914	87.88
490.132	88.88
490.35	90.88
490.568	74.88
490.786	88.88
491.003	88.88
491.221	81.88
491.439	92.88
491.657	97.88
491.874	93.88
492.092	86.88
492.31	88.88
492.527	92.88
492.745	93.88
492.963	97.88
493.18	75.88
493.398	78.88
493.615	91.88
493.833	74.88
494.05	97.88
494.268	84.88
494.485	100.88
494.703	66.88
494.92	84.88
495.138	73.88
495.355	81.88
495.573	78.88
495.79	76.88
496.008	91.88
496.225	86.88
496.442	78.88
496.66	110.88
496.877	99.88
497.094	90.88
497.312	86.88
497.529	92.88
497.746	82.88
497.963	92.88
498.181	79.88
498.398	85.88
498.615	108.88
498.832	91.88
499.049	86.88
499.267	84.88
499.484	71.88
499.701	90.88
499.918	83.88
500.135	85.88
500.352	89.88
500.569	79.88
500.786	80.88
501.003	84.88
501.22	88.88
501.437	66.88
501.654	82.88
501.871	100.88
502.088	91.88
502.305	92.88
502.522	82.88
502.739	72.88
502.956	84.88
503.172	82.88
503.389	83.88
503.606	90.88
503.823	101.88
504.04	86.88
504.256	85.88
504.473	78.88
504.69	94.88
504.907	81.88
505.123	77.88
505.34	90.88
505.557	89.88
505.773	78.88
505.99	101.88
506.207	82.88
506.423	78.88
506.64	89.88
506.856	82.88
507.073	84.88
507.289	100.88
507.506	94.88
507.722	107.88
507.939	93.88
508.155	88.88
508.372	81.88
508.588	102.88
508.805	94.88
509.021	84.88
509.238	90.88
509.454	101.88
509.67	84.88
509.887	111.88
510.103	112.88
510.319	179.88
510.536	610.88
510.752	1888.88
510.968	516.88
511.184	142.88
511.401	111.88
511.617	97.88
511.833	75.88
512.049	88.88
512.265	83.88
512.481	93.88
512.698	91.88
512.914	107.88
513.13	87.88
513.346	92.88
513.562	84.88
513.778	91.88
513.994	90.88
514.21	98.88
514.426	118.88
514.642	119.88
514.858	108.88
515.074	138.88
515.29	336.88
515.506	1123.88
515.721	439.88
515.937	120.88
516.153	96.88
516.369	87.88
516.585	80.88
516.801	90.88
517.016	99.88
517.232	88.88
517.448	87.88
517.664	101.88
517.879	81.88
518.095	96.88
518.311	99.88
518.527	94.88
518.742	76.88
518.958	100.88
519.173	88.88
519.389	98.88
519.605	92.88
519.82	94.88
520.036	92.88
520.251	105.88
520.467	109.88
520.682	92.88
520.898	97.88
521.113	98.88
521.329	108.88
521.544	173.88
521.76	435.88
521.975	1819.88
522.19	1103.88
522.406	248.88
522.621	110.88
522.836	101.88
523.052	102.88
523.267	102.88
523.482	75.88
523.698	90.88
523.913	103.88
524.128	81.88
524.343	100.88
524.559	87.88
524.774	86.88
524.989	84.88
525.204	96.88
525.419	91.88
525.634	100.88
525.849	78.88
526.064	88.88
526.28	82.88
526.495	75.88
526.71	74.88
526.925	82.88
527.14	80.88
527.355	82.88
527.57	89.88
527.785	83.88
527.999	78.88
528.214	91.88
528.429	92.88
528.644	83.88
528.859	83.88
529.074	70.88
529.289	95.88
529.503	149.88
529.718	107.88
529.933	91.88
530.148	94.88
530.363	98.88
530.577	86.88
530.792	84.88
531.007	82.88
531.221	70.88
531.436	80.88
531.651	87.88
531.865	82.88
532.08	84.88
532.295	79.88
532.509	95.88
532.724	95.88
532.938	100.88
533.153	94.88
533.367	84.88
533.582	87.88
533.796	95.88
534.011	86.88
534.225	95.88
534.44	83.88
534.654	91.88
534.868	88.88
535.083	83.88
535.297	99.88
535.511	84.88
535.726	88.88
535.94	85.88
536.154	90.88
536.369	78.88
536.583	100.88
536.797	94.88
537.011	77.88
537.225	89.88
537.44	75.88
537.654	87.88
537.868	109.88
538.082	84.88
538.296	97.88
538.51	81.88
538.724	83.88
538.938	84.88
539.153	94.88
539.367	106.88
539.581	90.88
539.795	77.88
540.009	90.88
540.222	90.88
540.436	73.88
540.65	95.88
540.864	92.88
541.078	96.88
541.292	84.88
541.506	82.88
541.72	84.88
541.934	86.88
542.147	77.88
542.361	91.88
542.575	83.88
542.789	74.88
543.002	97.88
543.216	76.88
543.43	97.88
543.644	78.88
543.857	89.88
544.071	86.88
544.285	102.88
544.498	77.88
544.712	86.88
544.925	81.88
545.139	87.88
545.352	100.88
545.566	86.88
545.779	77.88
545.993	74.88
546.206	79.88
546.42	83.88
546.633	94.88
546.847	90.88
547.06	70.88
547.274	78.88
547.487	95.88
547.7	92.88
547.914	83.88
548.127	82.88
548.34	86.88
548.554	79.88
548.767	90.88
548.98	88.88
549.193	83.88
549.407	71.88
549.62	92.88
549.833	86.88
550.046	69.88
550.259	87.88
550.473	78.88
550.686	81.88
550.899	89.88
551.112	80.88
551.325	77.88
551.538	89.88
551.751	79.88
551.964	86.88
552.177	82.88
552.39	95.88
552.603	83.88
552.816	87.88
553.029	93.88
553.242	88.88
553.455	96.88
553.667	88.88
553.88	98.88
554.093	86.88
554.306	86.88
554.519	87.88
554.732	95.88
554.944	94.88
555.157	90.88
555.37	79.88
555.583	78.88
555.795	86.88
556.008	98.88
556.221	92.88
556.433	90.88
556.646	80.88
556.859	89.88
557.071	104.88
557.284	95.88
557.496	95.88
557.709	89.88
557.921	83.88
558.134	85.88
558.346	92.88
558.559	86.88
558.771	84.88
558.984	90.88
559.196	75.88
559.409	93.88
559.621	96.88
559.833	80.88
560.046	90.88
560.258	72.88
560.47	95.88
560.683	87.88
560.895	90.88
561.107	84.88
561.32	94.88
561.532	81.88
561.744	88.88
561.956	93.88
562.168	83.88
562.381	90.88
562.593	99.88
562.805	76.88
563.017	76.88
563.229	74.88
563.441	67.88
563.653	100.88
563.865	88.88
564.077	71.88
564.289	80.88
564.501	78.88
564.713	88.88
564.925	84.88
565.137	86.88
565.349	87.88
565.561	78.88
565.773	83.88
565.985	80.88
566.197	79.88
566.408	88.88
566.62	60.88
566.832	71.88
567.044	69.88
567.255	87.88
567.467	93.88
567.679	77.88
567.891	89.88
568.102	80.88
568.314	68.88
568.526	67.88
568.737	65.88
568.949	78.88
569.161	79.88
569.372	76.88
569.584	86.88
569.795	90.88
570.007	105.88
570.218	194.88
570.43	132.88
570.641	92.88
570.853	92.88
571.064	85.88
571.276	82.88
571.487	72.88
571.698	101.88
571.91	79.88
572.121	94.88
572.333	90.88
572.544	70.88
572.755	80.88
572.966	94.88
573.178	85.88
573.389	78.88
573.6	84.88
573.811	89.88
574.023	90.88
574.234	83.88
574.445	77.88
574.656	88.88
574.867	93.88
575.078	90.88
575.289	74.88
575.501	78.88
575.712	80.88
575.923	90.88
576.134	87.88
576.345	98.88
576.556	79.88
576.767	74.88
576.978	71.88
577.188	91.88
577.399	97.88
577.61	85.88
577.821	102.88
578.032	107.88
578.243	221.88
578.454	587.88
578.665	177.88
578.875	97.88
579.086	91.88
579.297	76.88
579.508	68.88
579.718	88.88
579.929	78.88
580.14	78.88
580.35	94.88
580.561	94.88
580.772	94.88
580.982	80.88
581.193	77.88
581.403	74.88
581.614	73.88
581.825	76.88
582.035	85.88
582.246	89.88
582.456	95.88
582.667	87.88
582.877	73.88
583.087	69.88
583.298	78.88
583.508	83.88
583.719	80.88
583.929	79.88
584.139	81.88
584.35	71.88
584.56	89.88
584.77	84.88
584.981	74.88
585.191	84.88
585.401	55.88
585.611	89.88
585.821	86.88
586.032	93.88
586.242	82.88
586.452	79.88
586.662	76.88
586.872	73.88
587.082	87.88
587.292	83.88
587.502	64.88
587.713	84.88
587.923	81.88
588.133	88.88
588.343	76.88
588.553	86.88
588.762	82.88
588.972	102.88
589.182	227.88
589.392	134.88
589.602	109.88
589.812	170.88
590.022	104.88
590.232	99.88
590.441	84.88
590.651	84.88
590.861	72.88
591.071	88.88
591.281	86.88
591.49	80.88
591.7	79.88
591.91	96.88
592.119	74.88
592.329	68.88
592.539	76.88
592.748	84.88
592.958	82.88
593.167	76.88
593.377	86.88
593.587	91.88
593.796	70.88
594.006	90.88
594.215	71.88
594.424	78.88
594.634	62.88
594.843	91.88
595.053	78.88
595.262	86.88
595.472	105.88
595.681	74.88
595.89	81.88
596.1	81.88
596.309	81.88
596.518	72.88
596.727	83.88
596.937	91.88
597.146	80.88
597.355	84.88
597.564	88.88
597.774	98.88
597.983	83.88
598.192	80.88
598.401	75.88
598.61	80.88
598.819	97.88
599.028	62.88
599.237	74.88
599.446	67.88
599.655	70.88
599.864	70.88
600.073	77.88
600.282	82.88
600.491	79.88
600.7	82.88
600.909	76.88
601.118	94.88
601.327	79.88
601.536	83.88
601.745	73.88
601.953	78.88
602.162	90.88
602.371	74.88
602.58	77.88
602.789	92.88
602.997	86.88
603.206	77.88
603.415	86.88
603.623	81.88
603.832	82.88
604.041	89.88
604.249	81.88
604.458	85.88
604.666	87.88
604.875	94.88
605.084	91.88
605.292	94.88
605.501	90.88
605.709	85.88
605.918	76.88
606.126	87.88
606.334	91.88
606.543	83.88
606.751	82.88
606.96	70.88
607.168	89.88
607.376	82.88
607.585	74.88
607.793	95.88
608.001	76.88
608.21	86.88
608.418	84.88
608.626	83.88
608.834	95.88
609.043	79.88
609.251	73.88
609.459	80.88
609.667	88.88
609.875	86.88
610.083	82.88
610.291	78.88
610.499	82.88
610.707	83.88
610.916	74.88
611.124	82.88
611.332	74.88
611.54	87.88
611.748	90.88
611.955	78.88
612.163	77.88
612.371	93.88
612.579	75.88
612.787	71.88
612.995	87.88
613.203	88.88
613.411	95.88
613.618	71.88
613.826	94.88
614.034	78.88
614.242	87.88
614.449	87.88
614.657	80.88
614.865	101.88
615.072	94.88
615.28	86.88
615.488	88.88
615.695	77.88
615.903	79.88
616.111	85.88
616.318	95.88
616.526	83.88
616.733	95.88
616.941	93.88
617.148	96.88
617.356	73.88
617.563	87.88
617.771	79.88
617.978	70.88
618.185	87.88
618.393	84.88
618.6	82.88
618.807	86.88
619.015	74.88
619.222	87.88
619.429	78.88
619.637	81.88
619.844	78.88
620.051	89.88
620.258	70.88
620.466	86.88
620.673	86.88
620.88	79.88
621.087	83.88
621.294	79.88
621.501	74.88
621.708	88.88
621.915	77.88
622.122	74.88
622.329	84.88
622.536	87.88
622.743	76.88
622.95	76.88
623.157	81.88
623.364	78.88
623.571	86.88
623.778	90.88
623.985	83.88
624.192	76.88
624.399	83.88
624.606	80.88
624.812	94.88
625.019	76.88
625.226	84.88
625.433	78.88
625.639	88.88
625.846	87.88
626.053	74.88
626.259	79.88
626.466	84.88
626.673	95.88
626.879	76.88
627.086	89.88
627.293	80.88
627.499	78.88
627.706	92.88
627.912	85.88
628.119	87.88
628.325	77.88
628.532	78.88
628.738	76.88
628.945	86.88
629.151	80.88
629.357	76.88
629.564	83.88
629.77	72.88
629.976	89.88
630.183	79.88
630.389	75.88
630.595	76.88
630.802	78.88
631.008	71.88
631.214	80.88
631.42	78.88
631.627	88.88
631.833	81.88
632.039	70.88
632.245	86.88
632.451	89.88
632.657	82.88
632.863	63.88
633.069	76.88
633.275	82.88
633.481	79.88
633.688	83.88
633.893	80.88
634.099	86.88
634.305	68.88
634.511	77.88
634.717	74.88
634.923	69.88
635.129	80.88
635.335	81.88
635.541	76.88
635.747	90.88
635.952	86.88
636.158	76.88
636.364	99.88
636.57	82.88
636.775	80.88
636.981	74.88
637.187	75.88
637.392	86.88
637.598	97.88
637.804	84.88
638.009	79.88
638.215	56.88
638.421	98.88
638.626	76.88
638.832	83.88
639.037	91.88
639.243	90.88
639.448	66.88
639.654	87.88
639.859	78.88
640.065	90.88
640.27	86.88
640.475	80.88
640.681	86.88
640.886	79.88
641.091	83.88
641.297	71.88
641.502	72.88
641.707	61.88
641.913	81.88
642.118	74.88
642.323	66.88
642.528	80.88
642.733	67.88
642.939	87.88
643.144	81.88
643.349	95.88
643.554	86.88
643.759	77.88
643.964	90.88
644.169	92.88
644.374	94.88
644.579	76.88
644.784	78.88
644.989	84.88
645.194	81.88
645.399	75.88
645.604	75.88
645.809	83.88
646.014	81.88
646.219	81.88
646.423	78.88
646.628	88.88
646.833	97.88
647.038	86.88
647.243	109.88
647.447	81.88
647.652	91.88
647.857	87.88
648.062	79.88
648.266	90.88
648.471	88.88
648.676	82.88
648.88	86.88
649.085	78.88
649.289	83.88
649.494	107.88
649.698	113.88
649.903	106.88
650.107	76.88
650.312	60.88
650.516	62.88
650.721	75.88
650.925	82.88
651.13	82.88
651.334	85.88
651.539	87.88
651.743	82.88
651.947	82.88
652.152	73.88
652.356	77.88
652.56	81.88
652.764	66.88
652.969	64.88
653.173	91.88
653.377	82.88
653.581	75.88
653.785	88.88
653.99	89.88
654.194	85.88
654.398	78.88
654.602	82.88
654.806	93.88
655.01	98.88
655.214	80.88
655.418	80.88
655.622	75.88
655.826	86.88
656.03	90.88
656.234	89.88
656.438	83.88
656.642	98.88
656.846	100.88
657.049	90.88
657.253	89.88
657.457	89.88
657.661	80.88
657.865	74.88
658.068	76.88
658.272	82.88
658.476	70.88
658.68	72.88
658.883	86.88
659.087	72.88
659.291	68.88
659.494	81.88
659.698	70.88
659.901	75.88
660.105	71.88
660.309	64.88
660.512	74.88
660.716	98.88
660.919	79.88
661.123	88.88
661.326	69.88
661.53	81.88
661.733	80.88
661.936	76.88
662.14	82.88
662.343	79.88
662.546	72.88
662.75	75.88
662.953	73.88
663.156	85.88
663.36	72.88
663.563	78.88
663.766	70.88
663.969	82.88
664.173	78.88
664.376	64.88
664.579	83.88
664.782	62.88
664.985	78.88
665.188	83.88
665.391	77.88
665.594	83.88
665.797	85.88
666	82.88
666.203	72.88
666.406	70.88
666.609	94.88
666.812	82.88
667.015	78.88
667.218	79.88
667.421	80.88
667.624	80.88
667.827	94.88
668.03	82.88
668.232	63.88
668.435	79.88
668.638	77.88
668.841	75.88
669.043	76.88
669.246	79.88
669.449	74.88
669.651	86.88
669.854	91.88
670.057	84.88
670.259	79.88
670.462	67.88
670.665	72.88
670.867	74.88
671.07	85.88
671.272	97.88
671.475	75.88
671.677	66.88
671.88	80.88
672.082	72.88
672.284	78.88
672.487	70.88
672.689	64.88
672.892	81.88
