Data from Circ_1990_H10_HRD10591_00014.txt Node
Date: Wed Jan 03 11:55:06 EST 2024
User: Yrep
Spectrometer: HR+D1059
Trigger mode: 1
Integration Time (sec): 1.000000E-1
Scans to average: 1
Electric dark correction enabled: true
Nonlinearity correction enabled: false
Boxcar width: 0
XAxis mode: Wavelengths
Number of Pixels in Spectrum: 2048
>>>>>Begin Spectral Data<<<<<
223.165	-9.5
223.4	-9.5
223.635	-9.5
223.869	-30.5
224.104	-21.5
224.338	-19.5
224.573	-16.5
224.808	-15.5
225.042	-18.5
225.277	-5.5
225.511	4.5
225.746	10.5
225.98	12.5
226.215	22.5
226.449	2.5
226.683	14.5
226.918	34.5
227.152	35.5
227.387	23.5
227.621	40.5
227.856	38.5
228.09	57.5
228.324	46.5
228.559	65.5
228.793	69.5
229.027	55.5
229.262	69.5
229.496	75.5
229.73	68.5
229.964	85.5
230.199	70.5
230.433	62.5
230.667	63.5
230.901	78.5
231.136	85.5
231.37	76.5
231.604	79.5
231.838	70.5
232.072	88.5
232.306	74.5
232.541	93.5
232.775	84.5
233.009	90.5
233.243	78.5
233.477	79.5
233.711	73.5
233.945	77.5
234.179	62.5
234.413	64.5
234.647	71.5
234.881	78.5
235.115	82.5
235.349	82.5
235.583	73.5
235.817	80.5
236.051	76.5
236.285	81.5
236.519	69.5
236.753	85.5
236.987	77.5
237.221	81.5
237.455	81.5
237.689	83.5
237.922	73.5
238.156	65.5
238.39	80.5
238.624	69.5
238.858	77.5
239.091	70.5
239.325	66.5
239.559	81.5
239.793	82.5
240.027	82.5
240.26	67.5
240.494	77.5
240.728	74.5
240.961	81.5
241.195	77.5
241.429	76.5
241.662	69.5
241.896	68.5
242.13	60.5
242.363	75.5
242.597	67.5
242.83	70.5
243.064	64.5
243.298	65.5
243.531	83.5
243.765	72.5
243.998	78.5
244.232	90.5
244.465	92.5
244.699	75.5
244.932	82.5
245.166	86.5
245.399	78.5
245.633	85.5
245.866	75.5
246.099	77.5
246.333	77.5
246.566	94.5
246.8	63.5
247.033	75.5
247.266	78.5
247.5	78.5
247.733	80.5
247.966	73.5
248.2	78.5
248.433	75.5
248.666	64.5
248.899	93.5
249.133	81.5
249.366	96.5
249.599	86.5
249.832	87.5
250.066	83.5
250.299	90.5
250.532	90.5
250.765	86.5
250.998	69.5
251.231	81.5
251.465	85.5
251.698	71.5
251.931	93.5
252.164	83.5
252.397	75.5
252.63	75.5
252.863	69.5
253.096	77.5
253.329	81.5
253.562	84.5
253.795	90.5
254.028	76.5
254.261	87.5
254.494	74.5
254.727	90.5
254.96	82.5
255.193	68.5
255.426	82.5
255.659	86.5
255.892	82.5
256.124	83.5
256.357	74.5
256.59	78.5
256.823	83.5
257.056	87.5
257.289	84.5
257.521	84.5
257.754	83.5
257.987	82.5
258.22	90.5
258.452	90.5
258.685	77.5
258.918	85.5
259.151	92.5
259.383	76.5
259.616	71.5
259.849	65.5
260.081	81.5
260.314	86.5
260.547	72.5
260.779	93.5
261.012	68.5
261.244	75.5
261.477	82.5
261.71	95.5
261.942	95.5
262.175	102.5
262.407	71.5
262.64	82.5
262.872	83.5
263.105	73.5
263.337	79.5
263.57	68.5
263.802	86.5
264.035	86.5
264.267	91.5
264.499	80.5
264.732	79.5
264.964	78.5
265.197	83.5
265.429	74.5
265.661	89.5
265.894	86.5
266.126	82.5
266.358	66.5
266.591	75.5
266.823	93.5
267.055	87.5
267.287	71.5
267.52	74.5
267.752	66.5
267.984	89.5
268.216	76.5
268.448	73.5
268.681	85.5
268.913	78.5
269.145	89.5
269.377	76.5
269.609	79.5
269.841	90.5
270.073	76.5
270.306	75.5
270.538	77.5
270.77	90.5
271.002	74.5
271.234	94.5
271.466	86.5
271.698	84.5
271.93	83.5
272.162	88.5
272.394	64.5
272.626	87.5
272.858	82.5
273.09	84.5
273.322	73.5
273.553	81.5
273.785	85.5
274.017	98.5
274.249	81.5
274.481	76.5
274.713	94.5
274.945	86.5
275.176	83.5
275.408	85.5
275.64	86.5
275.872	90.5
276.104	85.5
276.335	83.5
276.567	81.5
276.799	89.5
277.031	102.5
277.262	84.5
277.494	100.5
277.726	87.5
277.957	80.5
278.189	75.5
278.421	75.5
278.652	86.5
278.884	81.5
279.115	78.5
279.347	90.5
279.579	88.5
279.81	77.5
280.042	91.5
280.273	102.5
280.505	87.5
280.736	89.5
280.968	100.5
281.199	75.5
281.431	89.5
281.662	94.5
281.894	95.5
282.125	79.5
282.356	100.5
282.588	113.5
282.819	105.5
283.051	97.5
283.282	87.5
283.513	83.5
283.745	84.5
283.976	91.5
284.207	92.5
284.439	84.5
284.67	80.5
284.901	76.5
285.132	83.5
285.364	81.5
285.595	85.5
285.826	74.5
286.057	81.5
286.288	99.5
286.52	83.5
286.751	99.5
286.982	86.5
287.213	76.5
287.444	89.5
287.675	82.5
287.906	77.5
288.138	96.5
288.369	80.5
288.6	95.5
288.831	82.5
289.062	83.5
289.293	98.5
289.524	87.5
289.755	91.5
289.986	79.5
290.217	91.5
290.448	86.5
290.679	91.5
290.91	78.5
291.141	80.5
291.371	77.5
291.602	83.5
291.833	74.5
292.064	65.5
292.295	84.5
292.526	89.5
292.757	91.5
292.987	83.5
293.218	89.5
293.449	83.5
293.68	87.5
293.91	87.5
294.141	108.5
294.372	85.5
294.603	90.5
294.833	81.5
295.064	83.5
295.295	94.5
295.525	87.5
295.756	95.5
295.987	113.5
296.217	93.5
296.448	106.5
296.679	89.5
296.909	87.5
297.14	93.5
297.37	90.5
297.601	91.5
297.831	83.5
298.062	83.5
298.292	100.5
298.523	95.5
298.753	77.5
298.984	92.5
299.214	75.5
299.445	94.5
299.675	101.5
299.905	93.5
300.136	78.5
300.366	88.5
300.597	89.5
300.827	94.5
301.057	87.5
301.288	101.5
301.518	78.5
301.748	94.5
301.979	100.5
302.209	84.5
302.439	83.5
302.669	105.5
302.9	98.5
303.13	85.5
303.36	100.5
303.59	92.5
303.82	98.5
304.051	99.5
304.281	92.5
304.511	86.5
304.741	83.5
304.971	95.5
305.201	91.5
305.431	80.5
305.661	81.5
305.891	88.5
306.121	98.5
306.352	106.5
306.582	88.5
306.812	103.5
307.042	88.5
307.272	91.5
307.502	87.5
307.731	102.5
307.961	86.5
308.191	82.5
308.421	80.5
308.651	86.5
308.881	91.5
309.111	101.5
309.341	82.5
309.571	101.5
309.8	99.5
310.03	92.5
310.26	89.5
310.49	83.5
310.72	101.5
310.949	93.5
311.179	95.5
311.409	92.5
311.639	75.5
311.868	105.5
312.098	91.5
312.328	94.5
312.557	92.5
312.787	98.5
313.017	86.5
313.246	85.5
313.476	71.5
313.706	83.5
313.935	87.5
314.165	92.5
314.394	96.5
314.624	85.5
314.853	105.5
315.083	92.5
315.312	94.5
315.542	84.5
315.771	82.5
316.001	67.5
316.23	84.5
316.46	89.5
316.689	93.5
316.919	89.5
317.148	96.5
317.377	84.5
317.607	95.5
317.836	84.5
318.065	91.5
318.295	96.5
318.524	87.5
318.753	93.5
318.983	96.5
319.212	103.5
319.441	93.5
319.67	98.5
319.9	78.5
320.129	87.5
320.358	85.5
320.587	87.5
320.816	85.5
321.046	81.5
321.275	98.5
321.504	91.5
321.733	97.5
321.962	90.5
322.191	102.5
322.42	103.5
322.649	102.5
322.878	103.5
323.108	106.5
323.337	113.5
323.566	108.5
323.795	137.5
324.024	173.5
324.253	315.5
324.482	605.5
324.71	1251.5
324.939	1654.5
325.168	625.5
325.397	194.5
325.626	121.5
325.855	109.5
326.084	120.5
326.313	109.5
326.542	122.5
326.77	189.5
326.999	350.5
327.228	705.5
327.457	1284.5
327.686	1025.5
327.914	293.5
328.143	161.5
328.372	140.5
328.6	118.5
328.829	98.5
329.058	115.5
329.287	114.5
329.515	97.5
329.744	100.5
329.972	118.5
330.201	141.5
330.43	183.5
330.658	137.5
330.887	128.5
331.115	109.5
331.344	96.5
331.572	113.5
331.801	111.5
332.03	101.5
332.258	84.5
332.486	98.5
332.715	99.5
332.943	89.5
333.172	89.5
333.4	87.5
333.629	97.5
333.857	97.5
334.085	119.5
334.314	152.5
334.542	208.5
334.771	202.5
334.999	117.5
335.227	96.5
335.455	69.5
335.684	89.5
335.912	107.5
336.14	95.5
336.369	110.5
336.597	86.5
336.825	93.5
337.053	92.5
337.281	104.5
337.51	108.5
337.738	88.5
337.966	84.5
338.194	79.5
338.422	77.5
338.65	84.5
338.878	87.5
339.106	82.5
339.334	93.5
339.562	67.5
339.79	98.5
340.018	82.5
340.246	101.5
340.474	79.5
340.702	90.5
340.93	82.5
341.158	90.5
341.386	97.5
341.614	82.5
341.842	91.5
342.07	86.5
342.298	107.5
342.526	107.5
342.754	91.5
342.981	92.5
343.209	87.5
343.437	106.5
343.665	69.5
343.893	88.5
344.12	83.5
344.348	94.5
344.576	91.5
344.804	97.5
345.031	90.5
345.259	94.5
345.487	92.5
345.714	84.5
345.942	100.5
346.17	97.5
346.397	71.5
346.625	110.5
346.853	80.5
347.08	80.5
347.308	109.5
347.535	91.5
347.763	92.5
347.99	89.5
348.218	107.5
348.445	86.5
348.673	89.5
348.9	92.5
349.128	88.5
349.355	98.5
349.583	87.5
349.81	82.5
350.037	108.5
350.265	100.5
350.492	84.5
350.72	77.5
350.947	104.5
351.174	119.5
351.402	108.5
351.629	100.5
351.856	105.5
352.083	83.5
352.311	88.5
352.538	108.5
352.765	106.5
352.992	101.5
353.22	105.5
353.447	101.5
353.674	98.5
353.901	85.5
354.128	96.5
354.355	115.5
354.583	90.5
354.81	94.5
355.037	100.5
355.264	102.5
355.491	94.5
355.718	101.5
355.945	94.5
356.172	84.5
356.399	91.5
356.626	103.5
356.853	82.5
357.08	100.5
357.307	107.5
357.534	99.5
357.761	83.5
357.988	95.5
358.215	116.5
358.441	113.5
358.668	113.5
358.895	108.5
359.122	102.5
359.349	93.5
359.576	89.5
359.802	111.5
360.029	101.5
360.256	104.5
360.483	94.5
360.709	91.5
360.936	83.5
361.163	86.5
361.39	84.5
361.616	89.5
361.843	88.5
362.07	87.5
362.296	90.5
362.523	81.5
362.749	91.5
362.976	79.5
363.203	93.5
363.429	98.5
363.656	93.5
363.882	86.5
364.109	82.5
364.335	90.5
364.562	89.5
364.788	96.5
365.015	89.5
365.241	91.5
365.468	98.5
365.694	112.5
365.92	86.5
366.147	90.5
366.373	84.5
366.599	84.5
366.826	84.5
367.052	86.5
367.278	85.5
367.505	81.5
367.731	71.5
367.957	90.5
368.184	89.5
368.41	100.5
368.636	98.5
368.862	129.5
369.089	118.5
369.315	83.5
369.541	82.5
369.767	95.5
369.993	101.5
370.219	82.5
370.445	67.5
370.672	90.5
370.898	84.5
371.124	86.5
371.35	77.5
371.576	94.5
371.802	90.5
372.028	96.5
372.254	98.5
372.48	103.5
372.706	90.5
372.932	99.5
373.158	80.5
373.384	93.5
373.61	77.5
373.835	77.5
374.061	87.5
374.287	85.5
374.513	86.5
374.739	95.5
374.965	95.5
375.191	88.5
375.416	89.5
375.642	100.5
375.868	79.5
376.094	98.5
376.319	84.5
376.545	97.5
376.771	86.5
376.997	105.5
377.222	100.5
377.448	99.5
377.674	97.5
377.899	82.5
378.125	94.5
378.35	105.5
378.576	96.5
378.802	112.5
379.027	94.5
379.253	103.5
379.478	89.5
379.704	90.5
379.929	96.5
380.155	110.5
380.38	99.5
380.606	89.5
380.831	106.5
381.057	114.5
381.282	118.5
381.507	114.5
381.733	113.5
381.958	107.5
382.184	123.5
382.409	124.5
382.634	118.5
382.86	133.5
383.085	116.5
383.31	117.5
383.535	109.5
383.761	124.5
383.986	116.5
384.211	124.5
384.436	132.5
384.662	151.5
384.887	133.5
385.112	147.5
385.337	166.5
385.562	149.5
385.787	157.5
386.013	157.5
386.238	145.5
386.463	125.5
386.688	140.5
386.913	139.5
387.138	146.5
387.363	144.5
387.588	118.5
387.813	129.5
388.038	143.5
388.263	163.5
388.488	146.5
388.713	110.5
388.938	110.5
389.163	93.5
389.387	84.5
389.612	92.5
389.837	97.5
390.062	94.5
390.287	87.5
390.512	87.5
390.736	84.5
390.961	84.5
391.186	89.5
391.411	103.5
391.636	82.5
391.86	78.5
392.085	89.5
392.31	96.5
392.534	77.5
392.759	85.5
392.984	90.5
393.208	101.5
393.433	121.5
393.658	120.5
393.882	89.5
394.107	78.5
394.331	86.5
394.556	90.5
394.78	98.5
395.005	83.5
395.229	81.5
395.454	82.5
395.678	99.5
395.903	83.5
396.127	90.5
396.352	88.5
396.576	89.5
396.801	96.5
397.025	102.5
397.249	89.5
397.474	94.5
397.698	82.5
397.922	95.5
398.147	91.5
398.371	80.5
398.595	81.5
398.82	94.5
399.044	86.5
399.268	80.5
399.492	89.5
399.717	82.5
399.941	84.5
400.165	106.5
400.389	86.5
400.613	84.5
400.837	80.5
401.062	90.5
401.286	89.5
401.51	87.5
401.734	93.5
401.958	87.5
402.182	114.5
402.406	130.5
402.63	106.5
402.854	95.5
403.078	99.5
403.302	86.5
403.526	97.5
403.75	83.5
403.974	93.5
404.198	85.5
404.422	91.5
404.645	89.5
404.869	86.5
405.093	101.5
405.317	87.5
405.541	93.5
405.765	106.5
405.988	112.5
406.212	132.5
406.436	188.5
406.66	113.5
406.883	92.5
407.107	97.5
407.331	99.5
407.555	90.5
407.778	108.5
408.002	92.5
408.226	99.5
408.449	80.5
408.673	87.5
408.896	97.5
409.12	102.5
409.344	94.5
409.567	84.5
409.791	89.5
410.014	91.5
410.238	97.5
410.461	106.5
410.685	103.5
410.908	102.5
411.132	109.5
411.355	90.5
411.578	102.5
411.802	91.5
412.025	78.5
412.249	76.5
412.472	94.5
412.695	96.5
412.919	89.5
413.142	92.5
413.365	77.5
413.589	88.5
413.812	90.5
414.035	94.5
414.258	85.5
414.482	99.5
414.705	95.5
414.928	94.5
415.151	86.5
415.374	104.5
415.597	97.5
415.821	102.5
416.044	98.5
416.267	96.5
416.49	92.5
416.713	86.5
416.936	95.5
417.159	85.5
417.382	89.5
417.605	99.5
417.828	87.5
418.051	90.5
418.274	83.5
418.497	105.5
418.72	83.5
418.943	85.5
419.166	114.5
419.389	90.5
419.611	86.5
419.834	97.5
420.057	93.5
420.28	82.5
420.503	86.5
420.726	102.5
420.948	90.5
421.171	89.5
421.394	87.5
421.617	109.5
421.839	69.5
422.062	87.5
422.285	97.5
422.507	104.5
422.73	116.5
422.953	98.5
423.175	89.5
423.398	103.5
423.621	89.5
423.843	74.5
424.066	85.5
424.288	90.5
424.511	80.5
424.733	99.5
424.956	99.5
425.178	97.5
425.401	91.5
425.623	90.5
425.846	76.5
426.068	96.5
426.291	91.5
426.513	79.5
426.735	91.5
426.958	89.5
427.18	94.5
427.402	118.5
427.625	153.5
427.847	129.5
428.069	113.5
428.292	96.5
428.514	94.5
428.736	79.5
428.958	87.5
429.181	105.5
429.403	89.5
429.625	96.5
429.847	88.5
430.069	99.5
430.292	85.5
430.514	80.5
430.736	85.5
430.958	79.5
431.18	88.5
431.402	73.5
431.624	85.5
431.846	86.5
432.068	100.5
432.29	92.5
432.512	95.5
432.734	79.5
432.956	87.5
433.178	87.5
433.4	86.5
433.622	83.5
433.844	87.5
434.066	89.5
434.287	92.5
434.509	91.5
434.731	93.5
434.953	101.5
435.175	95.5
435.397	96.5
435.618	79.5
435.84	93.5
436.062	108.5
436.284	101.5
436.505	78.5
436.727	82.5
436.949	81.5
437.17	95.5
437.392	76.5
437.614	99.5
437.835	100.5
438.057	107.5
438.278	103.5
438.5	97.5
438.721	123.5
438.943	102.5
439.165	88.5
439.386	90.5
439.608	90.5
439.829	94.5
440.05	114.5
440.272	125.5
440.493	89.5
440.715	90.5
440.936	103.5
441.158	76.5
441.379	82.5
441.6	107.5
441.822	90.5
442.043	84.5
442.264	85.5
442.486	92.5
442.707	80.5
442.928	102.5
443.149	117.5
443.371	107.5
443.592	99.5
443.813	103.5
444.034	90.5
444.255	81.5
444.476	65.5
444.698	97.5
444.919	80.5
445.14	126.5
445.361	116.5
445.582	107.5
445.803	115.5
446.024	97.5
446.245	109.5
446.466	109.5
446.687	75.5
446.908	67.5
447.129	80.5
447.35	79.5
447.571	94.5
447.792	89.5
448.013	91.5
448.234	92.5
448.455	89.5
448.675	112.5
448.896	110.5
449.117	94.5
449.338	94.5
449.559	104.5
449.779	127.5
450	79.5
450.221	82.5
450.442	88.5
450.662	86.5
450.883	103.5
451.104	107.5
451.324	91.5
451.545	85.5
451.766	91.5
451.986	93.5
452.207	97.5
452.428	88.5
452.648	97.5
452.869	113.5
453.089	102.5
453.31	93.5
453.53	98.5
453.751	93.5
453.971	85.5
454.192	86.5
454.412	82.5
454.633	99.5
454.853	95.5
455.073	79.5
455.294	71.5
455.514	75.5
455.734	70.5
455.955	87.5
456.175	79.5
456.395	78.5
456.616	82.5
456.836	92.5
457.056	88.5
457.276	66.5
457.497	81.5
457.717	79.5
457.937	80.5
458.157	80.5
458.377	85.5
458.598	87.5
458.818	122.5
459.038	130.5
459.258	103.5
459.478	85.5
459.698	94.5
459.918	76.5
460.138	79.5
460.358	92.5
460.578	85.5
460.798	89.5
461.018	97.5
461.238	100.5
461.458	82.5
461.678	81.5
461.898	87.5
462.118	86.5
462.338	74.5
462.558	88.5
462.777	78.5
462.997	89.5
463.217	95.5
463.437	91.5
463.657	92.5
463.876	87.5
464.096	97.5
464.316	95.5
464.536	97.5
464.755	93.5
464.975	97.5
465.195	131.5
465.414	134.5
465.634	89.5
465.854	87.5
466.073	91.5
466.293	94.5
466.512	74.5
466.732	90.5
466.951	78.5
467.171	98.5
467.391	81.5
467.61	100.5
467.829	100.5
468.049	122.5
468.268	117.5
468.488	97.5
468.707	82.5
468.927	75.5
469.146	83.5
469.365	85.5
469.585	85.5
469.804	91.5
470.023	92.5
470.243	87.5
470.462	94.5
470.681	99.5
470.901	92.5
471.12	89.5
471.339	99.5
471.558	80.5
471.777	81.5
471.997	112.5
472.216	163.5
472.435	247.5
472.654	116.5
472.873	98.5
473.092	87.5
473.311	90.5
473.53	85.5
473.749	87.5
473.968	99.5
474.187	87.5
474.406	93.5
474.625	93.5
474.844	91.5
475.063	77.5
475.282	67.5
475.501	83.5
475.72	78.5
475.939	92.5
476.158	81.5
476.377	84.5
476.596	94.5
476.814	84.5
477.033	98.5
477.252	90.5
477.471	93.5
477.69	92.5
477.908	78.5
478.127	89.5
478.346	81.5
478.564	99.5
478.783	100.5
479.002	86.5
479.22	93.5
479.439	94.5
479.658	87.5
479.876	85.5
480.095	92.5
480.313	90.5
480.532	100.5
480.751	111.5
480.969	168.5
481.188	386.5
481.406	262.5
481.624	118.5
481.843	93.5
482.061	89.5
482.28	91.5
482.498	94.5
482.717	83.5
482.935	87.5
483.153	83.5
483.372	83.5
483.59	85.5
483.808	95.5
484.027	104.5
484.245	87.5
484.463	93.5
484.681	94.5
484.9	86.5
485.118	96.5
485.336	92.5
485.554	90.5
485.772	103.5
485.99	109.5
486.209	107.5
486.427	98.5
486.645	108.5
486.863	113.5
487.081	109.5
487.299	94.5
487.517	101.5
487.735	102.5
487.953	105.5
488.171	99.5
488.389	91.5
488.607	103.5
488.825	101.5
489.043	95.5
489.261	81.5
489.479	90.5
489.696	76.5
489.914	95.5
490.132	82.5
490.35	93.5
490.568	107.5
490.786	95.5
491.003	89.5
491.221	80.5
491.439	97.5
491.657	93.5
491.874	83.5
492.092	93.5
492.31	96.5
492.527	97.5
492.745	93.5
492.963	102.5
493.18	89.5
493.398	95.5
493.615	94.5
493.833	99.5
494.05	98.5
494.268	85.5
494.485	87.5
494.703	86.5
494.92	83.5
495.138	96.5
495.355	100.5
495.573	92.5
495.79	93.5
496.008	87.5
496.225	96.5
496.442	98.5
496.66	92.5
496.877	102.5
497.094	92.5
497.312	82.5
497.529	84.5
497.746	90.5
497.963	75.5
498.181	93.5
498.398	97.5
498.615	96.5
498.832	103.5
499.049	93.5
499.267	78.5
499.484	89.5
499.701	89.5
499.918	93.5
500.135	90.5
500.352	85.5
500.569	94.5
500.786	81.5
501.003	94.5
501.22	79.5
501.437	89.5
501.654	97.5
501.871	111.5
502.088	79.5
502.305	102.5
502.522	78.5
502.739	89.5
502.956	77.5
503.172	89.5
503.389	82.5
503.606	86.5
503.823	97.5
504.04	81.5
504.256	93.5
504.473	101.5
504.69	84.5
504.907	98.5
505.123	102.5
505.34	103.5
505.557	101.5
505.773	92.5
505.99	102.5
506.207	94.5
506.423	98.5
506.64	95.5
506.856	89.5
507.073	87.5
507.289	89.5
507.506	98.5
507.722	109.5
507.939	99.5
508.155	98.5
508.372	74.5
508.588	97.5
508.805	91.5
509.021	93.5
509.238	90.5
509.454	90.5
509.67	98.5
509.887	116.5
510.103	119.5
510.319	160.5
510.536	587.5
510.752	1763.5
510.968	504.5
511.184	133.5
511.401	103.5
511.617	92.5
511.833	91.5
512.049	86.5
512.265	85.5
512.481	91.5
512.698	97.5
512.914	93.5
513.13	93.5
513.346	85.5
513.562	99.5
513.778	117.5
513.994	107.5
514.21	104.5
514.426	109.5
514.642	114.5
514.858	97.5
515.074	127.5
515.29	317.5
515.506	995.5
515.721	402.5
515.937	120.5
516.153	94.5
516.369	90.5
516.585	98.5
516.801	95.5
517.016	79.5
517.232	83.5
517.448	99.5
517.664	89.5
517.879	89.5
518.095	98.5
518.311	101.5
518.527	89.5
518.742	102.5
518.958	96.5
519.173	89.5
519.389	100.5
519.605	89.5
519.82	108.5
520.036	89.5
520.251	102.5
520.467	106.5
520.682	109.5
520.898	107.5
521.113	98.5
521.329	114.5
521.544	155.5
521.76	413.5
521.975	1682.5
522.19	1026.5
522.406	253.5
522.621	109.5
522.836	90.5
523.052	108.5
523.267	102.5
523.482	92.5
523.698	99.5
523.913	112.5
524.128	95.5
524.343	95.5
524.559	102.5
524.774	97.5
524.989	86.5
525.204	93.5
525.419	98.5
525.634	73.5
525.849	83.5
526.064	97.5
526.28	89.5
526.495	91.5
526.71	85.5
526.925	96.5
527.14	100.5
527.355	85.5
527.57	92.5
527.785	97.5
527.999	73.5
528.214	84.5
528.429	81.5
528.644	91.5
528.859	92.5
529.074	89.5
529.289	118.5
529.503	159.5
529.718	94.5
529.933	93.5
530.148	98.5
530.363	99.5
530.577	89.5
530.792	73.5
531.007	88.5
531.221	103.5
531.436	87.5
531.651	94.5
531.865	76.5
532.08	102.5
532.295	100.5
532.509	84.5
532.724	107.5
532.938	94.5
533.153	100.5
533.367	94.5
533.582	87.5
533.796	100.5
534.011	88.5
534.225	92.5
534.44	82.5
534.654	111.5
534.868	90.5
535.083	94.5
535.297	91.5
535.511	101.5
535.726	101.5
535.94	92.5
536.154	98.5
536.369	87.5
536.583	79.5
536.797	95.5
537.011	95.5
537.225	93.5
537.44	83.5
537.654	101.5
537.868	109.5
538.082	90.5
538.296	92.5
538.51	84.5
538.724	66.5
538.938	81.5
539.153	83.5
539.367	95.5
539.581	83.5
539.795	93.5
540.009	96.5
540.222	101.5
540.436	88.5
540.65	94.5
540.864	83.5
541.078	91.5
541.292	74.5
541.506	82.5
541.72	84.5
541.934	85.5
542.147	86.5
542.361	84.5
542.575	91.5
542.789	76.5
543.002	73.5
543.216	76.5
543.43	103.5
543.644	86.5
543.857	87.5
544.071	94.5
544.285	93.5
544.498	93.5
544.712	95.5
544.925	81.5
545.139	73.5
545.352	82.5
545.566	86.5
545.779	97.5
545.993	98.5
546.206	79.5
546.42	75.5
546.633	90.5
546.847	80.5
547.06	91.5
547.274	91.5
547.487	105.5
547.7	101.5
547.914	97.5
548.127	85.5
548.34	85.5
548.554	94.5
548.767	80.5
548.98	84.5
549.193	100.5
549.407	74.5
549.62	90.5
549.833	87.5
550.046	76.5
550.259	89.5
550.473	89.5
550.686	95.5
550.899	93.5
551.112	94.5
551.325	86.5
551.538	90.5
551.751	92.5
551.964	90.5
552.177	107.5
552.39	80.5
552.603	96.5
552.816	81.5
553.029	77.5
553.242	94.5
553.455	103.5
553.667	114.5
553.88	84.5
554.093	84.5
554.306	90.5
554.519	92.5
554.732	90.5
554.944	90.5
555.157	93.5
555.37	81.5
555.583	90.5
555.795	89.5
556.008	83.5
556.221	85.5
556.433	86.5
556.646	86.5
556.859	91.5
557.071	97.5
557.284	84.5
557.496	92.5
557.709	90.5
557.921	101.5
558.134	80.5
558.346	94.5
558.559	78.5
558.771	89.5
558.984	98.5
559.196	96.5
559.409	86.5
559.621	80.5
559.833	90.5
560.046	93.5
560.258	85.5
560.47	85.5
560.683	81.5
560.895	78.5
561.107	89.5
561.32	80.5
561.532	86.5
561.744	95.5
561.956	86.5
562.168	86.5
562.381	84.5
562.593	89.5
562.805	93.5
563.017	91.5
563.229	97.5
563.441	95.5
563.653	93.5
563.865	90.5
564.077	98.5
564.289	79.5
564.501	96.5
564.713	94.5
564.925	95.5
565.137	90.5
565.349	83.5
565.561	82.5
565.773	83.5
565.985	90.5
566.197	85.5
566.408	96.5
566.62	91.5
566.832	101.5
567.044	80.5
567.255	81.5
567.467	78.5
567.679	76.5
567.891	93.5
568.102	79.5
568.314	88.5
568.526	84.5
568.737	94.5
568.949	85.5
569.161	78.5
569.372	93.5
569.584	77.5
569.795	94.5
570.007	100.5
570.218	204.5
570.43	117.5
570.641	83.5
570.853	85.5
571.064	85.5
571.276	90.5
571.487	68.5
571.698	81.5
571.91	95.5
572.121	89.5
572.333	100.5
572.544	79.5
572.755	91.5
572.966	91.5
573.178	86.5
573.389	89.5
573.6	73.5
573.811	87.5
574.023	90.5
574.234	98.5
574.445	88.5
574.656	79.5
574.867	73.5
575.078	88.5
575.289	84.5
575.501	101.5
575.712	83.5
575.923	94.5
576.134	98.5
576.345	93.5
576.556	79.5
576.767	89.5
576.978	79.5
577.188	85.5
577.399	91.5
577.61	100.5
577.821	94.5
578.032	107.5
578.243	220.5
578.454	547.5
578.665	172.5
578.875	97.5
579.086	89.5
579.297	89.5
579.508	95.5
579.718	87.5
579.929	90.5
580.14	91.5
580.35	96.5
580.561	81.5
580.772	88.5
580.982	81.5
581.193	86.5
581.403	98.5
581.614	102.5
581.825	84.5
582.035	87.5
582.246	98.5
582.456	86.5
582.667	91.5
582.877	90.5
583.087	76.5
583.298	84.5
583.508	92.5
583.719	80.5
583.929	86.5
584.139	84.5
584.35	83.5
584.56	76.5
584.77	83.5
584.981	83.5
585.191	83.5
585.401	98.5
585.611	87.5
585.821	77.5
586.032	78.5
586.242	74.5
586.452	94.5
586.662	96.5
586.872	85.5
587.082	83.5
587.292	85.5
587.502	87.5
587.713	87.5
587.923	86.5
588.133	78.5
588.343	88.5
588.553	89.5
588.762	100.5
588.972	111.5
589.182	280.5
589.392	165.5
589.602	111.5
589.812	195.5
590.022	98.5
590.232	96.5
590.441	79.5
590.651	76.5
590.861	82.5
591.071	74.5
591.281	85.5
591.49	86.5
591.7	79.5
591.91	91.5
592.119	92.5
592.329	91.5
592.539	94.5
592.748	99.5
592.958	72.5
593.167	84.5
593.377	80.5
593.587	84.5
593.796	106.5
594.006	79.5
594.215	89.5
594.424	74.5
594.634	81.5
594.843	75.5
595.053	87.5
595.262	88.5
595.472	86.5
595.681	71.5
595.89	88.5
596.1	86.5
596.309	89.5
596.518	78.5
596.727	75.5
596.937	74.5
597.146	76.5
597.355	90.5
597.564	79.5
597.774	92.5
597.983	95.5
598.192	89.5
598.401	82.5
598.61	85.5
598.819	71.5
599.028	84.5
599.237	91.5
599.446	88.5
599.655	93.5
599.864	91.5
600.073	92.5
600.282	104.5
600.491	91.5
600.7	100.5
600.909	89.5
601.118	85.5
601.327	91.5
601.536	72.5
601.745	85.5
601.953	78.5
602.162	84.5
602.371	103.5
602.58	93.5
602.789	77.5
602.997	90.5
603.206	82.5
603.415	97.5
603.623	76.5
603.832	85.5
604.041	78.5
604.249	85.5
604.458	82.5
604.666	92.5
604.875	86.5
605.084	86.5
605.292	73.5
605.501	79.5
605.709	92.5
605.918	94.5
606.126	91.5
606.334	93.5
606.543	92.5
606.751	94.5
606.96	89.5
607.168	92.5
607.376	95.5
607.585	97.5
607.793	73.5
608.001	85.5
608.21	84.5
608.418	80.5
608.626	79.5
608.834	84.5
609.043	90.5
609.251	98.5
609.459	87.5
609.667	73.5
609.875	75.5
610.083	90.5
610.291	82.5
610.499	80.5
610.707	83.5
610.916	85.5
611.124	77.5
611.332	88.5
611.54	83.5
611.748	72.5
611.955	94.5
612.163	73.5
612.371	90.5
612.579	85.5
612.787	98.5
612.995	72.5
613.203	77.5
613.411	66.5
613.618	75.5
613.826	90.5
614.034	81.5
614.242	77.5
614.449	89.5
614.657	77.5
614.865	87.5
615.072	86.5
615.28	87.5
615.488	86.5
615.695	91.5
615.903	102.5
616.111	97.5
616.318	92.5
616.526	100.5
616.733	86.5
616.941	88.5
617.148	93.5
617.356	86.5
617.563	62.5
617.771	94.5
617.978	88.5
618.185	69.5
618.393	99.5
618.6	99.5
618.807	83.5
619.015	80.5
619.222	67.5
619.429	79.5
619.637	80.5
619.844	79.5
620.051	96.5
620.258	96.5
620.466	90.5
620.673	89.5
620.88	96.5
621.087	71.5
621.294	99.5
621.501	94.5
621.708	83.5
621.915	95.5
622.122	80.5
622.329	85.5
622.536	90.5
622.743	70.5
622.95	85.5
623.157	95.5
623.364	91.5
623.571	78.5
623.778	83.5
623.985	94.5
624.192	80.5
624.399	87.5
624.606	84.5
624.812	91.5
625.019	75.5
625.226	85.5
625.433	75.5
625.639	85.5
625.846	81.5
626.053	77.5
626.259	94.5
626.466	97.5
626.673	75.5
626.879	83.5
627.086	91.5
627.293	81.5
627.499	83.5
627.706	89.5
627.912	78.5
628.119	79.5
628.325	83.5
628.532	84.5
628.738	89.5
628.945	96.5
629.151	83.5
629.357	84.5
629.564	87.5
629.77	88.5
629.976	81.5
630.183	93.5
630.389	79.5
630.595	75.5
630.802	82.5
631.008	94.5
631.214	79.5
631.42	81.5
631.627	79.5
631.833	75.5
632.039	81.5
632.245	81.5
632.451	74.5
632.657	78.5
632.863	93.5
633.069	87.5
633.275	98.5
633.481	77.5
633.688	87.5
633.893	86.5
634.099	86.5
634.305	70.5
634.511	87.5
634.717	91.5
634.923	96.5
635.129	88.5
635.335	78.5
635.541	81.5
635.747	75.5
635.952	74.5
636.158	83.5
636.364	104.5
636.57	107.5
636.775	88.5
636.981	83.5
637.187	83.5
637.392	84.5
637.598	86.5
637.804	84.5
638.009	82.5
638.215	94.5
638.421	81.5
638.626	83.5
638.832	84.5
639.037	75.5
639.243	86.5
639.448	77.5
639.654	74.5
639.859	66.5
640.065	69.5
640.27	89.5
640.475	74.5
640.681	88.5
640.886	87.5
641.091	89.5
641.297	78.5
641.502	93.5
641.707	84.5
641.913	87.5
642.118	80.5
642.323	91.5
642.528	86.5
642.733	85.5
642.939	91.5
643.144	89.5
643.349	68.5
643.554	82.5
643.759	68.5
643.964	75.5
644.169	85.5
644.374	92.5
644.579	79.5
644.784	81.5
644.989	91.5
645.194	74.5
645.399	82.5
645.604	94.5
645.809	86.5
646.014	79.5
646.219	89.5
646.423	98.5
646.628	89.5
646.833	93.5
647.038	80.5
647.243	85.5
647.447	84.5
647.652	79.5
647.857	84.5
648.062	81.5
648.266	77.5
648.471	86.5
648.676	94.5
648.88	87.5
649.085	99.5
649.289	89.5
649.494	93.5
649.698	108.5
649.903	81.5
650.107	84.5
650.312	87.5
650.516	79.5
650.721	93.5
650.925	90.5
651.13	82.5
651.334	77.5
651.539	68.5
651.743	79.5
651.947	91.5
652.152	82.5
652.356	85.5
652.56	87.5
652.764	77.5
652.969	74.5
653.173	85.5
653.377	87.5
653.581	69.5
653.785	71.5
653.99	85.5
654.194	73.5
654.398	89.5
654.602	73.5
654.806	81.5
655.01	88.5
655.214	86.5
655.418	80.5
655.622	86.5
655.826	78.5
656.03	81.5
656.234	90.5
656.438	91.5
656.642	95.5
656.846	78.5
657.049	74.5
657.253	84.5
657.457	79.5
657.661	91.5
657.865	85.5
658.068	70.5
658.272	81.5
658.476	83.5
658.68	70.5
658.883	83.5
659.087	79.5
659.291	78.5
659.494	92.5
659.698	66.5
659.901	76.5
660.105	89.5
660.309	77.5
660.512	86.5
660.716	77.5
660.919	87.5
661.123	89.5
661.326	85.5
661.53	77.5
661.733	74.5
661.936	78.5
662.14	84.5
662.343	83.5
662.546	87.5
662.75	96.5
662.953	87.5
663.156	74.5
663.36	68.5
663.563	76.5
663.766	75.5
663.969	85.5
664.173	85.5
664.376	85.5
664.579	75.5
664.782	82.5
664.985	79.5
665.188	85.5
665.391	81.5
665.594	69.5
665.797	89.5
666	81.5
666.203	87.5
666.406	74.5
666.609	79.5
666.812	86.5
667.015	90.5
667.218	74.5
667.421	63.5
667.624	81.5
667.827	80.5
668.03	69.5
668.232	93.5
668.435	79.5
668.638	83.5
668.841	63.5
669.043	90.5
669.246	83.5
669.449	75.5
669.651	83.5
669.854	78.5
670.057	70.5
670.259	79.5
670.462	69.5
670.665	82.5
670.867	81.5
671.07	83.5
671.272	94.5
671.475	73.5
671.677	77.5
671.88	78.5
672.082	72.5
672.284	77.5
672.487	77.5
672.689	77.5
672.892	83.5
