Data from Circ_1990_H10_HRD10591_00054.txt Node
Date: Wed Jan 03 11:55:14 EST 2024
User: Yrep
Spectrometer: HR+D1059
Trigger mode: 1
Integration Time (sec): 1.000000E-1
Scans to average: 1
Electric dark correction enabled: true
Nonlinearity correction enabled: false
Boxcar width: 0
XAxis mode: Wavelengths
Number of Pixels in Spectrum: 2048
>>>>>Begin Spectral Data<<<<<
223.165	-16.62
223.4	-16.62
223.635	-16.62
223.869	-15.62
224.104	-18.62
224.338	-1.62
224.573	-13.62
224.808	-8.62
225.042	-18.62
225.277	-10.62
225.511	3.38
225.746	-0.62
225.98	6.38
226.215	23.38
226.449	14.38
226.683	8.38
226.918	25.38
227.152	23.38
227.387	28.38
227.621	28.38
227.856	44.38
228.09	52.38
228.324	53.38
228.559	50.38
228.793	63.38
229.027	59.38
229.262	75.38
229.496	92.38
229.73	77.38
229.964	87.38
230.199	80.38
230.433	70.38
230.667	65.38
230.901	84.38
231.136	82.38
231.37	72.38
231.604	93.38
231.838	80.38
232.072	73.38
232.306	83.38
232.541	68.38
232.775	78.38
233.009	89.38
233.243	88.38
233.477	91.38
233.711	77.38
233.945	83.38
234.179	82.38
234.413	85.38
234.647	81.38
234.881	86.38
235.115	75.38
235.349	86.38
235.583	73.38
235.817	79.38
236.051	87.38
236.285	79.38
236.519	83.38
236.753	73.38
236.987	72.38
237.221	81.38
237.455	98.38
237.689	80.38
237.922	65.38
238.156	76.38
238.39	79.38
238.624	79.38
238.858	79.38
239.091	79.38
239.325	95.38
239.559	77.38
239.793	78.38
240.027	92.38
240.26	73.38
240.494	81.38
240.728	75.38
240.961	81.38
241.195	71.38
241.429	69.38
241.662	71.38
241.896	82.38
242.13	69.38
242.363	90.38
242.597	81.38
242.83	68.38
243.064	85.38
243.298	92.38
243.531	88.38
243.765	77.38
243.998	75.38
244.232	69.38
244.465	94.38
244.699	68.38
244.932	73.38
245.166	87.38
245.399	79.38
245.633	75.38
245.866	90.38
246.099	80.38
246.333	86.38
246.566	86.38
246.8	92.38
247.033	70.38
247.266	80.38
247.5	93.38
247.733	72.38
247.966	77.38
248.2	73.38
248.433	80.38
248.666	80.38
248.899	86.38
249.133	93.38
249.366	95.38
249.599	88.38
249.832	89.38
250.066	77.38
250.299	90.38
250.532	76.38
250.765	90.38
250.998	71.38
251.231	76.38
251.465	72.38
251.698	77.38
251.931	73.38
252.164	85.38
252.397	87.38
252.63	84.38
252.863	73.38
253.096	84.38
253.329	71.38
253.562	89.38
253.795	94.38
254.028	87.38
254.261	86.38
254.494	84.38
254.727	93.38
254.96	75.38
255.193	84.38
255.426	79.38
255.659	79.38
255.892	87.38
256.124	84.38
256.357	97.38
256.59	80.38
256.823	86.38
257.056	80.38
257.289	89.38
257.521	72.38
257.754	79.38
257.987	88.38
258.22	88.38
258.452	87.38
258.685	89.38
258.918	87.38
259.151	76.38
259.383	71.38
259.616	67.38
259.849	66.38
260.081	75.38
260.314	91.38
260.547	86.38
260.779	81.38
261.012	76.38
261.244	99.38
261.477	88.38
261.71	91.38
261.942	115.38
262.175	114.38
262.407	90.38
262.64	92.38
262.872	89.38
263.105	60.38
263.337	83.38
263.57	79.38
263.802	81.38
264.035	89.38
264.267	81.38
264.499	91.38
264.732	86.38
264.964	88.38
265.197	79.38
265.429	81.38
265.661	91.38
265.894	86.38
266.126	97.38
266.358	78.38
266.591	87.38
266.823	85.38
267.055	85.38
267.287	81.38
267.52	88.38
267.752	86.38
267.984	83.38
268.216	91.38
268.448	81.38
268.681	99.38
268.913	91.38
269.145	83.38
269.377	81.38
269.609	78.38
269.841	84.38
270.073	77.38
270.306	89.38
270.538	82.38
270.77	83.38
271.002	91.38
271.234	91.38
271.466	84.38
271.698	110.38
271.93	94.38
272.162	87.38
272.394	83.38
272.626	91.38
272.858	84.38
273.09	79.38
273.322	78.38
273.553	87.38
273.785	87.38
274.017	86.38
274.249	87.38
274.481	103.38
274.713	79.38
274.945	78.38
275.176	79.38
275.408	102.38
275.64	104.38
275.872	92.38
276.104	94.38
276.335	106.38
276.567	92.38
276.799	115.38
277.031	117.38
277.262	122.38
277.494	108.38
277.726	88.38
277.957	87.38
278.189	90.38
278.421	95.38
278.652	85.38
278.884	88.38
279.115	86.38
279.347	82.38
279.579	95.38
279.81	110.38
280.042	111.38
280.273	150.38
280.505	118.38
280.736	87.38
280.968	92.38
281.199	91.38
281.431	101.38
281.662	79.38
281.894	92.38
282.125	106.38
282.356	124.38
282.588	153.38
282.819	114.38
283.051	83.38
283.282	92.38
283.513	91.38
283.745	101.38
283.976	96.38
284.207	92.38
284.439	96.38
284.67	81.38
284.901	85.38
285.132	91.38
285.364	86.38
285.595	81.38
285.826	72.38
286.057	88.38
286.288	79.38
286.52	79.38
286.751	87.38
286.982	85.38
287.213	85.38
287.444	91.38
287.675	87.38
287.906	93.38
288.138	101.38
288.369	91.38
288.6	100.38
288.831	101.38
289.062	82.38
289.293	87.38
289.524	89.38
289.755	82.38
289.986	96.38
290.217	94.38
290.448	95.38
290.679	81.38
290.91	92.38
291.141	95.38
291.371	98.38
291.602	99.38
291.833	83.38
292.064	96.38
292.295	88.38
292.526	91.38
292.757	85.38
292.987	100.38
293.218	99.38
293.449	85.38
293.68	101.38
293.91	83.38
294.141	84.38
294.372	84.38
294.603	75.38
294.833	87.38
295.064	83.38
295.295	83.38
295.525	89.38
295.756	117.38
295.987	118.38
296.217	143.38
296.448	123.38
296.679	102.38
296.909	110.38
297.14	83.38
297.37	92.38
297.601	99.38
297.831	92.38
298.062	83.38
298.292	94.38
298.523	90.38
298.753	87.38
298.984	91.38
299.214	89.38
299.445	103.38
299.675	85.38
299.905	94.38
300.136	91.38
300.366	81.38
300.597	100.38
300.827	91.38
301.057	102.38
301.288	103.38
301.518	96.38
301.748	93.38
301.979	97.38
302.209	69.38
302.439	84.38
302.669	98.38
302.9	97.38
303.13	99.38
303.36	106.38
303.59	104.38
303.82	111.38
304.051	95.38
304.281	81.38
304.511	89.38
304.741	79.38
304.971	76.38
305.201	104.38
305.431	106.38
305.661	96.38
305.891	89.38
306.121	89.38
306.352	111.38
306.582	119.38
306.812	97.38
307.042	107.38
307.272	113.38
307.502	116.38
307.731	132.38
307.961	92.38
308.191	73.38
308.421	89.38
308.651	106.38
308.881	96.38
309.111	102.38
309.341	112.38
309.571	101.38
309.8	90.38
310.03	95.38
310.26	102.38
310.49	98.38
310.72	99.38
310.949	88.38
311.179	105.38
311.409	93.38
311.639	100.38
311.868	87.38
312.098	97.38
312.328	91.38
312.557	112.38
312.787	107.38
313.017	96.38
313.246	95.38
313.476	96.38
313.706	107.38
313.935	97.38
314.165	105.38
314.394	111.38
314.624	98.38
314.853	95.38
315.083	91.38
315.312	92.38
315.542	96.38
315.771	90.38
316.001	102.38
316.23	95.38
316.46	83.38
316.689	80.38
316.919	98.38
317.148	97.38
317.377	109.38
317.607	104.38
317.836	84.38
318.065	70.38
318.295	76.38
318.524	98.38
318.753	99.38
318.983	96.38
319.212	93.38
319.441	109.38
319.67	104.38
319.9	93.38
320.129	102.38
320.358	96.38
320.587	96.38
320.816	95.38
321.046	88.38
321.275	84.38
321.504	91.38
321.733	104.38
321.962	104.38
322.191	88.38
322.42	100.38
322.649	104.38
322.878	124.38
323.108	129.38
323.337	126.38
323.566	136.38
323.795	173.38
324.024	200.38
324.253	407.38
324.482	881.38
324.71	1833.38
324.939	2407.38
325.168	867.38
325.397	252.38
325.626	166.38
325.855	131.38
326.084	133.38
326.313	131.38
326.542	170.38
326.77	240.38
326.999	482.38
327.228	961.38
327.457	1777.38
327.686	1427.38
327.914	437.38
328.143	306.38
328.372	342.38
328.6	217.38
328.829	148.38
329.058	156.38
329.287	157.38
329.515	131.38
329.744	156.38
329.972	255.38
330.201	457.38
330.43	637.38
330.658	341.38
330.887	191.38
331.115	160.38
331.344	120.38
331.572	115.38
331.801	111.38
332.03	120.38
332.258	111.38
332.486	97.38
332.715	97.38
332.943	121.38
333.172	110.38
333.4	124.38
333.629	141.38
333.857	165.38
334.085	237.38
334.314	436.38
334.542	799.38
334.771	749.38
334.999	231.38
335.227	124.38
335.455	113.38
335.684	92.38
335.912	111.38
336.14	93.38
336.369	103.38
336.597	104.38
336.825	109.38
337.053	95.38
337.281	92.38
337.51	95.38
337.738	102.38
337.966	99.38
338.194	106.38
338.422	115.38
338.65	95.38
338.878	82.38
339.106	106.38
339.334	103.38
339.562	99.38
339.79	95.38
340.018	82.38
340.246	95.38
340.474	87.38
340.702	101.38
340.93	93.38
341.158	106.38
341.386	105.38
341.614	101.38
341.842	94.38
342.07	91.38
342.298	98.38
342.526	97.38
342.754	89.38
342.981	81.38
343.209	104.38
343.437	110.38
343.665	92.38
343.893	91.38
344.12	87.38
344.348	85.38
344.576	87.38
344.804	82.38
345.031	106.38
345.259	100.38
345.487	96.38
345.714	104.38
345.942	95.38
346.17	93.38
346.397	92.38
346.625	104.38
346.853	84.38
347.08	87.38
347.308	102.38
347.535	85.38
347.763	97.38
347.99	89.38
348.218	104.38
348.445	96.38
348.673	98.38
348.9	86.38
349.128	83.38
349.355	88.38
349.583	94.38
349.81	93.38
350.037	85.38
350.265	88.38
350.492	102.38
350.72	96.38
350.947	100.38
351.174	109.38
351.402	118.38
351.629	109.38
351.856	100.38
352.083	103.38
352.311	100.38
352.538	130.38
352.765	105.38
352.992	110.38
353.22	116.38
353.447	101.38
353.674	104.38
353.901	102.38
354.128	94.38
354.355	105.38
354.583	94.38
354.81	113.38
355.037	98.38
355.264	102.38
355.491	102.38
355.718	97.38
355.945	97.38
356.172	103.38
356.399	96.38
356.626	102.38
356.853	91.38
357.08	91.38
357.307	99.38
357.534	89.38
357.761	108.38
357.988	90.38
358.215	90.38
358.441	98.38
358.668	79.38
358.895	95.38
359.122	95.38
359.349	92.38
359.576	84.38
359.802	119.38
360.029	126.38
360.256	108.38
360.483	91.38
360.709	97.38
360.936	105.38
361.163	108.38
361.39	89.38
361.616	100.38
361.843	87.38
362.07	103.38
362.296	86.38
362.523	75.38
362.749	97.38
362.976	95.38
363.203	102.38
363.429	94.38
363.656	95.38
363.882	86.38
364.109	95.38
364.335	93.38
364.562	81.38
364.788	87.38
365.015	99.38
365.241	97.38
365.468	105.38
365.694	113.38
365.92	105.38
366.147	101.38
366.373	71.38
366.599	92.38
366.826	96.38
367.052	98.38
367.278	105.38
367.505	94.38
367.731	111.38
367.957	100.38
368.184	99.38
368.41	98.38
368.636	109.38
368.862	93.38
369.089	110.38
369.315	101.38
369.541	100.38
369.767	90.38
369.993	90.38
370.219	92.38
370.445	90.38
370.672	82.38
370.898	104.38
371.124	103.38
371.35	95.38
371.576	105.38
371.802	88.38
372.028	89.38
372.254	80.38
372.48	80.38
372.706	87.38
372.932	83.38
373.158	89.38
373.384	90.38
373.61	87.38
373.835	88.38
374.061	92.38
374.287	92.38
374.513	96.38
374.739	92.38
374.965	84.38
375.191	97.38
375.416	102.38
375.642	85.38
375.868	90.38
376.094	91.38
376.319	99.38
376.545	92.38
376.771	92.38
376.997	95.38
377.222	93.38
377.448	88.38
377.674	96.38
377.899	95.38
378.125	100.38
378.35	84.38
378.576	99.38
378.802	104.38
379.027	110.38
379.253	93.38
379.478	97.38
379.704	102.38
379.929	100.38
380.155	100.38
380.38	108.38
380.606	99.38
380.831	101.38
381.057	104.38
381.282	97.38
381.507	100.38
381.733	108.38
381.958	109.38
382.184	87.38
382.409	93.38
382.634	116.38
382.86	105.38
383.085	104.38
383.31	96.38
383.535	104.38
383.761	101.38
383.986	97.38
384.211	97.38
384.436	111.38
384.662	96.38
384.887	108.38
385.112	116.38
385.337	124.38
385.562	101.38
385.787	123.38
386.013	130.38
386.238	114.38
386.463	116.38
386.688	120.38
386.913	112.38
387.138	122.38
387.363	111.38
387.588	102.38
387.813	100.38
388.038	124.38
388.263	120.38
388.488	115.38
388.713	99.38
388.938	84.38
389.163	95.38
389.387	100.38
389.612	95.38
389.837	99.38
390.062	88.38
390.287	86.38
390.512	92.38
390.736	91.38
390.961	92.38
391.186	87.38
391.411	100.38
391.636	95.38
391.86	73.38
392.085	83.38
392.31	87.38
392.534	79.38
392.759	89.38
392.984	109.38
393.208	97.38
393.433	94.38
393.658	84.38
393.882	81.38
394.107	67.38
394.331	90.38
394.556	83.38
394.78	98.38
395.005	76.38
395.229	87.38
395.454	99.38
395.678	86.38
395.903	88.38
396.127	83.38
396.352	78.38
396.576	88.38
396.801	95.38
397.025	95.38
397.249	91.38
397.474	81.38
397.698	96.38
397.922	85.38
398.147	91.38
398.371	91.38
398.595	85.38
398.82	69.38
399.044	82.38
399.268	77.38
399.492	103.38
399.717	86.38
399.941	97.38
400.165	105.38
400.389	91.38
400.613	79.38
400.837	102.38
401.062	71.38
401.286	97.38
401.51	82.38
401.734	84.38
401.958	104.38
402.182	126.38
402.406	190.38
402.63	133.38
402.854	113.38
403.078	101.38
403.302	96.38
403.526	91.38
403.75	97.38
403.974	84.38
404.198	78.38
404.422	87.38
404.645	86.38
404.869	87.38
405.093	106.38
405.317	117.38
405.541	120.38
405.765	111.38
405.988	131.38
406.212	188.38
406.436	259.38
406.66	156.38
406.883	126.38
407.107	103.38
407.331	100.38
407.555	103.38
407.778	101.38
408.002	91.38
408.226	100.38
408.449	94.38
408.673	86.38
408.896	89.38
409.12	95.38
409.344	102.38
409.567	89.38
409.791	102.38
410.014	78.38
410.238	96.38
410.461	88.38
410.685	94.38
410.908	102.38
411.132	102.38
411.355	94.38
411.578	93.38
411.802	95.38
412.025	92.38
412.249	93.38
412.472	103.38
412.695	120.38
412.919	109.38
413.142	90.38
413.365	87.38
413.589	90.38
413.812	86.38
414.035	94.38
414.258	91.38
414.482	90.38
414.705	108.38
414.928	109.38
415.151	87.38
415.374	98.38
415.597	93.38
415.821	91.38
416.044	79.38
416.267	106.38
416.49	105.38
416.713	98.38
416.936	86.38
417.159	96.38
417.382	86.38
417.605	101.38
417.828	99.38
418.051	97.38
418.274	86.38
418.497	93.38
418.72	91.38
418.943	99.38
419.166	89.38
419.389	97.38
419.611	98.38
419.834	86.38
420.057	89.38
420.28	92.38
420.503	79.38
420.726	81.38
420.948	94.38
421.171	95.38
421.394	98.38
421.617	92.38
421.839	97.38
422.062	94.38
422.285	105.38
422.507	92.38
422.73	93.38
422.953	91.38
423.175	93.38
423.398	87.38
423.621	79.38
423.843	91.38
424.066	68.38
424.288	79.38
424.511	105.38
424.733	100.38
424.956	122.38
425.178	118.38
425.401	107.38
425.623	104.38
425.846	82.38
426.068	92.38
426.291	93.38
426.513	75.38
426.735	86.38
426.958	84.38
427.18	104.38
427.402	145.38
427.625	207.38
427.847	183.38
428.069	178.38
428.292	96.38
428.514	98.38
428.736	93.38
428.958	89.38
429.181	87.38
429.403	83.38
429.625	81.38
429.847	93.38
430.069	108.38
430.292	90.38
430.514	88.38
430.736	83.38
430.958	81.38
431.18	86.38
431.402	100.38
431.624	80.38
431.846	78.38
432.068	96.38
432.29	87.38
432.512	80.38
432.734	87.38
432.956	93.38
433.178	86.38
433.4	90.38
433.622	86.38
433.844	93.38
434.066	103.38
434.287	104.38
434.509	90.38
434.731	101.38
434.953	107.38
435.175	80.38
435.397	85.38
435.618	99.38
435.84	114.38
436.062	123.38
436.284	109.38
436.505	101.38
436.727	100.38
436.949	95.38
437.17	91.38
437.392	82.38
437.614	87.38
437.835	122.38
438.057	126.38
438.278	117.38
438.5	97.38
438.721	134.38
438.943	104.38
439.165	89.38
439.386	86.38
439.608	97.38
439.829	110.38
440.05	142.38
440.272	166.38
440.493	119.38
440.715	108.38
440.936	101.38
441.158	91.38
441.379	94.38
441.6	99.38
441.822	99.38
442.043	87.38
442.264	119.38
442.486	108.38
442.707	94.38
442.928	110.38
443.149	157.38
443.371	155.38
443.592	118.38
443.813	131.38
444.034	111.38
444.255	89.38
444.476	83.38
444.698	90.38
444.919	84.38
445.14	119.38
445.361	136.38
445.582	126.38
445.803	172.38
446.024	147.38
446.245	142.38
446.466	113.38
446.687	93.38
446.908	99.38
447.129	90.38
447.35	92.38
447.571	94.38
447.792	103.38
448.013	95.38
448.234	101.38
448.455	104.38
448.675	110.38
448.896	132.38
449.117	105.38
449.338	115.38
449.559	158.38
449.779	164.38
450	92.38
450.221	89.38
450.442	77.38
450.662	87.38
450.883	113.38
451.104	121.38
451.324	96.38
451.545	92.38
451.766	80.38
451.986	82.38
452.207	94.38
452.428	97.38
452.648	100.38
452.869	148.38
453.089	111.38
453.31	122.38
453.53	100.38
453.751	104.38
453.971	110.38
454.192	117.38
454.412	96.38
454.633	75.38
454.853	85.38
455.073	83.38
455.294	88.38
455.514	108.38
455.734	99.38
455.955	85.38
456.175	97.38
456.395	68.38
456.616	77.38
456.836	85.38
457.056	87.38
457.276	86.38
457.497	85.38
457.717	86.38
457.937	83.38
458.157	93.38
458.377	87.38
458.598	121.38
458.818	185.38
459.038	201.38
459.258	152.38
459.478	111.38
459.698	89.38
459.918	98.38
460.138	88.38
460.358	87.38
460.578	97.38
460.798	91.38
461.018	98.38
461.238	94.38
461.458	96.38
461.678	97.38
461.898	89.38
462.118	81.38
462.338	97.38
462.558	85.38
462.777	94.38
462.997	89.38
463.217	86.38
463.437	101.38
463.657	85.38
463.876	91.38
464.096	78.38
464.316	92.38
464.536	108.38
464.755	103.38
464.975	120.38
465.195	188.38
465.414	179.38
465.634	111.38
465.854	94.38
466.073	90.38
466.293	96.38
466.512	76.38
466.732	83.38
466.951	88.38
467.171	82.38
467.391	96.38
467.61	139.38
467.829	149.38
468.049	275.38
468.268	358.38
468.488	128.38
468.707	104.38
468.927	97.38
469.146	79.38
469.365	93.38
469.585	94.38
469.804	92.38
470.023	101.38
470.243	109.38
470.462	110.38
470.681	135.38
470.901	100.38
471.12	86.38
471.339	88.38
471.558	114.38
471.777	122.38
471.997	175.38
472.216	493.38
472.435	1030.38
472.654	287.38
472.873	117.38
473.092	91.38
473.311	85.38
473.53	100.38
473.749	94.38
473.968	111.38
474.187	109.38
474.406	95.38
474.625	83.38
474.844	92.38
475.063	89.38
475.282	80.38
475.501	92.38
475.72	92.38
475.939	101.38
476.158	94.38
476.377	79.38
476.596	78.38
476.814	98.38
477.033	105.38
477.252	85.38
477.471	78.38
477.69	93.38
477.908	85.38
478.127	101.38
478.346	100.38
478.564	96.38
478.783	97.38
479.002	94.38
479.22	101.38
479.439	116.38
479.658	112.38
479.876	110.38
480.095	95.38
480.313	110.38
480.532	129.38
480.751	170.38
480.969	484.38
481.188	1822.38
481.406	1063.38
481.624	201.38
481.843	125.38
482.061	90.38
482.28	85.38
482.498	85.38
482.717	95.38
482.935	96.38
483.153	96.38
483.372	89.38
483.59	100.38
483.808	84.38
484.027	83.38
484.245	105.38
484.463	95.38
484.681	97.38
484.9	88.38
485.118	101.38
485.336	85.38
485.554	97.38
485.772	100.38
485.99	94.38
486.209	111.38
486.427	114.38
486.645	118.38
486.863	127.38
487.081	105.38
487.299	120.38
487.517	87.38
487.735	105.38
487.953	99.38
488.171	95.38
488.389	102.38
488.607	96.38
488.825	97.38
489.043	100.38
489.261	97.38
489.479	79.38
489.696	100.38
489.914	104.38
490.132	88.38
490.35	91.38
490.568	86.38
490.786	91.38
491.003	88.38
491.221	94.38
491.439	92.38
491.657	93.38
491.874	92.38
492.092	84.38
492.31	94.38
492.527	94.38
492.745	97.38
492.963	101.38
493.18	101.38
493.398	96.38
493.615	90.38
493.833	99.38
494.05	103.38
494.268	87.38
494.485	82.38
494.703	81.38
494.92	106.38
495.138	100.38
495.355	96.38
495.573	99.38
495.79	92.38
496.008	91.38
496.225	98.38
496.442	87.38
496.66	84.38
496.877	87.38
497.094	87.38
497.312	102.38
497.529	93.38
497.746	99.38
497.963	80.38
498.181	100.38
498.398	85.38
498.615	108.38
498.832	103.38
499.049	94.38
499.267	100.38
499.484	92.38
499.701	87.38
499.918	81.38
500.135	89.38
500.352	90.38
500.569	91.38
500.786	108.38
501.003	93.38
501.22	86.38
501.437	86.38
501.654	96.38
501.871	117.38
502.088	95.38
502.305	94.38
502.522	83.38
502.739	103.38
502.956	88.38
503.172	104.38
503.389	97.38
503.606	103.38
503.823	81.38
504.04	101.38
504.256	85.38
504.473	84.38
504.69	85.38
504.907	103.38
505.123	94.38
505.34	95.38
505.557	94.38
505.773	115.38
505.99	89.38
506.207	96.38
506.423	92.38
506.64	94.38
506.856	80.38
507.073	100.38
507.289	92.38
507.506	106.38
507.722	110.38
507.939	124.38
508.155	119.38
508.372	103.38
508.588	97.38
508.805	93.38
509.021	91.38
509.238	109.38
509.454	112.38
509.67	113.38
509.887	124.38
510.103	134.38
510.319	209.38
510.536	772.38
510.752	2537.38
510.968	698.38
511.184	179.38
511.401	120.38
511.617	119.38
511.833	92.38
512.049	98.38
512.265	93.38
512.481	88.38
512.698	98.38
512.914	95.38
513.13	83.38
513.346	86.38
513.562	95.38
513.778	89.38
513.994	111.38
514.21	120.38
514.426	119.38
514.642	152.38
514.858	154.38
515.074	197.38
515.29	565.38
515.506	1860.38
515.721	686.38
515.937	175.38
516.153	129.38
516.369	102.38
516.585	101.38
516.801	101.38
517.016	104.38
517.232	95.38
517.448	107.38
517.664	89.38
517.879	107.38
518.095	89.38
518.311	86.38
518.527	95.38
518.742	96.38
518.958	93.38
519.173	104.38
519.389	99.38
519.605	87.38
519.82	102.38
520.036	119.38
520.251	121.38
520.467	126.38
520.682	117.38
520.898	125.38
521.113	139.38
521.329	147.38
521.544	232.38
521.76	683.38
521.975	3111.38
522.19	1833.38
522.406	384.38
522.621	131.38
522.836	109.38
523.052	98.38
523.267	106.38
523.482	79.38
523.698	110.38
523.913	125.38
524.128	111.38
524.343	102.38
524.559	96.38
524.774	108.38
524.989	100.38
525.204	119.38
525.419	107.38
525.634	90.38
525.849	87.38
526.064	93.38
526.28	97.38
526.495	93.38
526.71	80.38
526.925	90.38
527.14	90.38
527.355	64.38
527.57	91.38
527.785	99.38
527.999	97.38
528.214	96.38
528.429	98.38
528.644	85.38
528.859	87.38
529.074	97.38
529.289	125.38
529.503	214.38
529.718	117.38
529.933	100.38
530.148	84.38
530.363	98.38
530.577	83.38
530.792	97.38
531.007	89.38
531.221	93.38
531.436	91.38
531.651	95.38
531.865	78.38
532.08	88.38
532.295	92.38
532.509	108.38
532.724	105.38
532.938	93.38
533.153	111.38
533.367	84.38
533.582	90.38
533.796	91.38
534.011	91.38
534.225	102.38
534.44	91.38
534.654	99.38
534.868	83.38
535.083	84.38
535.297	106.38
535.511	103.38
535.726	104.38
535.94	115.38
536.154	100.38
536.369	90.38
536.583	79.38
536.797	92.38
537.011	97.38
537.225	77.38
537.44	85.38
537.654	100.38
537.868	77.38
538.082	105.38
538.296	91.38
538.51	101.38
538.724	97.38
538.938	87.38
539.153	101.38
539.367	88.38
539.581	85.38
539.795	79.38
540.009	102.38
540.222	91.38
540.436	78.38
540.65	83.38
540.864	88.38
541.078	103.38
541.292	96.38
541.506	97.38
541.72	73.38
541.934	92.38
542.147	91.38
542.361	97.38
542.575	103.38
542.789	88.38
543.002	81.38
543.216	92.38
543.43	96.38
543.644	106.38
543.857	90.38
544.071	88.38
544.285	89.38
544.498	99.38
544.712	86.38
544.925	79.38
545.139	83.38
545.352	86.38
545.566	95.38
545.779	84.38
545.993	80.38
546.206	104.38
546.42	89.38
546.633	80.38
546.847	88.38
547.06	86.38
547.274	89.38
547.487	81.38
547.7	99.38
547.914	97.38
548.127	97.38
548.34	107.38
548.554	79.38
548.767	104.38
548.98	83.38
549.193	87.38
549.407	100.38
549.62	87.38
549.833	91.38
550.046	84.38
550.259	75.38
550.473	96.38
550.686	93.38
550.899	83.38
551.112	95.38
551.325	91.38
551.538	99.38
551.751	104.38
551.964	86.38
552.177	100.38
552.39	91.38
552.603	87.38
552.816	75.38
553.029	95.38
553.242	102.38
553.455	98.38
553.667	107.38
553.88	113.38
554.093	86.38
554.306	97.38
554.519	94.38
554.732	93.38
554.944	98.38
555.157	83.38
555.37	98.38
555.583	92.38
555.795	100.38
556.008	96.38
556.221	100.38
556.433	88.38
556.646	98.38
556.859	90.38
557.071	88.38
557.284	80.38
557.496	104.38
557.709	78.38
557.921	83.38
558.134	91.38
558.346	87.38
558.559	92.38
558.771	86.38
558.984	97.38
559.196	91.38
559.409	87.38
559.621	97.38
559.833	91.38
560.046	96.38
560.258	101.38
560.47	103.38
560.683	90.38
560.895	88.38
561.107	83.38
561.32	91.38
561.532	87.38
561.744	86.38
561.956	93.38
562.168	92.38
562.381	86.38
562.593	105.38
562.805	103.38
563.017	99.38
563.229	104.38
563.441	104.38
563.653	108.38
563.865	101.38
564.077	84.38
564.289	81.38
564.501	88.38
564.713	98.38
564.925	92.38
565.137	104.38
565.349	102.38
565.561	92.38
565.773	82.38
565.985	93.38
566.197	91.38
566.408	93.38
566.62	88.38
566.832	86.38
567.044	98.38
567.255	105.38
567.467	94.38
567.679	86.38
567.891	77.38
568.102	92.38
568.314	83.38
568.526	99.38
568.737	78.38
568.949	85.38
569.161	92.38
569.372	87.38
569.584	94.38
569.795	99.38
570.007	123.38
570.218	247.38
570.43	149.38
570.641	93.38
570.853	91.38
571.064	81.38
571.276	86.38
571.487	89.38
571.698	93.38
571.91	81.38
572.121	67.38
572.333	87.38
572.544	89.38
572.755	99.38
572.966	87.38
573.178	87.38
573.389	93.38
573.6	87.38
573.811	77.38
574.023	77.38
574.234	99.38
574.445	99.38
574.656	85.38
574.867	96.38
575.078	99.38
575.289	96.38
575.501	100.38
575.712	94.38
575.923	82.38
576.134	79.38
576.345	75.38
576.556	85.38
576.767	88.38
576.978	102.38
577.188	99.38
577.399	83.38
577.61	89.38
577.821	102.38
578.032	124.38
578.243	298.38
578.454	790.38
578.665	225.38
578.875	107.38
579.086	95.38
579.297	87.38
579.508	92.38
579.718	94.38
579.929	80.38
580.14	93.38
580.35	95.38
580.561	93.38
580.772	91.38
580.982	84.38
581.193	85.38
581.403	88.38
581.614	94.38
581.825	84.38
582.035	85.38
582.246	93.38
582.456	94.38
582.667	83.38
582.877	75.38
583.087	95.38
583.298	96.38
583.508	81.38
583.719	82.38
583.929	85.38
584.139	100.38
584.35	79.38
584.56	81.38
584.77	84.38
584.981	89.38
585.191	94.38
585.401	81.38
585.611	82.38
585.821	101.38
586.032	100.38
586.242	86.38
586.452	87.38
586.662	79.38
586.872	84.38
587.082	80.38
587.292	85.38
587.502	80.38
587.713	85.38
587.923	94.38
588.133	69.38
588.343	87.38
588.553	87.38
588.762	87.38
588.972	91.38
589.182	155.38
589.392	112.38
589.602	92.38
589.812	122.38
590.022	100.38
590.232	100.38
590.441	91.38
590.651	84.38
590.861	80.38
591.071	93.38
591.281	99.38
591.49	96.38
591.7	83.38
591.91	81.38
592.119	89.38
592.329	93.38
592.539	99.38
592.748	87.38
592.958	86.38
593.167	81.38
593.377	86.38
593.587	92.38
593.796	78.38
594.006	77.38
594.215	77.38
594.424	80.38
594.634	96.38
594.843	79.38
595.053	66.38
595.262	86.38
595.472	104.38
595.681	92.38
595.89	69.38
596.1	88.38
596.309	75.38
596.518	83.38
596.727	89.38
596.937	84.38
597.146	96.38
597.355	84.38
597.564	88.38
597.774	92.38
597.983	85.38
598.192	102.38
598.401	75.38
598.61	91.38
598.819	85.38
599.028	85.38
599.237	94.38
599.446	87.38
599.655	84.38
599.864	92.38
600.073	92.38
600.282	98.38
600.491	79.38
600.7	83.38
600.909	94.38
601.118	85.38
601.327	87.38
601.536	83.38
601.745	80.38
601.953	89.38
602.162	75.38
602.371	97.38
602.58	95.38
602.789	86.38
602.997	94.38
603.206	76.38
603.415	77.38
603.623	85.38
603.832	81.38
604.041	83.38
604.249	88.38
604.458	77.38
604.666	81.38
604.875	87.38
605.084	95.38
605.292	89.38
605.501	101.38
605.709	87.38
605.918	90.38
606.126	79.38
606.334	89.38
606.543	104.38
606.751	87.38
606.96	81.38
607.168	91.38
607.376	82.38
607.585	93.38
607.793	92.38
608.001	104.38
608.21	80.38
608.418	82.38
608.626	79.38
608.834	87.38
609.043	89.38
609.251	78.38
609.459	88.38
609.667	100.38
609.875	72.38
610.083	84.38
610.291	84.38
610.499	71.38
610.707	78.38
610.916	96.38
611.124	82.38
611.332	79.38
611.54	84.38
611.748	91.38
611.955	100.38
612.163	96.38
612.371	86.38
612.579	83.38
612.787	81.38
612.995	92.38
613.203	91.38
613.411	79.38
613.618	84.38
613.826	97.38
614.034	84.38
614.242	85.38
614.449	86.38
614.657	88.38
614.865	84.38
615.072	86.38
615.28	92.38
615.488	81.38
615.695	89.38
615.903	100.38
616.111	88.38
616.318	94.38
616.526	88.38
616.733	102.38
616.941	86.38
617.148	83.38
617.356	82.38
617.563	86.38
617.771	85.38
617.978	77.38
618.185	82.38
618.393	79.38
618.6	81.38
618.807	99.38
619.015	99.38
619.222	87.38
619.429	88.38
619.637	69.38
619.844	79.38
620.051	77.38
620.258	85.38
620.466	84.38
620.673	72.38
620.88	85.38
621.087	95.38
621.294	73.38
621.501	87.38
621.708	85.38
621.915	84.38
622.122	84.38
622.329	87.38
622.536	80.38
622.743	87.38
622.95	81.38
623.157	82.38
623.364	86.38
623.571	75.38
623.778	104.38
623.985	70.38
624.192	93.38
624.399	98.38
624.606	81.38
624.812	88.38
625.019	91.38
625.226	83.38
625.433	82.38
625.639	83.38
625.846	86.38
626.053	95.38
626.259	85.38
626.466	97.38
626.673	86.38
626.879	64.38
627.086	89.38
627.293	77.38
627.499	68.38
627.706	79.38
627.912	100.38
628.119	81.38
628.325	74.38
628.532	77.38
628.738	91.38
628.945	79.38
629.151	84.38
629.357	80.38
629.564	71.38
629.77	87.38
629.976	81.38
630.183	84.38
630.389	71.38
630.595	88.38
630.802	76.38
631.008	95.38
631.214	89.38
631.42	84.38
631.627	85.38
631.833	87.38
632.039	85.38
632.245	95.38
632.451	83.38
632.657	75.38
632.863	70.38
633.069	85.38
633.275	87.38
633.481	65.38
633.688	87.38
633.893	86.38
634.099	86.38
634.305	86.38
634.511	87.38
634.717	87.38
634.923	63.38
635.129	81.38
635.335	81.38
635.541	94.38
635.747	107.38
635.952	99.38
636.158	97.38
636.364	188.38
636.57	177.38
636.775	90.38
636.981	98.38
637.187	76.38
637.392	87.38
637.598	84.38
637.804	87.38
638.009	85.38
638.215	100.38
638.421	77.38
638.626	76.38
638.832	74.38
639.037	112.38
639.243	95.38
639.448	86.38
639.654	77.38
639.859	83.38
640.065	92.38
640.27	91.38
640.475	91.38
640.681	93.38
640.886	88.38
641.091	85.38
641.297	79.38
641.502	87.38
641.707	89.38
641.913	88.38
642.118	94.38
642.323	87.38
642.528	84.38
642.733	93.38
642.939	88.38
643.144	75.38
643.349	80.38
643.554	88.38
643.759	93.38
643.964	70.38
644.169	96.38
644.374	81.38
644.579	82.38
644.784	73.38
644.989	85.38
645.194	89.38
645.399	89.38
645.604	96.38
645.809	85.38
646.014	91.38
646.219	92.38
646.423	85.38
646.628	75.38
646.833	93.38
647.038	87.38
647.243	64.38
647.447	81.38
647.652	85.38
647.857	103.38
648.062	89.38
648.266	94.38
648.471	97.38
648.676	75.38
648.88	101.38
649.085	82.38
649.289	70.38
649.494	104.38
649.698	143.38
649.903	119.38
650.107	97.38
650.312	93.38
650.516	83.38
650.721	93.38
650.925	83.38
651.13	83.38
651.334	87.38
651.539	79.38
651.743	88.38
651.947	82.38
652.152	95.38
652.356	81.38
652.56	64.38
652.764	76.38
652.969	79.38
653.173	66.38
653.377	82.38
653.581	92.38
653.785	87.38
653.99	73.38
654.194	81.38
654.398	80.38
654.602	77.38
654.806	85.38
655.01	104.38
655.214	86.38
655.418	80.38
655.622	87.38
655.826	83.38
656.03	93.38
656.234	79.38
656.438	108.38
656.642	99.38
656.846	85.38
657.049	80.38
657.253	84.38
657.457	93.38
657.661	87.38
657.865	88.38
658.068	83.38
658.272	96.38
658.476	71.38
658.68	77.38
658.883	83.38
659.087	78.38
659.291	65.38
659.494	72.38
659.698	82.38
659.901	84.38
660.105	76.38
660.309	80.38
660.512	80.38
660.716	101.38
660.919	87.38
661.123	87.38
661.326	83.38
661.53	72.38
661.733	80.38
661.936	71.38
662.14	100.38
662.343	75.38
662.546	91.38
662.75	76.38
662.953	87.38
663.156	67.38
663.36	86.38
663.563	83.38
663.766	88.38
663.969	86.38
664.173	87.38
664.376	86.38
664.579	75.38
664.782	70.38
664.985	99.38
665.188	105.38
665.391	83.38
665.594	86.38
665.797	88.38
666	94.38
666.203	82.38
666.406	60.38
666.609	87.38
666.812	94.38
667.015	100.38
667.218	80.38
667.421	84.38
667.624	86.38
667.827	74.38
668.03	92.38
668.232	89.38
668.435	71.38
668.638	79.38
668.841	82.38
669.043	78.38
669.246	72.38
669.449	72.38
669.651	82.38
669.854	81.38
670.057	91.38
670.259	67.38
670.462	79.38
670.665	88.38
670.867	85.38
671.07	89.38
671.272	96.38
671.475	97.38
671.677	75.38
671.88	91.38
672.082	78.38
672.284	82.38
672.487	80.38
672.689	83.38
672.892	78.38
