Data from Circ_1990_H10_HRD10591_00100.txt Node
Date: Wed Jan 03 11:55:24 EST 2024
User: Yrep
Spectrometer: HR+D1059
Trigger mode: 1
Integration Time (sec): 1.000000E-1
Scans to average: 1
Electric dark correction enabled: true
Nonlinearity correction enabled: false
Boxcar width: 0
XAxis mode: Wavelengths
Number of Pixels in Spectrum: 2048
>>>>>Begin Spectral Data<<<<<
223.165	-15.75
223.4	-15.75
223.635	-15.75
223.869	-12.75
224.104	-7.75
224.338	-28.75
224.573	-20.75
224.808	-8.75
225.042	-15.75
225.277	-4.75
225.511	-18.75
225.746	5.25
225.98	-0.75
226.215	17.25
226.449	21.25
226.683	25.25
226.918	31.25
227.152	34.25
227.387	24.25
227.621	41.25
227.856	37.25
228.09	54.25
228.324	48.25
228.559	42.25
228.793	55.25
229.027	61.25
229.262	76.25
229.496	69.25
229.73	88.25
229.964	90.25
230.199	76.25
230.433	68.25
230.667	57.25
230.901	52.25
231.136	74.25
231.37	83.25
231.604	92.25
231.838	88.25
232.072	93.25
232.306	67.25
232.541	82.25
232.775	74.25
233.009	80.25
233.243	77.25
233.477	73.25
233.711	77.25
233.945	80.25
234.179	79.25
234.413	76.25
234.647	84.25
234.881	73.25
235.115	77.25
235.349	75.25
235.583	76.25
235.817	83.25
236.051	78.25
236.285	80.25
236.519	65.25
236.753	85.25
236.987	88.25
237.221	88.25
237.455	78.25
237.689	77.25
237.922	68.25
238.156	78.25
238.39	64.25
238.624	72.25
238.858	72.25
239.091	70.25
239.325	80.25
239.559	74.25
239.793	80.25
240.027	90.25
240.26	75.25
240.494	65.25
240.728	83.25
240.961	74.25
241.195	79.25
241.429	88.25
241.662	75.25
241.896	76.25
242.13	79.25
242.363	81.25
242.597	95.25
242.83	62.25
243.064	83.25
243.298	85.25
243.531	68.25
243.765	80.25
243.998	72.25
244.232	77.25
244.465	86.25
244.699	73.25
244.932	64.25
245.166	78.25
245.399	80.25
245.633	80.25
245.866	84.25
246.099	88.25
246.333	81.25
246.566	73.25
246.8	92.25
247.033	79.25
247.266	74.25
247.5	88.25
247.733	66.25
247.966	85.25
248.2	79.25
248.433	79.25
248.666	68.25
248.899	83.25
249.133	93.25
249.366	99.25
249.599	108.25
249.832	65.25
250.066	82.25
250.299	81.25
250.532	80.25
250.765	72.25
250.998	91.25
251.231	81.25
251.465	88.25
251.698	74.25
251.931	80.25
252.164	87.25
252.397	73.25
252.63	86.25
252.863	80.25
253.096	79.25
253.329	81.25
253.562	92.25
253.795	86.25
254.028	85.25
254.261	64.25
254.494	92.25
254.727	80.25
254.96	78.25
255.193	80.25
255.426	66.25
255.659	74.25
255.892	74.25
256.124	80.25
256.357	93.25
256.59	79.25
256.823	85.25
257.056	78.25
257.289	67.25
257.521	66.25
257.754	67.25
257.987	72.25
258.22	77.25
258.452	79.25
258.685	82.25
258.918	78.25
259.151	74.25
259.383	70.25
259.616	76.25
259.849	92.25
260.081	80.25
260.314	72.25
260.547	83.25
260.779	81.25
261.012	97.25
261.244	102.25
261.477	97.25
261.71	78.25
261.942	108.25
262.175	113.25
262.407	90.25
262.64	84.25
262.872	72.25
263.105	95.25
263.337	95.25
263.57	85.25
263.802	88.25
264.035	85.25
264.267	80.25
264.499	89.25
264.732	73.25
264.964	73.25
265.197	78.25
265.429	85.25
265.661	69.25
265.894	81.25
266.126	86.25
266.358	97.25
266.591	89.25
266.823	87.25
267.055	88.25
267.287	74.25
267.52	92.25
267.752	88.25
267.984	84.25
268.216	84.25
268.448	83.25
268.681	79.25
268.913	76.25
269.145	82.25
269.377	91.25
269.609	80.25
269.841	80.25
270.073	67.25
270.306	70.25
270.538	69.25
270.77	74.25
271.002	97.25
271.234	85.25
271.466	88.25
271.698	78.25
271.93	73.25
272.162	89.25
272.394	95.25
272.626	86.25
272.858	82.25
273.09	76.25
273.322	75.25
273.553	75.25
273.785	81.25
274.017	78.25
274.249	83.25
274.481	93.25
274.713	92.25
274.945	84.25
275.176	77.25
275.408	72.25
275.64	101.25
275.872	105.25
276.104	93.25
276.335	92.25
276.567	111.25
276.799	110.25
277.031	131.25
277.262	118.25
277.494	114.25
277.726	90.25
277.957	91.25
278.189	87.25
278.421	75.25
278.652	83.25
278.884	70.25
279.115	99.25
279.347	93.25
279.579	95.25
279.81	96.25
280.042	139.25
280.273	158.25
280.505	118.25
280.736	82.25
280.968	94.25
281.199	97.25
281.431	98.25
281.662	82.25
281.894	83.25
282.125	93.25
282.356	129.25
282.588	129.25
282.819	113.25
283.051	82.25
283.282	82.25
283.513	94.25
283.745	80.25
283.976	75.25
284.207	73.25
284.439	68.25
284.67	92.25
284.901	76.25
285.132	89.25
285.364	84.25
285.595	108.25
285.826	105.25
286.057	85.25
286.288	84.25
286.52	92.25
286.751	92.25
286.982	77.25
287.213	95.25
287.444	78.25
287.675	85.25
287.906	82.25
288.138	90.25
288.369	102.25
288.6	82.25
288.831	97.25
289.062	84.25
289.293	79.25
289.524	78.25
289.755	84.25
289.986	85.25
290.217	82.25
290.448	89.25
290.679	75.25
290.91	84.25
291.141	92.25
291.371	77.25
291.602	82.25
291.833	90.25
292.064	84.25
292.295	89.25
292.526	73.25
292.757	92.25
292.987	102.25
293.218	109.25
293.449	85.25
293.68	73.25
293.91	85.25
294.141	80.25
294.372	86.25
294.603	91.25
294.833	95.25
295.064	81.25
295.295	89.25
295.525	101.25
295.756	84.25
295.987	97.25
296.217	147.25
296.448	129.25
296.679	89.25
296.909	88.25
297.14	84.25
297.37	86.25
297.601	92.25
297.831	67.25
298.062	98.25
298.292	105.25
298.523	91.25
298.753	87.25
298.984	78.25
299.214	74.25
299.445	85.25
299.675	94.25
299.905	94.25
300.136	87.25
300.366	91.25
300.597	95.25
300.827	92.25
301.057	105.25
301.288	113.25
301.518	92.25
301.748	86.25
301.979	115.25
302.209	97.25
302.439	98.25
302.669	93.25
302.9	84.25
303.13	80.25
303.36	98.25
303.59	96.25
303.82	124.25
304.051	94.25
304.281	91.25
304.511	87.25
304.741	75.25
304.971	88.25
305.201	106.25
305.431	93.25
305.661	96.25
305.891	95.25
306.121	81.25
306.352	99.25
306.582	110.25
306.812	97.25
307.042	102.25
307.272	121.25
307.502	121.25
307.731	116.25
307.961	93.25
308.191	92.25
308.421	92.25
308.651	108.25
308.881	98.25
309.111	95.25
309.341	95.25
309.571	108.25
309.8	104.25
310.03	96.25
310.26	107.25
310.49	84.25
310.72	90.25
310.949	98.25
311.179	93.25
311.409	97.25
311.639	93.25
311.868	105.25
312.098	99.25
312.328	88.25
312.557	106.25
312.787	107.25
313.017	113.25
313.246	86.25
313.476	84.25
313.706	99.25
313.935	80.25
314.165	103.25
314.394	115.25
314.624	93.25
314.853	96.25
315.083	87.25
315.312	103.25
315.542	93.25
315.771	94.25
316.001	92.25
316.23	81.25
316.46	84.25
316.689	90.25
316.919	91.25
317.148	94.25
317.377	87.25
317.607	90.25
317.836	88.25
318.065	88.25
318.295	92.25
318.524	80.25
318.753	73.25
318.983	84.25
319.212	106.25
319.441	116.25
319.67	116.25
319.9	82.25
320.129	95.25
320.358	94.25
320.587	98.25
320.816	88.25
321.046	110.25
321.275	92.25
321.504	91.25
321.733	107.25
321.962	83.25
322.191	100.25
322.42	83.25
322.649	95.25
322.878	112.25
323.108	113.25
323.337	124.25
323.566	140.25
323.795	163.25
324.024	205.25
324.253	393.25
324.482	861.25
324.71	1724.25
324.939	2358.25
325.168	848.25
325.397	257.25
325.626	139.25
325.855	129.25
326.084	117.25
326.313	143.25
326.542	165.25
326.77	248.25
326.999	452.25
327.228	965.25
327.457	1780.25
327.686	1409.25
327.914	452.25
328.143	325.25
328.372	370.25
328.6	220.25
328.829	148.25
329.058	162.25
329.287	156.25
329.515	150.25
329.744	159.25
329.972	285.25
330.201	509.25
330.43	697.25
330.658	338.25
330.887	191.25
331.115	146.25
331.344	115.25
331.572	107.25
331.801	124.25
332.03	125.25
332.258	99.25
332.486	94.25
332.715	105.25
332.943	98.25
333.172	108.25
333.4	107.25
333.629	125.25
333.857	182.25
334.085	255.25
334.314	464.25
334.542	893.25
334.771	879.25
334.999	276.25
335.227	123.25
335.455	122.25
335.684	94.25
335.912	110.25
336.14	88.25
336.369	93.25
336.597	95.25
336.825	106.25
337.053	108.25
337.281	92.25
337.51	87.25
337.738	84.25
337.966	82.25
338.194	97.25
338.422	87.25
338.65	93.25
338.878	97.25
339.106	93.25
339.334	100.25
339.562	89.25
339.79	78.25
340.018	84.25
340.246	85.25
340.474	97.25
340.702	96.25
340.93	87.25
341.158	92.25
341.386	99.25
341.614	97.25
341.842	96.25
342.07	85.25
342.298	99.25
342.526	100.25
342.754	92.25
342.981	89.25
343.209	84.25
343.437	100.25
343.665	80.25
343.893	95.25
344.12	88.25
344.348	85.25
344.576	82.25
344.804	80.25
345.031	90.25
345.259	100.25
345.487	93.25
345.714	94.25
345.942	97.25
346.17	97.25
346.397	99.25
346.625	86.25
346.853	89.25
347.08	87.25
347.308	100.25
347.535	106.25
347.763	87.25
347.99	99.25
348.218	100.25
348.445	101.25
348.673	104.25
348.9	80.25
349.128	80.25
349.355	95.25
349.583	106.25
349.81	94.25
350.037	97.25
350.265	88.25
350.492	76.25
350.72	111.25
350.947	101.25
351.174	110.25
351.402	105.25
351.629	105.25
351.856	98.25
352.083	97.25
352.311	109.25
352.538	112.25
352.765	106.25
352.992	109.25
353.22	103.25
353.447	113.25
353.674	98.25
353.901	83.25
354.128	80.25
354.355	94.25
354.583	100.25
354.81	89.25
355.037	100.25
355.264	91.25
355.491	72.25
355.718	86.25
355.945	96.25
356.172	93.25
356.399	88.25
356.626	96.25
356.853	96.25
357.08	103.25
357.307	90.25
357.534	84.25
357.761	77.25
357.988	86.25
358.215	94.25
358.441	94.25
358.668	80.25
358.895	89.25
359.122	85.25
359.349	82.25
359.576	105.25
359.802	102.25
360.029	111.25
360.256	117.25
360.483	114.25
360.709	93.25
360.936	79.25
361.163	89.25
361.39	96.25
361.616	90.25
361.843	84.25
362.07	92.25
362.296	99.25
362.523	91.25
362.749	97.25
362.976	88.25
363.203	97.25
363.429	95.25
363.656	85.25
363.882	84.25
364.109	88.25
364.335	100.25
364.562	88.25
364.788	79.25
365.015	98.25
365.241	106.25
365.468	102.25
365.694	110.25
365.92	91.25
366.147	92.25
366.373	92.25
366.599	96.25
366.826	92.25
367.052	105.25
367.278	86.25
367.505	77.25
367.731	99.25
367.957	96.25
368.184	99.25
368.41	104.25
368.636	110.25
368.862	114.25
369.089	109.25
369.315	102.25
369.541	98.25
369.767	95.25
369.993	89.25
370.219	90.25
370.445	77.25
370.672	88.25
370.898	83.25
371.124	83.25
371.35	85.25
371.576	97.25
371.802	72.25
372.028	77.25
372.254	84.25
372.48	82.25
372.706	87.25
372.932	86.25
373.158	80.25
373.384	94.25
373.61	81.25
373.835	85.25
374.061	88.25
374.287	92.25
374.513	90.25
374.739	107.25
374.965	92.25
375.191	68.25
375.416	80.25
375.642	74.25
375.868	91.25
376.094	92.25
376.319	83.25
376.545	98.25
376.771	98.25
376.997	92.25
377.222	84.25
377.448	87.25
377.674	78.25
377.899	83.25
378.125	83.25
378.35	86.25
378.576	95.25
378.802	87.25
379.027	85.25
379.253	94.25
379.478	96.25
379.704	74.25
379.929	74.25
380.155	92.25
380.38	93.25
380.606	79.25
380.831	94.25
381.057	86.25
381.282	93.25
381.507	109.25
381.733	107.25
381.958	100.25
382.184	110.25
382.409	96.25
382.634	99.25
382.86	105.25
383.085	98.25
383.31	92.25
383.535	96.25
383.761	110.25
383.986	82.25
384.211	99.25
384.436	99.25
384.662	97.25
384.887	99.25
385.112	96.25
385.337	103.25
385.562	101.25
385.787	109.25
386.013	101.25
386.238	116.25
386.463	96.25
386.688	101.25
386.913	96.25
387.138	98.25
387.363	116.25
387.588	92.25
387.813	103.25
388.038	102.25
388.263	115.25
388.488	104.25
388.713	93.25
388.938	99.25
389.163	107.25
389.387	90.25
389.612	93.25
389.837	86.25
390.062	77.25
390.287	104.25
390.512	100.25
390.736	82.25
390.961	85.25
391.186	91.25
391.411	78.25
391.636	88.25
391.86	84.25
392.085	84.25
392.31	91.25
392.534	82.25
392.759	80.25
392.984	76.25
393.208	93.25
393.433	76.25
393.658	88.25
393.882	81.25
394.107	81.25
394.331	84.25
394.556	81.25
394.78	84.25
395.005	81.25
395.229	94.25
395.454	83.25
395.678	72.25
395.903	83.25
396.127	99.25
396.352	93.25
396.576	81.25
396.801	94.25
397.025	78.25
397.249	79.25
397.474	74.25
397.698	89.25
397.922	77.25
398.147	85.25
398.371	94.25
398.595	84.25
398.82	76.25
399.044	83.25
399.268	95.25
399.492	88.25
399.717	98.25
399.941	87.25
400.165	88.25
400.389	86.25
400.613	86.25
400.837	91.25
401.062	81.25
401.286	84.25
401.51	80.25
401.734	97.25
401.958	100.25
402.182	131.25
402.406	173.25
402.63	131.25
402.854	93.25
403.078	80.25
403.302	91.25
403.526	95.25
403.75	84.25
403.974	74.25
404.198	73.25
404.422	94.25
404.645	92.25
404.869	88.25
405.093	93.25
405.317	110.25
405.541	108.25
405.765	101.25
405.988	125.25
406.212	180.25
406.436	255.25
406.66	166.25
406.883	97.25
407.107	85.25
407.331	91.25
407.555	82.25
407.778	88.25
408.002	82.25
408.226	90.25
408.449	64.25
408.673	88.25
408.896	78.25
409.12	102.25
409.344	100.25
409.567	79.25
409.791	94.25
410.014	96.25
410.238	68.25
410.461	115.25
410.685	99.25
410.908	98.25
411.132	94.25
411.355	84.25
411.578	77.25
411.802	82.25
412.025	86.25
412.249	96.25
412.472	101.25
412.695	125.25
412.919	79.25
413.142	91.25
413.365	87.25
413.589	88.25
413.812	84.25
414.035	88.25
414.258	94.25
414.482	88.25
414.705	97.25
414.928	76.25
415.151	94.25
415.374	93.25
415.597	73.25
415.821	88.25
416.044	97.25
416.267	100.25
416.49	96.25
416.713	91.25
416.936	93.25
417.159	86.25
417.382	84.25
417.605	91.25
417.828	99.25
418.051	98.25
418.274	82.25
418.497	94.25
418.72	82.25
418.943	86.25
419.166	86.25
419.389	79.25
419.611	88.25
419.834	82.25
420.057	83.25
420.28	93.25
420.503	86.25
420.726	82.25
420.948	91.25
421.171	106.25
421.394	107.25
421.617	94.25
421.839	90.25
422.062	91.25
422.285	80.25
422.507	102.25
422.73	105.25
422.953	103.25
423.175	80.25
423.398	86.25
423.621	90.25
423.843	88.25
424.066	84.25
424.288	83.25
424.511	84.25
424.733	93.25
424.956	116.25
425.178	101.25
425.401	93.25
425.623	94.25
425.846	90.25
426.068	101.25
426.291	84.25
426.513	89.25
426.735	90.25
426.958	99.25
427.18	122.25
427.402	151.25
427.625	194.25
427.847	165.25
428.069	167.25
428.292	114.25
428.514	85.25
428.736	92.25
428.958	77.25
429.181	74.25
429.403	91.25
429.625	84.25
429.847	96.25
430.069	95.25
430.292	78.25
430.514	86.25
430.736	89.25
430.958	82.25
431.18	88.25
431.402	91.25
431.624	75.25
431.846	75.25
432.068	86.25
432.29	91.25
432.512	80.25
432.734	89.25
432.956	99.25
433.178	95.25
433.4	100.25
433.622	84.25
433.844	89.25
434.066	89.25
434.287	96.25
434.509	84.25
434.731	74.25
434.953	90.25
435.175	93.25
435.397	86.25
435.618	93.25
435.84	116.25
436.062	132.25
436.284	113.25
436.505	109.25
436.727	101.25
436.949	80.25
437.17	96.25
437.392	89.25
437.614	94.25
437.835	112.25
438.057	124.25
438.278	106.25
438.5	102.25
438.721	120.25
438.943	99.25
439.165	89.25
439.386	80.25
439.608	99.25
439.829	104.25
440.05	124.25
440.272	139.25
440.493	114.25
440.715	90.25
440.936	82.25
441.158	89.25
441.379	106.25
441.6	85.25
441.822	98.25
442.043	83.25
442.264	107.25
442.486	99.25
442.707	91.25
442.928	113.25
443.149	145.25
443.371	140.25
443.592	121.25
443.813	108.25
444.034	109.25
444.255	90.25
444.476	98.25
444.698	96.25
444.919	94.25
445.14	131.25
445.361	133.25
445.582	118.25
445.803	144.25
446.024	142.25
446.245	146.25
446.466	113.25
446.687	92.25
446.908	88.25
447.129	94.25
447.35	98.25
447.571	101.25
447.792	101.25
448.013	109.25
448.234	110.25
448.455	109.25
448.675	122.25
448.896	107.25
449.117	107.25
449.338	106.25
449.559	127.25
449.779	121.25
450	95.25
450.221	96.25
450.442	81.25
450.662	95.25
450.883	107.25
451.104	118.25
451.324	93.25
451.545	92.25
451.766	76.25
451.986	81.25
452.207	80.25
452.428	90.25
452.648	101.25
452.869	118.25
453.089	121.25
453.31	129.25
453.53	84.25
453.751	78.25
453.971	116.25
454.192	103.25
454.412	100.25
454.633	74.25
454.853	71.25
455.073	92.25
455.294	94.25
455.514	99.25
455.734	102.25
455.955	83.25
456.175	80.25
456.395	85.25
456.616	75.25
456.836	82.25
457.056	74.25
457.276	83.25
457.497	85.25
457.717	87.25
457.937	86.25
458.157	88.25
458.377	77.25
458.598	121.25
458.818	161.25
459.038	187.25
459.258	136.25
459.478	99.25
459.698	76.25
459.918	85.25
460.138	95.25
460.358	84.25
460.578	90.25
460.798	100.25
461.018	81.25
461.238	95.25
461.458	107.25
461.678	62.25
461.898	76.25
462.118	88.25
462.338	66.25
462.558	95.25
462.777	95.25
462.997	105.25
463.217	100.25
463.437	88.25
463.657	76.25
463.876	98.25
464.096	98.25
464.316	93.25
464.536	89.25
464.755	104.25
464.975	108.25
465.195	180.25
465.414	192.25
465.634	118.25
465.854	89.25
466.073	109.25
466.293	98.25
466.512	97.25
466.732	99.25
466.951	97.25
467.171	102.25
467.391	109.25
467.61	112.25
467.829	133.25
468.049	318.25
468.268	453.25
468.488	155.25
468.707	96.25
468.927	76.25
469.146	84.25
469.365	98.25
469.585	95.25
469.804	109.25
470.023	92.25
470.243	101.25
470.462	108.25
470.681	122.25
470.901	81.25
471.12	89.25
471.339	105.25
471.558	98.25
471.777	115.25
471.997	197.25
472.216	575.25
472.435	1246.25
472.654	332.25
472.873	120.25
473.092	102.25
473.311	91.25
473.53	92.25
473.749	96.25
473.968	105.25
474.187	109.25
474.406	81.25
474.625	106.25
474.844	105.25
475.063	94.25
475.282	99.25
475.501	89.25
475.72	76.25
475.939	84.25
476.158	91.25
476.377	88.25
476.596	84.25
476.814	95.25
477.033	89.25
477.252	93.25
477.471	86.25
477.69	91.25
477.908	100.25
478.127	92.25
478.346	81.25
478.564	91.25
478.783	100.25
479.002	97.25
479.22	98.25
479.439	121.25
479.658	119.25
479.876	107.25
480.095	110.25
480.313	101.25
480.532	137.25
480.751	186.25
480.969	544.25
481.188	2169.25
481.406	1275.25
481.624	216.25
481.843	104.25
482.061	101.25
482.28	86.25
482.498	99.25
482.717	84.25
482.935	93.25
483.153	107.25
483.372	104.25
483.59	105.25
483.808	73.25
484.027	90.25
484.245	88.25
484.463	93.25
484.681	102.25
484.9	93.25
485.118	84.25
485.336	91.25
485.554	94.25
485.772	99.25
485.99	96.25
486.209	103.25
486.427	102.25
486.645	118.25
486.863	109.25
487.081	104.25
487.299	103.25
487.517	91.25
487.735	87.25
487.953	82.25
488.171	84.25
488.389	88.25
488.607	107.25
488.825	99.25
489.043	104.25
489.261	90.25
489.479	98.25
489.696	94.25
489.914	85.25
490.132	83.25
490.35	92.25
490.568	85.25
490.786	90.25
491.003	112.25
491.221	94.25
491.439	91.25
491.657	96.25
491.874	101.25
492.092	102.25
492.31	92.25
492.527	110.25
492.745	96.25
492.963	92.25
493.18	97.25
493.398	82.25
493.615	81.25
493.833	86.25
494.05	87.25
494.268	90.25
494.485	95.25
494.703	97.25
494.92	87.25
495.138	82.25
495.355	95.25
495.573	80.25
495.79	102.25
496.008	94.25
496.225	95.25
496.442	101.25
496.66	98.25
496.877	95.25
497.094	96.25
497.312	88.25
497.529	111.25
497.746	91.25
497.963	93.25
498.181	72.25
498.398	97.25
498.615	102.25
498.832	94.25
499.049	98.25
499.267	86.25
499.484	76.25
499.701	88.25
499.918	82.25
500.135	99.25
500.352	91.25
500.569	91.25
500.786	97.25
501.003	84.25
501.22	82.25
501.437	84.25
501.654	91.25
501.871	125.25
502.088	84.25
502.305	84.25
502.522	93.25
502.739	89.25
502.956	87.25
503.172	95.25
503.389	93.25
503.606	112.25
503.823	114.25
504.04	91.25
504.256	99.25
504.473	106.25
504.69	98.25
504.907	112.25
505.123	95.25
505.34	87.25
505.557	101.25
505.773	92.25
505.99	81.25
506.207	105.25
506.423	82.25
506.64	78.25
506.856	90.25
507.073	92.25
507.289	92.25
507.506	99.25
507.722	125.25
507.939	122.25
508.155	110.25
508.372	81.25
508.588	83.25
508.805	92.25
509.021	99.25
509.238	100.25
509.454	86.25
509.67	92.25
509.887	109.25
510.103	126.25
510.319	208.25
510.536	734.25
510.752	2427.25
510.968	669.25
511.184	154.25
511.401	108.25
511.617	87.25
511.833	89.25
512.049	89.25
512.265	96.25
512.481	97.25
512.698	101.25
512.914	94.25
513.13	113.25
513.346	95.25
513.562	100.25
513.778	91.25
513.994	101.25
514.21	113.25
514.426	133.25
514.642	156.25
514.858	127.25
515.074	170.25
515.29	546.25
515.506	1831.25
515.721	668.25
515.937	180.25
516.153	106.25
516.369	81.25
516.585	94.25
516.801	104.25
517.016	98.25
517.232	98.25
517.448	94.25
517.664	97.25
517.879	83.25
518.095	89.25
518.311	109.25
518.527	99.25
518.742	94.25
518.958	79.25
519.173	85.25
519.389	90.25
519.605	102.25
519.82	98.25
520.036	110.25
520.251	119.25
520.467	113.25
520.682	114.25
520.898	104.25
521.113	114.25
521.329	155.25
521.544	227.25
521.76	677.25
521.975	3107.25
522.19	1836.25
522.406	380.25
522.621	148.25
522.836	103.25
523.052	80.25
523.267	97.25
523.482	90.25
523.698	94.25
523.913	122.25
524.128	101.25
524.343	87.25
524.559	91.25
524.774	95.25
524.989	117.25
525.204	113.25
525.419	111.25
525.634	101.25
525.849	91.25
526.064	91.25
526.28	89.25
526.495	96.25
526.71	97.25
526.925	85.25
527.14	80.25
527.355	92.25
527.57	88.25
527.785	80.25
527.999	108.25
528.214	82.25
528.429	97.25
528.644	82.25
528.859	83.25
529.074	102.25
529.289	125.25
529.503	224.25
529.718	111.25
529.933	97.25
530.148	89.25
530.363	100.25
530.577	99.25
530.792	103.25
531.007	80.25
531.221	104.25
531.436	89.25
531.651	113.25
531.865	98.25
532.08	94.25
532.295	72.25
532.509	86.25
532.724	87.25
532.938	100.25
533.153	88.25
533.367	87.25
533.582	91.25
533.796	100.25
534.011	101.25
534.225	95.25
534.44	86.25
534.654	101.25
534.868	103.25
535.083	90.25
535.297	93.25
535.511	103.25
535.726	110.25
535.94	101.25
536.154	82.25
536.369	86.25
536.583	86.25
536.797	94.25
537.011	100.25
537.225	82.25
537.44	70.25
537.654	90.25
537.868	83.25
538.082	97.25
538.296	79.25
538.51	93.25
538.724	82.25
538.938	99.25
539.153	76.25
539.367	111.25
539.581	93.25
539.795	86.25
540.009	95.25
540.222	84.25
540.436	77.25
540.65	73.25
540.864	92.25
541.078	94.25
541.292	86.25
541.506	84.25
541.72	89.25
541.934	86.25
542.147	87.25
542.361	85.25
542.575	98.25
542.789	82.25
543.002	108.25
543.216	82.25
543.43	96.25
543.644	87.25
543.857	88.25
544.071	92.25
544.285	99.25
544.498	86.25
544.712	96.25
544.925	88.25
545.139	98.25
545.352	76.25
545.566	88.25
545.779	85.25
545.993	95.25
546.206	82.25
546.42	83.25
546.633	80.25
546.847	85.25
547.06	88.25
547.274	78.25
547.487	77.25
547.7	87.25
547.914	81.25
548.127	71.25
548.34	86.25
548.554	97.25
548.767	85.25
548.98	90.25
549.193	82.25
549.407	82.25
549.62	97.25
549.833	85.25
550.046	80.25
550.259	82.25
550.473	77.25
550.686	96.25
550.899	84.25
551.112	82.25
551.325	76.25
551.538	93.25
551.751	88.25
551.964	94.25
552.177	98.25
552.39	90.25
552.603	92.25
552.816	94.25
553.029	87.25
553.242	98.25
553.455	89.25
553.667	108.25
553.88	108.25
554.093	89.25
554.306	99.25
554.519	102.25
554.732	98.25
554.944	83.25
555.157	88.25
555.37	105.25
555.583	99.25
555.795	107.25
556.008	98.25
556.221	90.25
556.433	82.25
556.646	97.25
556.859	93.25
557.071	84.25
557.284	87.25
557.496	66.25
557.709	90.25
557.921	88.25
558.134	84.25
558.346	89.25
558.559	94.25
558.771	93.25
558.984	79.25
559.196	88.25
559.409	80.25
559.621	81.25
559.833	89.25
560.046	81.25
560.258	97.25
560.47	117.25
560.683	96.25
560.895	81.25
561.107	83.25
561.32	88.25
561.532	94.25
561.744	99.25
561.956	95.25
562.168	95.25
562.381	83.25
562.593	79.25
562.805	81.25
563.017	90.25
563.229	86.25
563.441	80.25
563.653	80.25
563.865	89.25
564.077	89.25
564.289	86.25
564.501	93.25
564.713	92.25
564.925	104.25
565.137	115.25
565.349	91.25
565.561	74.25
565.773	93.25
565.985	76.25
566.197	80.25
566.408	86.25
566.62	89.25
566.832	78.25
567.044	92.25
567.255	70.25
567.467	88.25
567.679	89.25
567.891	69.25
568.102	91.25
568.314	91.25
568.526	83.25
568.737	82.25
568.949	91.25
569.161	76.25
569.372	75.25
569.584	80.25
569.795	92.25
570.007	127.25
570.218	254.25
570.43	155.25
570.641	100.25
570.853	84.25
571.064	81.25
571.276	86.25
571.487	84.25
571.698	91.25
571.91	73.25
572.121	73.25
572.333	80.25
572.544	100.25
572.755	92.25
572.966	86.25
573.178	95.25
573.389	92.25
573.6	99.25
573.811	88.25
574.023	89.25
574.234	92.25
574.445	74.25
574.656	93.25
574.867	89.25
575.078	69.25
575.289	90.25
575.501	98.25
575.712	102.25
575.923	98.25
576.134	92.25
576.345	92.25
576.556	98.25
576.767	92.25
576.978	80.25
577.188	82.25
577.399	94.25
577.61	86.25
577.821	93.25
578.032	115.25
578.243	278.25
578.454	804.25
578.665	232.25
578.875	87.25
579.086	88.25
579.297	87.25
579.508	89.25
579.718	88.25
579.929	84.25
580.14	85.25
580.35	99.25
580.561	81.25
580.772	84.25
580.982	88.25
581.193	88.25
581.403	78.25
581.614	90.25
581.825	83.25
582.035	85.25
582.246	82.25
582.456	100.25
582.667	76.25
582.877	108.25
583.087	88.25
583.298	83.25
583.508	87.25
583.719	95.25
583.929	85.25
584.139	84.25
584.35	89.25
584.56	86.25
584.77	72.25
584.981	79.25
585.191	83.25
585.401	84.25
585.611	93.25
585.821	95.25
586.032	81.25
586.242	75.25
586.452	80.25
586.662	86.25
586.872	64.25
587.082	80.25
587.292	79.25
587.502	70.25
587.713	80.25
587.923	90.25
588.133	83.25
588.343	67.25
588.553	91.25
588.762	94.25
588.972	95.25
589.182	100.25
589.392	95.25
589.602	91.25
589.812	92.25
590.022	96.25
590.232	85.25
590.441	88.25
590.651	74.25
590.861	85.25
591.071	85.25
591.281	84.25
591.49	81.25
591.7	86.25
591.91	74.25
592.119	86.25
592.329	89.25
592.539	90.25
592.748	73.25
592.958	78.25
593.167	75.25
593.377	100.25
593.587	88.25
593.796	84.25
594.006	84.25
594.215	94.25
594.424	91.25
594.634	88.25
594.843	79.25
595.053	84.25
595.262	83.25
595.472	72.25
595.681	81.25
595.89	88.25
596.1	86.25
596.309	90.25
596.518	94.25
596.727	86.25
596.937	104.25
597.146	92.25
597.355	85.25
597.564	89.25
597.774	86.25
597.983	92.25
598.192	70.25
598.401	70.25
598.61	94.25
598.819	80.25
599.028	85.25
599.237	72.25
599.446	84.25
599.655	84.25
599.864	91.25
600.073	76.25
600.282	88.25
600.491	89.25
600.7	66.25
600.909	88.25
601.118	90.25
601.327	82.25
601.536	74.25
601.745	94.25
601.953	107.25
602.162	93.25
602.371	83.25
602.58	73.25
602.789	78.25
602.997	70.25
603.206	81.25
603.415	79.25
603.623	81.25
603.832	85.25
604.041	84.25
604.249	68.25
604.458	74.25
604.666	78.25
604.875	97.25
605.084	91.25
605.292	80.25
605.501	76.25
605.709	78.25
605.918	92.25
606.126	86.25
606.334	84.25
606.543	93.25
606.751	81.25
606.96	76.25
607.168	84.25
607.376	91.25
607.585	81.25
607.793	76.25
608.001	78.25
608.21	80.25
608.418	94.25
608.626	89.25
608.834	84.25
609.043	88.25
609.251	96.25
609.459	86.25
609.667	84.25
609.875	70.25
610.083	90.25
610.291	100.25
610.499	93.25
610.707	92.25
610.916	92.25
611.124	76.25
611.332	76.25
611.54	83.25
611.748	81.25
611.955	69.25
612.163	65.25
612.371	71.25
612.579	74.25
612.787	88.25
612.995	92.25
613.203	89.25
613.411	81.25
613.618	101.25
613.826	79.25
614.034	74.25
614.242	80.25
614.449	81.25
614.657	80.25
614.865	82.25
615.072	87.25
615.28	81.25
615.488	82.25
615.695	80.25
615.903	99.25
616.111	96.25
616.318	99.25
616.526	100.25
616.733	90.25
616.941	88.25
617.148	98.25
617.356	82.25
617.563	78.25
617.771	90.25
617.978	94.25
618.185	83.25
618.393	82.25
618.6	81.25
618.807	90.25
619.015	69.25
619.222	85.25
619.429	81.25
619.637	89.25
619.844	93.25
620.051	85.25
620.258	73.25
620.466	76.25
620.673	83.25
620.88	97.25
621.087	76.25
621.294	95.25
621.501	86.25
621.708	83.25
621.915	94.25
622.122	68.25
622.329	81.25
622.536	87.25
622.743	76.25
622.95	89.25
623.157	84.25
623.364	82.25
623.571	97.25
623.778	79.25
623.985	85.25
624.192	98.25
624.399	69.25
624.606	78.25
624.812	90.25
625.019	83.25
625.226	76.25
625.433	92.25
625.639	93.25
625.846	84.25
626.053	72.25
626.259	83.25
626.466	79.25
626.673	82.25
626.879	81.25
627.086	90.25
627.293	82.25
627.499	81.25
627.706	85.25
627.912	98.25
628.119	85.25
628.325	70.25
628.532	78.25
628.738	74.25
628.945	81.25
629.151	77.25
629.357	75.25
629.564	80.25
629.77	85.25
629.976	82.25
630.183	78.25
630.389	76.25
630.595	93.25
630.802	88.25
631.008	83.25
631.214	95.25
631.42	90.25
631.627	87.25
631.833	81.25
632.039	74.25
632.245	72.25
632.451	80.25
632.657	88.25
632.863	88.25
633.069	88.25
633.275	78.25
633.481	81.25
633.688	81.25
633.893	76.25
634.099	69.25
634.305	86.25
634.511	78.25
634.717	67.25
634.923	80.25
635.129	91.25
635.335	74.25
635.541	74.25
635.747	96.25
635.952	95.25
636.158	94.25
636.364	218.25
636.57	189.25
636.775	108.25
636.981	82.25
637.187	81.25
637.392	85.25
637.598	98.25
637.804	92.25
638.009	79.25
638.215	87.25
638.421	72.25
638.626	80.25
638.832	91.25
639.037	78.25
639.243	82.25
639.448	76.25
639.654	76.25
639.859	89.25
640.065	85.25
640.27	69.25
640.475	82.25
640.681	69.25
640.886	72.25
641.091	73.25
641.297	94.25
641.502	72.25
641.707	88.25
641.913	80.25
642.118	94.25
642.323	94.25
642.528	83.25
642.733	72.25
642.939	76.25
643.144	74.25
643.349	74.25
643.554	89.25
643.759	79.25
643.964	68.25
644.169	90.25
644.374	92.25
644.579	79.25
644.784	85.25
644.989	77.25
645.194	73.25
645.399	84.25
645.604	79.25
645.809	78.25
646.014	86.25
646.219	81.25
646.423	60.25
646.628	86.25
646.833	77.25
647.038	85.25
647.243	86.25
647.447	69.25
647.652	87.25
647.857	92.25
648.062	67.25
648.266	84.25
648.471	92.25
648.676	102.25
648.88	90.25
649.085	93.25
649.289	91.25
649.494	88.25
649.698	128.25
649.903	101.25
650.107	79.25
650.312	90.25
650.516	84.25
650.721	80.25
650.925	80.25
651.13	86.25
651.334	84.25
651.539	86.25
651.743	76.25
651.947	81.25
652.152	68.25
652.356	85.25
652.56	80.25
652.764	66.25
652.969	78.25
653.173	74.25
653.377	79.25
653.581	80.25
653.785	78.25
653.99	86.25
654.194	90.25
654.398	86.25
654.602	66.25
654.806	82.25
655.01	101.25
655.214	77.25
655.418	85.25
655.622	72.25
655.826	70.25
656.03	88.25
656.234	92.25
656.438	107.25
656.642	79.25
656.846	78.25
657.049	65.25
657.253	68.25
657.457	71.25
657.661	86.25
657.865	78.25
658.068	83.25
658.272	76.25
658.476	87.25
658.68	79.25
658.883	67.25
659.087	70.25
659.291	90.25
659.494	82.25
659.698	83.25
659.901	76.25
660.105	81.25
660.309	75.25
660.512	67.25
660.716	79.25
660.919	80.25
661.123	89.25
661.326	81.25
661.53	82.25
661.733	84.25
661.936	82.25
662.14	76.25
662.343	73.25
662.546	80.25
662.75	76.25
662.953	96.25
663.156	83.25
663.36	56.25
663.563	83.25
663.766	76.25
663.969	60.25
664.173	72.25
664.376	78.25
664.579	58.25
664.782	67.25
664.985	92.25
665.188	87.25
665.391	86.25
665.594	78.25
665.797	75.25
666	74.25
666.203	90.25
666.406	86.25
666.609	86.25
666.812	70.25
667.015	77.25
667.218	67.25
667.421	81.25
667.624	82.25
667.827	77.25
668.03	79.25
668.232	82.25
668.435	80.25
668.638	69.25
668.841	72.25
669.043	82.25
669.246	87.25
669.449	65.25
669.651	69.25
669.854	78.25
670.057	81.25
670.259	82.25
670.462	78.25
670.665	76.25
670.867	77.25
671.07	69.25
671.272	68.25
671.475	84.25
671.677	80.25
671.88	88.25
672.082	80.25
672.284	70.25
672.487	76.25
672.689	86.25
672.892	88.25
