Data from Uncirc_2009_H10_HRD10591_00014.txt Node
Date: Wed Jan 03 10:12:04 EST 2024
User: Yrep
Spectrometer: HR+D1059
Trigger mode: 1
Integration Time (sec): 1.000000E-1
Scans to average: 1
Electric dark correction enabled: true
Nonlinearity correction enabled: false
Boxcar width: 0
XAxis mode: Wavelengths
Number of Pixels in Spectrum: 2048
>>>>>Begin Spectral Data<<<<<
223.165	-15.12
223.4	-15.12
223.635	-15.12
223.869	-12.12
224.104	-7.12
224.338	-17.12
224.573	-21.12
224.808	-19.12
225.042	-10.12
225.277	-13.12
225.511	5.88
225.746	7.88
225.98	-0.12
226.215	7.88
226.449	25.88
226.683	6.88
226.918	28.88
227.152	31.88
227.387	28.88
227.621	42.88
227.856	52.88
228.09	49.88
228.324	45.88
228.559	57.88
228.793	59.88
229.027	61.88
229.262	75.88
229.496	79.88
229.73	81.88
229.964	74.88
230.199	69.88
230.433	71.88
230.667	74.88
230.901	83.88
231.136	89.88
231.37	85.88
231.604	76.88
231.838	108.88
232.072	82.88
232.306	85.88
232.541	93.88
232.775	85.88
233.009	74.88
233.243	85.88
233.477	97.88
233.711	91.88
233.945	80.88
234.179	87.88
234.413	65.88
234.647	80.88
234.881	69.88
235.115	85.88
235.349	80.88
235.583	82.88
235.817	86.88
236.051	97.88
236.285	78.88
236.519	80.88
236.753	78.88
236.987	90.88
237.221	78.88
237.455	89.88
237.689	92.88
237.922	84.88
238.156	77.88
238.39	70.88
238.624	67.88
238.858	78.88
239.091	70.88
239.325	82.88
239.559	91.88
239.793	92.88
240.027	79.88
240.26	80.88
240.494	72.88
240.728	87.88
240.961	73.88
241.195	88.88
241.429	77.88
241.662	84.88
241.896	73.88
242.13	69.88
242.363	59.88
242.597	85.88
242.83	79.88
243.064	78.88
243.298	80.88
243.531	72.88
243.765	82.88
243.998	97.88
244.232	91.88
244.465	95.88
244.699	80.88
244.932	70.88
245.166	74.88
245.399	83.88
245.633	100.88
245.866	76.88
246.099	74.88
246.333	73.88
246.566	76.88
246.8	79.88
247.033	93.88
247.266	85.88
247.5	81.88
247.733	92.88
247.966	92.88
248.2	80.88
248.433	66.88
248.666	75.88
248.899	87.88
249.133	81.88
249.366	103.88
249.599	96.88
249.832	81.88
250.066	73.88
250.299	67.88
250.532	83.88
250.765	60.88
250.998	82.88
251.231	88.88
251.465	82.88
251.698	79.88
251.931	88.88
252.164	75.88
252.397	75.88
252.63	74.88
252.863	69.88
253.096	84.88
253.329	82.88
253.562	90.88
253.795	90.88
254.028	89.88
254.261	90.88
254.494	87.88
254.727	81.88
254.96	79.88
255.193	78.88
255.426	83.88
255.659	82.88
255.892	84.88
256.124	77.88
256.357	81.88
256.59	80.88
256.823	80.88
257.056	84.88
257.289	88.88
257.521	74.88
257.754	84.88
257.987	83.88
258.22	78.88
258.452	66.88
258.685	84.88
258.918	86.88
259.151	87.88
259.383	84.88
259.616	87.88
259.849	98.88
260.081	100.88
260.314	81.88
260.547	81.88
260.779	79.88
261.012	74.88
261.244	89.88
261.477	87.88
261.71	91.88
261.942	104.88
262.175	105.88
262.407	79.88
262.64	89.88
262.872	92.88
263.105	77.88
263.337	94.88
263.57	92.88
263.802	96.88
264.035	92.88
264.267	78.88
264.499	68.88
264.732	97.88
264.964	77.88
265.197	88.88
265.429	84.88
265.661	100.88
265.894	72.88
266.126	82.88
266.358	93.88
266.591	88.88
266.823	80.88
267.055	87.88
267.287	98.88
267.52	87.88
267.752	92.88
267.984	92.88
268.216	83.88
268.448	91.88
268.681	78.88
268.913	74.88
269.145	90.88
269.377	94.88
269.609	84.88
269.841	87.88
270.073	84.88
270.306	88.88
270.538	80.88
270.77	84.88
271.002	87.88
271.234	103.88
271.466	81.88
271.698	90.88
271.93	84.88
272.162	98.88
272.394	85.88
272.626	83.88
272.858	88.88
273.09	83.88
273.322	87.88
273.553	101.88
273.785	101.88
274.017	85.88
274.249	86.88
274.481	86.88
274.713	88.88
274.945	85.88
275.176	79.88
275.408	90.88
275.64	80.88
275.872	87.88
276.104	97.88
276.335	68.88
276.567	98.88
276.799	88.88
277.031	92.88
277.262	90.88
277.494	83.88
277.726	84.88
277.957	98.88
278.189	90.88
278.421	85.88
278.652	84.88
278.884	71.88
279.115	86.88
279.347	84.88
279.579	83.88
279.81	101.88
280.042	88.88
280.273	78.88
280.505	89.88
280.736	97.88
280.968	91.88
281.199	88.88
281.431	92.88
281.662	93.88
281.894	89.88
282.125	91.88
282.356	92.88
282.588	122.88
282.819	102.88
283.051	97.88
283.282	98.88
283.513	103.88
283.745	101.88
283.976	105.88
284.207	103.88
284.439	92.88
284.67	80.88
284.901	91.88
285.132	82.88
285.364	100.88
285.595	91.88
285.826	79.88
286.057	100.88
286.288	100.88
286.52	99.88
286.751	100.88
286.982	90.88
287.213	85.88
287.444	80.88
287.675	105.88
287.906	88.88
288.138	98.88
288.369	99.88
288.6	84.88
288.831	82.88
289.062	107.88
289.293	106.88
289.524	88.88
289.755	89.88
289.986	79.88
290.217	86.88
290.448	87.88
290.679	84.88
290.91	79.88
291.141	84.88
291.371	89.88
291.602	93.88
291.833	83.88
292.064	93.88
292.295	85.88
292.526	89.88
292.757	105.88
292.987	85.88
293.218	91.88
293.449	89.88
293.68	92.88
293.91	104.88
294.141	90.88
294.372	98.88
294.603	93.88
294.833	93.88
295.064	105.88
295.295	108.88
295.525	97.88
295.756	100.88
295.987	108.88
296.217	112.88
296.448	113.88
296.679	92.88
296.909	92.88
297.14	92.88
297.37	97.88
297.601	100.88
297.831	88.88
298.062	90.88
298.292	94.88
298.523	94.88
298.753	83.88
298.984	85.88
299.214	96.88
299.445	99.88
299.675	86.88
299.905	101.88
300.136	106.88
300.366	94.88
300.597	76.88
300.827	111.88
301.057	111.88
301.288	91.88
301.518	88.88
301.748	105.88
301.979	98.88
302.209	77.88
302.439	105.88
302.669	92.88
302.9	85.88
303.13	97.88
303.36	108.88
303.59	100.88
303.82	111.88
304.051	87.88
304.281	89.88
304.511	80.88
304.741	76.88
304.971	104.88
305.201	100.88
305.431	89.88
305.661	79.88
305.891	84.88
306.121	99.88
306.352	92.88
306.582	94.88
306.812	106.88
307.042	74.88
307.272	103.88
307.502	107.88
307.731	101.88
307.961	88.88
308.191	95.88
308.421	94.88
308.651	105.88
308.881	98.88
309.111	91.88
309.341	102.88
309.571	90.88
309.8	98.88
310.03	106.88
310.26	87.88
310.49	91.88
310.72	83.88
310.949	98.88
311.179	89.88
311.409	94.88
311.639	110.88
311.868	95.88
312.098	83.88
312.328	98.88
312.557	92.88
312.787	101.88
313.017	102.88
313.246	90.88
313.476	102.88
313.706	83.88
313.935	98.88
314.165	81.88
314.394	107.88
314.624	97.88
314.853	95.88
315.083	95.88
315.312	100.88
315.542	92.88
315.771	94.88
316.001	97.88
316.23	90.88
316.46	90.88
316.689	95.88
316.919	101.88
317.148	98.88
317.377	122.88
317.607	119.88
317.836	104.88
318.065	92.88
318.295	77.88
318.524	93.88
318.753	87.88
318.983	98.88
319.212	94.88
319.441	105.88
319.67	99.88
319.9	106.88
320.129	93.88
320.358	87.88
320.587	106.88
320.816	100.88
321.046	91.88
321.275	92.88
321.504	89.88
321.733	105.88
321.962	85.88
322.191	97.88
322.42	108.88
322.649	94.88
322.878	105.88
323.108	121.88
323.337	128.88
323.566	130.88
323.795	137.88
324.024	177.88
324.253	336.88
324.482	705.88
324.71	1391.88
324.939	1849.88
325.168	702.88
325.397	221.88
325.626	135.88
325.855	138.88
326.084	138.88
326.313	140.88
326.542	174.88
326.77	207.88
326.999	414.88
327.228	810.88
327.457	1449.88
327.686	1187.88
327.914	329.88
328.143	165.88
328.372	138.88
328.6	129.88
328.829	102.88
329.058	121.88
329.287	117.88
329.515	94.88
329.744	95.88
329.972	103.88
330.201	111.88
330.43	121.88
330.658	127.88
330.887	124.88
331.115	107.88
331.344	96.88
331.572	103.88
331.801	110.88
332.03	98.88
332.258	81.88
332.486	97.88
332.715	91.88
332.943	88.88
333.172	92.88
333.4	95.88
333.629	107.88
333.857	95.88
334.085	105.88
334.314	105.88
334.542	122.88
334.771	115.88
334.999	97.88
335.227	103.88
335.455	87.88
335.684	85.88
335.912	101.88
336.14	105.88
336.369	101.88
336.597	100.88
336.825	109.88
337.053	91.88
337.281	95.88
337.51	84.88
337.738	100.88
337.966	93.88
338.194	98.88
338.422	97.88
338.65	104.88
338.878	95.88
339.106	116.88
339.334	95.88
339.562	102.88
339.79	96.88
340.018	93.88
340.246	100.88
340.474	90.88
340.702	89.88
340.93	90.88
341.158	88.88
341.386	88.88
341.614	89.88
341.842	98.88
342.07	95.88
342.298	104.88
342.526	92.88
342.754	92.88
342.981	85.88
343.209	98.88
343.437	87.88
343.665	86.88
343.893	98.88
344.12	90.88
344.348	88.88
344.576	81.88
344.804	89.88
345.031	103.88
345.259	98.88
345.487	85.88
345.714	100.88
345.942	87.88
346.17	101.88
346.397	92.88
346.625	94.88
346.853	108.88
347.08	89.88
347.308	103.88
347.535	97.88
347.763	90.88
347.99	100.88
348.218	96.88
348.445	116.88
348.673	96.88
348.9	88.88
349.128	85.88
349.355	94.88
349.583	92.88
349.81	79.88
350.037	95.88
350.265	94.88
350.492	92.88
350.72	89.88
350.947	98.88
351.174	87.88
351.402	100.88
351.629	110.88
351.856	106.88
352.083	84.88
352.311	104.88
352.538	91.88
352.765	105.88
352.992	108.88
353.22	96.88
353.447	92.88
353.674	107.88
353.901	86.88
354.128	102.88
354.355	103.88
354.583	106.88
354.81	90.88
355.037	95.88
355.264	89.88
355.491	87.88
355.718	95.88
355.945	101.88
356.172	89.88
356.399	96.88
356.626	99.88
356.853	84.88
357.08	95.88
357.307	96.88
357.534	104.88
357.761	97.88
357.988	115.88
358.215	94.88
358.441	90.88
358.668	89.88
358.895	80.88
359.122	88.88
359.349	85.88
359.576	105.88
359.802	94.88
360.029	115.88
360.256	102.88
360.483	88.88
360.709	104.88
360.936	87.88
361.163	96.88
361.39	96.88
361.616	112.88
361.843	95.88
362.07	97.88
362.296	97.88
362.523	88.88
362.749	91.88
362.976	90.88
363.203	85.88
363.429	86.88
363.656	96.88
363.882	101.88
364.109	84.88
364.335	97.88
364.562	88.88
364.788	96.88
365.015	91.88
365.241	103.88
365.468	100.88
365.694	96.88
365.92	92.88
366.147	100.88
366.373	109.88
366.599	95.88
366.826	93.88
367.052	88.88
367.278	88.88
367.505	87.88
367.731	99.88
367.957	95.88
368.184	102.88
368.41	92.88
368.636	112.88
368.862	101.88
369.089	106.88
369.315	101.88
369.541	97.88
369.767	93.88
369.993	73.88
370.219	81.88
370.445	94.88
370.672	83.88
370.898	104.88
371.124	100.88
371.35	103.88
371.576	90.88
371.802	81.88
372.028	95.88
372.254	96.88
372.48	103.88
372.706	84.88
372.932	92.88
373.158	87.88
373.384	83.88
373.61	92.88
373.835	95.88
374.061	102.88
374.287	84.88
374.513	95.88
374.739	92.88
374.965	75.88
375.191	91.88
375.416	83.88
375.642	93.88
375.868	87.88
376.094	101.88
376.319	96.88
376.545	77.88
376.771	97.88
376.997	96.88
377.222	94.88
377.448	83.88
377.674	100.88
377.899	107.88
378.125	100.88
378.35	89.88
378.576	79.88
378.802	107.88
379.027	81.88
379.253	90.88
379.478	114.88
379.704	81.88
379.929	103.88
380.155	103.88
380.38	110.88
380.606	103.88
380.831	93.88
381.057	104.88
381.282	108.88
381.507	88.88
381.733	103.88
381.958	97.88
382.184	109.88
382.409	98.88
382.634	93.88
382.86	85.88
383.085	98.88
383.31	99.88
383.535	95.88
383.761	93.88
383.986	90.88
384.211	106.88
384.436	96.88
384.662	92.88
384.887	105.88
385.112	103.88
385.337	115.88
385.562	102.88
385.787	109.88
386.013	115.88
386.238	95.88
386.463	116.88
386.688	100.88
386.913	101.88
387.138	101.88
387.363	106.88
387.588	113.88
387.813	110.88
388.038	105.88
388.263	109.88
388.488	108.88
388.713	79.88
388.938	115.88
389.163	99.88
389.387	100.88
389.612	89.88
389.837	106.88
390.062	106.88
390.287	93.88
390.512	88.88
390.736	105.88
390.961	93.88
391.186	99.88
391.411	106.88
391.636	87.88
391.86	100.88
392.085	82.88
392.31	89.88
392.534	95.88
392.759	93.88
392.984	88.88
393.208	95.88
393.433	99.88
393.658	96.88
393.882	97.88
394.107	96.88
394.331	88.88
394.556	97.88
394.78	96.88
395.005	85.88
395.229	76.88
395.454	73.88
395.678	89.88
395.903	94.88
396.127	95.88
396.352	87.88
396.576	84.88
396.801	96.88
397.025	84.88
397.249	95.88
397.474	89.88
397.698	85.88
397.922	83.88
398.147	88.88
398.371	72.88
398.595	85.88
398.82	100.88
399.044	84.88
399.268	79.88
399.492	91.88
399.717	102.88
399.941	76.88
400.165	92.88
400.389	76.88
400.613	93.88
400.837	84.88
401.062	96.88
401.286	90.88
401.51	91.88
401.734	91.88
401.958	92.88
402.182	108.88
402.406	123.88
402.63	115.88
402.854	104.88
403.078	93.88
403.302	91.88
403.526	94.88
403.75	88.88
403.974	89.88
404.198	96.88
404.422	84.88
404.645	96.88
404.869	89.88
405.093	98.88
405.317	108.88
405.541	96.88
405.765	86.88
405.988	107.88
406.212	147.88
406.436	154.88
406.66	118.88
406.883	101.88
407.107	87.88
407.331	81.88
407.555	91.88
407.778	80.88
408.002	104.88
408.226	83.88
408.449	95.88
408.673	98.88
408.896	79.88
409.12	96.88
409.344	82.88
409.567	107.88
409.791	97.88
410.014	84.88
410.238	96.88
410.461	86.88
410.685	95.88
410.908	95.88
411.132	110.88
411.355	82.88
411.578	87.88
411.802	97.88
412.025	83.88
412.249	94.88
412.472	86.88
412.695	87.88
412.919	84.88
413.142	91.88
413.365	93.88
413.589	90.88
413.812	105.88
414.035	91.88
414.258	85.88
414.482	89.88
414.705	93.88
414.928	87.88
415.151	106.88
415.374	86.88
415.597	93.88
415.821	87.88
416.044	91.88
416.267	84.88
416.49	90.88
416.713	86.88
416.936	101.88
417.159	93.88
417.382	101.88
417.605	100.88
417.828	89.88
418.051	90.88
418.274	86.88
418.497	69.88
418.72	82.88
418.943	95.88
419.166	93.88
419.389	86.88
419.611	87.88
419.834	94.88
420.057	98.88
420.28	86.88
420.503	92.88
420.726	84.88
420.948	77.88
421.171	84.88
421.394	90.88
421.617	106.88
421.839	100.88
422.062	86.88
422.285	97.88
422.507	93.88
422.73	102.88
422.953	86.88
423.175	91.88
423.398	103.88
423.621	90.88
423.843	98.88
424.066	104.88
424.288	96.88
424.511	88.88
424.733	86.88
424.956	109.88
425.178	99.88
425.401	109.88
425.623	90.88
425.846	88.88
426.068	104.88
426.291	94.88
426.513	97.88
426.735	101.88
426.958	101.88
427.18	80.88
427.402	119.88
427.625	151.88
427.847	127.88
428.069	116.88
428.292	96.88
428.514	80.88
428.736	80.88
428.958	72.88
429.181	82.88
429.403	78.88
429.625	83.88
429.847	83.88
430.069	90.88
430.292	90.88
430.514	84.88
430.736	81.88
430.958	78.88
431.18	92.88
431.402	89.88
431.624	88.88
431.846	79.88
432.068	101.88
432.29	91.88
432.512	92.88
432.734	80.88
432.956	98.88
433.178	99.88
433.4	101.88
433.622	93.88
433.844	91.88
434.066	90.88
434.287	99.88
434.509	96.88
434.731	91.88
434.953	88.88
435.175	92.88
435.397	96.88
435.618	92.88
435.84	91.88
436.062	110.88
436.284	107.88
436.505	95.88
436.727	120.88
436.949	94.88
437.17	96.88
437.392	92.88
437.614	97.88
437.835	99.88
438.057	104.88
438.278	96.88
438.5	96.88
438.721	93.88
438.943	88.88
439.165	93.88
439.386	98.88
439.608	96.88
439.829	105.88
440.05	98.88
440.272	118.88
440.493	93.88
440.715	88.88
440.936	106.88
441.158	92.88
441.379	73.88
441.6	95.88
441.822	89.88
442.043	84.88
442.264	97.88
442.486	84.88
442.707	94.88
442.928	79.88
443.149	105.88
443.371	124.88
443.592	110.88
443.813	110.88
444.034	100.88
444.255	82.88
444.476	98.88
444.698	85.88
444.919	87.88
445.14	120.88
445.361	118.88
445.582	109.88
445.803	127.88
446.024	111.88
446.245	129.88
446.466	93.88
446.687	80.88
446.908	100.88
447.129	95.88
447.35	77.88
447.571	102.88
447.792	103.88
448.013	90.88
448.234	109.88
448.455	84.88
448.675	119.88
448.896	106.88
449.117	100.88
449.338	90.88
449.559	103.88
449.779	129.88
450	84.88
450.221	100.88
450.442	99.88
450.662	88.88
450.883	96.88
451.104	102.88
451.324	97.88
451.545	99.88
451.766	87.88
451.986	85.88
452.207	91.88
452.428	93.88
452.648	96.88
452.869	123.88
453.089	94.88
453.31	114.88
453.53	99.88
453.751	93.88
453.971	89.88
454.192	93.88
454.412	96.88
454.633	91.88
454.853	97.88
455.073	76.88
455.294	96.88
455.514	106.88
455.734	82.88
455.955	99.88
456.175	90.88
456.395	98.88
456.616	92.88
456.836	96.88
457.056	88.88
457.276	91.88
457.497	82.88
457.717	88.88
457.937	80.88
458.157	93.88
458.377	100.88
458.598	98.88
458.818	135.88
459.038	134.88
459.258	103.88
459.478	84.88
459.698	78.88
459.918	86.88
460.138	90.88
460.358	80.88
460.578	95.88
460.798	93.88
461.018	104.88
461.238	83.88
461.458	96.88
461.678	78.88
461.898	89.88
462.118	81.88
462.338	82.88
462.558	84.88
462.777	88.88
462.997	92.88
463.217	80.88
463.437	84.88
463.657	93.88
463.876	83.88
464.096	98.88
464.316	93.88
464.536	92.88
464.755	88.88
464.975	104.88
465.195	125.88
465.414	126.88
465.634	93.88
465.854	82.88
466.073	92.88
466.293	91.88
466.512	87.88
466.732	93.88
466.951	89.88
467.171	110.88
467.391	93.88
467.61	95.88
467.829	85.88
468.049	96.88
468.268	106.88
468.488	95.88
468.707	75.88
468.927	105.88
469.146	87.88
469.365	103.88
469.585	101.88
469.804	102.88
470.023	88.88
470.243	100.88
470.462	103.88
470.681	107.88
470.901	85.88
471.12	93.88
471.339	83.88
471.558	91.88
471.777	80.88
471.997	88.88
472.216	120.88
472.435	131.88
472.654	89.88
472.873	87.88
473.092	83.88
473.311	93.88
473.53	95.88
473.749	88.88
473.968	89.88
474.187	99.88
474.406	96.88
474.625	90.88
474.844	94.88
475.063	82.88
475.282	83.88
475.501	84.88
475.72	83.88
475.939	95.88
476.158	84.88
476.377	94.88
476.596	81.88
476.814	93.88
477.033	85.88
477.252	81.88
477.471	82.88
477.69	87.88
477.908	73.88
478.127	81.88
478.346	100.88
478.564	87.88
478.783	92.88
479.002	77.88
479.22	79.88
479.439	106.88
479.658	88.88
479.876	91.88
480.095	78.88
480.313	84.88
480.532	91.88
480.751	87.88
480.969	108.88
481.188	166.88
481.406	137.88
481.624	97.88
481.843	92.88
482.061	95.88
482.28	79.88
482.498	85.88
482.717	92.88
482.935	92.88
483.153	87.88
483.372	98.88
483.59	98.88
483.808	94.88
484.027	85.88
484.245	88.88
484.463	88.88
484.681	104.88
484.9	105.88
485.118	96.88
485.336	88.88
485.554	94.88
485.772	99.88
485.99	85.88
486.209	91.88
486.427	108.88
486.645	98.88
486.863	100.88
487.081	102.88
487.299	103.88
487.517	94.88
487.735	95.88
487.953	96.88
488.171	96.88
488.389	107.88
488.607	93.88
488.825	100.88
489.043	99.88
489.261	94.88
489.479	89.88
489.696	92.88
489.914	83.88
490.132	96.88
490.35	104.88
490.568	93.88
490.786	95.88
491.003	83.88
491.221	92.88
491.439	97.88
491.657	98.88
491.874	79.88
492.092	86.88
492.31	89.88
492.527	94.88
492.745	100.88
492.963	88.88
493.18	109.88
493.398	89.88
493.615	106.88
493.833	93.88
494.05	91.88
494.268	96.88
494.485	102.88
494.703	97.88
494.92	109.88
495.138	88.88
495.355	84.88
495.573	77.88
495.79	80.88
496.008	92.88
496.225	107.88
496.442	91.88
496.66	103.88
496.877	81.88
497.094	90.88
497.312	105.88
497.529	99.88
497.746	94.88
497.963	85.88
498.181	101.88
498.398	100.88
498.615	120.88
498.832	99.88
499.049	87.88
499.267	91.88
499.484	92.88
499.701	93.88
499.918	105.88
500.135	97.88
500.352	83.88
500.569	99.88
500.786	94.88
501.003	104.88
501.22	95.88
501.437	91.88
501.654	89.88
501.871	92.88
502.088	96.88
502.305	97.88
502.522	81.88
502.739	91.88
502.956	95.88
503.172	79.88
503.389	89.88
503.606	104.88
503.823	105.88
504.04	91.88
504.256	95.88
504.473	92.88
504.69	83.88
504.907	89.88
505.123	94.88
505.34	93.88
505.557	95.88
505.773	99.88
505.99	91.88
506.207	73.88
506.423	85.88
506.64	81.88
506.856	90.88
507.073	91.88
507.289	79.88
507.506	80.88
507.722	96.88
507.939	106.88
508.155	90.88
508.372	84.88
508.588	92.88
508.805	91.88
509.021	99.88
509.238	89.88
509.454	99.88
509.67	109.88
509.887	96.88
510.103	120.88
510.319	178.88
510.536	540.88
510.752	1607.88
510.968	493.88
511.184	141.88
511.401	104.88
511.617	103.88
511.833	85.88
512.049	92.88
512.265	96.88
512.481	92.88
512.698	91.88
512.914	83.88
513.13	99.88
513.346	89.88
513.562	92.88
513.778	94.88
513.994	95.88
514.21	102.88
514.426	129.88
514.642	116.88
514.858	104.88
515.074	152.88
515.29	323.88
515.506	964.88
515.721	399.88
515.937	131.88
516.153	107.88
516.369	107.88
516.585	102.88
516.801	94.88
517.016	96.88
517.232	90.88
517.448	96.88
517.664	79.88
517.879	94.88
518.095	95.88
518.311	86.88
518.527	88.88
518.742	85.88
518.958	103.88
519.173	81.88
519.389	101.88
519.605	83.88
519.82	87.88
520.036	98.88
520.251	106.88
520.467	101.88
520.682	103.88
520.898	119.88
521.113	101.88
521.329	117.88
521.544	164.88
521.76	409.88
521.975	1530.88
522.19	987.88
522.406	240.88
522.621	120.88
522.836	99.88
523.052	81.88
523.267	82.88
523.482	89.88
523.698	95.88
523.913	116.88
524.128	111.88
524.343	98.88
524.559	99.88
524.774	89.88
524.989	82.88
525.204	97.88
525.419	100.88
525.634	106.88
525.849	85.88
526.064	97.88
526.28	100.88
526.495	100.88
526.71	92.88
526.925	95.88
527.14	91.88
527.355	92.88
527.57	93.88
527.785	82.88
527.999	90.88
528.214	106.88
528.429	94.88
528.644	85.88
528.859	89.88
529.074	90.88
529.289	109.88
529.503	144.88
529.718	96.88
529.933	77.88
530.148	108.88
530.363	102.88
530.577	91.88
530.792	81.88
531.007	100.88
531.221	99.88
531.436	88.88
531.651	98.88
531.865	88.88
532.08	92.88
532.295	101.88
532.509	83.88
532.724	93.88
532.938	82.88
533.153	93.88
533.367	96.88
533.582	83.88
533.796	82.88
534.011	91.88
534.225	94.88
534.44	89.88
534.654	101.88
534.868	103.88
535.083	99.88
535.297	92.88
535.511	98.88
535.726	109.88
535.94	115.88
536.154	103.88
536.369	100.88
536.583	98.88
536.797	88.88
537.011	88.88
537.225	94.88
537.44	90.88
537.654	90.88
537.868	101.88
538.082	91.88
538.296	89.88
538.51	92.88
538.724	90.88
538.938	103.88
539.153	95.88
539.367	104.88
539.581	107.88
539.795	91.88
540.009	101.88
540.222	82.88
540.436	99.88
540.65	92.88
540.864	96.88
541.078	105.88
541.292	98.88
541.506	87.88
541.72	81.88
541.934	94.88
542.147	96.88
542.361	91.88
542.575	97.88
542.789	88.88
543.002	92.88
543.216	97.88
543.43	86.88
543.644	96.88
543.857	95.88
544.071	90.88
544.285	96.88
544.498	85.88
544.712	86.88
544.925	85.88
545.139	95.88
545.352	89.88
545.566	83.88
545.779	90.88
545.993	92.88
546.206	96.88
546.42	102.88
546.633	101.88
546.847	89.88
547.06	88.88
547.274	91.88
547.487	84.88
547.7	103.88
547.914	95.88
548.127	103.88
548.34	99.88
548.554	107.88
548.767	88.88
548.98	91.88
549.193	93.88
549.407	98.88
549.62	82.88
549.833	98.88
550.046	94.88
550.259	102.88
550.473	95.88
550.686	108.88
550.899	91.88
551.112	89.88
551.325	79.88
551.538	107.88
551.751	95.88
551.964	87.88
552.177	86.88
552.39	86.88
552.603	94.88
552.816	84.88
553.029	99.88
553.242	86.88
553.455	96.88
553.667	101.88
553.88	107.88
554.093	97.88
554.306	83.88
554.519	99.88
554.732	85.88
554.944	93.88
555.157	88.88
555.37	95.88
555.583	109.88
555.795	95.88
556.008	103.88
556.221	100.88
556.433	90.88
556.646	83.88
556.859	93.88
557.071	94.88
557.284	84.88
557.496	95.88
557.709	99.88
557.921	106.88
558.134	84.88
558.346	101.88
558.559	97.88
558.771	93.88
558.984	103.88
559.196	99.88
559.409	83.88
559.621	95.88
559.833	95.88
560.046	88.88
560.258	87.88
560.47	93.88
560.683	89.88
560.895	84.88
561.107	101.88
561.32	99.88
561.532	104.88
561.744	90.88
561.956	99.88
562.168	93.88
562.381	100.88
562.593	95.88
562.805	93.88
563.017	114.88
563.229	98.88
563.441	91.88
563.653	93.88
563.865	80.88
564.077	91.88
564.289	84.88
564.501	92.88
564.713	92.88
564.925	76.88
565.137	90.88
565.349	92.88
565.561	103.88
565.773	100.88
565.985	97.88
566.197	85.88
566.408	89.88
566.62	76.88
566.832	84.88
567.044	104.88
567.255	103.88
567.467	84.88
567.679	90.88
567.891	92.88
568.102	83.88
568.314	76.88
568.526	96.88
568.737	92.88
568.949	92.88
569.161	81.88
569.372	83.88
569.584	94.88
569.795	93.88
570.007	111.88
570.218	212.88
570.43	114.88
570.641	83.88
570.853	76.88
571.064	69.88
571.276	106.88
571.487	96.88
571.698	98.88
571.91	97.88
572.121	86.88
572.333	102.88
572.544	100.88
572.755	104.88
572.966	82.88
573.178	95.88
573.389	88.88
573.6	93.88
573.811	97.88
574.023	89.88
574.234	92.88
574.445	105.88
574.656	98.88
574.867	92.88
575.078	91.88
575.289	78.88
575.501	97.88
575.712	102.88
575.923	101.88
576.134	85.88
576.345	116.88
576.556	85.88
576.767	90.88
576.978	99.88
577.188	90.88
577.399	92.88
577.61	83.88
577.821	109.88
578.032	105.88
578.243	212.88
578.454	546.88
578.665	186.88
578.875	108.88
579.086	85.88
579.297	76.88
579.508	84.88
579.718	90.88
579.929	89.88
580.14	91.88
580.35	96.88
580.561	80.88
580.772	88.88
580.982	91.88
581.193	82.88
581.403	95.88
581.614	84.88
581.825	92.88
582.035	83.88
582.246	97.88
582.456	92.88
582.667	89.88
582.877	83.88
583.087	91.88
583.298	85.88
583.508	104.88
583.719	68.88
583.929	92.88
584.139	96.88
584.35	81.88
584.56	91.88
584.77	87.88
584.981	86.88
585.191	94.88
585.401	90.88
585.611	81.88
585.821	87.88
586.032	89.88
586.242	83.88
586.452	91.88
586.662	93.88
586.872	88.88
587.082	103.88
587.292	79.88
587.502	76.88
587.713	89.88
587.923	80.88
588.133	98.88
588.343	85.88
588.553	84.88
588.762	89.88
588.972	92.88
589.182	123.88
589.392	107.88
589.602	91.88
589.812	115.88
590.022	122.88
590.232	92.88
590.441	78.88
590.651	84.88
590.861	97.88
591.071	93.88
591.281	75.88
591.49	85.88
591.7	92.88
591.91	93.88
592.119	97.88
592.329	92.88
592.539	94.88
592.748	80.88
592.958	87.88
593.167	81.88
593.377	89.88
593.587	93.88
593.796	75.88
594.006	94.88
594.215	91.88
594.424	88.88
594.634	104.88
594.843	85.88
595.053	96.88
595.262	93.88
595.472	94.88
595.681	91.88
595.89	99.88
596.1	81.88
596.309	84.88
596.518	92.88
596.727	94.88
596.937	99.88
597.146	90.88
597.355	83.88
597.564	75.88
597.774	92.88
597.983	85.88
598.192	87.88
598.401	76.88
598.61	81.88
598.819	89.88
599.028	100.88
599.237	88.88
599.446	89.88
599.655	93.88
599.864	88.88
600.073	78.88
600.282	95.88
600.491	90.88
600.7	91.88
600.909	79.88
601.118	87.88
601.327	98.88
601.536	90.88
601.745	76.88
601.953	82.88
602.162	97.88
602.371	89.88
602.58	92.88
602.789	75.88
602.997	81.88
603.206	89.88
603.415	76.88
603.623	95.88
603.832	92.88
604.041	84.88
604.249	94.88
604.458	83.88
604.666	82.88
604.875	93.88
605.084	82.88
605.292	95.88
605.501	91.88
605.709	89.88
605.918	83.88
606.126	84.88
606.334	100.88
606.543	91.88
606.751	92.88
606.96	95.88
607.168	92.88
607.376	76.88
607.585	91.88
607.793	89.88
608.001	95.88
608.21	90.88
608.418	79.88
608.626	85.88
608.834	68.88
609.043	75.88
609.251	86.88
609.459	95.88
609.667	88.88
609.875	93.88
610.083	85.88
610.291	80.88
610.499	80.88
610.707	92.88
610.916	89.88
611.124	93.88
611.332	101.88
611.54	85.88
611.748	77.88
611.955	88.88
612.163	98.88
612.371	80.88
612.579	95.88
612.787	82.88
612.995	77.88
613.203	92.88
613.411	85.88
613.618	96.88
613.826	91.88
614.034	93.88
614.242	81.88
614.449	97.88
614.657	81.88
614.865	101.88
615.072	89.88
615.28	82.88
615.488	93.88
615.695	96.88
615.903	110.88
616.111	98.88
616.318	104.88
616.526	93.88
616.733	95.88
616.941	101.88
617.148	99.88
617.356	85.88
617.563	93.88
617.771	94.88
617.978	79.88
618.185	91.88
618.393	88.88
618.6	90.88
618.807	90.88
619.015	80.88
619.222	91.88
619.429	95.88
619.637	84.88
619.844	79.88
620.051	99.88
620.258	83.88
620.466	93.88
620.673	83.88
620.88	89.88
621.087	84.88
621.294	77.88
621.501	76.88
621.708	80.88
621.915	97.88
622.122	85.88
622.329	65.88
622.536	84.88
622.743	97.88
622.95	94.88
623.157	82.88
623.364	104.88
623.571	90.88
623.778	75.88
623.985	73.88
624.192	80.88
624.399	76.88
624.606	108.88
624.812	103.88
625.019	85.88
625.226	85.88
625.433	97.88
625.639	86.88
625.846	102.88
626.053	74.88
626.259	91.88
626.466	83.88
626.673	92.88
626.879	80.88
627.086	75.88
627.293	72.88
627.499	88.88
627.706	80.88
627.912	86.88
628.119	72.88
628.325	91.88
628.532	88.88
628.738	80.88
628.945	85.88
629.151	75.88
629.357	87.88
629.564	90.88
629.77	84.88
629.976	94.88
630.183	69.88
630.389	78.88
630.595	81.88
630.802	100.88
631.008	88.88
631.214	80.88
631.42	88.88
631.627	109.88
631.833	83.88
632.039	92.88
632.245	102.88
632.451	84.88
632.657	84.88
632.863	84.88
633.069	78.88
633.275	83.88
633.481	75.88
633.688	91.88
633.893	84.88
634.099	77.88
634.305	76.88
634.511	88.88
634.717	80.88
634.923	69.88
635.129	94.88
635.335	83.88
635.541	73.88
635.747	89.88
635.952	76.88
636.158	86.88
636.364	91.88
636.57	91.88
636.775	89.88
636.981	85.88
637.187	85.88
637.392	77.88
637.598	75.88
637.804	93.88
638.009	80.88
638.215	86.88
638.421	78.88
638.626	69.88
638.832	73.88
639.037	87.88
639.243	79.88
639.448	82.88
639.654	85.88
639.859	80.88
640.065	80.88
640.27	94.88
640.475	86.88
640.681	75.88
640.886	97.88
641.091	86.88
641.297	87.88
641.502	79.88
641.707	97.88
641.913	87.88
642.118	70.88
642.323	80.88
642.528	102.88
642.733	82.88
642.939	83.88
643.144	81.88
643.349	92.88
643.554	93.88
643.759	83.88
643.964	83.88
644.169	87.88
644.374	85.88
644.579	97.88
644.784	81.88
644.989	80.88
645.194	78.88
645.399	78.88
645.604	83.88
645.809	99.88
646.014	92.88
646.219	79.88
646.423	87.88
646.628	89.88
646.833	103.88
647.038	91.88
647.243	89.88
647.447	96.88
647.652	84.88
647.857	84.88
648.062	71.88
648.266	90.88
648.471	103.88
648.676	93.88
648.88	80.88
649.085	90.88
649.289	84.88
649.494	103.88
649.698	118.88
649.903	115.88
650.107	95.88
650.312	87.88
650.516	84.88
650.721	83.88
650.925	82.88
651.13	90.88
651.334	84.88
651.539	80.88
651.743	90.88
651.947	81.88
652.152	87.88
652.356	89.88
652.56	97.88
652.764	109.88
652.969	89.88
653.173	76.88
653.377	95.88
653.581	92.88
653.785	91.88
653.99	80.88
654.194	93.88
654.398	94.88
654.602	93.88
654.806	94.88
655.01	103.88
655.214	100.88
655.418	89.88
655.622	73.88
655.826	85.88
656.03	91.88
656.234	95.88
656.438	84.88
656.642	82.88
656.846	83.88
657.049	92.88
657.253	60.88
657.457	83.88
657.661	80.88
657.865	84.88
658.068	81.88
658.272	85.88
658.476	85.88
658.68	75.88
658.883	85.88
659.087	73.88
659.291	72.88
659.494	85.88
659.698	65.88
659.901	76.88
660.105	75.88
660.309	80.88
660.512	80.88
660.716	90.88
660.919	89.88
661.123	92.88
661.326	89.88
661.53	76.88
661.733	81.88
661.936	80.88
662.14	76.88
662.343	102.88
662.546	78.88
662.75	85.88
662.953	90.88
663.156	95.88
663.36	95.88
663.563	78.88
663.766	79.88
663.969	80.88
664.173	75.88
664.376	83.88
664.579	76.88
664.782	83.88
664.985	90.88
665.188	82.88
665.391	84.88
665.594	85.88
665.797	94.88
666	82.88
666.203	90.88
666.406	80.88
666.609	80.88
666.812	77.88
667.015	80.88
667.218	81.88
667.421	93.88
667.624	81.88
667.827	74.88
668.03	80.88
668.232	81.88
668.435	83.88
668.638	79.88
668.841	91.88
669.043	68.88
669.246	82.88
669.449	78.88
669.651	87.88
669.854	87.88
670.057	70.88
670.259	76.88
670.462	79.88
670.665	93.88
670.867	74.88
671.07	70.88
671.272	76.88
671.475	101.88
671.677	65.88
671.88	84.88
672.082	68.88
672.284	79.88
672.487	76.88
672.689	80.88
672.892	74.88
