Data from Uncirc_2009_H10_HRD10591_00025.txt Node
Date: Wed Jan 03 10:12:06 EST 2024
User: Yrep
Spectrometer: HR+D1059
Trigger mode: 1
Integration Time (sec): 1.000000E-1
Scans to average: 1
Electric dark correction enabled: true
Nonlinearity correction enabled: false
Boxcar width: 0
XAxis mode: Wavelengths
Number of Pixels in Spectrum: 2048
>>>>>Begin Spectral Data<<<<<
223.165	-27.62
223.4	-27.62
223.635	-27.62
223.869	-9.62
224.104	-4.62
224.338	-23.62
224.573	-20.62
224.808	-0.62
225.042	-7.62
225.277	-22.62
225.511	-6.62
225.746	1.38
225.98	5.38
226.215	27.38
226.449	20.38
226.683	4.38
226.918	31.38
227.152	33.38
227.387	29.38
227.621	32.38
227.856	49.38
228.09	38.38
228.324	58.38
228.559	61.38
228.793	66.38
229.027	51.38
229.262	58.38
229.496	73.38
229.73	67.38
229.964	86.38
230.199	71.38
230.433	71.38
230.667	83.38
230.901	77.38
231.136	77.38
231.37	72.38
231.604	87.38
231.838	77.38
232.072	77.38
232.306	83.38
232.541	93.38
232.775	88.38
233.009	81.38
233.243	79.38
233.477	80.38
233.711	78.38
233.945	76.38
234.179	82.38
234.413	90.38
234.647	82.38
234.881	83.38
235.115	82.38
235.349	88.38
235.583	89.38
235.817	87.38
236.051	84.38
236.285	77.38
236.519	64.38
236.753	80.38
236.987	82.38
237.221	87.38
237.455	85.38
237.689	69.38
237.922	76.38
238.156	79.38
238.39	72.38
238.624	73.38
238.858	69.38
239.091	71.38
239.325	80.38
239.559	74.38
239.793	67.38
240.027	64.38
240.26	74.38
240.494	69.38
240.728	69.38
240.961	72.38
241.195	94.38
241.429	79.38
241.662	79.38
241.896	81.38
242.13	71.38
242.363	80.38
242.597	73.38
242.83	82.38
243.064	80.38
243.298	78.38
243.531	57.38
243.765	73.38
243.998	78.38
244.232	82.38
244.465	91.38
244.699	85.38
244.932	83.38
245.166	76.38
245.399	73.38
245.633	84.38
245.866	81.38
246.099	82.38
246.333	76.38
246.566	79.38
246.8	78.38
247.033	73.38
247.266	71.38
247.5	77.38
247.733	82.38
247.966	75.38
248.2	83.38
248.433	76.38
248.666	86.38
248.899	59.38
249.133	78.38
249.366	79.38
249.599	78.38
249.832	79.38
250.066	84.38
250.299	83.38
250.532	73.38
250.765	80.38
250.998	78.38
251.231	83.38
251.465	84.38
251.698	79.38
251.931	75.38
252.164	75.38
252.397	80.38
252.63	81.38
252.863	93.38
253.096	81.38
253.329	85.38
253.562	78.38
253.795	87.38
254.028	94.38
254.261	103.38
254.494	77.38
254.727	92.38
254.96	86.38
255.193	79.38
255.426	82.38
255.659	79.38
255.892	88.38
256.124	90.38
256.357	83.38
256.59	87.38
256.823	81.38
257.056	83.38
257.289	85.38
257.521	68.38
257.754	76.38
257.987	74.38
258.22	73.38
258.452	83.38
258.685	73.38
258.918	76.38
259.151	78.38
259.383	80.38
259.616	69.38
259.849	87.38
260.081	69.38
260.314	70.38
260.547	79.38
260.779	65.38
261.012	81.38
261.244	65.38
261.477	89.38
261.71	91.38
261.942	88.38
262.175	97.38
262.407	86.38
262.64	85.38
262.872	81.38
263.105	76.38
263.337	95.38
263.57	81.38
263.802	102.38
264.035	92.38
264.267	83.38
264.499	80.38
264.732	84.38
264.964	73.38
265.197	70.38
265.429	77.38
265.661	88.38
265.894	87.38
266.126	80.38
266.358	76.38
266.591	77.38
266.823	73.38
267.055	66.38
267.287	77.38
267.52	71.38
267.752	84.38
267.984	90.38
268.216	74.38
268.448	80.38
268.681	86.38
268.913	72.38
269.145	73.38
269.377	73.38
269.609	83.38
269.841	89.38
270.073	79.38
270.306	88.38
270.538	86.38
270.77	101.38
271.002	90.38
271.234	78.38
271.466	85.38
271.698	81.38
271.93	75.38
272.162	93.38
272.394	93.38
272.626	94.38
272.858	87.38
273.09	89.38
273.322	87.38
273.553	100.38
273.785	89.38
274.017	91.38
274.249	91.38
274.481	76.38
274.713	87.38
274.945	88.38
275.176	91.38
275.408	76.38
275.64	76.38
275.872	78.38
276.104	73.38
276.335	88.38
276.567	93.38
276.799	106.38
277.031	87.38
277.262	89.38
277.494	89.38
277.726	93.38
277.957	83.38
278.189	76.38
278.421	88.38
278.652	90.38
278.884	89.38
279.115	103.38
279.347	80.38
279.579	85.38
279.81	89.38
280.042	90.38
280.273	78.38
280.505	83.38
280.736	72.38
280.968	81.38
281.199	88.38
281.431	79.38
281.662	88.38
281.894	92.38
282.125	93.38
282.356	96.38
282.588	124.38
282.819	103.38
283.051	98.38
283.282	91.38
283.513	91.38
283.745	98.38
283.976	107.38
284.207	93.38
284.439	89.38
284.67	98.38
284.901	95.38
285.132	91.38
285.364	87.38
285.595	92.38
285.826	93.38
286.057	78.38
286.288	88.38
286.52	94.38
286.751	95.38
286.982	88.38
287.213	70.38
287.444	86.38
287.675	83.38
287.906	76.38
288.138	83.38
288.369	94.38
288.6	94.38
288.831	76.38
289.062	82.38
289.293	87.38
289.524	92.38
289.755	81.38
289.986	82.38
290.217	83.38
290.448	94.38
290.679	87.38
290.91	81.38
291.141	82.38
291.371	86.38
291.602	98.38
291.833	99.38
292.064	82.38
292.295	87.38
292.526	90.38
292.757	93.38
292.987	76.38
293.218	88.38
293.449	85.38
293.68	81.38
293.91	83.38
294.141	89.38
294.372	78.38
294.603	93.38
294.833	90.38
295.064	65.38
295.295	94.38
295.525	98.38
295.756	103.38
295.987	112.38
296.217	122.38
296.448	106.38
296.679	80.38
296.909	101.38
297.14	91.38
297.37	95.38
297.601	93.38
297.831	94.38
298.062	83.38
298.292	77.38
298.523	96.38
298.753	94.38
298.984	83.38
299.214	84.38
299.445	77.38
299.675	89.38
299.905	101.38
300.136	95.38
300.366	94.38
300.597	82.38
300.827	85.38
301.057	93.38
301.288	103.38
301.518	103.38
301.748	93.38
301.979	93.38
302.209	93.38
302.439	91.38
302.669	90.38
302.9	82.38
303.13	80.38
303.36	101.38
303.59	101.38
303.82	97.38
304.051	99.38
304.281	81.38
304.511	72.38
304.741	90.38
304.971	88.38
305.201	94.38
305.431	105.38
305.661	86.38
305.891	79.38
306.121	92.38
306.352	102.38
306.582	99.38
306.812	85.38
307.042	84.38
307.272	98.38
307.502	74.38
307.731	80.38
307.961	97.38
308.191	99.38
308.421	80.38
308.651	98.38
308.881	87.38
309.111	83.38
309.341	79.38
309.571	96.38
309.8	97.38
310.03	90.38
310.26	104.38
310.49	91.38
310.72	96.38
310.949	92.38
311.179	85.38
311.409	96.38
311.639	97.38
311.868	97.38
312.098	90.38
312.328	95.38
312.557	104.38
312.787	95.38
313.017	97.38
313.246	93.38
313.476	91.38
313.706	96.38
313.935	87.38
314.165	90.38
314.394	104.38
314.624	86.38
314.853	98.38
315.083	80.38
315.312	83.38
315.542	82.38
315.771	84.38
316.001	105.38
316.23	85.38
316.46	97.38
316.689	102.38
316.919	87.38
317.148	101.38
317.377	118.38
317.607	119.38
317.836	106.38
318.065	90.38
318.295	90.38
318.524	94.38
318.753	95.38
318.983	72.38
319.212	80.38
319.441	91.38
319.67	102.38
319.9	90.38
320.129	107.38
320.358	88.38
320.587	90.38
320.816	98.38
321.046	91.38
321.275	96.38
321.504	100.38
321.733	86.38
321.962	90.38
322.191	94.38
322.42	100.38
322.649	103.38
322.878	126.38
323.108	102.38
323.337	120.38
323.566	114.38
323.795	137.38
324.024	177.38
324.253	318.38
324.482	617.38
324.71	1194.38
324.939	1625.38
325.168	605.38
325.397	207.38
325.626	141.38
325.855	109.38
326.084	131.38
326.313	147.38
326.542	163.38
326.77	192.38
326.999	368.38
327.228	753.38
327.457	1303.38
327.686	1029.38
327.914	301.38
328.143	167.38
328.372	133.38
328.6	110.38
328.829	93.38
329.058	102.38
329.287	112.38
329.515	97.38
329.744	93.38
329.972	104.38
330.201	100.38
330.43	121.38
330.658	102.38
330.887	101.38
331.115	88.38
331.344	105.38
331.572	106.38
331.801	106.38
332.03	107.38
332.258	93.38
332.486	88.38
332.715	104.38
332.943	89.38
333.172	91.38
333.4	91.38
333.629	104.38
333.857	91.38
334.085	98.38
334.314	124.38
334.542	88.38
334.771	100.38
334.999	92.38
335.227	82.38
335.455	95.38
335.684	87.38
335.912	83.38
336.14	100.38
336.369	96.38
336.597	89.38
336.825	94.38
337.053	92.38
337.281	94.38
337.51	115.38
337.738	89.38
337.966	86.38
338.194	95.38
338.422	93.38
338.65	78.38
338.878	97.38
339.106	77.38
339.334	90.38
339.562	94.38
339.79	84.38
340.018	94.38
340.246	80.38
340.474	93.38
340.702	81.38
340.93	89.38
341.158	83.38
341.386	97.38
341.614	90.38
341.842	104.38
342.07	93.38
342.298	102.38
342.526	91.38
342.754	96.38
342.981	97.38
343.209	86.38
343.437	104.38
343.665	95.38
343.893	89.38
344.12	99.38
344.348	82.38
344.576	82.38
344.804	103.38
345.031	99.38
345.259	106.38
345.487	95.38
345.714	102.38
345.942	83.38
346.17	120.38
346.397	98.38
346.625	95.38
346.853	102.38
347.08	86.38
347.308	95.38
347.535	102.38
347.763	97.38
347.99	107.38
348.218	100.38
348.445	86.38
348.673	101.38
348.9	105.38
349.128	97.38
349.355	96.38
349.583	92.38
349.81	90.38
350.037	91.38
350.265	103.38
350.492	82.38
350.72	85.38
350.947	97.38
351.174	111.38
351.402	101.38
351.629	85.38
351.856	95.38
352.083	98.38
352.311	106.38
352.538	99.38
352.765	109.38
352.992	96.38
353.22	107.38
353.447	101.38
353.674	102.38
353.901	90.38
354.128	83.38
354.355	83.38
354.583	106.38
354.81	73.38
355.037	93.38
355.264	99.38
355.491	92.38
355.718	87.38
355.945	94.38
356.172	107.38
356.399	91.38
356.626	102.38
356.853	98.38
357.08	111.38
357.307	89.38
357.534	90.38
357.761	90.38
357.988	106.38
358.215	94.38
358.441	107.38
358.668	103.38
358.895	85.38
359.122	92.38
359.349	77.38
359.576	96.38
359.802	98.38
360.029	95.38
360.256	95.38
360.483	78.38
360.709	99.38
360.936	100.38
361.163	92.38
361.39	98.38
361.616	92.38
361.843	89.38
362.07	86.38
362.296	86.38
362.523	90.38
362.749	93.38
362.976	93.38
363.203	88.38
363.429	88.38
363.656	97.38
363.882	96.38
364.109	81.38
364.335	74.38
364.562	83.38
364.788	91.38
365.015	86.38
365.241	82.38
365.468	102.38
365.694	96.38
365.92	83.38
366.147	88.38
366.373	87.38
366.599	94.38
366.826	107.38
367.052	95.38
367.278	101.38
367.505	82.38
367.731	95.38
367.957	96.38
368.184	91.38
368.41	88.38
368.636	105.38
368.862	104.38
369.089	96.38
369.315	89.38
369.541	93.38
369.767	75.38
369.993	85.38
370.219	90.38
370.445	82.38
370.672	98.38
370.898	95.38
371.124	92.38
371.35	93.38
371.576	98.38
371.802	92.38
372.028	90.38
372.254	84.38
372.48	93.38
372.706	86.38
372.932	107.38
373.158	87.38
373.384	101.38
373.61	93.38
373.835	87.38
374.061	87.38
374.287	87.38
374.513	90.38
374.739	85.38
374.965	92.38
375.191	88.38
375.416	94.38
375.642	99.38
375.868	106.38
376.094	93.38
376.319	69.38
376.545	97.38
376.771	91.38
376.997	90.38
377.222	89.38
377.448	82.38
377.674	93.38
377.899	79.38
378.125	82.38
378.35	93.38
378.576	88.38
378.802	91.38
379.027	91.38
379.253	92.38
379.478	91.38
379.704	87.38
379.929	85.38
380.155	101.38
380.38	103.38
380.606	93.38
380.831	100.38
381.057	88.38
381.282	89.38
381.507	110.38
381.733	110.38
381.958	94.38
382.184	101.38
382.409	95.38
382.634	105.38
382.86	88.38
383.085	97.38
383.31	104.38
383.535	92.38
383.761	98.38
383.986	95.38
384.211	101.38
384.436	102.38
384.662	87.38
384.887	109.38
385.112	106.38
385.337	104.38
385.562	107.38
385.787	95.38
386.013	103.38
386.238	114.38
386.463	105.38
386.688	117.38
386.913	107.38
387.138	105.38
387.363	109.38
387.588	115.38
387.813	100.38
388.038	100.38
388.263	116.38
388.488	113.38
388.713	102.38
388.938	93.38
389.163	95.38
389.387	104.38
389.612	100.38
389.837	102.38
390.062	103.38
390.287	94.38
390.512	86.38
390.736	92.38
390.961	87.38
391.186	90.38
391.411	90.38
391.636	94.38
391.86	87.38
392.085	88.38
392.31	85.38
392.534	79.38
392.759	82.38
392.984	74.38
393.208	94.38
393.433	101.38
393.658	99.38
393.882	86.38
394.107	97.38
394.331	96.38
394.556	75.38
394.78	97.38
395.005	80.38
395.229	94.38
395.454	82.38
395.678	85.38
395.903	107.38
396.127	98.38
396.352	95.38
396.576	80.38
396.801	73.38
397.025	69.38
397.249	82.38
397.474	92.38
397.698	89.38
397.922	90.38
398.147	78.38
398.371	106.38
398.595	81.38
398.82	97.38
399.044	78.38
399.268	83.38
399.492	81.38
399.717	83.38
399.941	74.38
400.165	92.38
400.389	93.38
400.613	93.38
400.837	97.38
401.062	91.38
401.286	75.38
401.51	73.38
401.734	88.38
401.958	91.38
402.182	113.38
402.406	119.38
402.63	91.38
402.854	90.38
403.078	95.38
403.302	66.38
403.526	94.38
403.75	88.38
403.974	97.38
404.198	101.38
404.422	89.38
404.645	98.38
404.869	83.38
405.093	89.38
405.317	108.38
405.541	94.38
405.765	97.38
405.988	102.38
406.212	134.38
406.436	153.38
406.66	126.38
406.883	87.38
407.107	86.38
407.331	104.38
407.555	95.38
407.778	98.38
408.002	82.38
408.226	100.38
408.449	79.38
408.673	85.38
408.896	86.38
409.12	109.38
409.344	94.38
409.567	83.38
409.791	105.38
410.014	95.38
410.238	92.38
410.461	89.38
410.685	95.38
410.908	95.38
411.132	92.38
411.355	102.38
411.578	102.38
411.802	96.38
412.025	82.38
412.249	95.38
412.472	89.38
412.695	95.38
412.919	68.38
413.142	71.38
413.365	93.38
413.589	85.38
413.812	88.38
414.035	83.38
414.258	87.38
414.482	85.38
414.705	89.38
414.928	85.38
415.151	98.38
415.374	97.38
415.597	94.38
415.821	79.38
416.044	98.38
416.267	97.38
416.49	87.38
416.713	98.38
416.936	89.38
417.159	83.38
417.382	82.38
417.605	96.38
417.828	94.38
418.051	94.38
418.274	79.38
418.497	80.38
418.72	78.38
418.943	80.38
419.166	87.38
419.389	101.38
419.611	98.38
419.834	83.38
420.057	82.38
420.28	83.38
420.503	90.38
420.726	95.38
420.948	87.38
421.171	105.38
421.394	92.38
421.617	94.38
421.839	91.38
422.062	96.38
422.285	88.38
422.507	83.38
422.73	77.38
422.953	88.38
423.175	77.38
423.398	80.38
423.621	95.38
423.843	74.38
424.066	86.38
424.288	85.38
424.511	98.38
424.733	93.38
424.956	95.38
425.178	80.38
425.401	83.38
425.623	100.38
425.846	89.38
426.068	87.38
426.291	92.38
426.513	77.38
426.735	88.38
426.958	77.38
427.18	97.38
427.402	118.38
427.625	139.38
427.847	102.38
428.069	100.38
428.292	101.38
428.514	94.38
428.736	81.38
428.958	82.38
429.181	96.38
429.403	69.38
429.625	91.38
429.847	95.38
430.069	89.38
430.292	94.38
430.514	86.38
430.736	69.38
430.958	85.38
431.18	92.38
431.402	77.38
431.624	92.38
431.846	93.38
432.068	87.38
432.29	80.38
432.512	87.38
432.734	89.38
432.956	92.38
433.178	112.38
433.4	101.38
433.622	96.38
433.844	103.38
434.066	76.38
434.287	81.38
434.509	95.38
434.731	92.38
434.953	93.38
435.175	86.38
435.397	102.38
435.618	89.38
435.84	98.38
436.062	96.38
436.284	106.38
436.505	98.38
436.727	99.38
436.949	95.38
437.17	98.38
437.392	79.38
437.614	88.38
437.835	96.38
438.057	96.38
438.278	91.38
438.5	103.38
438.721	103.38
438.943	98.38
439.165	94.38
439.386	77.38
439.608	87.38
439.829	88.38
440.05	95.38
440.272	145.38
440.493	91.38
440.715	85.38
440.936	90.38
441.158	103.38
441.379	76.38
441.6	79.38
441.822	89.38
442.043	92.38
442.264	100.38
442.486	93.38
442.707	86.38
442.928	101.38
443.149	117.38
443.371	118.38
443.592	100.38
443.813	105.38
444.034	123.38
444.255	108.38
444.476	99.38
444.698	88.38
444.919	82.38
445.14	139.38
445.361	124.38
445.582	96.38
445.803	119.38
446.024	114.38
446.245	125.38
446.466	110.38
446.687	96.38
446.908	78.38
447.129	97.38
447.35	93.38
447.571	99.38
447.792	80.38
448.013	93.38
448.234	108.38
448.455	101.38
448.675	104.38
448.896	87.38
449.117	108.38
449.338	75.38
449.559	106.38
449.779	118.38
450	93.38
450.221	107.38
450.442	84.38
450.662	101.38
450.883	110.38
451.104	109.38
451.324	80.38
451.545	80.38
451.766	78.38
451.986	73.38
452.207	97.38
452.428	105.38
452.648	94.38
452.869	96.38
453.089	89.38
453.31	98.38
453.53	100.38
453.751	97.38
453.971	87.38
454.192	99.38
454.412	80.38
454.633	87.38
454.853	82.38
455.073	94.38
455.294	95.38
455.514	99.38
455.734	88.38
455.955	81.38
456.175	87.38
456.395	96.38
456.616	74.38
456.836	76.38
457.056	81.38
457.276	78.38
457.497	96.38
457.717	83.38
457.937	86.38
458.157	77.38
458.377	79.38
458.598	99.38
458.818	118.38
459.038	127.38
459.258	98.38
459.478	88.38
459.698	96.38
459.918	86.38
460.138	72.38
460.358	78.38
460.578	82.38
460.798	93.38
461.018	93.38
461.238	83.38
461.458	82.38
461.678	76.38
461.898	91.38
462.118	86.38
462.338	82.38
462.558	82.38
462.777	82.38
462.997	75.38
463.217	96.38
463.437	86.38
463.657	87.38
463.876	85.38
464.096	87.38
464.316	90.38
464.536	77.38
464.755	85.38
464.975	96.38
465.195	130.38
465.414	135.38
465.634	93.38
465.854	94.38
466.073	86.38
466.293	94.38
466.512	87.38
466.732	85.38
466.951	85.38
467.171	93.38
467.391	88.38
467.61	91.38
467.829	78.38
468.049	77.38
468.268	100.38
468.488	87.38
468.707	103.38
468.927	98.38
469.146	71.38
469.365	95.38
469.585	74.38
469.804	95.38
470.023	93.38
470.243	103.38
470.462	90.38
470.681	105.38
470.901	93.38
471.12	94.38
471.339	89.38
471.558	86.38
471.777	79.38
471.997	79.38
472.216	103.38
472.435	136.38
472.654	96.38
472.873	102.38
473.092	88.38
473.311	75.38
473.53	79.38
473.749	83.38
473.968	106.38
474.187	90.38
474.406	92.38
474.625	97.38
474.844	95.38
475.063	86.38
475.282	97.38
475.501	98.38
475.72	91.38
475.939	81.38
476.158	79.38
476.377	91.38
476.596	105.38
476.814	86.38
477.033	91.38
477.252	95.38
477.471	89.38
477.69	97.38
477.908	98.38
478.127	80.38
478.346	83.38
478.564	88.38
478.783	84.38
479.002	94.38
479.22	90.38
479.439	92.38
479.658	102.38
479.876	90.38
480.095	97.38
480.313	90.38
480.532	106.38
480.751	87.38
480.969	110.38
481.188	161.38
481.406	131.38
481.624	92.38
481.843	93.38
482.061	83.38
482.28	87.38
482.498	97.38
482.717	74.38
482.935	85.38
483.153	68.38
483.372	101.38
483.59	93.38
483.808	92.38
484.027	90.38
484.245	101.38
484.463	63.38
484.681	98.38
484.9	81.38
485.118	98.38
485.336	78.38
485.554	104.38
485.772	108.38
485.99	96.38
486.209	99.38
486.427	108.38
486.645	105.38
486.863	99.38
487.081	98.38
487.299	89.38
487.517	102.38
487.735	101.38
487.953	90.38
488.171	109.38
488.389	94.38
488.607	84.38
488.825	84.38
489.043	96.38
489.261	91.38
489.479	86.38
489.696	100.38
489.914	93.38
490.132	95.38
490.35	78.38
490.568	88.38
490.786	82.38
491.003	84.38
491.221	88.38
491.439	87.38
491.657	99.38
491.874	89.38
492.092	85.38
492.31	94.38
492.527	96.38
492.745	86.38
492.963	79.38
493.18	85.38
493.398	92.38
493.615	92.38
493.833	96.38
494.05	99.38
494.268	88.38
494.485	80.38
494.703	89.38
494.92	107.38
495.138	80.38
495.355	86.38
495.573	104.38
495.79	80.38
496.008	90.38
496.225	93.38
496.442	90.38
496.66	83.38
496.877	84.38
497.094	89.38
497.312	96.38
497.529	96.38
497.746	90.38
497.963	91.38
498.181	103.38
498.398	82.38
498.615	94.38
498.832	100.38
499.049	92.38
499.267	96.38
499.484	87.38
499.701	89.38
499.918	81.38
500.135	103.38
500.352	95.38
500.569	90.38
500.786	87.38
501.003	97.38
501.22	73.38
501.437	94.38
501.654	89.38
501.871	83.38
502.088	95.38
502.305	78.38
502.522	77.38
502.739	89.38
502.956	86.38
503.172	84.38
503.389	101.38
503.606	93.38
503.823	91.38
504.04	91.38
504.256	78.38
504.473	87.38
504.69	86.38
504.907	89.38
505.123	78.38
505.34	89.38
505.557	96.38
505.773	89.38
505.99	81.38
506.207	92.38
506.423	106.38
506.64	83.38
506.856	88.38
507.073	83.38
507.289	89.38
507.506	90.38
507.722	99.38
507.939	94.38
508.155	78.38
508.372	91.38
508.588	89.38
508.805	86.38
509.021	117.38
509.238	91.38
509.454	90.38
509.67	101.38
509.887	105.38
510.103	120.38
510.319	177.38
510.536	513.38
510.752	1562.38
510.968	469.38
511.184	133.38
511.401	110.38
511.617	97.38
511.833	86.38
512.049	94.38
512.265	87.38
512.481	86.38
512.698	84.38
512.914	82.38
513.13	89.38
513.346	83.38
513.562	89.38
513.778	107.38
513.994	94.38
514.21	89.38
514.426	117.38
514.642	111.38
514.858	106.38
515.074	127.38
515.29	299.38
515.506	899.38
515.721	364.38
515.937	131.38
516.153	101.38
516.369	93.38
516.585	89.38
516.801	94.38
517.016	106.38
517.232	94.38
517.448	98.38
517.664	92.38
517.879	93.38
518.095	87.38
518.311	101.38
518.527	87.38
518.742	103.38
518.958	92.38
519.173	105.38
519.389	80.38
519.605	98.38
519.82	91.38
520.036	97.38
520.251	117.38
520.467	98.38
520.682	104.38
520.898	101.38
521.113	99.38
521.329	133.38
521.544	165.38
521.76	362.38
521.975	1463.38
522.19	953.38
522.406	232.38
522.621	111.38
522.836	99.38
523.052	104.38
523.267	90.38
523.482	88.38
523.698	95.38
523.913	111.38
524.128	91.38
524.343	92.38
524.559	113.38
524.774	85.38
524.989	99.38
525.204	78.38
525.419	109.38
525.634	91.38
525.849	90.38
526.064	101.38
526.28	110.38
526.495	87.38
526.71	88.38
526.925	81.38
527.14	86.38
527.355	68.38
527.57	73.38
527.785	84.38
527.999	90.38
528.214	102.38
528.429	94.38
528.644	101.38
528.859	100.38
529.074	104.38
529.289	107.38
529.503	153.38
529.718	99.38
529.933	102.38
530.148	94.38
530.363	87.38
530.577	80.38
530.792	99.38
531.007	116.38
531.221	102.38
531.436	94.38
531.651	85.38
531.865	84.38
532.08	93.38
532.295	93.38
532.509	103.38
532.724	91.38
532.938	85.38
533.153	89.38
533.367	87.38
533.582	94.38
533.796	109.38
534.011	96.38
534.225	88.38
534.44	93.38
534.654	92.38
534.868	90.38
535.083	91.38
535.297	98.38
535.511	98.38
535.726	80.38
535.94	94.38
536.154	89.38
536.369	92.38
536.583	98.38
536.797	96.38
537.011	90.38
537.225	90.38
537.44	82.38
537.654	88.38
537.868	92.38
538.082	103.38
538.296	83.38
538.51	89.38
538.724	75.38
538.938	95.38
539.153	94.38
539.367	109.38
539.581	93.38
539.795	93.38
540.009	92.38
540.222	91.38
540.436	97.38
540.65	78.38
540.864	98.38
541.078	105.38
541.292	89.38
541.506	94.38
541.72	93.38
541.934	77.38
542.147	78.38
542.361	85.38
542.575	82.38
542.789	89.38
543.002	85.38
543.216	86.38
543.43	90.38
543.644	94.38
543.857	89.38
544.071	88.38
544.285	93.38
544.498	93.38
544.712	84.38
544.925	81.38
545.139	92.38
545.352	87.38
545.566	74.38
545.779	80.38
545.993	88.38
546.206	81.38
546.42	89.38
546.633	77.38
546.847	92.38
547.06	107.38
547.274	80.38
547.487	89.38
547.7	88.38
547.914	90.38
548.127	99.38
548.34	95.38
548.554	85.38
548.767	90.38
548.98	91.38
549.193	97.38
549.407	85.38
549.62	93.38
549.833	97.38
550.046	99.38
550.259	88.38
550.473	76.38
550.686	98.38
550.899	82.38
551.112	98.38
551.325	81.38
551.538	83.38
551.751	105.38
551.964	90.38
552.177	90.38
552.39	89.38
552.603	90.38
552.816	83.38
553.029	87.38
553.242	99.38
553.455	92.38
553.667	108.38
553.88	97.38
554.093	86.38
554.306	80.38
554.519	101.38
554.732	95.38
554.944	98.38
555.157	109.38
555.37	86.38
555.583	88.38
555.795	89.38
556.008	86.38
556.221	89.38
556.433	84.38
556.646	88.38
556.859	95.38
557.071	93.38
557.284	84.38
557.496	80.38
557.709	95.38
557.921	98.38
558.134	88.38
558.346	87.38
558.559	92.38
558.771	86.38
558.984	91.38
559.196	89.38
559.409	103.38
559.621	93.38
559.833	87.38
560.046	97.38
560.258	97.38
560.47	92.38
560.683	90.38
560.895	87.38
561.107	95.38
561.32	90.38
561.532	92.38
561.744	87.38
561.956	87.38
562.168	87.38
562.381	94.38
562.593	112.38
562.805	99.38
563.017	81.38
563.229	102.38
563.441	95.38
563.653	83.38
563.865	105.38
564.077	95.38
564.289	97.38
564.501	79.38
564.713	80.38
564.925	88.38
565.137	99.38
565.349	91.38
565.561	89.38
565.773	101.38
565.985	96.38
566.197	91.38
566.408	92.38
566.62	77.38
566.832	83.38
567.044	94.38
567.255	87.38
567.467	85.38
567.679	100.38
567.891	89.38
568.102	91.38
568.314	95.38
568.526	83.38
568.737	104.38
568.949	87.38
569.161	82.38
569.372	89.38
569.584	97.38
569.795	97.38
570.007	102.38
570.218	194.38
570.43	102.38
570.641	74.38
570.853	78.38
571.064	83.38
571.276	75.38
571.487	87.38
571.698	89.38
571.91	89.38
572.121	91.38
572.333	83.38
572.544	87.38
572.755	102.38
572.966	91.38
573.178	89.38
573.389	82.38
573.6	74.38
573.811	77.38
574.023	89.38
574.234	77.38
574.445	93.38
574.656	102.38
574.867	99.38
575.078	89.38
575.289	88.38
575.501	99.38
575.712	82.38
575.923	93.38
576.134	71.38
576.345	82.38
576.556	104.38
576.767	95.38
576.978	90.38
577.188	74.38
577.399	87.38
577.61	87.38
577.821	95.38
578.032	100.38
578.243	214.38
578.454	531.38
578.665	175.38
578.875	98.38
579.086	103.38
579.297	94.38
579.508	91.38
579.718	86.38
579.929	82.38
580.14	88.38
580.35	88.38
580.561	98.38
580.772	94.38
580.982	88.38
581.193	100.38
581.403	99.38
581.614	83.38
581.825	102.38
582.035	99.38
582.246	88.38
582.456	78.38
582.667	69.38
582.877	87.38
583.087	76.38
583.298	87.38
583.508	81.38
583.719	98.38
583.929	87.38
584.139	98.38
584.35	83.38
584.56	95.38
584.77	96.38
584.981	79.38
585.191	79.38
585.401	90.38
585.611	85.38
585.821	69.38
586.032	80.38
586.242	88.38
586.452	88.38
586.662	96.38
586.872	81.38
587.082	87.38
587.292	91.38
587.502	99.38
587.713	83.38
587.923	76.38
588.133	82.38
588.343	94.38
588.553	85.38
588.762	89.38
588.972	110.38
589.182	105.38
589.392	104.38
589.602	99.38
589.812	109.38
590.022	108.38
590.232	97.38
590.441	86.38
590.651	83.38
590.861	76.38
591.071	89.38
591.281	87.38
591.49	77.38
591.7	66.38
591.91	77.38
592.119	77.38
592.329	91.38
592.539	89.38
592.748	79.38
592.958	89.38
593.167	90.38
593.377	93.38
593.587	91.38
593.796	90.38
594.006	88.38
594.215	80.38
594.424	80.38
594.634	89.38
594.843	82.38
595.053	81.38
595.262	85.38
595.472	80.38
595.681	82.38
595.89	98.38
596.1	89.38
596.309	80.38
596.518	81.38
596.727	91.38
596.937	89.38
597.146	74.38
597.355	84.38
597.564	92.38
597.774	94.38
597.983	89.38
598.192	80.38
598.401	92.38
598.61	83.38
598.819	95.38
599.028	93.38
599.237	97.38
599.446	87.38
599.655	83.38
599.864	89.38
600.073	78.38
600.282	99.38
600.491	93.38
600.7	83.38
600.909	81.38
601.118	86.38
601.327	96.38
601.536	75.38
601.745	96.38
601.953	98.38
602.162	83.38
602.371	75.38
602.58	85.38
602.789	98.38
602.997	90.38
603.206	87.38
603.415	86.38
603.623	91.38
603.832	91.38
604.041	87.38
604.249	81.38
604.458	89.38
604.666	71.38
604.875	85.38
605.084	84.38
605.292	73.38
605.501	90.38
605.709	84.38
605.918	80.38
606.126	81.38
606.334	85.38
606.543	75.38
606.751	94.38
606.96	86.38
607.168	81.38
607.376	91.38
607.585	96.38
607.793	80.38
608.001	89.38
608.21	98.38
608.418	80.38
608.626	89.38
608.834	101.38
609.043	90.38
609.251	84.38
609.459	83.38
609.667	78.38
609.875	80.38
610.083	94.38
610.291	82.38
610.499	82.38
610.707	103.38
610.916	69.38
611.124	82.38
611.332	87.38
611.54	82.38
611.748	80.38
611.955	93.38
612.163	85.38
612.371	85.38
612.579	89.38
612.787	89.38
612.995	86.38
613.203	82.38
613.411	84.38
613.618	79.38
613.826	73.38
614.034	84.38
614.242	86.38
614.449	80.38
614.657	96.38
614.865	80.38
615.072	82.38
615.28	107.38
615.488	85.38
615.695	97.38
615.903	82.38
616.111	109.38
616.318	87.38
616.526	90.38
616.733	102.38
616.941	88.38
617.148	96.38
617.356	96.38
617.563	80.38
617.771	103.38
617.978	80.38
618.185	91.38
618.393	95.38
618.6	69.38
618.807	95.38
619.015	85.38
619.222	86.38
619.429	91.38
619.637	93.38
619.844	92.38
620.051	100.38
620.258	88.38
620.466	83.38
620.673	87.38
620.88	91.38
621.087	81.38
621.294	87.38
621.501	79.38
621.708	74.38
621.915	83.38
622.122	91.38
622.329	78.38
622.536	83.38
622.743	86.38
622.95	88.38
623.157	84.38
623.364	83.38
623.571	92.38
623.778	83.38
623.985	77.38
624.192	80.38
624.399	89.38
624.606	81.38
624.812	87.38
625.019	100.38
625.226	96.38
625.433	89.38
625.639	90.38
625.846	77.38
626.053	85.38
626.259	85.38
626.466	88.38
626.673	77.38
626.879	93.38
627.086	83.38
627.293	83.38
627.499	71.38
627.706	80.38
627.912	76.38
628.119	87.38
628.325	94.38
628.532	84.38
628.738	90.38
628.945	102.38
629.151	80.38
629.357	97.38
629.564	91.38
629.77	90.38
629.976	92.38
630.183	96.38
630.389	90.38
630.595	79.38
630.802	85.38
631.008	76.38
631.214	82.38
631.42	91.38
631.627	89.38
631.833	89.38
632.039	89.38
632.245	83.38
632.451	85.38
632.657	77.38
632.863	93.38
633.069	94.38
633.275	86.38
633.481	71.38
633.688	82.38
633.893	81.38
634.099	102.38
634.305	78.38
634.511	82.38
634.717	90.38
634.923	84.38
635.129	90.38
635.335	98.38
635.541	92.38
635.747	90.38
635.952	88.38
636.158	86.38
636.364	86.38
636.57	112.38
636.775	89.38
636.981	90.38
637.187	80.38
637.392	90.38
637.598	78.38
637.804	82.38
638.009	81.38
638.215	82.38
638.421	94.38
638.626	78.38
638.832	101.38
639.037	89.38
639.243	83.38
639.448	83.38
639.654	93.38
639.859	88.38
640.065	84.38
640.27	93.38
640.475	82.38
640.681	84.38
640.886	84.38
641.091	76.38
641.297	72.38
641.502	75.38
641.707	84.38
641.913	78.38
642.118	97.38
642.323	83.38
642.528	99.38
642.733	87.38
642.939	98.38
643.144	84.38
643.349	87.38
643.554	93.38
643.759	76.38
643.964	76.38
644.169	85.38
644.374	94.38
644.579	86.38
644.784	82.38
644.989	90.38
645.194	78.38
645.399	81.38
645.604	74.38
645.809	81.38
646.014	97.38
646.219	89.38
646.423	87.38
646.628	83.38
646.833	81.38
647.038	73.38
647.243	99.38
647.447	85.38
647.652	78.38
647.857	77.38
648.062	95.38
648.266	91.38
648.471	96.38
648.676	91.38
648.88	94.38
649.085	92.38
649.289	86.38
649.494	96.38
649.698	114.38
649.903	83.38
650.107	92.38
650.312	100.38
650.516	96.38
650.721	75.38
650.925	72.38
651.13	74.38
651.334	77.38
651.539	81.38
651.743	102.38
651.947	76.38
652.152	83.38
652.356	86.38
652.56	83.38
652.764	82.38
652.969	83.38
653.173	76.38
653.377	91.38
653.581	87.38
653.785	82.38
653.99	77.38
654.194	90.38
654.398	84.38
654.602	82.38
654.806	85.38
655.01	91.38
655.214	80.38
655.418	82.38
655.622	81.38
655.826	78.38
656.03	98.38
656.234	99.38
656.438	83.38
656.642	94.38
656.846	82.38
657.049	87.38
657.253	90.38
657.457	86.38
657.661	74.38
657.865	79.38
658.068	75.38
658.272	94.38
658.476	71.38
658.68	83.38
658.883	68.38
659.087	78.38
659.291	84.38
659.494	88.38
659.698	77.38
659.901	85.38
660.105	80.38
660.309	83.38
660.512	80.38
660.716	90.38
660.919	78.38
661.123	77.38
661.326	87.38
661.53	83.38
661.733	91.38
661.936	77.38
662.14	88.38
662.343	93.38
662.546	81.38
662.75	78.38
662.953	80.38
663.156	80.38
663.36	78.38
663.563	82.38
663.766	88.38
663.969	79.38
664.173	79.38
664.376	73.38
664.579	79.38
664.782	82.38
664.985	79.38
665.188	78.38
665.391	79.38
665.594	91.38
665.797	78.38
666	79.38
666.203	82.38
666.406	88.38
666.609	81.38
666.812	93.38
667.015	89.38
667.218	82.38
667.421	75.38
667.624	83.38
667.827	71.38
668.03	88.38
668.232	77.38
668.435	69.38
668.638	88.38
668.841	79.38
669.043	79.38
669.246	91.38
669.449	77.38
669.651	76.38
669.854	81.38
670.057	90.38
670.259	87.38
670.462	86.38
670.665	80.38
670.867	72.38
671.07	73.38
671.272	87.38
671.475	72.38
671.677	79.38
671.88	82.38
672.082	76.38
672.284	89.38
672.487	98.38
672.689	71.38
672.892	87.38
