Data from Uncirc_2009_H10_HRD10591_00023.txt Node
Date: Wed Jan 03 10:12:06 EST 2024
User: Yrep
Spectrometer: HR+D1059
Trigger mode: 1
Integration Time (sec): 1.000000E-1
Scans to average: 1
Electric dark correction enabled: true
Nonlinearity correction enabled: false
Boxcar width: 0
XAxis mode: Wavelengths
Number of Pixels in Spectrum: 2048
>>>>>Begin Spectral Data<<<<<
223.165	-32.62
223.4	-32.62
223.635	-32.62
223.869	-14.62
224.104	-11.62
224.338	-20.62
224.573	-12.62
224.808	-7.62
225.042	1.38
225.277	-8.62
225.511	-5.62
225.746	12.38
225.98	25.38
226.215	13.38
226.449	11.38
226.683	12.38
226.918	13.38
227.152	24.38
227.387	30.38
227.621	35.38
227.856	42.38
228.09	57.38
228.324	53.38
228.559	43.38
228.793	70.38
229.027	58.38
229.262	55.38
229.496	59.38
229.73	70.38
229.964	67.38
230.199	69.38
230.433	65.38
230.667	64.38
230.901	72.38
231.136	84.38
231.37	76.38
231.604	76.38
231.838	68.38
232.072	77.38
232.306	87.38
232.541	81.38
232.775	85.38
233.009	79.38
233.243	81.38
233.477	90.38
233.711	86.38
233.945	68.38
234.179	88.38
234.413	91.38
234.647	85.38
234.881	80.38
235.115	61.38
235.349	69.38
235.583	72.38
235.817	71.38
236.051	76.38
236.285	72.38
236.519	77.38
236.753	72.38
236.987	72.38
237.221	78.38
237.455	81.38
237.689	70.38
237.922	86.38
238.156	73.38
238.39	88.38
238.624	73.38
238.858	78.38
239.091	85.38
239.325	71.38
239.559	79.38
239.793	67.38
240.027	71.38
240.26	81.38
240.494	87.38
240.728	87.38
240.961	75.38
241.195	68.38
241.429	82.38
241.662	87.38
241.896	73.38
242.13	63.38
242.363	85.38
242.597	79.38
242.83	83.38
243.064	81.38
243.298	71.38
243.531	69.38
243.765	84.38
243.998	64.38
244.232	80.38
244.465	99.38
244.699	80.38
244.932	58.38
245.166	72.38
245.399	72.38
245.633	75.38
245.866	85.38
246.099	70.38
246.333	77.38
246.566	77.38
246.8	73.38
247.033	81.38
247.266	64.38
247.5	68.38
247.733	89.38
247.966	65.38
248.2	81.38
248.433	78.38
248.666	77.38
248.899	84.38
249.133	99.38
249.366	87.38
249.599	75.38
249.832	85.38
250.066	74.38
250.299	63.38
250.532	78.38
250.765	79.38
250.998	80.38
251.231	72.38
251.465	77.38
251.698	80.38
251.931	90.38
252.164	82.38
252.397	83.38
252.63	79.38
252.863	95.38
253.096	78.38
253.329	94.38
253.562	73.38
253.795	97.38
254.028	87.38
254.261	85.38
254.494	84.38
254.727	70.38
254.96	78.38
255.193	81.38
255.426	71.38
255.659	78.38
255.892	64.38
256.124	88.38
256.357	83.38
256.59	84.38
256.823	103.38
257.056	70.38
257.289	73.38
257.521	79.38
257.754	70.38
257.987	78.38
258.22	88.38
258.452	81.38
258.685	86.38
258.918	73.38
259.151	70.38
259.383	72.38
259.616	80.38
259.849	82.38
260.081	79.38
260.314	79.38
260.547	81.38
260.779	95.38
261.012	88.38
261.244	83.38
261.477	81.38
261.71	81.38
261.942	103.38
262.175	79.38
262.407	80.38
262.64	91.38
262.872	93.38
263.105	83.38
263.337	84.38
263.57	79.38
263.802	95.38
264.035	94.38
264.267	89.38
264.499	78.38
264.732	77.38
264.964	68.38
265.197	85.38
265.429	75.38
265.661	79.38
265.894	66.38
266.126	72.38
266.358	89.38
266.591	86.38
266.823	88.38
267.055	94.38
267.287	89.38
267.52	75.38
267.752	83.38
267.984	82.38
268.216	85.38
268.448	86.38
268.681	86.38
268.913	102.38
269.145	77.38
269.377	81.38
269.609	86.38
269.841	80.38
270.073	83.38
270.306	81.38
270.538	82.38
270.77	91.38
271.002	84.38
271.234	70.38
271.466	91.38
271.698	75.38
271.93	82.38
272.162	73.38
272.394	81.38
272.626	88.38
272.858	83.38
273.09	80.38
273.322	87.38
273.553	83.38
273.785	77.38
274.017	79.38
274.249	90.38
274.481	84.38
274.713	77.38
274.945	77.38
275.176	77.38
275.408	84.38
275.64	84.38
275.872	85.38
276.104	82.38
276.335	84.38
276.567	89.38
276.799	95.38
277.031	89.38
277.262	85.38
277.494	88.38
277.726	90.38
277.957	83.38
278.189	77.38
278.421	87.38
278.652	80.38
278.884	81.38
279.115	79.38
279.347	97.38
279.579	75.38
279.81	82.38
280.042	91.38
280.273	71.38
280.505	88.38
280.736	92.38
280.968	67.38
281.199	90.38
281.431	85.38
281.662	98.38
281.894	88.38
282.125	99.38
282.356	93.38
282.588	114.38
282.819	105.38
283.051	91.38
283.282	89.38
283.513	105.38
283.745	73.38
283.976	93.38
284.207	100.38
284.439	110.38
284.67	92.38
284.901	88.38
285.132	69.38
285.364	71.38
285.595	88.38
285.826	86.38
286.057	91.38
286.288	94.38
286.52	100.38
286.751	93.38
286.982	89.38
287.213	77.38
287.444	71.38
287.675	95.38
287.906	93.38
288.138	91.38
288.369	91.38
288.6	88.38
288.831	84.38
289.062	92.38
289.293	77.38
289.524	97.38
289.755	95.38
289.986	83.38
290.217	86.38
290.448	86.38
290.679	80.38
290.91	87.38
291.141	76.38
291.371	78.38
291.602	80.38
291.833	90.38
292.064	90.38
292.295	89.38
292.526	86.38
292.757	97.38
292.987	88.38
293.218	88.38
293.449	83.38
293.68	75.38
293.91	85.38
294.141	92.38
294.372	86.38
294.603	87.38
294.833	91.38
295.064	86.38
295.295	86.38
295.525	90.38
295.756	101.38
295.987	102.38
296.217	112.38
296.448	107.38
296.679	84.38
296.909	88.38
297.14	100.38
297.37	106.38
297.601	86.38
297.831	88.38
298.062	93.38
298.292	99.38
298.523	103.38
298.753	86.38
298.984	76.38
299.214	82.38
299.445	92.38
299.675	111.38
299.905	83.38
300.136	83.38
300.366	97.38
300.597	86.38
300.827	95.38
301.057	106.38
301.288	101.38
301.518	79.38
301.748	87.38
301.979	96.38
302.209	91.38
302.439	99.38
302.669	88.38
302.9	91.38
303.13	92.38
303.36	102.38
303.59	112.38
303.82	103.38
304.051	94.38
304.281	91.38
304.511	102.38
304.741	89.38
304.971	104.38
305.201	96.38
305.431	94.38
305.661	98.38
305.891	91.38
306.121	90.38
306.352	91.38
306.582	83.38
306.812	74.38
307.042	84.38
307.272	83.38
307.502	87.38
307.731	86.38
307.961	87.38
308.191	78.38
308.421	69.38
308.651	93.38
308.881	85.38
309.111	86.38
309.341	94.38
309.571	103.38
309.8	73.38
310.03	88.38
310.26	96.38
310.49	87.38
310.72	96.38
310.949	91.38
311.179	89.38
311.409	94.38
311.639	81.38
311.868	87.38
312.098	102.38
312.328	85.38
312.557	110.38
312.787	110.38
313.017	85.38
313.246	101.38
313.476	92.38
313.706	81.38
313.935	92.38
314.165	88.38
314.394	93.38
314.624	92.38
314.853	96.38
315.083	97.38
315.312	90.38
315.542	87.38
315.771	91.38
316.001	88.38
316.23	101.38
316.46	87.38
316.689	100.38
316.919	86.38
317.148	91.38
317.377	103.38
317.607	115.38
317.836	104.38
318.065	83.38
318.295	89.38
318.524	76.38
318.753	92.38
318.983	91.38
319.212	93.38
319.441	98.38
319.67	97.38
319.9	95.38
320.129	75.38
320.358	93.38
320.587	87.38
320.816	92.38
321.046	88.38
321.275	94.38
321.504	94.38
321.733	86.38
321.962	98.38
322.191	91.38
322.42	98.38
322.649	102.38
322.878	96.38
323.108	116.38
323.337	115.38
323.566	121.38
323.795	140.38
324.024	168.38
324.253	328.38
324.482	632.38
324.71	1251.38
324.939	1667.38
325.168	631.38
325.397	182.38
325.626	129.38
325.855	132.38
326.084	135.38
326.313	135.38
326.542	146.38
326.77	195.38
326.999	375.38
327.228	737.38
327.457	1300.38
327.686	1032.38
327.914	298.38
328.143	167.38
328.372	119.38
328.6	107.38
328.829	111.38
329.058	100.38
329.287	101.38
329.515	100.38
329.744	98.38
329.972	100.38
330.201	110.38
330.43	113.38
330.658	104.38
330.887	111.38
331.115	102.38
331.344	102.38
331.572	108.38
331.801	97.38
332.03	92.38
332.258	99.38
332.486	92.38
332.715	103.38
332.943	85.38
333.172	102.38
333.4	93.38
333.629	99.38
333.857	102.38
334.085	114.38
334.314	104.38
334.542	123.38
334.771	111.38
334.999	106.38
335.227	102.38
335.455	88.38
335.684	98.38
335.912	109.38
336.14	80.38
336.369	83.38
336.597	91.38
336.825	88.38
337.053	83.38
337.281	90.38
337.51	85.38
337.738	96.38
337.966	93.38
338.194	80.38
338.422	99.38
338.65	78.38
338.878	84.38
339.106	79.38
339.334	85.38
339.562	84.38
339.79	94.38
340.018	92.38
340.246	96.38
340.474	93.38
340.702	89.38
340.93	92.38
341.158	96.38
341.386	87.38
341.614	89.38
341.842	93.38
342.07	93.38
342.298	86.38
342.526	92.38
342.754	87.38
342.981	97.38
343.209	95.38
343.437	90.38
343.665	85.38
343.893	91.38
344.12	111.38
344.348	97.38
344.576	92.38
344.804	90.38
345.031	91.38
345.259	93.38
345.487	89.38
345.714	84.38
345.942	79.38
346.17	87.38
346.397	84.38
346.625	77.38
346.853	85.38
347.08	91.38
347.308	101.38
347.535	83.38
347.763	105.38
347.99	86.38
348.218	91.38
348.445	92.38
348.673	81.38
348.9	88.38
349.128	95.38
349.355	86.38
349.583	86.38
349.81	97.38
350.037	92.38
350.265	87.38
350.492	93.38
350.72	93.38
350.947	91.38
351.174	107.38
351.402	104.38
351.629	90.38
351.856	101.38
352.083	104.38
352.311	105.38
352.538	127.38
352.765	108.38
352.992	106.38
353.22	108.38
353.447	96.38
353.674	90.38
353.901	86.38
354.128	102.38
354.355	96.38
354.583	76.38
354.81	109.38
355.037	89.38
355.264	107.38
355.491	83.38
355.718	94.38
355.945	100.38
356.172	93.38
356.399	86.38
356.626	85.38
356.853	100.38
357.08	102.38
357.307	92.38
357.534	107.38
357.761	91.38
357.988	97.38
358.215	87.38
358.441	78.38
358.668	90.38
358.895	89.38
359.122	94.38
359.349	89.38
359.576	101.38
359.802	89.38
360.029	108.38
360.256	108.38
360.483	100.38
360.709	93.38
360.936	92.38
361.163	100.38
361.39	88.38
361.616	99.38
361.843	91.38
362.07	90.38
362.296	84.38
362.523	85.38
362.749	82.38
362.976	92.38
363.203	88.38
363.429	96.38
363.656	96.38
363.882	70.38
364.109	85.38
364.335	85.38
364.562	81.38
364.788	85.38
365.015	87.38
365.241	93.38
365.468	86.38
365.694	89.38
365.92	102.38
366.147	86.38
366.373	89.38
366.599	91.38
366.826	78.38
367.052	79.38
367.278	86.38
367.505	91.38
367.731	99.38
367.957	97.38
368.184	83.38
368.41	84.38
368.636	104.38
368.862	107.38
369.089	106.38
369.315	101.38
369.541	78.38
369.767	83.38
369.993	87.38
370.219	80.38
370.445	86.38
370.672	75.38
370.898	81.38
371.124	102.38
371.35	103.38
371.576	87.38
371.802	91.38
372.028	87.38
372.254	87.38
372.48	90.38
372.706	85.38
372.932	80.38
373.158	107.38
373.384	90.38
373.61	89.38
373.835	89.38
374.061	88.38
374.287	89.38
374.513	92.38
374.739	80.38
374.965	73.38
375.191	74.38
375.416	78.38
375.642	83.38
375.868	81.38
376.094	89.38
376.319	100.38
376.545	103.38
376.771	89.38
376.997	101.38
377.222	94.38
377.448	91.38
377.674	85.38
377.899	81.38
378.125	88.38
378.35	89.38
378.576	100.38
378.802	94.38
379.027	100.38
379.253	91.38
379.478	84.38
379.704	81.38
379.929	96.38
380.155	100.38
380.38	104.38
380.606	95.38
380.831	88.38
381.057	95.38
381.282	93.38
381.507	94.38
381.733	95.38
381.958	96.38
382.184	109.38
382.409	96.38
382.634	106.38
382.86	95.38
383.085	109.38
383.31	96.38
383.535	100.38
383.761	90.38
383.986	93.38
384.211	102.38
384.436	102.38
384.662	88.38
384.887	99.38
385.112	103.38
385.337	105.38
385.562	100.38
385.787	103.38
386.013	106.38
386.238	103.38
386.463	105.38
386.688	116.38
386.913	104.38
387.138	106.38
387.363	96.38
387.588	91.38
387.813	105.38
388.038	114.38
388.263	122.38
388.488	102.38
388.713	111.38
388.938	74.38
389.163	76.38
389.387	99.38
389.612	96.38
389.837	84.38
390.062	95.38
390.287	87.38
390.512	91.38
390.736	97.38
390.961	109.38
391.186	100.38
391.411	95.38
391.636	90.38
391.86	79.38
392.085	87.38
392.31	82.38
392.534	90.38
392.759	90.38
392.984	88.38
393.208	79.38
393.433	79.38
393.658	93.38
393.882	92.38
394.107	92.38
394.331	91.38
394.556	89.38
394.78	96.38
395.005	88.38
395.229	80.38
395.454	91.38
395.678	83.38
395.903	97.38
396.127	92.38
396.352	95.38
396.576	73.38
396.801	83.38
397.025	83.38
397.249	71.38
397.474	82.38
397.698	88.38
397.922	95.38
398.147	81.38
398.371	87.38
398.595	70.38
398.82	91.38
399.044	84.38
399.268	75.38
399.492	88.38
399.717	86.38
399.941	111.38
400.165	95.38
400.389	77.38
400.613	93.38
400.837	91.38
401.062	76.38
401.286	85.38
401.51	86.38
401.734	80.38
401.958	87.38
402.182	112.38
402.406	128.38
402.63	111.38
402.854	80.38
403.078	83.38
403.302	75.38
403.526	80.38
403.75	94.38
403.974	91.38
404.198	83.38
404.422	84.38
404.645	101.38
404.869	88.38
405.093	81.38
405.317	87.38
405.541	84.38
405.765	110.38
405.988	111.38
406.212	126.38
406.436	157.38
406.66	135.38
406.883	83.38
407.107	82.38
407.331	93.38
407.555	96.38
407.778	98.38
408.002	93.38
408.226	86.38
408.449	83.38
408.673	92.38
408.896	96.38
409.12	87.38
409.344	92.38
409.567	86.38
409.791	87.38
410.014	98.38
410.238	93.38
410.461	85.38
410.685	107.38
410.908	92.38
411.132	93.38
411.355	89.38
411.578	97.38
411.802	77.38
412.025	81.38
412.249	75.38
412.472	97.38
412.695	98.38
412.919	96.38
413.142	88.38
413.365	74.38
413.589	81.38
413.812	66.38
414.035	79.38
414.258	90.38
414.482	80.38
414.705	76.38
414.928	84.38
415.151	95.38
415.374	95.38
415.597	76.38
415.821	95.38
416.044	80.38
416.267	87.38
416.49	79.38
416.713	84.38
416.936	87.38
417.159	89.38
417.382	78.38
417.605	77.38
417.828	89.38
418.051	105.38
418.274	94.38
418.497	92.38
418.72	89.38
418.943	83.38
419.166	93.38
419.389	86.38
419.611	84.38
419.834	95.38
420.057	94.38
420.28	83.38
420.503	96.38
420.726	80.38
420.948	96.38
421.171	84.38
421.394	88.38
421.617	95.38
421.839	89.38
422.062	95.38
422.285	90.38
422.507	89.38
422.73	94.38
422.953	97.38
423.175	81.38
423.398	68.38
423.621	90.38
423.843	84.38
424.066	67.38
424.288	72.38
424.511	80.38
424.733	86.38
424.956	107.38
425.178	95.38
425.401	96.38
425.623	84.38
425.846	86.38
426.068	86.38
426.291	79.38
426.513	81.38
426.735	80.38
426.958	83.38
427.18	116.38
427.402	123.38
427.625	126.38
427.847	104.38
428.069	101.38
428.292	91.38
428.514	83.38
428.736	75.38
428.958	89.38
429.181	74.38
429.403	71.38
429.625	70.38
429.847	77.38
430.069	73.38
430.292	93.38
430.514	91.38
430.736	76.38
430.958	76.38
431.18	81.38
431.402	78.38
431.624	65.38
431.846	78.38
432.068	68.38
432.29	90.38
432.512	96.38
432.734	96.38
432.956	83.38
433.178	92.38
433.4	99.38
433.622	85.38
433.844	77.38
434.066	76.38
434.287	84.38
434.509	103.38
434.731	85.38
434.953	86.38
435.175	96.38
435.397	84.38
435.618	83.38
435.84	84.38
436.062	112.38
436.284	102.38
436.505	94.38
436.727	96.38
436.949	99.38
437.17	85.38
437.392	71.38
437.614	82.38
437.835	86.38
438.057	106.38
438.278	92.38
438.5	90.38
438.721	89.38
438.943	93.38
439.165	81.38
439.386	90.38
439.608	70.38
439.829	101.38
440.05	114.38
440.272	117.38
440.493	85.38
440.715	87.38
440.936	86.38
441.158	84.38
441.379	94.38
441.6	94.38
441.822	75.38
442.043	78.38
442.264	85.38
442.486	93.38
442.707	83.38
442.928	101.38
443.149	112.38
443.371	112.38
443.592	101.38
443.813	89.38
444.034	88.38
444.255	84.38
444.476	76.38
444.698	101.38
444.919	95.38
445.14	134.38
445.361	108.38
445.582	98.38
445.803	108.38
446.024	115.38
446.245	103.38
446.466	91.38
446.687	85.38
446.908	81.38
447.129	71.38
447.35	85.38
447.571	83.38
447.792	76.38
448.013	92.38
448.234	90.38
448.455	104.38
448.675	91.38
448.896	99.38
449.117	86.38
449.338	89.38
449.559	99.38
449.779	103.38
450	93.38
450.221	79.38
450.442	81.38
450.662	99.38
450.883	96.38
451.104	91.38
451.324	66.38
451.545	89.38
451.766	73.38
451.986	75.38
452.207	109.38
452.428	93.38
452.648	92.38
452.869	87.38
453.089	93.38
453.31	91.38
453.53	92.38
453.751	84.38
453.971	84.38
454.192	98.38
454.412	87.38
454.633	79.38
454.853	74.38
455.073	78.38
455.294	73.38
455.514	92.38
455.734	88.38
455.955	72.38
456.175	79.38
456.395	83.38
456.616	82.38
456.836	72.38
457.056	90.38
457.276	84.38
457.497	82.38
457.717	90.38
457.937	90.38
458.157	85.38
458.377	75.38
458.598	75.38
458.818	117.38
459.038	107.38
459.258	95.38
459.478	87.38
459.698	92.38
459.918	87.38
460.138	76.38
460.358	81.38
460.578	81.38
460.798	79.38
461.018	87.38
461.238	70.38
461.458	85.38
461.678	95.38
461.898	79.38
462.118	82.38
462.338	80.38
462.558	80.38
462.777	84.38
462.997	80.38
463.217	84.38
463.437	95.38
463.657	90.38
463.876	90.38
464.096	74.38
464.316	79.38
464.536	81.38
464.755	87.38
464.975	91.38
465.195	117.38
465.414	120.38
465.634	85.38
465.854	80.38
466.073	71.38
466.293	88.38
466.512	88.38
466.732	73.38
466.951	91.38
467.171	82.38
467.391	92.38
467.61	83.38
467.829	95.38
468.049	69.38
468.268	93.38
468.488	81.38
468.707	82.38
468.927	80.38
469.146	62.38
469.365	75.38
469.585	78.38
469.804	76.38
470.023	76.38
470.243	91.38
470.462	99.38
470.681	103.38
470.901	82.38
471.12	88.38
471.339	108.38
471.558	77.38
471.777	88.38
471.997	88.38
472.216	114.38
472.435	108.38
472.654	98.38
472.873	78.38
473.092	83.38
473.311	77.38
473.53	78.38
473.749	92.38
473.968	99.38
474.187	91.38
474.406	80.38
474.625	98.38
474.844	85.38
475.063	82.38
475.282	78.38
475.501	92.38
475.72	80.38
475.939	83.38
476.158	73.38
476.377	92.38
476.596	91.38
476.814	88.38
477.033	97.38
477.252	75.38
477.471	76.38
477.69	77.38
477.908	78.38
478.127	93.38
478.346	72.38
478.564	92.38
478.783	92.38
479.002	86.38
479.22	101.38
479.439	79.38
479.658	98.38
479.876	80.38
480.095	90.38
480.313	86.38
480.532	95.38
480.751	92.38
480.969	81.38
481.188	159.38
481.406	109.38
481.624	88.38
481.843	98.38
482.061	80.38
482.28	87.38
482.498	76.38
482.717	89.38
482.935	82.38
483.153	84.38
483.372	65.38
483.59	97.38
483.808	82.38
484.027	88.38
484.245	92.38
484.463	85.38
484.681	93.38
484.9	85.38
485.118	81.38
485.336	104.38
485.554	95.38
485.772	104.38
485.99	102.38
486.209	87.38
486.427	98.38
486.645	100.38
486.863	103.38
487.081	101.38
487.299	87.38
487.517	89.38
487.735	94.38
487.953	87.38
488.171	94.38
488.389	99.38
488.607	101.38
488.825	88.38
489.043	97.38
489.261	100.38
489.479	101.38
489.696	100.38
489.914	89.38
490.132	84.38
490.35	81.38
490.568	95.38
490.786	89.38
491.003	87.38
491.221	80.38
491.439	85.38
491.657	97.38
491.874	104.38
492.092	87.38
492.31	96.38
492.527	77.38
492.745	97.38
492.963	91.38
493.18	99.38
493.398	99.38
493.615	90.38
493.833	89.38
494.05	86.38
494.268	81.38
494.485	87.38
494.703	86.38
494.92	86.38
495.138	106.38
495.355	89.38
495.573	83.38
495.79	89.38
496.008	89.38
496.225	86.38
496.442	91.38
496.66	101.38
496.877	96.38
497.094	98.38
497.312	93.38
497.529	85.38
497.746	101.38
497.963	87.38
498.181	99.38
498.398	100.38
498.615	104.38
498.832	88.38
499.049	95.38
499.267	90.38
499.484	92.38
499.701	92.38
499.918	91.38
500.135	85.38
500.352	81.38
500.569	87.38
500.786	79.38
501.003	89.38
501.22	77.38
501.437	97.38
501.654	93.38
501.871	81.38
502.088	90.38
502.305	84.38
502.522	88.38
502.739	94.38
502.956	104.38
503.172	91.38
503.389	96.38
503.606	80.38
503.823	87.38
504.04	89.38
504.256	83.38
504.473	100.38
504.69	96.38
504.907	99.38
505.123	87.38
505.34	105.38
505.557	73.38
505.773	84.38
505.99	88.38
506.207	92.38
506.423	87.38
506.64	81.38
506.856	87.38
507.073	84.38
507.289	90.38
507.506	91.38
507.722	101.38
507.939	104.38
508.155	92.38
508.372	80.38
508.588	92.38
508.805	87.38
509.021	76.38
509.238	91.38
509.454	100.38
509.67	89.38
509.887	109.38
510.103	127.38
510.319	172.38
510.536	501.38
510.752	1497.38
510.968	470.38
511.184	128.38
511.401	110.38
511.617	86.38
511.833	96.38
512.049	87.38
512.265	96.38
512.481	80.38
512.698	85.38
512.914	95.38
513.13	100.38
513.346	79.38
513.562	96.38
513.778	104.38
513.994	89.38
514.21	105.38
514.426	103.38
514.642	121.38
514.858	112.38
515.074	131.38
515.29	293.38
515.506	853.38
515.721	357.38
515.937	123.38
516.153	98.38
516.369	85.38
516.585	82.38
516.801	87.38
517.016	99.38
517.232	103.38
517.448	89.38
517.664	96.38
517.879	106.38
518.095	90.38
518.311	78.38
518.527	92.38
518.742	83.38
518.958	73.38
519.173	102.38
519.389	95.38
519.605	101.38
519.82	102.38
520.036	95.38
520.251	108.38
520.467	107.38
520.682	95.38
520.898	121.38
521.113	98.38
521.329	109.38
521.544	142.38
521.76	344.38
521.975	1407.38
522.19	916.38
522.406	217.38
522.621	109.38
522.836	91.38
523.052	88.38
523.267	74.38
523.482	88.38
523.698	90.38
523.913	120.38
524.128	90.38
524.343	84.38
524.559	90.38
524.774	87.38
524.989	82.38
525.204	101.38
525.419	82.38
525.634	89.38
525.849	87.38
526.064	83.38
526.28	94.38
526.495	75.38
526.71	83.38
526.925	93.38
527.14	97.38
527.355	89.38
527.57	86.38
527.785	100.38
527.999	95.38
528.214	85.38
528.429	93.38
528.644	78.38
528.859	97.38
529.074	87.38
529.289	106.38
529.503	133.38
529.718	93.38
529.933	90.38
530.148	91.38
530.363	90.38
530.577	84.38
530.792	80.38
531.007	96.38
531.221	84.38
531.436	88.38
531.651	94.38
531.865	94.38
532.08	99.38
532.295	85.38
532.509	94.38
532.724	81.38
532.938	93.38
533.153	82.38
533.367	88.38
533.582	86.38
533.796	93.38
534.011	87.38
534.225	103.38
534.44	93.38
534.654	92.38
534.868	85.38
535.083	101.38
535.297	92.38
535.511	87.38
535.726	88.38
535.94	82.38
536.154	87.38
536.369	80.38
536.583	79.38
536.797	78.38
537.011	83.38
537.225	76.38
537.44	90.38
537.654	97.38
537.868	92.38
538.082	101.38
538.296	86.38
538.51	90.38
538.724	83.38
538.938	86.38
539.153	108.38
539.367	106.38
539.581	88.38
539.795	88.38
540.009	87.38
540.222	85.38
540.436	73.38
540.65	85.38
540.864	81.38
541.078	86.38
541.292	80.38
541.506	88.38
541.72	95.38
541.934	93.38
542.147	92.38
542.361	93.38
542.575	89.38
542.789	88.38
543.002	87.38
543.216	95.38
543.43	93.38
543.644	98.38
543.857	80.38
544.071	87.38
544.285	92.38
544.498	93.38
544.712	88.38
544.925	98.38
545.139	89.38
545.352	84.38
545.566	92.38
545.779	84.38
545.993	89.38
546.206	74.38
546.42	87.38
546.633	82.38
546.847	84.38
547.06	75.38
547.274	92.38
547.487	95.38
547.7	85.38
547.914	88.38
548.127	90.38
548.34	80.38
548.554	77.38
548.767	80.38
548.98	83.38
549.193	76.38
549.407	87.38
549.62	92.38
549.833	91.38
550.046	99.38
550.259	78.38
550.473	86.38
550.686	91.38
550.899	94.38
551.112	83.38
551.325	81.38
551.538	80.38
551.751	79.38
551.964	90.38
552.177	102.38
552.39	83.38
552.603	89.38
552.816	79.38
553.029	76.38
553.242	95.38
553.455	102.38
553.667	87.38
553.88	89.38
554.093	91.38
554.306	88.38
554.519	83.38
554.732	91.38
554.944	100.38
555.157	93.38
555.37	109.38
555.583	75.38
555.795	91.38
556.008	92.38
556.221	90.38
556.433	98.38
556.646	80.38
556.859	89.38
557.071	100.38
557.284	96.38
557.496	85.38
557.709	73.38
557.921	85.38
558.134	85.38
558.346	96.38
558.559	93.38
558.771	85.38
558.984	86.38
559.196	86.38
559.409	90.38
559.621	87.38
559.833	94.38
560.046	97.38
560.258	97.38
560.47	89.38
560.683	92.38
560.895	81.38
561.107	100.38
561.32	91.38
561.532	84.38
561.744	84.38
561.956	88.38
562.168	89.38
562.381	93.38
562.593	100.38
562.805	89.38
563.017	97.38
563.229	90.38
563.441	81.38
563.653	99.38
563.865	88.38
564.077	78.38
564.289	95.38
564.501	85.38
564.713	83.38
564.925	100.38
565.137	92.38
565.349	106.38
565.561	86.38
565.773	90.38
565.985	92.38
566.197	80.38
566.408	104.38
566.62	92.38
566.832	84.38
567.044	98.38
567.255	86.38
567.467	82.38
567.679	85.38
567.891	81.38
568.102	84.38
568.314	79.38
568.526	82.38
568.737	89.38
568.949	91.38
569.161	92.38
569.372	93.38
569.584	93.38
569.795	73.38
570.007	88.38
570.218	177.38
570.43	129.38
570.641	100.38
570.853	89.38
571.064	88.38
571.276	87.38
571.487	98.38
571.698	101.38
571.91	85.38
572.121	91.38
572.333	88.38
572.544	83.38
572.755	95.38
572.966	96.38
573.178	86.38
573.389	91.38
573.6	103.38
573.811	76.38
574.023	88.38
574.234	85.38
574.445	87.38
574.656	88.38
574.867	91.38
575.078	87.38
575.289	85.38
575.501	96.38
575.712	72.38
575.923	83.38
576.134	92.38
576.345	91.38
576.556	78.38
576.767	88.38
576.978	88.38
577.188	81.38
577.399	96.38
577.61	87.38
577.821	83.38
578.032	117.38
578.243	217.38
578.454	519.38
578.665	163.38
578.875	104.38
579.086	93.38
579.297	83.38
579.508	98.38
579.718	83.38
579.929	86.38
580.14	94.38
580.35	91.38
580.561	103.38
580.772	94.38
580.982	86.38
581.193	88.38
581.403	87.38
581.614	84.38
581.825	89.38
582.035	92.38
582.246	85.38
582.456	90.38
582.667	85.38
582.877	74.38
583.087	73.38
583.298	91.38
583.508	95.38
583.719	95.38
583.929	102.38
584.139	88.38
584.35	76.38
584.56	81.38
584.77	90.38
584.981	98.38
585.191	76.38
585.401	91.38
585.611	75.38
585.821	90.38
586.032	85.38
586.242	84.38
586.452	85.38
586.662	86.38
586.872	88.38
587.082	81.38
587.292	85.38
587.502	82.38
587.713	87.38
587.923	90.38
588.133	80.38
588.343	90.38
588.553	79.38
588.762	81.38
588.972	87.38
589.182	112.38
589.392	98.38
589.602	107.38
589.812	98.38
590.022	89.38
590.232	85.38
590.441	98.38
590.651	90.38
590.861	91.38
591.071	91.38
591.281	90.38
591.49	83.38
591.7	77.38
591.91	86.38
592.119	80.38
592.329	70.38
592.539	77.38
592.748	102.38
592.958	93.38
593.167	73.38
593.377	86.38
593.587	87.38
593.796	91.38
594.006	84.38
594.215	92.38
594.424	85.38
594.634	79.38
594.843	78.38
595.053	89.38
595.262	91.38
595.472	78.38
595.681	100.38
595.89	79.38
596.1	88.38
596.309	85.38
596.518	88.38
596.727	86.38
596.937	83.38
597.146	93.38
597.355	93.38
597.564	77.38
597.774	82.38
597.983	86.38
598.192	102.38
598.401	83.38
598.61	85.38
598.819	89.38
599.028	88.38
599.237	90.38
599.446	80.38
599.655	87.38
599.864	96.38
600.073	87.38
600.282	80.38
600.491	80.38
600.7	89.38
600.909	80.38
601.118	100.38
601.327	93.38
601.536	97.38
601.745	100.38
601.953	80.38
602.162	75.38
602.371	77.38
602.58	91.38
602.789	87.38
602.997	86.38
603.206	95.38
603.415	87.38
603.623	72.38
603.832	92.38
604.041	96.38
604.249	87.38
604.458	85.38
604.666	87.38
604.875	85.38
605.084	89.38
605.292	97.38
605.501	86.38
605.709	61.38
605.918	85.38
606.126	91.38
606.334	92.38
606.543	76.38
606.751	92.38
606.96	84.38
607.168	83.38
607.376	70.38
607.585	89.38
607.793	81.38
608.001	75.38
608.21	89.38
608.418	79.38
608.626	76.38
608.834	96.38
609.043	80.38
609.251	82.38
609.459	102.38
609.667	82.38
609.875	77.38
610.083	90.38
610.291	91.38
610.499	85.38
610.707	76.38
610.916	71.38
611.124	76.38
611.332	81.38
611.54	88.38
611.748	90.38
611.955	87.38
612.163	65.38
612.371	81.38
612.579	86.38
612.787	80.38
612.995	80.38
613.203	76.38
613.411	87.38
613.618	81.38
613.826	80.38
614.034	95.38
614.242	82.38
614.449	81.38
614.657	87.38
614.865	84.38
615.072	91.38
615.28	86.38
615.488	88.38
615.695	88.38
615.903	83.38
616.111	85.38
616.318	88.38
616.526	84.38
616.733	97.38
616.941	94.38
617.148	103.38
617.356	89.38
617.563	83.38
617.771	104.38
617.978	91.38
618.185	77.38
618.393	85.38
618.6	92.38
618.807	80.38
619.015	93.38
619.222	91.38
619.429	80.38
619.637	89.38
619.844	78.38
620.051	80.38
620.258	96.38
620.466	84.38
620.673	85.38
620.88	92.38
621.087	89.38
621.294	82.38
621.501	97.38
621.708	89.38
621.915	94.38
622.122	80.38
622.329	70.38
622.536	80.38
622.743	83.38
622.95	80.38
623.157	88.38
623.364	80.38
623.571	88.38
623.778	70.38
623.985	84.38
624.192	70.38
624.399	96.38
624.606	85.38
624.812	69.38
625.019	78.38
625.226	85.38
625.433	87.38
625.639	102.38
625.846	83.38
626.053	89.38
626.259	101.38
626.466	92.38
626.673	87.38
626.879	87.38
627.086	95.38
627.293	88.38
627.499	84.38
627.706	85.38
627.912	89.38
628.119	94.38
628.325	83.38
628.532	95.38
628.738	79.38
628.945	82.38
629.151	93.38
629.357	87.38
629.564	68.38
629.77	74.38
629.976	82.38
630.183	90.38
630.389	74.38
630.595	83.38
630.802	91.38
631.008	71.38
631.214	90.38
631.42	79.38
631.627	88.38
631.833	89.38
632.039	90.38
632.245	78.38
632.451	76.38
632.657	76.38
632.863	85.38
633.069	85.38
633.275	89.38
633.481	80.38
633.688	83.38
633.893	83.38
634.099	76.38
634.305	77.38
634.511	96.38
634.717	75.38
634.923	84.38
635.129	100.38
635.335	63.38
635.541	90.38
635.747	82.38
635.952	88.38
636.158	83.38
636.364	81.38
636.57	68.38
636.775	86.38
636.981	79.38
637.187	91.38
637.392	89.38
637.598	90.38
637.804	91.38
638.009	84.38
638.215	83.38
638.421	76.38
638.626	91.38
638.832	91.38
639.037	72.38
639.243	67.38
639.448	86.38
639.654	85.38
639.859	85.38
640.065	92.38
640.27	79.38
640.475	86.38
640.681	94.38
640.886	89.38
641.091	89.38
641.297	89.38
641.502	82.38
641.707	86.38
641.913	85.38
642.118	83.38
642.323	91.38
642.528	79.38
642.733	91.38
642.939	99.38
643.144	88.38
643.349	88.38
643.554	85.38
643.759	70.38
643.964	88.38
644.169	78.38
644.374	92.38
644.579	75.38
644.784	85.38
644.989	80.38
645.194	78.38
645.399	88.38
645.604	94.38
645.809	91.38
646.014	76.38
646.219	88.38
646.423	96.38
646.628	89.38
646.833	102.38
647.038	76.38
647.243	81.38
647.447	85.38
647.652	92.38
647.857	80.38
648.062	83.38
648.266	85.38
648.471	71.38
648.676	76.38
648.88	76.38
649.085	84.38
649.289	90.38
649.494	102.38
649.698	119.38
649.903	110.38
650.107	75.38
650.312	82.38
650.516	86.38
650.721	78.38
650.925	92.38
651.13	89.38
651.334	83.38
651.539	77.38
651.743	90.38
651.947	87.38
652.152	83.38
652.356	83.38
652.56	69.38
652.764	70.38
652.969	89.38
653.173	80.38
653.377	76.38
653.581	84.38
653.785	76.38
653.99	84.38
654.194	75.38
654.398	79.38
654.602	80.38
654.806	93.38
655.01	102.38
655.214	98.38
655.418	74.38
655.622	74.38
655.826	94.38
656.03	85.38
656.234	92.38
656.438	85.38
656.642	89.38
656.846	89.38
657.049	92.38
657.253	91.38
657.457	74.38
657.661	81.38
657.865	78.38
658.068	65.38
658.272	76.38
658.476	84.38
658.68	86.38
658.883	93.38
659.087	77.38
659.291	87.38
659.494	90.38
659.698	76.38
659.901	82.38
660.105	81.38
660.309	83.38
660.512	70.38
660.716	66.38
660.919	91.38
661.123	80.38
661.326	87.38
661.53	73.38
661.733	89.38
661.936	78.38
662.14	70.38
662.343	78.38
662.546	90.38
662.75	81.38
662.953	69.38
663.156	75.38
663.36	70.38
663.563	75.38
663.766	80.38
663.969	67.38
664.173	89.38
664.376	75.38
664.579	69.38
664.782	76.38
664.985	94.38
665.188	88.38
665.391	81.38
665.594	64.38
665.797	86.38
666	88.38
666.203	73.38
666.406	83.38
666.609	56.38
666.812	87.38
667.015	78.38
667.218	79.38
667.421	84.38
667.624	86.38
667.827	77.38
668.03	82.38
668.232	84.38
668.435	81.38
668.638	79.38
668.841	79.38
669.043	75.38
669.246	67.38
669.449	74.38
669.651	91.38
669.854	68.38
670.057	83.38
670.259	85.38
670.462	86.38
670.665	71.38
670.867	76.38
671.07	82.38
671.272	74.38
671.475	75.38
671.677	69.38
671.88	80.38
672.082	77.38
672.284	103.38
672.487	77.38
672.689	80.38
672.892	78.38
