Data from Uncirc_2009_H10_HRD10591_00071.txt Node
Date: Wed Jan 03 10:12:16 EST 2024
User: Yrep
Spectrometer: HR+D1059
Trigger mode: 1
Integration Time (sec): 1.000000E-1
Scans to average: 1
Electric dark correction enabled: true
Nonlinearity correction enabled: false
Boxcar width: 0
XAxis mode: Wavelengths
Number of Pixels in Spectrum: 2048
>>>>>Begin Spectral Data<<<<<
223.165	-14.25
223.4	-14.25
223.635	-14.25
223.869	-30.25
224.104	-15.25
224.338	-8.25
224.573	-12.25
224.808	-6.25
225.042	-6.25
225.277	-3.25
225.511	4.75
225.746	-3.25
225.98	2.75
226.215	9.75
226.449	14.75
226.683	20.75
226.918	13.75
227.152	32.75
227.387	45.75
227.621	40.75
227.856	45.75
228.09	53.75
228.324	44.75
228.559	69.75
228.793	68.75
229.027	73.75
229.262	71.75
229.496	82.75
229.73	78.75
229.964	82.75
230.199	75.75
230.433	87.75
230.667	89.75
230.901	82.75
231.136	78.75
231.37	83.75
231.604	73.75
231.838	98.75
232.072	85.75
232.306	81.75
232.541	95.75
232.775	74.75
233.009	82.75
233.243	90.75
233.477	99.75
233.711	80.75
233.945	78.75
234.179	93.75
234.413	80.75
234.647	84.75
234.881	78.75
235.115	83.75
235.349	87.75
235.583	87.75
235.817	95.75
236.051	79.75
236.285	89.75
236.519	99.75
236.753	75.75
236.987	85.75
237.221	79.75
237.455	84.75
237.689	80.75
237.922	87.75
238.156	65.75
238.39	80.75
238.624	85.75
238.858	80.75
239.091	82.75
239.325	72.75
239.559	72.75
239.793	91.75
240.027	84.75
240.26	72.75
240.494	79.75
240.728	92.75
240.961	73.75
241.195	81.75
241.429	87.75
241.662	80.75
241.896	86.75
242.13	62.75
242.363	58.75
242.597	79.75
242.83	73.75
243.064	74.75
243.298	75.75
243.531	74.75
243.765	82.75
243.998	88.75
244.232	77.75
244.465	95.75
244.699	82.75
244.932	90.75
245.166	81.75
245.399	83.75
245.633	90.75
245.866	68.75
246.099	68.75
246.333	68.75
246.566	75.75
246.8	102.75
247.033	69.75
247.266	81.75
247.5	80.75
247.733	66.75
247.966	82.75
248.2	98.75
248.433	77.75
248.666	98.75
248.899	78.75
249.133	93.75
249.366	97.75
249.599	92.75
249.832	82.75
250.066	83.75
250.299	75.75
250.532	95.75
250.765	85.75
250.998	90.75
251.231	86.75
251.465	82.75
251.698	78.75
251.931	84.75
252.164	75.75
252.397	65.75
252.63	69.75
252.863	71.75
253.096	91.75
253.329	89.75
253.562	90.75
253.795	85.75
254.028	86.75
254.261	77.75
254.494	72.75
254.727	83.75
254.96	84.75
255.193	84.75
255.426	94.75
255.659	96.75
255.892	95.75
256.124	76.75
256.357	74.75
256.59	92.75
256.823	87.75
257.056	78.75
257.289	79.75
257.521	87.75
257.754	84.75
257.987	89.75
258.22	86.75
258.452	85.75
258.685	82.75
258.918	81.75
259.151	99.75
259.383	91.75
259.616	75.75
259.849	81.75
260.081	89.75
260.314	82.75
260.547	89.75
260.779	80.75
261.012	84.75
261.244	80.75
261.477	90.75
261.71	85.75
261.942	97.75
262.175	103.75
262.407	105.75
262.64	77.75
262.872	79.75
263.105	80.75
263.337	93.75
263.57	99.75
263.802	87.75
264.035	84.75
264.267	85.75
264.499	91.75
264.732	71.75
264.964	80.75
265.197	80.75
265.429	82.75
265.661	76.75
265.894	101.75
266.126	85.75
266.358	92.75
266.591	76.75
266.823	78.75
267.055	96.75
267.287	100.75
267.52	107.75
267.752	77.75
267.984	84.75
268.216	86.75
268.448	92.75
268.681	84.75
268.913	89.75
269.145	87.75
269.377	83.75
269.609	84.75
269.841	83.75
270.073	66.75
270.306	69.75
270.538	103.75
270.77	77.75
271.002	87.75
271.234	95.75
271.466	91.75
271.698	89.75
271.93	76.75
272.162	88.75
272.394	93.75
272.626	89.75
272.858	84.75
273.09	93.75
273.322	80.75
273.553	88.75
273.785	92.75
274.017	93.75
274.249	78.75
274.481	84.75
274.713	91.75
274.945	102.75
275.176	85.75
275.408	82.75
275.64	92.75
275.872	89.75
276.104	92.75
276.335	100.75
276.567	89.75
276.799	112.75
277.031	101.75
277.262	91.75
277.494	85.75
277.726	85.75
277.957	92.75
278.189	82.75
278.421	93.75
278.652	84.75
278.884	81.75
279.115	84.75
279.347	92.75
279.579	85.75
279.81	93.75
280.042	97.75
280.273	88.75
280.505	77.75
280.736	84.75
280.968	92.75
281.199	93.75
281.431	96.75
281.662	76.75
281.894	96.75
282.125	101.75
282.356	102.75
282.588	103.75
282.819	105.75
283.051	94.75
283.282	84.75
283.513	96.75
283.745	86.75
283.976	98.75
284.207	88.75
284.439	87.75
284.67	89.75
284.901	92.75
285.132	96.75
285.364	98.75
285.595	69.75
285.826	99.75
286.057	88.75
286.288	98.75
286.52	96.75
286.751	91.75
286.982	79.75
287.213	91.75
287.444	92.75
287.675	91.75
287.906	93.75
288.138	85.75
288.369	93.75
288.6	90.75
288.831	93.75
289.062	105.75
289.293	90.75
289.524	89.75
289.755	88.75
289.986	94.75
290.217	100.75
290.448	93.75
290.679	84.75
290.91	90.75
291.141	80.75
291.371	86.75
291.602	84.75
291.833	88.75
292.064	75.75
292.295	80.75
292.526	96.75
292.757	87.75
292.987	95.75
293.218	90.75
293.449	88.75
293.68	95.75
293.91	89.75
294.141	86.75
294.372	86.75
294.603	92.75
294.833	95.75
295.064	106.75
295.295	81.75
295.525	96.75
295.756	95.75
295.987	108.75
296.217	111.75
296.448	104.75
296.679	85.75
296.909	80.75
297.14	93.75
297.37	99.75
297.601	77.75
297.831	85.75
298.062	96.75
298.292	83.75
298.523	89.75
298.753	88.75
298.984	82.75
299.214	75.75
299.445	101.75
299.675	99.75
299.905	95.75
300.136	97.75
300.366	90.75
300.597	102.75
300.827	99.75
301.057	96.75
301.288	89.75
301.518	77.75
301.748	89.75
301.979	94.75
302.209	82.75
302.439	83.75
302.669	83.75
302.9	87.75
303.13	92.75
303.36	109.75
303.59	98.75
303.82	93.75
304.051	90.75
304.281	99.75
304.511	89.75
304.741	88.75
304.971	87.75
305.201	102.75
305.431	95.75
305.661	93.75
305.891	82.75
306.121	95.75
306.352	94.75
306.582	102.75
306.812	80.75
307.042	91.75
307.272	93.75
307.502	101.75
307.731	99.75
307.961	109.75
308.191	103.75
308.421	102.75
308.651	102.75
308.881	90.75
309.111	95.75
309.341	103.75
309.571	95.75
309.8	82.75
310.03	110.75
310.26	95.75
310.49	90.75
310.72	80.75
310.949	96.75
311.179	105.75
311.409	99.75
311.639	105.75
311.868	86.75
312.098	87.75
312.328	82.75
312.557	98.75
312.787	87.75
313.017	106.75
313.246	95.75
313.476	95.75
313.706	94.75
313.935	98.75
314.165	85.75
314.394	81.75
314.624	103.75
314.853	91.75
315.083	89.75
315.312	89.75
315.542	100.75
315.771	86.75
316.001	105.75
316.23	86.75
316.46	101.75
316.689	108.75
316.919	91.75
317.148	95.75
317.377	104.75
317.607	121.75
317.836	101.75
318.065	95.75
318.295	92.75
318.524	98.75
318.753	91.75
318.983	95.75
319.212	92.75
319.441	109.75
319.67	95.75
319.9	92.75
320.129	90.75
320.358	85.75
320.587	101.75
320.816	112.75
321.046	96.75
321.275	115.75
321.504	100.75
321.733	97.75
321.962	92.75
322.191	96.75
322.42	89.75
322.649	91.75
322.878	101.75
323.108	110.75
323.337	100.75
323.566	127.75
323.795	131.75
324.024	171.75
324.253	329.75
324.482	639.75
324.71	1295.75
324.939	1696.75
325.168	623.75
325.397	204.75
325.626	133.75
325.855	115.75
326.084	139.75
326.313	154.75
326.542	163.75
326.77	209.75
326.999	381.75
327.228	761.75
327.457	1375.75
327.686	1086.75
327.914	316.75
328.143	163.75
328.372	135.75
328.6	111.75
328.829	114.75
329.058	119.75
329.287	113.75
329.515	125.75
329.744	98.75
329.972	99.75
330.201	104.75
330.43	126.75
330.658	128.75
330.887	114.75
331.115	101.75
331.344	91.75
331.572	97.75
331.801	84.75
332.03	105.75
332.258	101.75
332.486	100.75
332.715	103.75
332.943	105.75
333.172	106.75
333.4	110.75
333.629	105.75
333.857	99.75
334.085	108.75
334.314	110.75
334.542	125.75
334.771	112.75
334.999	95.75
335.227	98.75
335.455	99.75
335.684	104.75
335.912	98.75
336.14	100.75
336.369	98.75
336.597	88.75
336.825	95.75
337.053	93.75
337.281	90.75
337.51	77.75
337.738	103.75
337.966	85.75
338.194	98.75
338.422	88.75
338.65	85.75
338.878	90.75
339.106	88.75
339.334	93.75
339.562	68.75
339.79	76.75
340.018	91.75
340.246	104.75
340.474	86.75
340.702	98.75
340.93	91.75
341.158	107.75
341.386	82.75
341.614	96.75
341.842	108.75
342.07	106.75
342.298	96.75
342.526	86.75
342.754	87.75
342.981	93.75
343.209	99.75
343.437	97.75
343.665	88.75
343.893	92.75
344.12	77.75
344.348	97.75
344.576	96.75
344.804	100.75
345.031	90.75
345.259	85.75
345.487	95.75
345.714	93.75
345.942	98.75
346.17	93.75
346.397	103.75
346.625	91.75
346.853	101.75
347.08	93.75
347.308	107.75
347.535	96.75
347.763	104.75
347.99	101.75
348.218	91.75
348.445	101.75
348.673	100.75
348.9	92.75
349.128	88.75
349.355	88.75
349.583	100.75
349.81	90.75
350.037	100.75
350.265	79.75
350.492	89.75
350.72	103.75
350.947	111.75
351.174	99.75
351.402	97.75
351.629	106.75
351.856	106.75
352.083	93.75
352.311	111.75
352.538	98.75
352.765	106.75
352.992	113.75
353.22	111.75
353.447	100.75
353.674	89.75
353.901	95.75
354.128	81.75
354.355	109.75
354.583	101.75
354.81	100.75
355.037	98.75
355.264	94.75
355.491	84.75
355.718	91.75
355.945	93.75
356.172	92.75
356.399	91.75
356.626	88.75
356.853	103.75
357.08	100.75
357.307	88.75
357.534	113.75
357.761	96.75
357.988	100.75
358.215	87.75
358.441	98.75
358.668	110.75
358.895	96.75
359.122	96.75
359.349	95.75
359.576	103.75
359.802	84.75
360.029	87.75
360.256	104.75
360.483	85.75
360.709	91.75
360.936	98.75
361.163	99.75
361.39	97.75
361.616	108.75
361.843	93.75
362.07	102.75
362.296	94.75
362.523	86.75
362.749	82.75
362.976	95.75
363.203	91.75
363.429	95.75
363.656	92.75
363.882	96.75
364.109	104.75
364.335	111.75
364.562	91.75
364.788	80.75
365.015	96.75
365.241	90.75
365.468	107.75
365.694	102.75
365.92	98.75
366.147	90.75
366.373	79.75
366.599	88.75
366.826	85.75
367.052	91.75
367.278	95.75
367.505	82.75
367.731	103.75
367.957	90.75
368.184	93.75
368.41	99.75
368.636	100.75
368.862	101.75
369.089	112.75
369.315	83.75
369.541	89.75
369.767	98.75
369.993	96.75
370.219	96.75
370.445	96.75
370.672	97.75
370.898	92.75
371.124	83.75
371.35	98.75
371.576	82.75
371.802	88.75
372.028	81.75
372.254	72.75
372.48	78.75
372.706	95.75
372.932	93.75
373.158	95.75
373.384	98.75
373.61	91.75
373.835	108.75
374.061	93.75
374.287	95.75
374.513	95.75
374.739	92.75
374.965	85.75
375.191	84.75
375.416	94.75
375.642	89.75
375.868	98.75
376.094	89.75
376.319	101.75
376.545	103.75
376.771	103.75
376.997	88.75
377.222	91.75
377.448	97.75
377.674	92.75
377.899	106.75
378.125	104.75
378.35	105.75
378.576	106.75
378.802	106.75
379.027	84.75
379.253	89.75
379.478	90.75
379.704	93.75
379.929	99.75
380.155	108.75
380.38	97.75
380.606	104.75
380.831	99.75
381.057	96.75
381.282	93.75
381.507	103.75
381.733	101.75
381.958	95.75
382.184	103.75
382.409	102.75
382.634	105.75
382.86	111.75
383.085	106.75
383.31	97.75
383.535	96.75
383.761	100.75
383.986	104.75
384.211	104.75
384.436	113.75
384.662	98.75
384.887	111.75
385.112	118.75
385.337	91.75
385.562	96.75
385.787	99.75
386.013	115.75
386.238	124.75
386.463	112.75
386.688	114.75
386.913	108.75
387.138	95.75
387.363	97.75
387.588	94.75
387.813	109.75
388.038	108.75
388.263	108.75
388.488	102.75
388.713	98.75
388.938	87.75
389.163	103.75
389.387	104.75
389.612	100.75
389.837	100.75
390.062	105.75
390.287	86.75
390.512	90.75
390.736	91.75
390.961	97.75
391.186	96.75
391.411	89.75
391.636	108.75
391.86	98.75
392.085	84.75
392.31	94.75
392.534	85.75
392.759	83.75
392.984	93.75
393.208	90.75
393.433	95.75
393.658	104.75
393.882	93.75
394.107	91.75
394.331	100.75
394.556	104.75
394.78	102.75
395.005	88.75
395.229	94.75
395.454	89.75
395.678	87.75
395.903	89.75
396.127	92.75
396.352	85.75
396.576	91.75
396.801	79.75
397.025	77.75
397.249	96.75
397.474	90.75
397.698	89.75
397.922	91.75
398.147	89.75
398.371	70.75
398.595	77.75
398.82	97.75
399.044	95.75
399.268	93.75
399.492	90.75
399.717	101.75
399.941	91.75
400.165	103.75
400.389	87.75
400.613	101.75
400.837	89.75
401.062	89.75
401.286	86.75
401.51	88.75
401.734	84.75
401.958	95.75
402.182	111.75
402.406	124.75
402.63	120.75
402.854	89.75
403.078	84.75
403.302	92.75
403.526	96.75
403.75	89.75
403.974	68.75
404.198	101.75
404.422	84.75
404.645	86.75
404.869	101.75
405.093	111.75
405.317	94.75
405.541	105.75
405.765	93.75
405.988	115.75
406.212	146.75
406.436	186.75
406.66	110.75
406.883	89.75
407.107	85.75
407.331	94.75
407.555	94.75
407.778	94.75
408.002	85.75
408.226	87.75
408.449	80.75
408.673	102.75
408.896	93.75
409.12	87.75
409.344	96.75
409.567	89.75
409.791	74.75
410.014	84.75
410.238	98.75
410.461	99.75
410.685	112.75
410.908	103.75
411.132	108.75
411.355	105.75
411.578	102.75
411.802	101.75
412.025	89.75
412.249	89.75
412.472	101.75
412.695	110.75
412.919	97.75
413.142	94.75
413.365	101.75
413.589	92.75
413.812	78.75
414.035	78.75
414.258	102.75
414.482	78.75
414.705	79.75
414.928	88.75
415.151	103.75
415.374	96.75
415.597	92.75
415.821	100.75
416.044	84.75
416.267	103.75
416.49	107.75
416.713	78.75
416.936	90.75
417.159	87.75
417.382	80.75
417.605	84.75
417.828	86.75
418.051	85.75
418.274	99.75
418.497	92.75
418.72	88.75
418.943	89.75
419.166	98.75
419.389	92.75
419.611	80.75
419.834	85.75
420.057	92.75
420.28	88.75
420.503	77.75
420.726	90.75
420.948	85.75
421.171	85.75
421.394	97.75
421.617	82.75
421.839	85.75
422.062	85.75
422.285	93.75
422.507	102.75
422.73	92.75
422.953	95.75
423.175	93.75
423.398	100.75
423.621	84.75
423.843	96.75
424.066	82.75
424.288	92.75
424.511	85.75
424.733	91.75
424.956	99.75
425.178	87.75
425.401	95.75
425.623	91.75
425.846	81.75
426.068	79.75
426.291	94.75
426.513	92.75
426.735	91.75
426.958	92.75
427.18	107.75
427.402	115.75
427.625	131.75
427.847	106.75
428.069	92.75
428.292	84.75
428.514	95.75
428.736	79.75
428.958	73.75
429.181	74.75
429.403	78.75
429.625	88.75
429.847	82.75
430.069	81.75
430.292	97.75
430.514	96.75
430.736	89.75
430.958	82.75
431.18	84.75
431.402	80.75
431.624	96.75
431.846	99.75
432.068	84.75
432.29	93.75
432.512	97.75
432.734	82.75
432.956	89.75
433.178	95.75
433.4	95.75
433.622	87.75
433.844	94.75
434.066	99.75
434.287	87.75
434.509	88.75
434.731	96.75
434.953	95.75
435.175	94.75
435.397	86.75
435.618	99.75
435.84	97.75
436.062	112.75
436.284	116.75
436.505	100.75
436.727	102.75
436.949	88.75
437.17	95.75
437.392	85.75
437.614	89.75
437.835	90.75
438.057	96.75
438.278	95.75
438.5	90.75
438.721	93.75
438.943	88.75
439.165	88.75
439.386	95.75
439.608	84.75
439.829	96.75
440.05	102.75
440.272	106.75
440.493	91.75
440.715	94.75
440.936	91.75
441.158	90.75
441.379	91.75
441.6	83.75
441.822	84.75
442.043	85.75
442.264	99.75
442.486	92.75
442.707	91.75
442.928	101.75
443.149	112.75
443.371	110.75
443.592	104.75
443.813	107.75
444.034	104.75
444.255	84.75
444.476	87.75
444.698	84.75
444.919	91.75
445.14	142.75
445.361	129.75
445.582	116.75
445.803	121.75
446.024	104.75
446.245	111.75
446.466	121.75
446.687	89.75
446.908	84.75
447.129	95.75
447.35	99.75
447.571	96.75
447.792	96.75
448.013	94.75
448.234	93.75
448.455	118.75
448.675	96.75
448.896	102.75
449.117	102.75
449.338	113.75
449.559	111.75
449.779	111.75
450	105.75
450.221	83.75
450.442	87.75
450.662	94.75
450.883	94.75
451.104	107.75
451.324	95.75
451.545	81.75
451.766	100.75
451.986	88.75
452.207	92.75
452.428	99.75
452.648	97.75
452.869	103.75
453.089	103.75
453.31	104.75
453.53	88.75
453.751	85.75
453.971	96.75
454.192	102.75
454.412	95.75
454.633	98.75
454.853	87.75
455.073	88.75
455.294	83.75
455.514	94.75
455.734	80.75
455.955	87.75
456.175	90.75
456.395	78.75
456.616	103.75
456.836	96.75
457.056	88.75
457.276	89.75
457.497	100.75
457.717	97.75
457.937	77.75
458.157	106.75
458.377	83.75
458.598	91.75
458.818	116.75
459.038	137.75
459.258	87.75
459.478	95.75
459.698	80.75
459.918	83.75
460.138	88.75
460.358	93.75
460.578	88.75
460.798	89.75
461.018	98.75
461.238	83.75
461.458	75.75
461.678	87.75
461.898	90.75
462.118	98.75
462.338	81.75
462.558	81.75
462.777	88.75
462.997	91.75
463.217	71.75
463.437	88.75
463.657	88.75
463.876	107.75
464.096	95.75
464.316	85.75
464.536	87.75
464.755	88.75
464.975	88.75
465.195	120.75
465.414	131.75
465.634	104.75
465.854	94.75
466.073	93.75
466.293	96.75
466.512	94.75
466.732	85.75
466.951	87.75
467.171	101.75
467.391	95.75
467.61	88.75
467.829	84.75
468.049	117.75
468.268	103.75
468.488	80.75
468.707	77.75
468.927	93.75
469.146	88.75
469.365	88.75
469.585	92.75
469.804	90.75
470.023	98.75
470.243	101.75
470.462	89.75
470.681	86.75
470.901	87.75
471.12	101.75
471.339	82.75
471.558	84.75
471.777	85.75
471.997	85.75
472.216	101.75
472.435	122.75
472.654	93.75
472.873	102.75
473.092	91.75
473.311	87.75
473.53	88.75
473.749	91.75
473.968	92.75
474.187	89.75
474.406	91.75
474.625	87.75
474.844	96.75
475.063	103.75
475.282	85.75
475.501	86.75
475.72	93.75
475.939	81.75
476.158	85.75
476.377	78.75
476.596	96.75
476.814	88.75
477.033	109.75
477.252	79.75
477.471	102.75
477.69	103.75
477.908	83.75
478.127	85.75
478.346	96.75
478.564	91.75
478.783	94.75
479.002	89.75
479.22	89.75
479.439	91.75
479.658	101.75
479.876	84.75
480.095	85.75
480.313	95.75
480.532	81.75
480.751	82.75
480.969	105.75
481.188	158.75
481.406	138.75
481.624	99.75
481.843	90.75
482.061	90.75
482.28	94.75
482.498	99.75
482.717	88.75
482.935	83.75
483.153	99.75
483.372	100.75
483.59	85.75
483.808	96.75
484.027	71.75
484.245	89.75
484.463	84.75
484.681	99.75
484.9	86.75
485.118	99.75
485.336	94.75
485.554	86.75
485.772	96.75
485.99	103.75
486.209	107.75
486.427	113.75
486.645	103.75
486.863	106.75
487.081	92.75
487.299	106.75
487.517	91.75
487.735	100.75
487.953	103.75
488.171	119.75
488.389	108.75
488.607	91.75
488.825	84.75
489.043	80.75
489.261	100.75
489.479	91.75
489.696	83.75
489.914	85.75
490.132	82.75
490.35	101.75
490.568	93.75
490.786	89.75
491.003	96.75
491.221	91.75
491.439	99.75
491.657	99.75
491.874	93.75
492.092	105.75
492.31	93.75
492.527	86.75
492.745	95.75
492.963	95.75
493.18	92.75
493.398	88.75
493.615	98.75
493.833	91.75
494.05	91.75
494.268	97.75
494.485	98.75
494.703	89.75
494.92	92.75
495.138	89.75
495.355	104.75
495.573	96.75
495.79	88.75
496.008	88.75
496.225	99.75
496.442	102.75
496.66	92.75
496.877	92.75
497.094	96.75
497.312	81.75
497.529	81.75
497.746	77.75
497.963	106.75
498.181	88.75
498.398	93.75
498.615	95.75
498.832	91.75
499.049	96.75
499.267	88.75
499.484	99.75
499.701	95.75
499.918	90.75
500.135	84.75
500.352	99.75
500.569	82.75
500.786	90.75
501.003	92.75
501.22	98.75
501.437	93.75
501.654	95.75
501.871	96.75
502.088	99.75
502.305	101.75
502.522	90.75
502.739	85.75
502.956	107.75
503.172	91.75
503.389	85.75
503.606	111.75
503.823	103.75
504.04	95.75
504.256	100.75
504.473	114.75
504.69	90.75
504.907	112.75
505.123	101.75
505.34	75.75
505.557	90.75
505.773	87.75
505.99	100.75
506.207	81.75
506.423	88.75
506.64	84.75
506.856	89.75
507.073	92.75
507.289	100.75
507.506	84.75
507.722	92.75
507.939	106.75
508.155	94.75
508.372	80.75
508.588	101.75
508.805	101.75
509.021	88.75
509.238	95.75
509.454	91.75
509.67	111.75
509.887	103.75
510.103	112.75
510.319	167.75
510.536	528.75
510.752	1541.75
510.968	474.75
511.184	135.75
511.401	121.75
511.617	102.75
511.833	102.75
512.049	96.75
512.265	88.75
512.481	100.75
512.698	79.75
512.914	92.75
513.13	106.75
513.346	104.75
513.562	95.75
513.778	99.75
513.994	85.75
514.21	101.75
514.426	104.75
514.642	94.75
514.858	112.75
515.074	119.75
515.29	305.75
515.506	880.75
515.721	368.75
515.937	116.75
516.153	106.75
516.369	101.75
516.585	99.75
516.801	95.75
517.016	79.75
517.232	95.75
517.448	88.75
517.664	106.75
517.879	101.75
518.095	99.75
518.311	96.75
518.527	96.75
518.742	87.75
518.958	89.75
519.173	106.75
519.389	93.75
519.605	98.75
519.82	99.75
520.036	88.75
520.251	123.75
520.467	114.75
520.682	111.75
520.898	99.75
521.113	97.75
521.329	121.75
521.544	142.75
521.76	346.75
521.975	1385.75
522.19	852.75
522.406	223.75
522.621	114.75
522.836	106.75
523.052	94.75
523.267	85.75
523.482	109.75
523.698	92.75
523.913	110.75
524.128	105.75
524.343	102.75
524.559	92.75
524.774	85.75
524.989	93.75
525.204	98.75
525.419	87.75
525.634	96.75
525.849	92.75
526.064	92.75
526.28	99.75
526.495	96.75
526.71	84.75
526.925	91.75
527.14	96.75
527.355	85.75
527.57	90.75
527.785	94.75
527.999	85.75
528.214	103.75
528.429	102.75
528.644	86.75
528.859	80.75
529.074	100.75
529.289	122.75
529.503	161.75
529.718	104.75
529.933	109.75
530.148	83.75
530.363	99.75
530.577	80.75
530.792	88.75
531.007	86.75
531.221	87.75
531.436	80.75
531.651	97.75
531.865	88.75
532.08	91.75
532.295	95.75
532.509	79.75
532.724	98.75
532.938	90.75
533.153	112.75
533.367	98.75
533.582	97.75
533.796	95.75
534.011	99.75
534.225	97.75
534.44	86.75
534.654	99.75
534.868	93.75
535.083	89.75
535.297	93.75
535.511	105.75
535.726	112.75
535.94	94.75
536.154	96.75
536.369	88.75
536.583	95.75
536.797	105.75
537.011	99.75
537.225	98.75
537.44	90.75
537.654	101.75
537.868	87.75
538.082	95.75
538.296	89.75
538.51	106.75
538.724	105.75
538.938	90.75
539.153	94.75
539.367	109.75
539.581	97.75
539.795	91.75
540.009	100.75
540.222	90.75
540.436	112.75
540.65	104.75
540.864	100.75
541.078	78.75
541.292	98.75
541.506	89.75
541.72	107.75
541.934	90.75
542.147	81.75
542.361	98.75
542.575	97.75
542.789	98.75
543.002	82.75
543.216	98.75
543.43	96.75
543.644	93.75
543.857	89.75
544.071	92.75
544.285	90.75
544.498	108.75
544.712	83.75
544.925	96.75
545.139	96.75
545.352	93.75
545.566	91.75
545.779	99.75
545.993	92.75
546.206	95.75
546.42	84.75
546.633	85.75
546.847	87.75
547.06	92.75
547.274	101.75
547.487	102.75
547.7	93.75
547.914	103.75
548.127	91.75
548.34	97.75
548.554	79.75
548.767	93.75
548.98	85.75
549.193	98.75
549.407	97.75
549.62	85.75
549.833	95.75
550.046	86.75
550.259	95.75
550.473	99.75
550.686	79.75
550.899	91.75
551.112	89.75
551.325	76.75
551.538	77.75
551.751	86.75
551.964	91.75
552.177	93.75
552.39	99.75
552.603	97.75
552.816	77.75
553.029	92.75
553.242	85.75
553.455	97.75
553.667	111.75
553.88	111.75
554.093	99.75
554.306	101.75
554.519	98.75
554.732	96.75
554.944	103.75
555.157	95.75
555.37	93.75
555.583	87.75
555.795	91.75
556.008	96.75
556.221	99.75
556.433	97.75
556.646	84.75
556.859	93.75
557.071	95.75
557.284	99.75
557.496	87.75
557.709	86.75
557.921	97.75
558.134	78.75
558.346	87.75
558.559	89.75
558.771	100.75
558.984	116.75
559.196	101.75
559.409	100.75
559.621	90.75
559.833	86.75
560.046	86.75
560.258	95.75
560.47	91.75
560.683	79.75
560.895	87.75
561.107	85.75
561.32	81.75
561.532	91.75
561.744	84.75
561.956	91.75
562.168	103.75
562.381	106.75
562.593	100.75
562.805	95.75
563.017	92.75
563.229	86.75
563.441	90.75
563.653	85.75
563.865	82.75
564.077	85.75
564.289	92.75
564.501	99.75
564.713	99.75
564.925	94.75
565.137	91.75
565.349	94.75
565.561	88.75
565.773	85.75
565.985	86.75
566.197	94.75
566.408	106.75
566.62	81.75
566.832	107.75
567.044	76.75
567.255	83.75
567.467	96.75
567.679	99.75
567.891	102.75
568.102	87.75
568.314	81.75
568.526	87.75
568.737	95.75
568.949	85.75
569.161	73.75
569.372	100.75
569.584	79.75
569.795	83.75
570.007	103.75
570.218	192.75
570.43	115.75
570.641	104.75
570.853	100.75
571.064	88.75
571.276	94.75
571.487	90.75
571.698	102.75
571.91	83.75
572.121	95.75
572.333	87.75
572.544	92.75
572.755	99.75
572.966	93.75
573.178	87.75
573.389	85.75
573.6	80.75
573.811	102.75
574.023	88.75
574.234	102.75
574.445	92.75
574.656	82.75
574.867	82.75
575.078	86.75
575.289	111.75
575.501	97.75
575.712	91.75
575.923	85.75
576.134	81.75
576.345	76.75
576.556	91.75
576.767	89.75
576.978	82.75
577.188	89.75
577.399	102.75
577.61	91.75
577.821	97.75
578.032	97.75
578.243	215.75
578.454	512.75
578.665	172.75
578.875	91.75
579.086	110.75
579.297	86.75
579.508	85.75
579.718	87.75
579.929	88.75
580.14	90.75
580.35	84.75
580.561	86.75
580.772	96.75
580.982	94.75
581.193	94.75
581.403	89.75
581.614	102.75
581.825	96.75
582.035	86.75
582.246	96.75
582.456	88.75
582.667	89.75
582.877	97.75
583.087	80.75
583.298	78.75
583.508	75.75
583.719	90.75
583.929	93.75
584.139	82.75
584.35	87.75
584.56	87.75
584.77	92.75
584.981	94.75
585.191	90.75
585.401	76.75
585.611	83.75
585.821	101.75
586.032	91.75
586.242	91.75
586.452	103.75
586.662	89.75
586.872	95.75
587.082	66.75
587.292	98.75
587.502	95.75
587.713	93.75
587.923	97.75
588.133	85.75
588.343	95.75
588.553	90.75
588.762	87.75
588.972	101.75
589.182	98.75
589.392	95.75
589.602	91.75
589.812	93.75
590.022	101.75
590.232	78.75
590.441	106.75
590.651	100.75
590.861	88.75
591.071	81.75
591.281	99.75
591.49	90.75
591.7	92.75
591.91	80.75
592.119	81.75
592.329	83.75
592.539	91.75
592.748	85.75
592.958	73.75
593.167	81.75
593.377	92.75
593.587	99.75
593.796	88.75
594.006	92.75
594.215	91.75
594.424	85.75
594.634	91.75
594.843	89.75
595.053	85.75
595.262	85.75
595.472	85.75
595.681	87.75
595.89	96.75
596.1	85.75
596.309	80.75
596.518	91.75
596.727	82.75
596.937	90.75
597.146	79.75
597.355	97.75
597.564	85.75
597.774	90.75
597.983	85.75
598.192	87.75
598.401	81.75
598.61	80.75
598.819	92.75
599.028	96.75
599.237	98.75
599.446	85.75
599.655	90.75
599.864	91.75
600.073	83.75
600.282	91.75
600.491	88.75
600.7	83.75
600.909	84.75
601.118	102.75
601.327	85.75
601.536	95.75
601.745	98.75
601.953	87.75
602.162	90.75
602.371	98.75
602.58	99.75
602.789	71.75
602.997	108.75
603.206	79.75
603.415	98.75
603.623	83.75
603.832	85.75
604.041	92.75
604.249	79.75
604.458	88.75
604.666	96.75
604.875	81.75
605.084	87.75
605.292	100.75
605.501	90.75
605.709	85.75
605.918	91.75
606.126	88.75
606.334	95.75
606.543	66.75
606.751	83.75
606.96	88.75
607.168	87.75
607.376	81.75
607.585	94.75
607.793	94.75
608.001	80.75
608.21	82.75
608.418	85.75
608.626	84.75
608.834	90.75
609.043	77.75
609.251	78.75
609.459	75.75
609.667	85.75
609.875	75.75
610.083	86.75
610.291	93.75
610.499	84.75
610.707	98.75
610.916	77.75
611.124	88.75
611.332	98.75
611.54	93.75
611.748	83.75
611.955	77.75
612.163	89.75
612.371	77.75
612.579	93.75
612.787	93.75
612.995	91.75
613.203	96.75
613.411	90.75
613.618	77.75
613.826	93.75
614.034	97.75
614.242	100.75
614.449	91.75
614.657	75.75
614.865	100.75
615.072	81.75
615.28	100.75
615.488	102.75
615.695	101.75
615.903	110.75
616.111	89.75
616.318	96.75
616.526	101.75
616.733	92.75
616.941	95.75
617.148	99.75
617.356	86.75
617.563	83.75
617.771	86.75
617.978	83.75
618.185	85.75
618.393	81.75
618.6	92.75
618.807	85.75
619.015	93.75
619.222	80.75
619.429	88.75
619.637	96.75
619.844	98.75
620.051	104.75
620.258	104.75
620.466	82.75
620.673	92.75
620.88	97.75
621.087	87.75
621.294	96.75
621.501	82.75
621.708	89.75
621.915	97.75
622.122	95.75
622.329	76.75
622.536	82.75
622.743	86.75
622.95	90.75
623.157	88.75
623.364	91.75
623.571	92.75
623.778	82.75
623.985	101.75
624.192	95.75
624.399	88.75
624.606	91.75
624.812	92.75
625.019	99.75
625.226	90.75
625.433	101.75
625.639	82.75
625.846	84.75
626.053	77.75
626.259	94.75
626.466	102.75
626.673	86.75
626.879	90.75
627.086	83.75
627.293	89.75
627.499	79.75
627.706	72.75
627.912	96.75
628.119	101.75
628.325	83.75
628.532	82.75
628.738	76.75
628.945	84.75
629.151	96.75
629.357	83.75
629.564	94.75
629.77	96.75
629.976	93.75
630.183	75.75
630.389	78.75
630.595	85.75
630.802	92.75
631.008	80.75
631.214	98.75
631.42	88.75
631.627	86.75
631.833	88.75
632.039	91.75
632.245	89.75
632.451	90.75
632.657	73.75
632.863	95.75
633.069	91.75
633.275	91.75
633.481	79.75
633.688	100.75
633.893	89.75
634.099	104.75
634.305	81.75
634.511	80.75
634.717	82.75
634.923	91.75
635.129	89.75
635.335	84.75
635.541	91.75
635.747	81.75
635.952	83.75
636.158	80.75
636.364	90.75
636.57	90.75
636.775	79.75
636.981	82.75
637.187	89.75
637.392	86.75
637.598	81.75
637.804	76.75
638.009	82.75
638.215	81.75
638.421	103.75
638.626	76.75
638.832	79.75
639.037	70.75
639.243	79.75
639.448	88.75
639.654	76.75
639.859	69.75
640.065	88.75
640.27	95.75
640.475	85.75
640.681	72.75
640.886	84.75
641.091	83.75
641.297	98.75
641.502	78.75
641.707	93.75
641.913	100.75
642.118	82.75
642.323	78.75
642.528	80.75
642.733	77.75
642.939	90.75
643.144	90.75
643.349	91.75
643.554	87.75
643.759	99.75
643.964	79.75
644.169	91.75
644.374	77.75
644.579	91.75
644.784	97.75
644.989	71.75
645.194	99.75
645.399	89.75
645.604	93.75
645.809	89.75
646.014	93.75
646.219	90.75
646.423	95.75
646.628	88.75
646.833	67.75
647.038	95.75
647.243	93.75
647.447	89.75
647.652	83.75
647.857	85.75
648.062	85.75
648.266	84.75
648.471	106.75
648.676	87.75
648.88	82.75
649.085	99.75
649.289	108.75
649.494	112.75
649.698	147.75
649.903	101.75
650.107	91.75
650.312	95.75
650.516	83.75
650.721	84.75
650.925	77.75
651.13	81.75
651.334	80.75
651.539	89.75
651.743	102.75
651.947	88.75
652.152	80.75
652.356	79.75
652.56	86.75
652.764	79.75
652.969	89.75
653.173	87.75
653.377	87.75
653.581	90.75
653.785	92.75
653.99	85.75
654.194	89.75
654.398	86.75
654.602	91.75
654.806	83.75
655.01	104.75
655.214	85.75
655.418	90.75
655.622	88.75
655.826	87.75
656.03	92.75
656.234	89.75
656.438	88.75
656.642	84.75
656.846	90.75
657.049	98.75
657.253	84.75
657.457	104.75
657.661	84.75
657.865	81.75
658.068	86.75
658.272	90.75
658.476	80.75
658.68	102.75
658.883	97.75
659.087	79.75
659.291	85.75
659.494	96.75
659.698	77.75
659.901	85.75
660.105	94.75
660.309	86.75
660.512	84.75
660.716	71.75
660.919	84.75
661.123	78.75
661.326	78.75
661.53	83.75
661.733	82.75
661.936	89.75
662.14	90.75
662.343	79.75
662.546	92.75
662.75	96.75
662.953	68.75
663.156	75.75
663.36	91.75
663.563	79.75
663.766	88.75
663.969	93.75
664.173	87.75
664.376	89.75
664.579	74.75
664.782	68.75
664.985	90.75
665.188	91.75
665.391	86.75
665.594	90.75
665.797	94.75
666	103.75
666.203	77.75
666.406	75.75
666.609	75.75
666.812	99.75
667.015	95.75
667.218	89.75
667.421	91.75
667.624	91.75
667.827	80.75
668.03	85.75
668.232	89.75
668.435	84.75
668.638	100.75
668.841	96.75
669.043	76.75
669.246	80.75
669.449	67.75
669.651	90.75
669.854	101.75
670.057	97.75
670.259	72.75
670.462	81.75
670.665	80.75
670.867	96.75
671.07	91.75
671.272	84.75
671.475	86.75
671.677	90.75
671.88	84.75
672.082	92.75
672.284	78.75
672.487	79.75
672.689	86.75
672.892	95.75
