Data from Uncirc_2009_H10_HRD10591_00090.txt Node
Date: Wed Jan 03 10:12:19 EST 2024
User: Yrep
Spectrometer: HR+D1059
Trigger mode: 1
Integration Time (sec): 1.000000E-1
Scans to average: 1
Electric dark correction enabled: true
Nonlinearity correction enabled: false
Boxcar width: 0
XAxis mode: Wavelengths
Number of Pixels in Spectrum: 2048
>>>>>Begin Spectral Data<<<<<
223.165	-10.62
223.4	-10.62
223.635	-10.62
223.869	-25.62
224.104	-25.62
224.338	-23.62
224.573	1.38
224.808	-15.62
225.042	3.38
225.277	-5.62
225.511	-2.62
225.746	-0.62
225.98	1.38
226.215	5.38
226.449	18.38
226.683	23.38
226.918	32.38
227.152	24.38
227.387	34.38
227.621	43.38
227.856	32.38
228.09	42.38
228.324	57.38
228.559	61.38
228.793	56.38
229.027	69.38
229.262	68.38
229.496	82.38
229.73	78.38
229.964	88.38
230.199	78.38
230.433	78.38
230.667	93.38
230.901	79.38
231.136	84.38
231.37	82.38
231.604	85.38
231.838	79.38
232.072	87.38
232.306	80.38
232.541	83.38
232.775	91.38
233.009	91.38
233.243	88.38
233.477	83.38
233.711	84.38
233.945	99.38
234.179	70.38
234.413	87.38
234.647	79.38
234.881	75.38
235.115	85.38
235.349	84.38
235.583	73.38
235.817	83.38
236.051	84.38
236.285	65.38
236.519	84.38
236.753	78.38
236.987	91.38
237.221	81.38
237.455	82.38
237.689	74.38
237.922	76.38
238.156	80.38
238.39	78.38
238.624	72.38
238.858	82.38
239.091	80.38
239.325	79.38
239.559	77.38
239.793	91.38
240.027	72.38
240.26	65.38
240.494	82.38
240.728	94.38
240.961	64.38
241.195	73.38
241.429	81.38
241.662	92.38
241.896	71.38
242.13	76.38
242.363	78.38
242.597	73.38
242.83	82.38
243.064	97.38
243.298	91.38
243.531	81.38
243.765	93.38
243.998	80.38
244.232	81.38
244.465	87.38
244.699	59.38
244.932	90.38
245.166	82.38
245.399	84.38
245.633	83.38
245.866	80.38
246.099	92.38
246.333	76.38
246.566	86.38
246.8	84.38
247.033	82.38
247.266	91.38
247.5	76.38
247.733	83.38
247.966	79.38
248.2	77.38
248.433	89.38
248.666	82.38
248.899	73.38
249.133	64.38
249.366	90.38
249.599	85.38
249.832	82.38
250.066	89.38
250.299	80.38
250.532	76.38
250.765	87.38
250.998	82.38
251.231	85.38
251.465	82.38
251.698	77.38
251.931	74.38
252.164	82.38
252.397	79.38
252.63	79.38
252.863	78.38
253.096	79.38
253.329	88.38
253.562	77.38
253.795	79.38
254.028	84.38
254.261	88.38
254.494	70.38
254.727	83.38
254.96	81.38
255.193	86.38
255.426	80.38
255.659	104.38
255.892	98.38
256.124	80.38
256.357	83.38
256.59	77.38
256.823	66.38
257.056	90.38
257.289	93.38
257.521	88.38
257.754	73.38
257.987	71.38
258.22	87.38
258.452	78.38
258.685	94.38
258.918	78.38
259.151	87.38
259.383	94.38
259.616	88.38
259.849	80.38
260.081	80.38
260.314	89.38
260.547	81.38
260.779	81.38
261.012	89.38
261.244	84.38
261.477	87.38
261.71	81.38
261.942	95.38
262.175	113.38
262.407	85.38
262.64	93.38
262.872	98.38
263.105	109.38
263.337	99.38
263.57	93.38
263.802	88.38
264.035	94.38
264.267	95.38
264.499	78.38
264.732	93.38
264.964	79.38
265.197	99.38
265.429	84.38
265.661	81.38
265.894	81.38
266.126	80.38
266.358	93.38
266.591	82.38
266.823	89.38
267.055	86.38
267.287	86.38
267.52	81.38
267.752	79.38
267.984	84.38
268.216	96.38
268.448	80.38
268.681	79.38
268.913	80.38
269.145	84.38
269.377	81.38
269.609	71.38
269.841	97.38
270.073	80.38
270.306	94.38
270.538	78.38
270.77	90.38
271.002	94.38
271.234	90.38
271.466	87.38
271.698	91.38
271.93	68.38
272.162	106.38
272.394	82.38
272.626	77.38
272.858	80.38
273.09	104.38
273.322	76.38
273.553	94.38
273.785	82.38
274.017	84.38
274.249	88.38
274.481	97.38
274.713	91.38
274.945	85.38
275.176	96.38
275.408	99.38
275.64	106.38
275.872	96.38
276.104	79.38
276.335	88.38
276.567	92.38
276.799	106.38
277.031	111.38
277.262	83.38
277.494	109.38
277.726	84.38
277.957	86.38
278.189	87.38
278.421	84.38
278.652	91.38
278.884	78.38
279.115	79.38
279.347	92.38
279.579	96.38
279.81	91.38
280.042	79.38
280.273	86.38
280.505	90.38
280.736	93.38
280.968	89.38
281.199	101.38
281.431	87.38
281.662	88.38
281.894	85.38
282.125	100.38
282.356	122.38
282.588	128.38
282.819	120.38
283.051	97.38
283.282	81.38
283.513	96.38
283.745	95.38
283.976	101.38
284.207	107.38
284.439	90.38
284.67	88.38
284.901	94.38
285.132	83.38
285.364	84.38
285.595	89.38
285.826	85.38
286.057	86.38
286.288	79.38
286.52	115.38
286.751	94.38
286.982	96.38
287.213	88.38
287.444	85.38
287.675	85.38
287.906	97.38
288.138	96.38
288.369	97.38
288.6	88.38
288.831	90.38
289.062	84.38
289.293	83.38
289.524	101.38
289.755	90.38
289.986	72.38
290.217	84.38
290.448	90.38
290.679	98.38
290.91	96.38
291.141	91.38
291.371	100.38
291.602	81.38
291.833	102.38
292.064	91.38
292.295	91.38
292.526	88.38
292.757	76.38
292.987	85.38
293.218	83.38
293.449	92.38
293.68	97.38
293.91	104.38
294.141	101.38
294.372	100.38
294.603	88.38
294.833	85.38
295.064	96.38
295.295	84.38
295.525	99.38
295.756	94.38
295.987	103.38
296.217	136.38
296.448	110.38
296.679	93.38
296.909	89.38
297.14	100.38
297.37	81.38
297.601	90.38
297.831	75.38
298.062	91.38
298.292	93.38
298.523	76.38
298.753	97.38
298.984	81.38
299.214	93.38
299.445	93.38
299.675	84.38
299.905	97.38
300.136	78.38
300.366	82.38
300.597	83.38
300.827	108.38
301.057	85.38
301.288	104.38
301.518	104.38
301.748	72.38
301.979	89.38
302.209	75.38
302.439	91.38
302.669	88.38
302.9	97.38
303.13	91.38
303.36	100.38
303.59	100.38
303.82	113.38
304.051	97.38
304.281	98.38
304.511	88.38
304.741	85.38
304.971	86.38
305.201	91.38
305.431	93.38
305.661	100.38
305.891	84.38
306.121	90.38
306.352	96.38
306.582	93.38
306.812	97.38
307.042	93.38
307.272	108.38
307.502	111.38
307.731	102.38
307.961	91.38
308.191	98.38
308.421	100.38
308.651	100.38
308.881	88.38
309.111	93.38
309.341	92.38
309.571	100.38
309.8	91.38
310.03	96.38
310.26	97.38
310.49	93.38
310.72	99.38
310.949	98.38
311.179	112.38
311.409	90.38
311.639	105.38
311.868	101.38
312.098	96.38
312.328	109.38
312.557	100.38
312.787	109.38
313.017	99.38
313.246	88.38
313.476	83.38
313.706	98.38
313.935	98.38
314.165	95.38
314.394	89.38
314.624	105.38
314.853	99.38
315.083	98.38
315.312	104.38
315.542	94.38
315.771	95.38
316.001	100.38
316.23	84.38
316.46	92.38
316.689	103.38
316.919	98.38
317.148	104.38
317.377	108.38
317.607	126.38
317.836	102.38
318.065	95.38
318.295	106.38
318.524	79.38
318.753	80.38
318.983	102.38
319.212	113.38
319.441	111.38
319.67	106.38
319.9	99.38
320.129	99.38
320.358	88.38
320.587	104.38
320.816	105.38
321.046	96.38
321.275	98.38
321.504	90.38
321.733	95.38
321.962	91.38
322.191	114.38
322.42	105.38
322.649	117.38
322.878	111.38
323.108	105.38
323.337	115.38
323.566	126.38
323.795	161.38
324.024	204.38
324.253	370.38
324.482	754.38
324.71	1589.38
324.939	2119.38
325.168	756.38
325.397	232.38
325.626	145.38
325.855	124.38
326.084	141.38
326.313	147.38
326.542	171.38
326.77	235.38
326.999	450.38
327.228	853.38
327.457	1599.38
327.686	1292.38
327.914	339.38
328.143	185.38
328.372	139.38
328.6	122.38
328.829	115.38
329.058	124.38
329.287	120.38
329.515	98.38
329.744	105.38
329.972	112.38
330.201	115.38
330.43	122.38
330.658	121.38
330.887	124.38
331.115	100.38
331.344	96.38
331.572	96.38
331.801	98.38
332.03	98.38
332.258	89.38
332.486	106.38
332.715	97.38
332.943	103.38
333.172	111.38
333.4	105.38
333.629	89.38
333.857	113.38
334.085	96.38
334.314	117.38
334.542	135.38
334.771	110.38
334.999	108.38
335.227	85.38
335.455	95.38
335.684	102.38
335.912	82.38
336.14	107.38
336.369	103.38
336.597	96.38
336.825	97.38
337.053	79.38
337.281	87.38
337.51	92.38
337.738	85.38
337.966	89.38
338.194	103.38
338.422	96.38
338.65	103.38
338.878	109.38
339.106	100.38
339.334	107.38
339.562	91.38
339.79	96.38
340.018	107.38
340.246	91.38
340.474	98.38
340.702	105.38
340.93	109.38
341.158	81.38
341.386	101.38
341.614	109.38
341.842	100.38
342.07	95.38
342.298	94.38
342.526	92.38
342.754	90.38
342.981	103.38
343.209	86.38
343.437	103.38
343.665	83.38
343.893	93.38
344.12	89.38
344.348	93.38
344.576	100.38
344.804	104.38
345.031	90.38
345.259	96.38
345.487	106.38
345.714	90.38
345.942	107.38
346.17	106.38
346.397	90.38
346.625	101.38
346.853	88.38
347.08	92.38
347.308	103.38
347.535	103.38
347.763	87.38
347.99	88.38
348.218	89.38
348.445	97.38
348.673	91.38
348.9	109.38
349.128	111.38
349.355	88.38
349.583	85.38
349.81	97.38
350.037	100.38
350.265	96.38
350.492	94.38
350.72	101.38
350.947	109.38
351.174	107.38
351.402	108.38
351.629	94.38
351.856	98.38
352.083	104.38
352.311	98.38
352.538	103.38
352.765	121.38
352.992	112.38
353.22	114.38
353.447	105.38
353.674	99.38
353.901	116.38
354.128	98.38
354.355	97.38
354.583	111.38
354.81	107.38
355.037	102.38
355.264	100.38
355.491	84.38
355.718	90.38
355.945	107.38
356.172	80.38
356.399	98.38
356.626	99.38
356.853	98.38
357.08	90.38
357.307	97.38
357.534	99.38
357.761	96.38
357.988	101.38
358.215	97.38
358.441	86.38
358.668	85.38
358.895	94.38
359.122	100.38
359.349	103.38
359.576	91.38
359.802	113.38
360.029	91.38
360.256	98.38
360.483	101.38
360.709	98.38
360.936	104.38
361.163	87.38
361.39	107.38
361.616	84.38
361.843	87.38
362.07	92.38
362.296	87.38
362.523	89.38
362.749	87.38
362.976	90.38
363.203	92.38
363.429	104.38
363.656	103.38
363.882	80.38
364.109	108.38
364.335	101.38
364.562	91.38
364.788	83.38
365.015	92.38
365.241	89.38
365.468	105.38
365.694	110.38
365.92	95.38
366.147	95.38
366.373	87.38
366.599	97.38
366.826	104.38
367.052	111.38
367.278	105.38
367.505	94.38
367.731	84.38
367.957	92.38
368.184	85.38
368.41	105.38
368.636	116.38
368.862	115.38
369.089	88.38
369.315	75.38
369.541	91.38
369.767	103.38
369.993	90.38
370.219	97.38
370.445	92.38
370.672	84.38
370.898	83.38
371.124	90.38
371.35	91.38
371.576	97.38
371.802	94.38
372.028	94.38
372.254	103.38
372.48	106.38
372.706	89.38
372.932	98.38
373.158	98.38
373.384	93.38
373.61	86.38
373.835	86.38
374.061	92.38
374.287	105.38
374.513	91.38
374.739	91.38
374.965	90.38
375.191	109.38
375.416	98.38
375.642	89.38
375.868	91.38
376.094	103.38
376.319	104.38
376.545	83.38
376.771	102.38
376.997	87.38
377.222	99.38
377.448	105.38
377.674	103.38
377.899	83.38
378.125	96.38
378.35	98.38
378.576	92.38
378.802	90.38
379.027	92.38
379.253	104.38
379.478	99.38
379.704	103.38
379.929	99.38
380.155	92.38
380.38	96.38
380.606	90.38
380.831	106.38
381.057	120.38
381.282	97.38
381.507	94.38
381.733	115.38
381.958	102.38
382.184	98.38
382.409	98.38
382.634	98.38
382.86	100.38
383.085	94.38
383.31	93.38
383.535	112.38
383.761	107.38
383.986	85.38
384.211	89.38
384.436	92.38
384.662	103.38
384.887	103.38
385.112	108.38
385.337	97.38
385.562	112.38
385.787	101.38
386.013	133.38
386.238	115.38
386.463	112.38
386.688	101.38
386.913	125.38
387.138	114.38
387.363	106.38
387.588	92.38
387.813	103.38
388.038	95.38
388.263	113.38
388.488	111.38
388.713	99.38
388.938	90.38
389.163	115.38
389.387	94.38
389.612	107.38
389.837	88.38
390.062	104.38
390.287	89.38
390.512	81.38
390.736	94.38
390.961	85.38
391.186	92.38
391.411	107.38
391.636	95.38
391.86	85.38
392.085	85.38
392.31	99.38
392.534	81.38
392.759	90.38
392.984	93.38
393.208	94.38
393.433	92.38
393.658	108.38
393.882	88.38
394.107	87.38
394.331	105.38
394.556	97.38
394.78	92.38
395.005	92.38
395.229	79.38
395.454	91.38
395.678	93.38
395.903	100.38
396.127	88.38
396.352	84.38
396.576	86.38
396.801	83.38
397.025	95.38
397.249	94.38
397.474	71.38
397.698	82.38
397.922	89.38
398.147	93.38
398.371	94.38
398.595	105.38
398.82	96.38
399.044	103.38
399.268	95.38
399.492	85.38
399.717	94.38
399.941	84.38
400.165	108.38
400.389	93.38
400.613	93.38
400.837	90.38
401.062	98.38
401.286	86.38
401.51	95.38
401.734	80.38
401.958	113.38
402.182	119.38
402.406	146.38
402.63	117.38
402.854	85.38
403.078	78.38
403.302	80.38
403.526	100.38
403.75	89.38
403.974	84.38
404.198	99.38
404.422	85.38
404.645	98.38
404.869	96.38
405.093	111.38
405.317	117.38
405.541	97.38
405.765	119.38
405.988	113.38
406.212	156.38
406.436	177.38
406.66	139.38
406.883	103.38
407.107	96.38
407.331	84.38
407.555	89.38
407.778	116.38
408.002	85.38
408.226	103.38
408.449	95.38
408.673	91.38
408.896	95.38
409.12	109.38
409.344	102.38
409.567	95.38
409.791	85.38
410.014	83.38
410.238	85.38
410.461	91.38
410.685	98.38
410.908	97.38
411.132	94.38
411.355	100.38
411.578	81.38
411.802	84.38
412.025	92.38
412.249	94.38
412.472	96.38
412.695	117.38
412.919	94.38
413.142	81.38
413.365	92.38
413.589	85.38
413.812	94.38
414.035	105.38
414.258	104.38
414.482	100.38
414.705	90.38
414.928	106.38
415.151	92.38
415.374	107.38
415.597	110.38
415.821	112.38
416.044	99.38
416.267	96.38
416.49	90.38
416.713	95.38
416.936	108.38
417.159	81.38
417.382	85.38
417.605	96.38
417.828	95.38
418.051	98.38
418.274	89.38
418.497	84.38
418.72	92.38
418.943	96.38
419.166	84.38
419.389	84.38
419.611	93.38
419.834	96.38
420.057	102.38
420.28	93.38
420.503	89.38
420.726	78.38
420.948	81.38
421.171	90.38
421.394	88.38
421.617	98.38
421.839	101.38
422.062	87.38
422.285	104.38
422.507	92.38
422.73	100.38
422.953	93.38
423.175	92.38
423.398	100.38
423.621	104.38
423.843	91.38
424.066	82.38
424.288	77.38
424.511	94.38
424.733	105.38
424.956	117.38
425.178	101.38
425.401	100.38
425.623	89.38
425.846	95.38
426.068	89.38
426.291	92.38
426.513	83.38
426.735	88.38
426.958	87.38
427.18	104.38
427.402	132.38
427.625	138.38
427.847	122.38
428.069	111.38
428.292	93.38
428.514	85.38
428.736	75.38
428.958	86.38
429.181	100.38
429.403	92.38
429.625	99.38
429.847	93.38
430.069	101.38
430.292	93.38
430.514	79.38
430.736	80.38
430.958	84.38
431.18	93.38
431.402	78.38
431.624	87.38
431.846	84.38
432.068	90.38
432.29	108.38
432.512	94.38
432.734	82.38
432.956	98.38
433.178	103.38
433.4	97.38
433.622	92.38
433.844	99.38
434.066	110.38
434.287	84.38
434.509	82.38
434.731	77.38
434.953	91.38
435.175	99.38
435.397	97.38
435.618	107.38
435.84	107.38
436.062	125.38
436.284	124.38
436.505	110.38
436.727	115.38
436.949	94.38
437.17	88.38
437.392	87.38
437.614	85.38
437.835	111.38
438.057	111.38
438.278	94.38
438.5	108.38
438.721	112.38
438.943	93.38
439.165	93.38
439.386	98.38
439.608	85.38
439.829	96.38
440.05	116.38
440.272	129.38
440.493	98.38
440.715	92.38
440.936	84.38
441.158	98.38
441.379	79.38
441.6	102.38
441.822	83.38
442.043	81.38
442.264	110.38
442.486	96.38
442.707	95.38
442.928	104.38
443.149	125.38
443.371	116.38
443.592	111.38
443.813	111.38
444.034	98.38
444.255	92.38
444.476	94.38
444.698	93.38
444.919	90.38
445.14	133.38
445.361	113.38
445.582	107.38
445.803	123.38
446.024	135.38
446.245	127.38
446.466	117.38
446.687	93.38
446.908	95.38
447.129	90.38
447.35	94.38
447.571	103.38
447.792	80.38
448.013	85.38
448.234	106.38
448.455	99.38
448.675	85.38
448.896	115.38
449.117	109.38
449.338	113.38
449.559	132.38
449.779	120.38
450	83.38
450.221	94.38
450.442	85.38
450.662	107.38
450.883	93.38
451.104	117.38
451.324	82.38
451.545	78.38
451.766	96.38
451.986	81.38
452.207	86.38
452.428	96.38
452.648	98.38
452.869	120.38
453.089	113.38
453.31	100.38
453.53	101.38
453.751	84.38
453.971	90.38
454.192	92.38
454.412	90.38
454.633	89.38
454.853	91.38
455.073	92.38
455.294	97.38
455.514	104.38
455.734	99.38
455.955	99.38
456.175	96.38
456.395	107.38
456.616	85.38
456.836	106.38
457.056	91.38
457.276	97.38
457.497	78.38
457.717	89.38
457.937	84.38
458.157	91.38
458.377	93.38
458.598	108.38
458.818	136.38
459.038	126.38
459.258	106.38
459.478	92.38
459.698	98.38
459.918	90.38
460.138	91.38
460.358	85.38
460.578	96.38
460.798	85.38
461.018	97.38
461.238	88.38
461.458	81.38
461.678	88.38
461.898	94.38
462.118	89.38
462.338	87.38
462.558	92.38
462.777	92.38
462.997	82.38
463.217	90.38
463.437	92.38
463.657	74.38
463.876	107.38
464.096	93.38
464.316	108.38
464.536	82.38
464.755	98.38
464.975	94.38
465.195	144.38
465.414	136.38
465.634	97.38
465.854	96.38
466.073	94.38
466.293	77.38
466.512	84.38
466.732	88.38
466.951	90.38
467.171	97.38
467.391	99.38
467.61	102.38
467.829	101.38
468.049	93.38
468.268	94.38
468.488	90.38
468.707	76.38
468.927	85.38
469.146	83.38
469.365	86.38
469.585	92.38
469.804	100.38
470.023	91.38
470.243	89.38
470.462	92.38
470.681	100.38
470.901	87.38
471.12	83.38
471.339	96.38
471.558	85.38
471.777	88.38
471.997	95.38
472.216	101.38
472.435	124.38
472.654	87.38
472.873	82.38
473.092	97.38
473.311	82.38
473.53	95.38
473.749	84.38
473.968	98.38
474.187	109.38
474.406	96.38
474.625	86.38
474.844	98.38
475.063	102.38
475.282	89.38
475.501	85.38
475.72	93.38
475.939	86.38
476.158	89.38
476.377	89.38
476.596	82.38
476.814	96.38
477.033	86.38
477.252	98.38
477.471	84.38
477.69	91.38
477.908	82.38
478.127	86.38
478.346	88.38
478.564	95.38
478.783	102.38
479.002	96.38
479.22	90.38
479.439	110.38
479.658	86.38
479.876	90.38
480.095	92.38
480.313	94.38
480.532	89.38
480.751	84.38
480.969	106.38
481.188	182.38
481.406	138.38
481.624	100.38
481.843	101.38
482.061	83.38
482.28	88.38
482.498	103.38
482.717	89.38
482.935	95.38
483.153	83.38
483.372	78.38
483.59	91.38
483.808	76.38
484.027	97.38
484.245	84.38
484.463	85.38
484.681	104.38
484.9	91.38
485.118	97.38
485.336	88.38
485.554	92.38
485.772	103.38
485.99	93.38
486.209	103.38
486.427	85.38
486.645	106.38
486.863	115.38
487.081	114.38
487.299	107.38
487.517	105.38
487.735	102.38
487.953	89.38
488.171	100.38
488.389	89.38
488.607	106.38
488.825	90.38
489.043	84.38
489.261	91.38
489.479	90.38
489.696	85.38
489.914	93.38
490.132	92.38
490.35	90.38
490.568	97.38
490.786	90.38
491.003	99.38
491.221	85.38
491.439	83.38
491.657	91.38
491.874	90.38
492.092	105.38
492.31	89.38
492.527	100.38
492.745	90.38
492.963	95.38
493.18	89.38
493.398	97.38
493.615	97.38
493.833	100.38
494.05	101.38
494.268	80.38
494.485	87.38
494.703	83.38
494.92	96.38
495.138	87.38
495.355	92.38
495.573	105.38
495.79	90.38
496.008	97.38
496.225	92.38
496.442	93.38
496.66	94.38
496.877	94.38
497.094	108.38
497.312	109.38
497.529	87.38
497.746	96.38
497.963	80.38
498.181	85.38
498.398	80.38
498.615	107.38
498.832	103.38
499.049	95.38
499.267	88.38
499.484	79.38
499.701	89.38
499.918	91.38
500.135	79.38
500.352	96.38
500.569	101.38
500.786	99.38
501.003	106.38
501.22	89.38
501.437	101.38
501.654	105.38
501.871	97.38
502.088	111.38
502.305	85.38
502.522	98.38
502.739	93.38
502.956	90.38
503.172	99.38
503.389	95.38
503.606	100.38
503.823	103.38
504.04	91.38
504.256	91.38
504.473	87.38
504.69	106.38
504.907	107.38
505.123	84.38
505.34	96.38
505.557	89.38
505.773	95.38
505.99	74.38
506.207	87.38
506.423	91.38
506.64	91.38
506.856	90.38
507.073	81.38
507.289	105.38
507.506	74.38
507.722	101.38
507.939	105.38
508.155	90.38
508.372	97.38
508.588	96.38
508.805	103.38
509.021	104.38
509.238	103.38
509.454	96.38
509.67	109.38
509.887	92.38
510.103	131.38
510.319	175.38
510.536	595.38
510.752	1826.38
510.968	550.38
511.184	141.38
511.401	104.38
511.617	95.38
511.833	84.38
512.049	94.38
512.265	98.38
512.481	93.38
512.698	88.38
512.914	103.38
513.13	106.38
513.346	99.38
513.562	101.38
513.778	100.38
513.994	92.38
514.21	112.38
514.426	100.38
514.642	116.38
514.858	111.38
515.074	144.38
515.29	355.38
515.506	1058.38
515.721	421.38
515.937	139.38
516.153	108.38
516.369	97.38
516.585	85.38
516.801	90.38
517.016	85.38
517.232	90.38
517.448	89.38
517.664	94.38
517.879	93.38
518.095	96.38
518.311	98.38
518.527	109.38
518.742	97.38
518.958	80.38
519.173	95.38
519.389	79.38
519.605	93.38
519.82	77.38
520.036	90.38
520.251	110.38
520.467	109.38
520.682	115.38
520.898	110.38
521.113	108.38
521.329	127.38
521.544	179.38
521.76	431.38
521.975	1732.38
522.19	1083.38
522.406	260.38
522.621	102.38
522.836	101.38
523.052	98.38
523.267	110.38
523.482	108.38
523.698	82.38
523.913	121.38
524.128	103.38
524.343	87.38
524.559	97.38
524.774	91.38
524.989	90.38
525.204	98.38
525.419	95.38
525.634	82.38
525.849	96.38
526.064	89.38
526.28	91.38
526.495	93.38
526.71	98.38
526.925	105.38
527.14	75.38
527.355	94.38
527.57	87.38
527.785	86.38
527.999	95.38
528.214	102.38
528.429	100.38
528.644	97.38
528.859	84.38
529.074	106.38
529.289	106.38
529.503	151.38
529.718	98.38
529.933	108.38
530.148	86.38
530.363	95.38
530.577	94.38
530.792	92.38
531.007	84.38
531.221	92.38
531.436	89.38
531.651	102.38
531.865	88.38
532.08	78.38
532.295	93.38
532.509	98.38
532.724	93.38
532.938	100.38
533.153	106.38
533.367	97.38
533.582	96.38
533.796	98.38
534.011	117.38
534.225	94.38
534.44	92.38
534.654	107.38
534.868	92.38
535.083	97.38
535.297	90.38
535.511	92.38
535.726	105.38
535.94	73.38
536.154	105.38
536.369	92.38
536.583	96.38
536.797	89.38
537.011	88.38
537.225	97.38
537.44	100.38
537.654	101.38
537.868	96.38
538.082	91.38
538.296	94.38
538.51	115.38
538.724	101.38
538.938	86.38
539.153	96.38
539.367	101.38
539.581	95.38
539.795	98.38
540.009	82.38
540.222	89.38
540.436	98.38
540.65	74.38
540.864	88.38
541.078	101.38
541.292	77.38
541.506	94.38
541.72	92.38
541.934	89.38
542.147	85.38
542.361	102.38
542.575	98.38
542.789	98.38
543.002	93.38
543.216	101.38
543.43	94.38
543.644	104.38
543.857	98.38
544.071	93.38
544.285	96.38
544.498	89.38
544.712	82.38
544.925	95.38
545.139	77.38
545.352	90.38
545.566	85.38
545.779	95.38
545.993	80.38
546.206	86.38
546.42	100.38
546.633	95.38
546.847	81.38
547.06	99.38
547.274	88.38
547.487	87.38
547.7	88.38
547.914	93.38
548.127	96.38
548.34	99.38
548.554	85.38
548.767	84.38
548.98	83.38
549.193	83.38
549.407	93.38
549.62	101.38
549.833	97.38
550.046	94.38
550.259	82.38
550.473	88.38
550.686	100.38
550.899	101.38
551.112	94.38
551.325	95.38
551.538	83.38
551.751	80.38
551.964	92.38
552.177	100.38
552.39	106.38
552.603	105.38
552.816	96.38
553.029	97.38
553.242	92.38
553.455	103.38
553.667	106.38
553.88	97.38
554.093	82.38
554.306	85.38
554.519	83.38
554.732	94.38
554.944	94.38
555.157	93.38
555.37	91.38
555.583	88.38
555.795	104.38
556.008	103.38
556.221	96.38
556.433	88.38
556.646	107.38
556.859	77.38
557.071	88.38
557.284	98.38
557.496	91.38
557.709	76.38
557.921	87.38
558.134	89.38
558.346	93.38
558.559	88.38
558.771	90.38
558.984	89.38
559.196	96.38
559.409	93.38
559.621	87.38
559.833	91.38
560.046	88.38
560.258	96.38
560.47	97.38
560.683	80.38
560.895	91.38
561.107	86.38
561.32	87.38
561.532	85.38
561.744	99.38
561.956	80.38
562.168	100.38
562.381	97.38
562.593	98.38
562.805	93.38
563.017	91.38
563.229	90.38
563.441	100.38
563.653	103.38
563.865	96.38
564.077	96.38
564.289	85.38
564.501	97.38
564.713	91.38
564.925	78.38
565.137	109.38
565.349	81.38
565.561	96.38
565.773	91.38
565.985	94.38
566.197	79.38
566.408	79.38
566.62	94.38
566.832	72.38
567.044	94.38
567.255	91.38
567.467	85.38
567.679	93.38
567.891	92.38
568.102	87.38
568.314	93.38
568.526	92.38
568.737	104.38
568.949	88.38
569.161	74.38
569.372	78.38
569.584	79.38
569.795	99.38
570.007	101.38
570.218	201.38
570.43	132.38
570.641	95.38
570.853	89.38
571.064	78.38
571.276	91.38
571.487	95.38
571.698	96.38
571.91	81.38
572.121	78.38
572.333	96.38
572.544	80.38
572.755	98.38
572.966	93.38
573.178	83.38
573.389	94.38
573.6	91.38
573.811	94.38
574.023	96.38
574.234	96.38
574.445	97.38
574.656	88.38
574.867	82.38
575.078	100.38
575.289	91.38
575.501	98.38
575.712	85.38
575.923	76.38
576.134	90.38
576.345	108.38
576.556	90.38
576.767	99.38
576.978	88.38
577.188	95.38
577.399	85.38
577.61	88.38
577.821	113.38
578.032	119.38
578.243	227.38
578.454	583.38
578.665	187.38
578.875	98.38
579.086	92.38
579.297	79.38
579.508	89.38
579.718	92.38
579.929	100.38
580.14	81.38
580.35	99.38
580.561	93.38
580.772	94.38
580.982	99.38
581.193	84.38
581.403	100.38
581.614	75.38
581.825	93.38
582.035	97.38
582.246	102.38
582.456	89.38
582.667	89.38
582.877	100.38
583.087	96.38
583.298	95.38
583.508	77.38
583.719	92.38
583.929	91.38
584.139	94.38
584.35	90.38
584.56	111.38
584.77	96.38
584.981	89.38
585.191	91.38
585.401	92.38
585.611	90.38
585.821	90.38
586.032	94.38
586.242	100.38
586.452	89.38
586.662	113.38
586.872	98.38
587.082	93.38
587.292	92.38
587.502	93.38
587.713	94.38
587.923	95.38
588.133	101.38
588.343	85.38
588.553	79.38
588.762	80.38
588.972	89.38
589.182	101.38
589.392	95.38
589.602	92.38
589.812	104.38
590.022	100.38
590.232	82.38
590.441	96.38
590.651	87.38
590.861	83.38
591.071	80.38
591.281	83.38
591.49	96.38
591.7	81.38
591.91	84.38
592.119	97.38
592.329	103.38
592.539	93.38
592.748	88.38
592.958	91.38
593.167	90.38
593.377	83.38
593.587	96.38
593.796	76.38
594.006	68.38
594.215	97.38
594.424	82.38
594.634	91.38
594.843	91.38
595.053	89.38
595.262	87.38
595.472	74.38
595.681	85.38
595.89	97.38
596.1	102.38
596.309	82.38
596.518	97.38
596.727	88.38
596.937	82.38
597.146	99.38
597.355	91.38
597.564	99.38
597.774	81.38
597.983	81.38
598.192	91.38
598.401	85.38
598.61	87.38
598.819	98.38
599.028	91.38
599.237	92.38
599.446	85.38
599.655	82.38
599.864	77.38
600.073	84.38
600.282	95.38
600.491	96.38
600.7	84.38
600.909	82.38
601.118	88.38
601.327	92.38
601.536	96.38
601.745	92.38
601.953	87.38
602.162	81.38
602.371	94.38
602.58	93.38
602.789	95.38
602.997	84.38
603.206	91.38
603.415	96.38
603.623	75.38
603.832	85.38
604.041	102.38
604.249	90.38
604.458	100.38
604.666	80.38
604.875	91.38
605.084	97.38
605.292	83.38
605.501	73.38
605.709	90.38
605.918	85.38
606.126	100.38
606.334	86.38
606.543	93.38
606.751	82.38
606.96	105.38
607.168	101.38
607.376	88.38
607.585	94.38
607.793	88.38
608.001	87.38
608.21	94.38
608.418	87.38
608.626	94.38
608.834	95.38
609.043	88.38
609.251	88.38
609.459	85.38
609.667	82.38
609.875	83.38
610.083	74.38
610.291	84.38
610.499	89.38
610.707	98.38
610.916	107.38
611.124	97.38
611.332	84.38
611.54	89.38
611.748	83.38
611.955	99.38
612.163	93.38
612.371	96.38
612.579	94.38
612.787	83.38
612.995	90.38
613.203	88.38
613.411	94.38
613.618	93.38
613.826	89.38
614.034	101.38
614.242	102.38
614.449	84.38
614.657	95.38
614.865	100.38
615.072	93.38
615.28	76.38
615.488	88.38
615.695	89.38
615.903	106.38
616.111	104.38
616.318	112.38
616.526	98.38
616.733	107.38
616.941	83.38
617.148	98.38
617.356	101.38
617.563	79.38
617.771	93.38
617.978	92.38
618.185	107.38
618.393	87.38
618.6	85.38
618.807	76.38
619.015	89.38
619.222	96.38
619.429	79.38
619.637	73.38
619.844	84.38
620.051	77.38
620.258	80.38
620.466	82.38
620.673	83.38
620.88	88.38
621.087	95.38
621.294	87.38
621.501	97.38
621.708	98.38
621.915	98.38
622.122	92.38
622.329	85.38
622.536	96.38
622.743	90.38
622.95	89.38
623.157	80.38
623.364	101.38
623.571	85.38
623.778	85.38
623.985	90.38
624.192	82.38
624.399	88.38
624.606	79.38
624.812	96.38
625.019	83.38
625.226	93.38
625.433	98.38
625.639	90.38
625.846	85.38
626.053	80.38
626.259	85.38
626.466	91.38
626.673	84.38
626.879	106.38
627.086	93.38
627.293	93.38
627.499	92.38
627.706	90.38
627.912	81.38
628.119	77.38
628.325	98.38
628.532	87.38
628.738	91.38
628.945	91.38
629.151	82.38
629.357	97.38
629.564	93.38
629.77	91.38
629.976	91.38
630.183	96.38
630.389	75.38
630.595	84.38
630.802	98.38
631.008	80.38
631.214	95.38
631.42	91.38
631.627	85.38
631.833	86.38
632.039	86.38
632.245	80.38
632.451	87.38
632.657	73.38
632.863	86.38
633.069	88.38
633.275	87.38
633.481	79.38
633.688	83.38
633.893	84.38
634.099	82.38
634.305	86.38
634.511	79.38
634.717	80.38
634.923	71.38
635.129	94.38
635.335	72.38
635.541	84.38
635.747	80.38
635.952	83.38
636.158	87.38
636.364	103.38
636.57	78.38
636.775	84.38
636.981	81.38
637.187	80.38
637.392	93.38
637.598	91.38
637.804	96.38
638.009	85.38
638.215	94.38
638.421	78.38
638.626	84.38
638.832	91.38
639.037	75.38
639.243	88.38
639.448	100.38
639.654	99.38
639.859	92.38
640.065	93.38
640.27	91.38
640.475	88.38
640.681	83.38
640.886	91.38
641.091	73.38
641.297	103.38
641.502	82.38
641.707	82.38
641.913	91.38
642.118	82.38
642.323	73.38
642.528	74.38
642.733	82.38
642.939	96.38
643.144	82.38
643.349	85.38
643.554	85.38
643.759	91.38
643.964	97.38
644.169	91.38
644.374	71.38
644.579	85.38
644.784	89.38
644.989	80.38
645.194	83.38
645.399	83.38
645.604	90.38
645.809	92.38
646.014	98.38
646.219	85.38
646.423	86.38
646.628	91.38
646.833	90.38
647.038	79.38
647.243	84.38
647.447	80.38
647.652	77.38
647.857	85.38
648.062	97.38
648.266	85.38
648.471	96.38
648.676	82.38
648.88	103.38
649.085	94.38
649.289	88.38
649.494	96.38
649.698	119.38
649.903	100.38
650.107	84.38
650.312	88.38
650.516	83.38
650.721	83.38
650.925	94.38
651.13	79.38
651.334	78.38
651.539	83.38
651.743	90.38
651.947	87.38
652.152	95.38
652.356	74.38
652.56	83.38
652.764	86.38
652.969	83.38
653.173	69.38
653.377	96.38
653.581	84.38
653.785	92.38
653.99	94.38
654.194	87.38
654.398	79.38
654.602	83.38
654.806	98.38
655.01	102.38
655.214	87.38
655.418	93.38
655.622	91.38
655.826	92.38
656.03	79.38
656.234	86.38
656.438	84.38
656.642	89.38
656.846	98.38
657.049	74.38
657.253	87.38
657.457	92.38
657.661	88.38
657.865	91.38
658.068	75.38
658.272	91.38
658.476	84.38
658.68	68.38
658.883	88.38
659.087	83.38
659.291	85.38
659.494	82.38
659.698	74.38
659.901	79.38
660.105	72.38
660.309	71.38
660.512	86.38
660.716	93.38
660.919	83.38
661.123	87.38
661.326	97.38
661.53	100.38
661.733	87.38
661.936	79.38
662.14	100.38
662.343	84.38
662.546	78.38
662.75	93.38
662.953	93.38
663.156	79.38
663.36	83.38
663.563	90.38
663.766	63.38
663.969	73.38
664.173	90.38
664.376	91.38
664.579	88.38
664.782	84.38
664.985	73.38
665.188	83.38
665.391	94.38
665.594	89.38
665.797	65.38
666	88.38
666.203	73.38
666.406	89.38
666.609	75.38
666.812	92.38
667.015	89.38
667.218	85.38
667.421	77.38
667.624	79.38
667.827	74.38
668.03	79.38
668.232	85.38
668.435	81.38
668.638	85.38
668.841	93.38
669.043	76.38
669.246	68.38
669.449	94.38
669.651	84.38
669.854	73.38
670.057	89.38
670.259	84.38
670.462	66.38
670.665	80.38
670.867	87.38
671.07	85.38
671.272	67.38
671.475	85.38
671.677	75.38
671.88	76.38
672.082	96.38
672.284	82.38
672.487	88.38
672.689	87.38
672.892	103.38
