Data from Uncirc_2009_H10_HRD10591_00039.txt Node
Date: Wed Jan 03 10:12:09 EST 2024
User: Yrep
Spectrometer: HR+D1059
Trigger mode: 1
Integration Time (sec): 1.000000E-1
Scans to average: 1
Electric dark correction enabled: true
Nonlinearity correction enabled: false
Boxcar width: 0
XAxis mode: Wavelengths
Number of Pixels in Spectrum: 2048
>>>>>Begin Spectral Data<<<<<
223.165	-19.12
223.4	-19.12
223.635	-19.12
223.869	-12.12
224.104	-12.12
224.338	-23.12
224.573	-19.12
224.808	-10.12
225.042	-20.12
225.277	-18.12
225.511	-4.12
225.746	10.88
225.98	11.88
226.215	20.88
226.449	22.88
226.683	16.88
226.918	13.88
227.152	40.88
227.387	31.88
227.621	47.88
227.856	43.88
228.09	55.88
228.324	52.88
228.559	55.88
228.793	42.88
229.027	69.88
229.262	61.88
229.496	68.88
229.73	80.88
229.964	92.88
230.199	79.88
230.433	77.88
230.667	93.88
230.901	92.88
231.136	77.88
231.37	69.88
231.604	77.88
231.838	81.88
232.072	87.88
232.306	81.88
232.541	77.88
232.775	85.88
233.009	89.88
233.243	79.88
233.477	89.88
233.711	90.88
233.945	79.88
234.179	63.88
234.413	69.88
234.647	76.88
234.881	76.88
235.115	75.88
235.349	60.88
235.583	78.88
235.817	95.88
236.051	80.88
236.285	66.88
236.519	83.88
236.753	72.88
236.987	77.88
237.221	80.88
237.455	74.88
237.689	85.88
237.922	64.88
238.156	73.88
238.39	75.88
238.624	76.88
238.858	77.88
239.091	77.88
239.325	79.88
239.559	73.88
239.793	70.88
240.027	70.88
240.26	81.88
240.494	80.88
240.728	85.88
240.961	80.88
241.195	80.88
241.429	90.88
241.662	61.88
241.896	97.88
242.13	79.88
242.363	83.88
242.597	78.88
242.83	80.88
243.064	69.88
243.298	76.88
243.531	85.88
243.765	76.88
243.998	74.88
244.232	71.88
244.465	76.88
244.699	85.88
244.932	85.88
245.166	77.88
245.399	76.88
245.633	67.88
245.866	80.88
246.099	84.88
246.333	84.88
246.566	78.88
246.8	77.88
247.033	67.88
247.266	67.88
247.5	76.88
247.733	75.88
247.966	71.88
248.2	85.88
248.433	79.88
248.666	97.88
248.899	79.88
249.133	92.88
249.366	94.88
249.599	89.88
249.832	103.88
250.066	101.88
250.299	86.88
250.532	85.88
250.765	87.88
250.998	79.88
251.231	83.88
251.465	88.88
251.698	84.88
251.931	89.88
252.164	69.88
252.397	81.88
252.63	85.88
252.863	68.88
253.096	80.88
253.329	77.88
253.562	96.88
253.795	73.88
254.028	83.88
254.261	85.88
254.494	80.88
254.727	80.88
254.96	77.88
255.193	87.88
255.426	77.88
255.659	91.88
255.892	89.88
256.124	78.88
256.357	96.88
256.59	92.88
256.823	77.88
257.056	76.88
257.289	80.88
257.521	71.88
257.754	72.88
257.987	81.88
258.22	84.88
258.452	87.88
258.685	91.88
258.918	74.88
259.151	69.88
259.383	72.88
259.616	84.88
259.849	73.88
260.081	78.88
260.314	91.88
260.547	103.88
260.779	87.88
261.012	104.88
261.244	64.88
261.477	76.88
261.71	86.88
261.942	95.88
262.175	106.88
262.407	89.88
262.64	95.88
262.872	89.88
263.105	80.88
263.337	85.88
263.57	89.88
263.802	79.88
264.035	76.88
264.267	83.88
264.499	87.88
264.732	97.88
264.964	87.88
265.197	78.88
265.429	76.88
265.661	94.88
265.894	95.88
266.126	84.88
266.358	83.88
266.591	87.88
266.823	76.88
267.055	63.88
267.287	75.88
267.52	87.88
267.752	67.88
267.984	86.88
268.216	77.88
268.448	78.88
268.681	69.88
268.913	86.88
269.145	80.88
269.377	83.88
269.609	78.88
269.841	85.88
270.073	77.88
270.306	90.88
270.538	89.88
270.77	81.88
271.002	93.88
271.234	87.88
271.466	77.88
271.698	87.88
271.93	88.88
272.162	82.88
272.394	100.88
272.626	85.88
272.858	81.88
273.09	93.88
273.322	84.88
273.553	96.88
273.785	83.88
274.017	91.88
274.249	84.88
274.481	84.88
274.713	71.88
274.945	85.88
275.176	81.88
275.408	78.88
275.64	91.88
275.872	87.88
276.104	101.88
276.335	94.88
276.567	93.88
276.799	91.88
277.031	99.88
277.262	81.88
277.494	77.88
277.726	81.88
277.957	96.88
278.189	85.88
278.421	79.88
278.652	87.88
278.884	85.88
279.115	76.88
279.347	86.88
279.579	88.88
279.81	87.88
280.042	90.88
280.273	91.88
280.505	80.88
280.736	84.88
280.968	79.88
281.199	81.88
281.431	78.88
281.662	88.88
281.894	89.88
282.125	88.88
282.356	103.88
282.588	119.88
282.819	102.88
283.051	85.88
283.282	84.88
283.513	97.88
283.745	89.88
283.976	105.88
284.207	92.88
284.439	101.88
284.67	103.88
284.901	102.88
285.132	105.88
285.364	91.88
285.595	89.88
285.826	101.88
286.057	85.88
286.288	89.88
286.52	103.88
286.751	85.88
286.982	75.88
287.213	79.88
287.444	90.88
287.675	79.88
287.906	96.88
288.138	85.88
288.369	79.88
288.6	92.88
288.831	78.88
289.062	89.88
289.293	95.88
289.524	88.88
289.755	81.88
289.986	79.88
290.217	92.88
290.448	99.88
290.679	102.88
290.91	90.88
291.141	85.88
291.371	99.88
291.602	81.88
291.833	81.88
292.064	91.88
292.295	88.88
292.526	85.88
292.757	78.88
292.987	96.88
293.218	86.88
293.449	78.88
293.68	87.88
293.91	81.88
294.141	107.88
294.372	103.88
294.603	95.88
294.833	87.88
295.064	89.88
295.295	83.88
295.525	89.88
295.756	102.88
295.987	92.88
296.217	108.88
296.448	131.88
296.679	95.88
296.909	89.88
297.14	90.88
297.37	88.88
297.601	81.88
297.831	87.88
298.062	91.88
298.292	72.88
298.523	90.88
298.753	90.88
298.984	87.88
299.214	82.88
299.445	80.88
299.675	97.88
299.905	93.88
300.136	92.88
300.366	88.88
300.597	90.88
300.827	90.88
301.057	92.88
301.288	93.88
301.518	77.88
301.748	96.88
301.979	95.88
302.209	84.88
302.439	99.88
302.669	74.88
302.9	93.88
303.13	101.88
303.36	102.88
303.59	110.88
303.82	105.88
304.051	95.88
304.281	85.88
304.511	89.88
304.741	80.88
304.971	85.88
305.201	88.88
305.431	92.88
305.661	85.88
305.891	92.88
306.121	94.88
306.352	105.88
306.582	92.88
306.812	89.88
307.042	76.88
307.272	81.88
307.502	96.88
307.731	100.88
307.961	83.88
308.191	88.88
308.421	87.88
308.651	72.88
308.881	76.88
309.111	87.88
309.341	88.88
309.571	90.88
309.8	88.88
310.03	90.88
310.26	96.88
310.49	91.88
310.72	91.88
310.949	85.88
311.179	95.88
311.409	78.88
311.639	87.88
311.868	94.88
312.098	74.88
312.328	93.88
312.557	96.88
312.787	95.88
313.017	97.88
313.246	90.88
313.476	96.88
313.706	88.88
313.935	88.88
314.165	91.88
314.394	91.88
314.624	97.88
314.853	87.88
315.083	96.88
315.312	81.88
315.542	84.88
315.771	101.88
316.001	88.88
316.23	89.88
316.46	90.88
316.689	87.88
316.919	95.88
317.148	104.88
317.377	103.88
317.607	115.88
317.836	103.88
318.065	90.88
318.295	92.88
318.524	94.88
318.753	85.88
318.983	81.88
319.212	100.88
319.441	100.88
319.67	83.88
319.9	88.88
320.129	88.88
320.358	99.88
320.587	90.88
320.816	87.88
321.046	102.88
321.275	96.88
321.504	100.88
321.733	100.88
321.962	105.88
322.191	91.88
322.42	102.88
322.649	103.88
322.878	104.88
323.108	116.88
323.337	109.88
323.566	120.88
323.795	135.88
324.024	190.88
324.253	307.88
324.482	622.88
324.71	1289.88
324.939	1668.88
325.168	613.88
325.397	191.88
325.626	135.88
325.855	116.88
326.084	129.88
326.313	147.88
326.542	149.88
326.77	217.88
326.999	397.88
327.228	730.88
327.457	1334.88
327.686	1067.88
327.914	283.88
328.143	180.88
328.372	136.88
328.6	115.88
328.829	110.88
329.058	104.88
329.287	122.88
329.515	114.88
329.744	91.88
329.972	81.88
330.201	113.88
330.43	121.88
330.658	100.88
330.887	115.88
331.115	121.88
331.344	77.88
331.572	109.88
331.801	96.88
332.03	94.88
332.258	103.88
332.486	107.88
332.715	91.88
332.943	101.88
333.172	89.88
333.4	105.88
333.629	88.88
333.857	106.88
334.085	114.88
334.314	112.88
334.542	109.88
334.771	115.88
334.999	111.88
335.227	96.88
335.455	90.88
335.684	93.88
335.912	86.88
336.14	107.88
336.369	85.88
336.597	90.88
336.825	97.88
337.053	85.88
337.281	89.88
337.51	78.88
337.738	88.88
337.966	105.88
338.194	78.88
338.422	77.88
338.65	79.88
338.878	94.88
339.106	88.88
339.334	88.88
339.562	92.88
339.79	96.88
340.018	84.88
340.246	86.88
340.474	84.88
340.702	89.88
340.93	81.88
341.158	89.88
341.386	90.88
341.614	78.88
341.842	88.88
342.07	91.88
342.298	91.88
342.526	82.88
342.754	91.88
342.981	79.88
343.209	78.88
343.437	96.88
343.665	77.88
343.893	106.88
344.12	87.88
344.348	93.88
344.576	87.88
344.804	86.88
345.031	95.88
345.259	97.88
345.487	72.88
345.714	101.88
345.942	80.88
346.17	97.88
346.397	101.88
346.625	87.88
346.853	102.88
347.08	108.88
347.308	100.88
347.535	89.88
347.763	100.88
347.99	104.88
348.218	80.88
348.445	87.88
348.673	87.88
348.9	80.88
349.128	100.88
349.355	96.88
349.583	87.88
349.81	80.88
350.037	79.88
350.265	102.88
350.492	83.88
350.72	78.88
350.947	97.88
351.174	101.88
351.402	100.88
351.629	104.88
351.856	97.88
352.083	87.88
352.311	93.88
352.538	110.88
352.765	100.88
352.992	100.88
353.22	103.88
353.447	98.88
353.674	97.88
353.901	107.88
354.128	95.88
354.355	91.88
354.583	100.88
354.81	98.88
355.037	93.88
355.264	88.88
355.491	100.88
355.718	105.88
355.945	105.88
356.172	94.88
356.399	99.88
356.626	94.88
356.853	87.88
357.08	99.88
357.307	102.88
357.534	90.88
357.761	95.88
357.988	91.88
358.215	81.88
358.441	93.88
358.668	92.88
358.895	86.88
359.122	93.88
359.349	94.88
359.576	99.88
359.802	99.88
360.029	79.88
360.256	88.88
360.483	87.88
360.709	91.88
360.936	112.88
361.163	92.88
361.39	87.88
361.616	87.88
361.843	80.88
362.07	73.88
362.296	84.88
362.523	86.88
362.749	80.88
362.976	74.88
363.203	95.88
363.429	99.88
363.656	96.88
363.882	97.88
364.109	84.88
364.335	96.88
364.562	91.88
364.788	99.88
365.015	86.88
365.241	95.88
365.468	96.88
365.694	105.88
365.92	92.88
366.147	91.88
366.373	77.88
366.599	92.88
366.826	84.88
367.052	110.88
367.278	92.88
367.505	86.88
367.731	101.88
367.957	84.88
368.184	94.88
368.41	85.88
368.636	96.88
368.862	105.88
369.089	102.88
369.315	76.88
369.541	98.88
369.767	76.88
369.993	79.88
370.219	70.88
370.445	92.88
370.672	91.88
370.898	100.88
371.124	82.88
371.35	86.88
371.576	80.88
371.802	87.88
372.028	91.88
372.254	84.88
372.48	104.88
372.706	79.88
372.932	78.88
373.158	102.88
373.384	87.88
373.61	89.88
373.835	80.88
374.061	86.88
374.287	103.88
374.513	79.88
374.739	91.88
374.965	89.88
375.191	100.88
375.416	102.88
375.642	86.88
375.868	99.88
376.094	96.88
376.319	78.88
376.545	85.88
376.771	89.88
376.997	96.88
377.222	79.88
377.448	97.88
377.674	69.88
377.899	84.88
378.125	88.88
378.35	105.88
378.576	98.88
378.802	88.88
379.027	93.88
379.253	96.88
379.478	85.88
379.704	90.88
379.929	80.88
380.155	111.88
380.38	104.88
380.606	91.88
380.831	104.88
381.057	100.88
381.282	106.88
381.507	110.88
381.733	94.88
381.958	99.88
382.184	87.88
382.409	102.88
382.634	100.88
382.86	102.88
383.085	108.88
383.31	93.88
383.535	95.88
383.761	89.88
383.986	96.88
384.211	91.88
384.436	83.88
384.662	91.88
384.887	97.88
385.112	101.88
385.337	93.88
385.562	97.88
385.787	94.88
386.013	117.88
386.238	105.88
386.463	90.88
386.688	114.88
386.913	97.88
387.138	111.88
387.363	81.88
387.588	92.88
387.813	96.88
388.038	125.88
388.263	94.88
388.488	99.88
388.713	92.88
388.938	91.88
389.163	91.88
389.387	79.88
389.612	86.88
389.837	106.88
390.062	99.88
390.287	88.88
390.512	82.88
390.736	85.88
390.961	93.88
391.186	98.88
391.411	104.88
391.636	96.88
391.86	80.88
392.085	90.88
392.31	91.88
392.534	75.88
392.759	67.88
392.984	92.88
393.208	84.88
393.433	91.88
393.658	84.88
393.882	78.88
394.107	90.88
394.331	84.88
394.556	89.88
394.78	73.88
395.005	85.88
395.229	90.88
395.454	80.88
395.678	77.88
395.903	87.88
396.127	84.88
396.352	75.88
396.576	85.88
396.801	81.88
397.025	92.88
397.249	84.88
397.474	90.88
397.698	89.88
397.922	80.88
398.147	75.88
398.371	89.88
398.595	72.88
398.82	68.88
399.044	78.88
399.268	93.88
399.492	88.88
399.717	92.88
399.941	76.88
400.165	85.88
400.389	80.88
400.613	81.88
400.837	88.88
401.062	98.88
401.286	87.88
401.51	93.88
401.734	88.88
401.958	89.88
402.182	107.88
402.406	121.88
402.63	91.88
402.854	92.88
403.078	83.88
403.302	78.88
403.526	79.88
403.75	79.88
403.974	67.88
404.198	73.88
404.422	77.88
404.645	86.88
404.869	96.88
405.093	88.88
405.317	99.88
405.541	100.88
405.765	93.88
405.988	95.88
406.212	144.88
406.436	158.88
406.66	105.88
406.883	77.88
407.107	91.88
407.331	107.88
407.555	85.88
407.778	79.88
408.002	83.88
408.226	71.88
408.449	79.88
408.673	77.88
408.896	92.88
409.12	83.88
409.344	91.88
409.567	98.88
409.791	80.88
410.014	88.88
410.238	91.88
410.461	94.88
410.685	94.88
410.908	92.88
411.132	116.88
411.355	96.88
411.578	96.88
411.802	93.88
412.025	85.88
412.249	82.88
412.472	85.88
412.695	94.88
412.919	79.88
413.142	93.88
413.365	87.88
413.589	99.88
413.812	89.88
414.035	90.88
414.258	74.88
414.482	82.88
414.705	83.88
414.928	103.88
415.151	88.88
415.374	96.88
415.597	103.88
415.821	88.88
416.044	92.88
416.267	111.88
416.49	95.88
416.713	89.88
416.936	96.88
417.159	80.88
417.382	73.88
417.605	84.88
417.828	82.88
418.051	75.88
418.274	81.88
418.497	86.88
418.72	87.88
418.943	75.88
419.166	92.88
419.389	86.88
419.611	85.88
419.834	83.88
420.057	84.88
420.28	84.88
420.503	85.88
420.726	94.88
420.948	106.88
421.171	95.88
421.394	80.88
421.617	77.88
421.839	84.88
422.062	88.88
422.285	82.88
422.507	74.88
422.73	102.88
422.953	83.88
423.175	72.88
423.398	103.88
423.621	80.88
423.843	76.88
424.066	71.88
424.288	91.88
424.511	99.88
424.733	104.88
424.956	90.88
425.178	84.88
425.401	80.88
425.623	104.88
425.846	82.88
426.068	83.88
426.291	78.88
426.513	76.88
426.735	87.88
426.958	85.88
427.18	100.88
427.402	116.88
427.625	134.88
427.847	116.88
428.069	99.88
428.292	83.88
428.514	74.88
428.736	97.88
428.958	77.88
429.181	81.88
429.403	90.88
429.625	95.88
429.847	94.88
430.069	108.88
430.292	86.88
430.514	80.88
430.736	69.88
430.958	73.88
431.18	76.88
431.402	97.88
431.624	70.88
431.846	88.88
432.068	87.88
432.29	70.88
432.512	85.88
432.734	98.88
432.956	84.88
433.178	86.88
433.4	99.88
433.622	91.88
433.844	91.88
434.066	82.88
434.287	92.88
434.509	84.88
434.731	84.88
434.953	90.88
435.175	87.88
435.397	75.88
435.618	91.88
435.84	87.88
436.062	108.88
436.284	102.88
436.505	100.88
436.727	95.88
436.949	84.88
437.17	89.88
437.392	79.88
437.614	88.88
437.835	85.88
438.057	95.88
438.278	102.88
438.5	97.88
438.721	112.88
438.943	104.88
439.165	80.88
439.386	75.88
439.608	100.88
439.829	97.88
440.05	114.88
440.272	112.88
440.493	93.88
440.715	69.88
440.936	88.88
441.158	68.88
441.379	95.88
441.6	87.88
441.822	89.88
442.043	93.88
442.264	102.88
442.486	102.88
442.707	88.88
442.928	87.88
443.149	106.88
443.371	108.88
443.592	95.88
443.813	108.88
444.034	104.88
444.255	84.88
444.476	89.88
444.698	92.88
444.919	79.88
445.14	116.88
445.361	128.88
445.582	99.88
445.803	117.88
446.024	131.88
446.245	124.88
446.466	94.88
446.687	77.88
446.908	84.88
447.129	87.88
447.35	79.88
447.571	90.88
447.792	92.88
448.013	89.88
448.234	105.88
448.455	92.88
448.675	115.88
448.896	97.88
449.117	99.88
449.338	108.88
449.559	121.88
449.779	115.88
450	81.88
450.221	87.88
450.442	94.88
450.662	85.88
450.883	88.88
451.104	91.88
451.324	70.88
451.545	88.88
451.766	92.88
451.986	86.88
452.207	77.88
452.428	76.88
452.648	87.88
452.869	83.88
453.089	105.88
453.31	104.88
453.53	95.88
453.751	79.88
453.971	95.88
454.192	95.88
454.412	80.88
454.633	81.88
454.853	73.88
455.073	84.88
455.294	73.88
455.514	95.88
455.734	86.88
455.955	91.88
456.175	73.88
456.395	77.88
456.616	71.88
456.836	67.88
457.056	84.88
457.276	82.88
457.497	76.88
457.717	105.88
457.937	93.88
458.157	96.88
458.377	91.88
458.598	104.88
458.818	115.88
459.038	119.88
459.258	97.88
459.478	103.88
459.698	86.88
459.918	85.88
460.138	82.88
460.358	94.88
460.578	75.88
460.798	98.88
461.018	96.88
461.238	88.88
461.458	83.88
461.678	93.88
461.898	84.88
462.118	95.88
462.338	98.88
462.558	79.88
462.777	77.88
462.997	103.88
463.217	83.88
463.437	103.88
463.657	100.88
463.876	103.88
464.096	84.88
464.316	78.88
464.536	87.88
464.755	94.88
464.975	98.88
465.195	133.88
465.414	109.88
465.634	88.88
465.854	88.88
466.073	73.88
466.293	90.88
466.512	69.88
466.732	83.88
466.951	93.88
467.171	92.88
467.391	89.88
467.61	104.88
467.829	96.88
468.049	93.88
468.268	88.88
468.488	87.88
468.707	88.88
468.927	96.88
469.146	84.88
469.365	94.88
469.585	79.88
469.804	84.88
470.023	91.88
470.243	89.88
470.462	102.88
470.681	107.88
470.901	78.88
471.12	82.88
471.339	74.88
471.558	87.88
471.777	79.88
471.997	97.88
472.216	109.88
472.435	124.88
472.654	95.88
472.873	75.88
473.092	87.88
473.311	86.88
473.53	92.88
473.749	84.88
473.968	95.88
474.187	95.88
474.406	84.88
474.625	83.88
474.844	87.88
475.063	91.88
475.282	77.88
475.501	81.88
475.72	84.88
475.939	80.88
476.158	99.88
476.377	83.88
476.596	97.88
476.814	80.88
477.033	95.88
477.252	89.88
477.471	101.88
477.69	85.88
477.908	87.88
478.127	89.88
478.346	86.88
478.564	84.88
478.783	81.88
479.002	88.88
479.22	84.88
479.439	113.88
479.658	101.88
479.876	85.88
480.095	86.88
480.313	100.88
480.532	95.88
480.751	79.88
480.969	91.88
481.188	172.88
481.406	135.88
481.624	85.88
481.843	87.88
482.061	88.88
482.28	87.88
482.498	89.88
482.717	98.88
482.935	93.88
483.153	86.88
483.372	81.88
483.59	86.88
483.808	107.88
484.027	88.88
484.245	106.88
484.463	80.88
484.681	100.88
484.9	93.88
485.118	103.88
485.336	93.88
485.554	100.88
485.772	88.88
485.99	87.88
486.209	104.88
486.427	104.88
486.645	95.88
486.863	82.88
487.081	109.88
487.299	94.88
487.517	103.88
487.735	88.88
487.953	83.88
488.171	105.88
488.389	87.88
488.607	80.88
488.825	86.88
489.043	88.88
489.261	96.88
489.479	92.88
489.696	81.88
489.914	82.88
490.132	79.88
490.35	81.88
490.568	77.88
490.786	89.88
491.003	83.88
491.221	83.88
491.439	79.88
491.657	86.88
491.874	85.88
492.092	85.88
492.31	93.88
492.527	85.88
492.745	86.88
492.963	91.88
493.18	92.88
493.398	85.88
493.615	90.88
493.833	87.88
494.05	79.88
494.268	68.88
494.485	93.88
494.703	80.88
494.92	88.88
495.138	81.88
495.355	96.88
495.573	78.88
495.79	88.88
496.008	97.88
496.225	87.88
496.442	87.88
496.66	100.88
496.877	95.88
497.094	92.88
497.312	85.88
497.529	86.88
497.746	67.88
497.963	92.88
498.181	88.88
498.398	92.88
498.615	100.88
498.832	94.88
499.049	86.88
499.267	78.88
499.484	93.88
499.701	84.88
499.918	97.88
500.135	82.88
500.352	103.88
500.569	96.88
500.786	82.88
501.003	76.88
501.22	83.88
501.437	97.88
501.654	94.88
501.871	107.88
502.088	91.88
502.305	94.88
502.522	78.88
502.739	104.88
502.956	86.88
503.172	91.88
503.389	94.88
503.606	94.88
503.823	91.88
504.04	90.88
504.256	84.88
504.473	85.88
504.69	88.88
504.907	91.88
505.123	86.88
505.34	90.88
505.557	97.88
505.773	82.88
505.99	94.88
506.207	84.88
506.423	90.88
506.64	103.88
506.856	85.88
507.073	89.88
507.289	91.88
507.506	86.88
507.722	98.88
507.939	93.88
508.155	87.88
508.372	81.88
508.588	95.88
508.805	89.88
509.021	90.88
509.238	94.88
509.454	103.88
509.67	94.88
509.887	88.88
510.103	113.88
510.319	175.88
510.536	530.88
510.752	1600.88
510.968	479.88
511.184	142.88
511.401	101.88
511.617	91.88
511.833	80.88
512.049	98.88
512.265	85.88
512.481	94.88
512.698	96.88
512.914	91.88
513.13	93.88
513.346	97.88
513.562	96.88
513.778	95.88
513.994	90.88
514.21	100.88
514.426	107.88
514.642	110.88
514.858	107.88
515.074	147.88
515.29	309.88
515.506	911.88
515.721	392.88
515.937	123.88
516.153	83.88
516.369	99.88
516.585	88.88
516.801	96.88
517.016	90.88
517.232	90.88
517.448	92.88
517.664	85.88
517.879	96.88
518.095	111.88
518.311	104.88
518.527	103.88
518.742	104.88
518.958	99.88
519.173	97.88
519.389	95.88
519.605	101.88
519.82	87.88
520.036	99.88
520.251	110.88
520.467	95.88
520.682	89.88
520.898	119.88
521.113	94.88
521.329	111.88
521.544	148.88
521.76	365.88
521.975	1477.88
522.19	944.88
522.406	221.88
522.621	121.88
522.836	102.88
523.052	82.88
523.267	95.88
523.482	92.88
523.698	96.88
523.913	99.88
524.128	107.88
524.343	104.88
524.559	105.88
524.774	92.88
524.989	106.88
525.204	93.88
525.419	98.88
525.634	91.88
525.849	93.88
526.064	93.88
526.28	92.88
526.495	80.88
526.71	84.88
526.925	86.88
527.14	99.88
527.355	81.88
527.57	87.88
527.785	81.88
527.999	93.88
528.214	92.88
528.429	89.88
528.644	84.88
528.859	98.88
529.074	87.88
529.289	105.88
529.503	142.88
529.718	91.88
529.933	91.88
530.148	85.88
530.363	89.88
530.577	98.88
530.792	88.88
531.007	84.88
531.221	100.88
531.436	94.88
531.651	86.88
531.865	85.88
532.08	95.88
532.295	88.88
532.509	116.88
532.724	92.88
532.938	89.88
533.153	104.88
533.367	103.88
533.582	81.88
533.796	104.88
534.011	84.88
534.225	79.88
534.44	105.88
534.654	95.88
534.868	85.88
535.083	87.88
535.297	89.88
535.511	94.88
535.726	80.88
535.94	88.88
536.154	79.88
536.369	86.88
536.583	75.88
536.797	81.88
537.011	88.88
537.225	97.88
537.44	91.88
537.654	89.88
537.868	94.88
538.082	99.88
538.296	100.88
538.51	94.88
538.724	69.88
538.938	85.88
539.153	77.88
539.367	107.88
539.581	90.88
539.795	89.88
540.009	94.88
540.222	95.88
540.436	92.88
540.65	86.88
540.864	93.88
541.078	100.88
541.292	99.88
541.506	85.88
541.72	84.88
541.934	85.88
542.147	93.88
542.361	92.88
542.575	88.88
542.789	81.88
543.002	81.88
543.216	99.88
543.43	87.88
543.644	91.88
543.857	100.88
544.071	97.88
544.285	94.88
544.498	86.88
544.712	102.88
544.925	96.88
545.139	95.88
545.352	82.88
545.566	76.88
545.779	91.88
545.993	94.88
546.206	96.88
546.42	91.88
546.633	88.88
546.847	95.88
547.06	97.88
547.274	99.88
547.487	88.88
547.7	88.88
547.914	64.88
548.127	92.88
548.34	71.88
548.554	75.88
548.767	100.88
548.98	95.88
549.193	89.88
549.407	92.88
549.62	89.88
549.833	93.88
550.046	81.88
550.259	96.88
550.473	102.88
550.686	101.88
550.899	97.88
551.112	94.88
551.325	89.88
551.538	90.88
551.751	79.88
551.964	93.88
552.177	88.88
552.39	97.88
552.603	83.88
552.816	104.88
553.029	109.88
553.242	88.88
553.455	82.88
553.667	98.88
553.88	111.88
554.093	80.88
554.306	80.88
554.519	84.88
554.732	84.88
554.944	88.88
555.157	89.88
555.37	93.88
555.583	80.88
555.795	105.88
556.008	92.88
556.221	96.88
556.433	82.88
556.646	87.88
556.859	87.88
557.071	90.88
557.284	91.88
557.496	90.88
557.709	88.88
557.921	83.88
558.134	101.88
558.346	91.88
558.559	93.88
558.771	85.88
558.984	92.88
559.196	85.88
559.409	80.88
559.621	93.88
559.833	95.88
560.046	101.88
560.258	89.88
560.47	93.88
560.683	90.88
560.895	88.88
561.107	93.88
561.32	94.88
561.532	94.88
561.744	93.88
561.956	96.88
562.168	76.88
562.381	87.88
562.593	87.88
562.805	72.88
563.017	100.88
563.229	92.88
563.441	96.88
563.653	86.88
563.865	79.88
564.077	97.88
564.289	77.88
564.501	96.88
564.713	93.88
564.925	96.88
565.137	100.88
565.349	90.88
565.561	88.88
565.773	73.88
565.985	88.88
566.197	81.88
566.408	81.88
566.62	87.88
566.832	90.88
567.044	86.88
567.255	91.88
567.467	107.88
567.679	90.88
567.891	76.88
568.102	92.88
568.314	92.88
568.526	88.88
568.737	81.88
568.949	69.88
569.161	92.88
569.372	107.88
569.584	81.88
569.795	82.88
570.007	112.88
570.218	208.88
570.43	111.88
570.641	94.88
570.853	90.88
571.064	90.88
571.276	77.88
571.487	76.88
571.698	81.88
571.91	93.88
572.121	96.88
572.333	80.88
572.544	86.88
572.755	76.88
572.966	83.88
573.178	76.88
573.389	99.88
573.6	87.88
573.811	86.88
574.023	86.88
574.234	85.88
574.445	93.88
574.656	80.88
574.867	84.88
575.078	83.88
575.289	61.88
575.501	82.88
575.712	94.88
575.923	87.88
576.134	92.88
576.345	88.88
576.556	82.88
576.767	91.88
576.978	80.88
577.188	94.88
577.399	85.88
577.61	82.88
577.821	97.88
578.032	96.88
578.243	210.88
578.454	539.88
578.665	166.88
578.875	89.88
579.086	96.88
579.297	90.88
579.508	76.88
579.718	91.88
579.929	90.88
580.14	72.88
580.35	79.88
580.561	89.88
580.772	92.88
580.982	92.88
581.193	81.88
581.403	84.88
581.614	85.88
581.825	73.88
582.035	86.88
582.246	91.88
582.456	87.88
582.667	85.88
582.877	94.88
583.087	89.88
583.298	95.88
583.508	94.88
583.719	93.88
583.929	78.88
584.139	90.88
584.35	72.88
584.56	81.88
584.77	79.88
584.981	68.88
585.191	87.88
585.401	83.88
585.611	87.88
585.821	86.88
586.032	92.88
586.242	81.88
586.452	96.88
586.662	82.88
586.872	76.88
587.082	85.88
587.292	71.88
587.502	74.88
587.713	85.88
587.923	71.88
588.133	75.88
588.343	87.88
588.553	82.88
588.762	103.88
588.972	88.88
589.182	113.88
589.392	76.88
589.602	85.88
589.812	88.88
590.022	98.88
590.232	88.88
590.441	89.88
590.651	84.88
590.861	90.88
591.071	86.88
591.281	86.88
591.49	85.88
591.7	86.88
591.91	93.88
592.119	64.88
592.329	92.88
592.539	96.88
592.748	88.88
592.958	76.88
593.167	81.88
593.377	77.88
593.587	79.88
593.796	81.88
594.006	82.88
594.215	88.88
594.424	98.88
594.634	72.88
594.843	67.88
595.053	84.88
595.262	78.88
595.472	81.88
595.681	87.88
595.89	86.88
596.1	85.88
596.309	81.88
596.518	89.88
596.727	86.88
596.937	79.88
597.146	83.88
597.355	76.88
597.564	82.88
597.774	88.88
597.983	74.88
598.192	103.88
598.401	83.88
598.61	77.88
598.819	73.88
599.028	85.88
599.237	88.88
599.446	81.88
599.655	80.88
599.864	74.88
600.073	92.88
600.282	101.88
600.491	86.88
600.7	94.88
600.909	94.88
601.118	88.88
601.327	80.88
601.536	94.88
601.745	90.88
601.953	91.88
602.162	101.88
602.371	76.88
602.58	92.88
602.789	73.88
602.997	100.88
603.206	91.88
603.415	87.88
603.623	77.88
603.832	87.88
604.041	95.88
604.249	89.88
604.458	81.88
604.666	91.88
604.875	90.88
605.084	80.88
605.292	85.88
605.501	102.88
605.709	73.88
605.918	97.88
606.126	91.88
606.334	78.88
606.543	88.88
606.751	88.88
606.96	100.88
607.168	88.88
607.376	90.88
607.585	103.88
607.793	85.88
608.001	80.88
608.21	85.88
608.418	94.88
608.626	83.88
608.834	78.88
609.043	91.88
609.251	78.88
609.459	81.88
609.667	94.88
609.875	96.88
610.083	83.88
610.291	99.88
610.499	95.88
610.707	90.88
610.916	88.88
611.124	93.88
611.332	78.88
611.54	62.88
611.748	75.88
611.955	98.88
612.163	78.88
612.371	88.88
612.579	86.88
612.787	79.88
612.995	88.88
613.203	103.88
613.411	84.88
613.618	99.88
613.826	98.88
614.034	78.88
614.242	90.88
614.449	88.88
614.657	90.88
614.865	99.88
615.072	91.88
615.28	89.88
615.488	91.88
615.695	90.88
615.903	97.88
616.111	88.88
616.318	100.88
616.526	103.88
616.733	82.88
616.941	82.88
617.148	74.88
617.356	81.88
617.563	76.88
617.771	80.88
617.978	84.88
618.185	94.88
618.393	85.88
618.6	96.88
618.807	85.88
619.015	78.88
619.222	101.88
619.429	89.88
619.637	87.88
619.844	76.88
620.051	92.88
620.258	69.88
620.466	100.88
620.673	76.88
620.88	96.88
621.087	88.88
621.294	101.88
621.501	95.88
621.708	69.88
621.915	85.88
622.122	90.88
622.329	83.88
622.536	95.88
622.743	76.88
622.95	84.88
623.157	84.88
623.364	95.88
623.571	82.88
623.778	82.88
623.985	67.88
624.192	87.88
624.399	78.88
624.606	80.88
624.812	78.88
625.019	74.88
625.226	75.88
625.433	93.88
625.639	76.88
625.846	80.88
626.053	81.88
626.259	89.88
626.466	85.88
626.673	84.88
626.879	90.88
627.086	81.88
627.293	87.88
627.499	88.88
627.706	81.88
627.912	90.88
628.119	84.88
628.325	92.88
628.532	90.88
628.738	89.88
628.945	84.88
629.151	86.88
629.357	88.88
629.564	83.88
629.77	80.88
629.976	72.88
630.183	87.88
630.389	93.88
630.595	81.88
630.802	92.88
631.008	78.88
631.214	96.88
631.42	98.88
631.627	78.88
631.833	85.88
632.039	78.88
632.245	73.88
632.451	90.88
632.657	82.88
632.863	87.88
633.069	93.88
633.275	84.88
633.481	79.88
633.688	80.88
633.893	80.88
634.099	64.88
634.305	81.88
634.511	81.88
634.717	80.88
634.923	86.88
635.129	100.88
635.335	81.88
635.541	80.88
635.747	90.88
635.952	108.88
636.158	88.88
636.364	94.88
636.57	89.88
636.775	81.88
636.981	91.88
637.187	92.88
637.392	77.88
637.598	81.88
637.804	88.88
638.009	87.88
638.215	80.88
638.421	81.88
638.626	75.88
638.832	73.88
639.037	85.88
639.243	76.88
639.448	85.88
639.654	90.88
639.859	72.88
640.065	76.88
640.27	80.88
640.475	77.88
640.681	92.88
640.886	89.88
641.091	83.88
641.297	85.88
641.502	91.88
641.707	77.88
641.913	88.88
642.118	79.88
642.323	92.88
642.528	90.88
642.733	85.88
642.939	99.88
643.144	89.88
643.349	80.88
643.554	86.88
643.759	87.88
643.964	93.88
644.169	93.88
644.374	96.88
644.579	85.88
644.784	92.88
644.989	75.88
645.194	87.88
645.399	89.88
645.604	72.88
645.809	84.88
646.014	70.88
646.219	93.88
646.423	85.88
646.628	79.88
646.833	86.88
647.038	87.88
647.243	90.88
647.447	80.88
647.652	85.88
647.857	96.88
648.062	82.88
648.266	83.88
648.471	93.88
648.676	87.88
648.88	85.88
649.085	84.88
649.289	96.88
649.494	96.88
649.698	121.88
649.903	101.88
650.107	93.88
650.312	80.88
650.516	62.88
650.721	97.88
650.925	79.88
651.13	74.88
651.334	85.88
651.539	87.88
651.743	73.88
651.947	88.88
652.152	90.88
652.356	90.88
652.56	84.88
652.764	87.88
652.969	85.88
653.173	77.88
653.377	90.88
653.581	83.88
653.785	82.88
653.99	99.88
654.194	103.88
654.398	78.88
654.602	86.88
654.806	91.88
655.01	100.88
655.214	89.88
655.418	85.88
655.622	74.88
655.826	87.88
656.03	84.88
656.234	85.88
656.438	87.88
656.642	91.88
656.846	86.88
657.049	91.88
657.253	79.88
657.457	80.88
657.661	84.88
657.865	85.88
658.068	83.88
658.272	86.88
658.476	96.88
658.68	79.88
658.883	76.88
659.087	94.88
659.291	60.88
659.494	82.88
659.698	91.88
659.901	60.88
660.105	89.88
660.309	83.88
660.512	75.88
660.716	79.88
660.919	76.88
661.123	89.88
661.326	84.88
661.53	76.88
661.733	83.88
661.936	77.88
662.14	86.88
662.343	67.88
662.546	79.88
662.75	93.88
662.953	89.88
663.156	79.88
663.36	81.88
663.563	93.88
663.766	94.88
663.969	73.88
664.173	75.88
664.376	76.88
664.579	89.88
664.782	76.88
664.985	82.88
665.188	77.88
665.391	79.88
665.594	88.88
665.797	99.88
666	67.88
666.203	78.88
666.406	88.88
666.609	78.88
666.812	72.88
667.015	75.88
667.218	80.88
667.421	76.88
667.624	67.88
667.827	79.88
668.03	81.88
668.232	74.88
668.435	71.88
668.638	86.88
668.841	76.88
669.043	90.88
669.246	76.88
669.449	87.88
669.651	87.88
669.854	80.88
670.057	88.88
670.259	76.88
670.462	83.88
670.665	87.88
670.867	97.88
671.07	87.88
671.272	91.88
671.475	74.88
671.677	72.88
671.88	78.88
672.082	72.88
672.284	76.88
672.487	81.88
672.689	81.88
672.892	71.88
