Data from Uncirc_2009_H10_HRD10591_00036.txt Node
Date: Wed Jan 03 10:12:09 EST 2024
User: Yrep
Spectrometer: HR+D1059
Trigger mode: 1
Integration Time (sec): 1.000000E-1
Scans to average: 1
Electric dark correction enabled: true
Nonlinearity correction enabled: false
Boxcar width: 0
XAxis mode: Wavelengths
Number of Pixels in Spectrum: 2048
>>>>>Begin Spectral Data<<<<<
223.165	-9.75
223.4	-9.75
223.635	-9.75
223.869	-14.75
224.104	-24.75
224.338	-3.75
224.573	-4.75
224.808	-27.75
225.042	-9.75
225.277	-22.75
225.511	-0.75
225.746	2.25
225.98	10.25
226.215	21.25
226.449	25.25
226.683	12.25
226.918	29.25
227.152	18.25
227.387	43.25
227.621	49.25
227.856	40.25
228.09	46.25
228.324	56.25
228.559	64.25
228.793	64.25
229.027	59.25
229.262	72.25
229.496	81.25
229.73	67.25
229.964	76.25
230.199	69.25
230.433	86.25
230.667	79.25
230.901	83.25
231.136	84.25
231.37	91.25
231.604	91.25
231.838	65.25
232.072	76.25
232.306	78.25
232.541	60.25
232.775	87.25
233.009	83.25
233.243	74.25
233.477	79.25
233.711	73.25
233.945	94.25
234.179	88.25
234.413	75.25
234.647	90.25
234.881	81.25
235.115	84.25
235.349	72.25
235.583	75.25
235.817	79.25
236.051	95.25
236.285	80.25
236.519	86.25
236.753	75.25
236.987	83.25
237.221	83.25
237.455	81.25
237.689	71.25
237.922	70.25
238.156	82.25
238.39	77.25
238.624	78.25
238.858	89.25
239.091	83.25
239.325	70.25
239.559	79.25
239.793	91.25
240.027	84.25
240.26	90.25
240.494	75.25
240.728	85.25
240.961	85.25
241.195	85.25
241.429	72.25
241.662	73.25
241.896	80.25
242.13	82.25
242.363	87.25
242.597	89.25
242.83	95.25
243.064	88.25
243.298	79.25
243.531	84.25
243.765	92.25
243.998	81.25
244.232	82.25
244.465	85.25
244.699	84.25
244.932	81.25
245.166	73.25
245.399	74.25
245.633	88.25
245.866	82.25
246.099	81.25
246.333	73.25
246.566	79.25
246.8	72.25
247.033	82.25
247.266	75.25
247.5	87.25
247.733	75.25
247.966	94.25
248.2	71.25
248.433	72.25
248.666	85.25
248.899	76.25
249.133	86.25
249.366	88.25
249.599	90.25
249.832	78.25
250.066	82.25
250.299	79.25
250.532	80.25
250.765	81.25
250.998	86.25
251.231	70.25
251.465	90.25
251.698	64.25
251.931	83.25
252.164	67.25
252.397	86.25
252.63	76.25
252.863	66.25
253.096	83.25
253.329	74.25
253.562	69.25
253.795	84.25
254.028	73.25
254.261	84.25
254.494	86.25
254.727	80.25
254.96	77.25
255.193	89.25
255.426	75.25
255.659	77.25
255.892	87.25
256.124	84.25
256.357	88.25
256.59	88.25
256.823	75.25
257.056	95.25
257.289	71.25
257.521	72.25
257.754	101.25
257.987	80.25
258.22	92.25
258.452	83.25
258.685	89.25
258.918	84.25
259.151	83.25
259.383	89.25
259.616	90.25
259.849	87.25
260.081	73.25
260.314	79.25
260.547	82.25
260.779	82.25
261.012	81.25
261.244	76.25
261.477	89.25
261.71	79.25
261.942	94.25
262.175	101.25
262.407	84.25
262.64	93.25
262.872	85.25
263.105	86.25
263.337	91.25
263.57	83.25
263.802	84.25
264.035	93.25
264.267	74.25
264.499	92.25
264.732	81.25
264.964	90.25
265.197	85.25
265.429	77.25
265.661	78.25
265.894	83.25
266.126	82.25
266.358	76.25
266.591	90.25
266.823	78.25
267.055	86.25
267.287	78.25
267.52	79.25
267.752	84.25
267.984	101.25
268.216	80.25
268.448	74.25
268.681	92.25
268.913	88.25
269.145	85.25
269.377	70.25
269.609	87.25
269.841	79.25
270.073	69.25
270.306	81.25
270.538	88.25
270.77	94.25
271.002	87.25
271.234	84.25
271.466	74.25
271.698	95.25
271.93	105.25
272.162	88.25
272.394	94.25
272.626	77.25
272.858	87.25
273.09	95.25
273.322	101.25
273.553	82.25
273.785	91.25
274.017	74.25
274.249	83.25
274.481	88.25
274.713	88.25
274.945	87.25
275.176	88.25
275.408	74.25
275.64	75.25
275.872	69.25
276.104	93.25
276.335	83.25
276.567	93.25
276.799	89.25
277.031	99.25
277.262	88.25
277.494	95.25
277.726	81.25
277.957	80.25
278.189	80.25
278.421	69.25
278.652	72.25
278.884	78.25
279.115	90.25
279.347	84.25
279.579	90.25
279.81	88.25
280.042	97.25
280.273	94.25
280.505	99.25
280.736	96.25
280.968	85.25
281.199	100.25
281.431	67.25
281.662	86.25
281.894	86.25
282.125	89.25
282.356	112.25
282.588	116.25
282.819	92.25
283.051	84.25
283.282	79.25
283.513	81.25
283.745	90.25
283.976	104.25
284.207	94.25
284.439	94.25
284.67	94.25
284.901	94.25
285.132	87.25
285.364	74.25
285.595	84.25
285.826	86.25
286.057	95.25
286.288	99.25
286.52	94.25
286.751	93.25
286.982	82.25
287.213	78.25
287.444	79.25
287.675	93.25
287.906	95.25
288.138	100.25
288.369	91.25
288.6	84.25
288.831	74.25
289.062	96.25
289.293	86.25
289.524	83.25
289.755	99.25
289.986	85.25
290.217	88.25
290.448	87.25
290.679	93.25
290.91	93.25
291.141	89.25
291.371	100.25
291.602	93.25
291.833	102.25
292.064	102.25
292.295	93.25
292.526	102.25
292.757	108.25
292.987	98.25
293.218	101.25
293.449	84.25
293.68	86.25
293.91	90.25
294.141	89.25
294.372	85.25
294.603	88.25
294.833	82.25
295.064	78.25
295.295	76.25
295.525	91.25
295.756	107.25
295.987	107.25
296.217	114.25
296.448	101.25
296.679	98.25
296.909	96.25
297.14	82.25
297.37	86.25
297.601	85.25
297.831	101.25
298.062	99.25
298.292	75.25
298.523	85.25
298.753	80.25
298.984	91.25
299.214	92.25
299.445	91.25
299.675	95.25
299.905	85.25
300.136	99.25
300.366	97.25
300.597	89.25
300.827	98.25
301.057	90.25
301.288	104.25
301.518	81.25
301.748	92.25
301.979	102.25
302.209	99.25
302.439	89.25
302.669	92.25
302.9	86.25
303.13	107.25
303.36	120.25
303.59	120.25
303.82	99.25
304.051	93.25
304.281	102.25
304.511	96.25
304.741	92.25
304.971	87.25
305.201	90.25
305.431	83.25
305.661	98.25
305.891	89.25
306.121	86.25
306.352	95.25
306.582	101.25
306.812	91.25
307.042	77.25
307.272	87.25
307.502	98.25
307.731	92.25
307.961	95.25
308.191	87.25
308.421	94.25
308.651	84.25
308.881	93.25
309.111	101.25
309.341	101.25
309.571	85.25
309.8	93.25
310.03	103.25
310.26	94.25
310.49	91.25
310.72	88.25
310.949	94.25
311.179	96.25
311.409	88.25
311.639	92.25
311.868	88.25
312.098	90.25
312.328	102.25
312.557	114.25
312.787	118.25
313.017	88.25
313.246	89.25
313.476	87.25
313.706	91.25
313.935	108.25
314.165	109.25
314.394	95.25
314.624	106.25
314.853	92.25
315.083	93.25
315.312	118.25
315.542	90.25
315.771	90.25
316.001	86.25
316.23	83.25
316.46	77.25
316.689	90.25
316.919	85.25
317.148	94.25
317.377	102.25
317.607	108.25
317.836	105.25
318.065	92.25
318.295	95.25
318.524	107.25
318.753	87.25
318.983	96.25
319.212	91.25
319.441	98.25
319.67	105.25
319.9	88.25
320.129	88.25
320.358	98.25
320.587	107.25
320.816	93.25
321.046	76.25
321.275	78.25
321.504	95.25
321.733	100.25
321.962	92.25
322.191	98.25
322.42	104.25
322.649	101.25
322.878	90.25
323.108	105.25
323.337	122.25
323.566	114.25
323.795	154.25
324.024	171.25
324.253	303.25
324.482	596.25
324.71	1223.25
324.939	1562.25
325.168	604.25
325.397	202.25
325.626	124.25
325.855	122.25
326.084	124.25
326.313	140.25
326.542	142.25
326.77	195.25
326.999	348.25
327.228	737.25
327.457	1265.25
327.686	1000.25
327.914	287.25
328.143	160.25
328.372	133.25
328.6	110.25
328.829	112.25
329.058	112.25
329.287	111.25
329.515	104.25
329.744	100.25
329.972	103.25
330.201	112.25
330.43	121.25
330.658	105.25
330.887	124.25
331.115	121.25
331.344	91.25
331.572	94.25
331.801	89.25
332.03	93.25
332.258	90.25
332.486	78.25
332.715	97.25
332.943	108.25
333.172	98.25
333.4	91.25
333.629	123.25
333.857	108.25
334.085	107.25
334.314	109.25
334.542	123.25
334.771	106.25
334.999	96.25
335.227	98.25
335.455	92.25
335.684	93.25
335.912	93.25
336.14	89.25
336.369	105.25
336.597	98.25
336.825	92.25
337.053	80.25
337.281	95.25
337.51	81.25
337.738	84.25
337.966	84.25
338.194	92.25
338.422	90.25
338.65	89.25
338.878	93.25
339.106	86.25
339.334	91.25
339.562	74.25
339.79	87.25
340.018	93.25
340.246	105.25
340.474	97.25
340.702	106.25
340.93	90.25
341.158	88.25
341.386	102.25
341.614	100.25
341.842	104.25
342.07	91.25
342.298	87.25
342.526	84.25
342.754	82.25
342.981	98.25
343.209	90.25
343.437	87.25
343.665	80.25
343.893	95.25
344.12	103.25
344.348	102.25
344.576	95.25
344.804	89.25
345.031	90.25
345.259	95.25
345.487	82.25
345.714	92.25
345.942	104.25
346.17	92.25
346.397	98.25
346.625	87.25
346.853	88.25
347.08	97.25
347.308	95.25
347.535	83.25
347.763	90.25
347.99	98.25
348.218	96.25
348.445	100.25
348.673	103.25
348.9	102.25
349.128	95.25
349.355	87.25
349.583	98.25
349.81	99.25
350.037	86.25
350.265	86.25
350.492	86.25
350.72	97.25
350.947	106.25
351.174	96.25
351.402	103.25
351.629	101.25
351.856	112.25
352.083	99.25
352.311	118.25
352.538	104.25
352.765	101.25
352.992	112.25
353.22	112.25
353.447	103.25
353.674	102.25
353.901	98.25
354.128	110.25
354.355	95.25
354.583	94.25
354.81	103.25
355.037	97.25
355.264	93.25
355.491	95.25
355.718	94.25
355.945	105.25
356.172	95.25
356.399	84.25
356.626	102.25
356.853	94.25
357.08	89.25
357.307	106.25
357.534	100.25
357.761	89.25
357.988	93.25
358.215	89.25
358.441	93.25
358.668	105.25
358.895	94.25
359.122	83.25
359.349	94.25
359.576	95.25
359.802	97.25
360.029	88.25
360.256	86.25
360.483	87.25
360.709	96.25
360.936	88.25
361.163	92.25
361.39	94.25
361.616	99.25
361.843	99.25
362.07	103.25
362.296	89.25
362.523	90.25
362.749	91.25
362.976	107.25
363.203	96.25
363.429	98.25
363.656	85.25
363.882	96.25
364.109	84.25
364.335	89.25
364.562	88.25
364.788	86.25
365.015	91.25
365.241	101.25
365.468	90.25
365.694	98.25
365.92	97.25
366.147	92.25
366.373	86.25
366.599	86.25
366.826	102.25
367.052	83.25
367.278	87.25
367.505	88.25
367.731	91.25
367.957	86.25
368.184	89.25
368.41	94.25
368.636	102.25
368.862	96.25
369.089	109.25
369.315	92.25
369.541	105.25
369.767	96.25
369.993	89.25
370.219	101.25
370.445	101.25
370.672	102.25
370.898	94.25
371.124	87.25
371.35	96.25
371.576	89.25
371.802	89.25
372.028	78.25
372.254	84.25
372.48	109.25
372.706	92.25
372.932	82.25
373.158	92.25
373.384	86.25
373.61	93.25
373.835	98.25
374.061	92.25
374.287	94.25
374.513	93.25
374.739	94.25
374.965	91.25
375.191	91.25
375.416	88.25
375.642	97.25
375.868	84.25
376.094	82.25
376.319	97.25
376.545	88.25
376.771	72.25
376.997	92.25
377.222	82.25
377.448	101.25
377.674	86.25
377.899	90.25
378.125	100.25
378.35	90.25
378.576	99.25
378.802	89.25
379.027	90.25
379.253	96.25
379.478	79.25
379.704	92.25
379.929	115.25
380.155	94.25
380.38	115.25
380.606	89.25
380.831	84.25
381.057	88.25
381.282	93.25
381.507	98.25
381.733	100.25
381.958	100.25
382.184	91.25
382.409	97.25
382.634	85.25
382.86	110.25
383.085	89.25
383.31	102.25
383.535	100.25
383.761	93.25
383.986	104.25
384.211	102.25
384.436	111.25
384.662	94.25
384.887	95.25
385.112	92.25
385.337	98.25
385.562	104.25
385.787	99.25
386.013	106.25
386.238	97.25
386.463	95.25
386.688	109.25
386.913	91.25
387.138	118.25
387.363	106.25
387.588	104.25
387.813	99.25
388.038	96.25
388.263	110.25
388.488	113.25
388.713	102.25
388.938	88.25
389.163	96.25
389.387	94.25
389.612	87.25
389.837	96.25
390.062	91.25
390.287	94.25
390.512	87.25
390.736	83.25
390.961	79.25
391.186	99.25
391.411	100.25
391.636	89.25
391.86	91.25
392.085	90.25
392.31	90.25
392.534	84.25
392.759	81.25
392.984	80.25
393.208	62.25
393.433	86.25
393.658	84.25
393.882	96.25
394.107	94.25
394.331	96.25
394.556	80.25
394.78	83.25
395.005	86.25
395.229	91.25
395.454	99.25
395.678	78.25
395.903	85.25
396.127	78.25
396.352	94.25
396.576	79.25
396.801	76.25
397.025	81.25
397.249	101.25
397.474	89.25
397.698	101.25
397.922	99.25
398.147	95.25
398.371	100.25
398.595	87.25
398.82	90.25
399.044	91.25
399.268	84.25
399.492	94.25
399.717	83.25
399.941	68.25
400.165	98.25
400.389	92.25
400.613	89.25
400.837	84.25
401.062	97.25
401.286	83.25
401.51	91.25
401.734	102.25
401.958	93.25
402.182	89.25
402.406	127.25
402.63	106.25
402.854	108.25
403.078	95.25
403.302	84.25
403.526	77.25
403.75	100.25
403.974	105.25
404.198	74.25
404.422	87.25
404.645	91.25
404.869	88.25
405.093	97.25
405.317	94.25
405.541	86.25
405.765	87.25
405.988	110.25
406.212	144.25
406.436	161.25
406.66	104.25
406.883	96.25
407.107	71.25
407.331	94.25
407.555	99.25
407.778	94.25
408.002	86.25
408.226	86.25
408.449	85.25
408.673	87.25
408.896	98.25
409.12	84.25
409.344	97.25
409.567	81.25
409.791	94.25
410.014	96.25
410.238	93.25
410.461	97.25
410.685	93.25
410.908	84.25
411.132	105.25
411.355	105.25
411.578	101.25
411.802	98.25
412.025	72.25
412.249	96.25
412.472	81.25
412.695	88.25
412.919	93.25
413.142	102.25
413.365	96.25
413.589	94.25
413.812	95.25
414.035	96.25
414.258	88.25
414.482	90.25
414.705	89.25
414.928	97.25
415.151	95.25
415.374	105.25
415.597	96.25
415.821	99.25
416.044	91.25
416.267	94.25
416.49	94.25
416.713	107.25
416.936	96.25
417.159	80.25
417.382	85.25
417.605	90.25
417.828	98.25
418.051	87.25
418.274	87.25
418.497	92.25
418.72	96.25
418.943	90.25
419.166	85.25
419.389	86.25
419.611	102.25
419.834	83.25
420.057	91.25
420.28	92.25
420.503	78.25
420.726	85.25
420.948	88.25
421.171	83.25
421.394	90.25
421.617	108.25
421.839	81.25
422.062	73.25
422.285	82.25
422.507	105.25
422.73	90.25
422.953	99.25
423.175	92.25
423.398	85.25
423.621	96.25
423.843	81.25
424.066	86.25
424.288	92.25
424.511	104.25
424.733	100.25
424.956	88.25
425.178	94.25
425.401	106.25
425.623	111.25
425.846	93.25
426.068	92.25
426.291	99.25
426.513	96.25
426.735	89.25
426.958	103.25
427.18	95.25
427.402	136.25
427.625	119.25
427.847	102.25
428.069	102.25
428.292	90.25
428.514	95.25
428.736	82.25
428.958	84.25
429.181	102.25
429.403	90.25
429.625	81.25
429.847	92.25
430.069	104.25
430.292	97.25
430.514	87.25
430.736	83.25
430.958	91.25
431.18	96.25
431.402	84.25
431.624	81.25
431.846	91.25
432.068	91.25
432.29	81.25
432.512	95.25
432.734	81.25
432.956	87.25
433.178	105.25
433.4	93.25
433.622	85.25
433.844	84.25
434.066	83.25
434.287	87.25
434.509	86.25
434.731	95.25
434.953	82.25
435.175	91.25
435.397	96.25
435.618	87.25
435.84	94.25
436.062	108.25
436.284	108.25
436.505	89.25
436.727	93.25
436.949	91.25
437.17	94.25
437.392	92.25
437.614	90.25
437.835	90.25
438.057	96.25
438.278	103.25
438.5	113.25
438.721	107.25
438.943	105.25
439.165	91.25
439.386	96.25
439.608	85.25
439.829	91.25
440.05	108.25
440.272	122.25
440.493	89.25
440.715	90.25
440.936	81.25
441.158	80.25
441.379	82.25
441.6	86.25
441.822	86.25
442.043	91.25
442.264	90.25
442.486	104.25
442.707	87.25
442.928	98.25
443.149	109.25
443.371	113.25
443.592	91.25
443.813	89.25
444.034	81.25
444.255	92.25
444.476	97.25
444.698	86.25
444.919	75.25
445.14	122.25
445.361	131.25
445.582	103.25
445.803	116.25
446.024	117.25
446.245	111.25
446.466	107.25
446.687	98.25
446.908	92.25
447.129	101.25
447.35	97.25
447.571	100.25
447.792	86.25
448.013	99.25
448.234	108.25
448.455	110.25
448.675	104.25
448.896	102.25
449.117	89.25
449.338	108.25
449.559	125.25
449.779	122.25
450	93.25
450.221	79.25
450.442	84.25
450.662	98.25
450.883	101.25
451.104	106.25
451.324	96.25
451.545	91.25
451.766	87.25
451.986	77.25
452.207	96.25
452.428	91.25
452.648	96.25
452.869	98.25
453.089	99.25
453.31	97.25
453.53	91.25
453.751	94.25
453.971	98.25
454.192	100.25
454.412	87.25
454.633	78.25
454.853	67.25
455.073	90.25
455.294	92.25
455.514	91.25
455.734	82.25
455.955	83.25
456.175	95.25
456.395	82.25
456.616	76.25
456.836	71.25
457.056	84.25
457.276	88.25
457.497	87.25
457.717	76.25
457.937	88.25
458.157	89.25
458.377	92.25
458.598	93.25
458.818	125.25
459.038	134.25
459.258	104.25
459.478	82.25
459.698	91.25
459.918	87.25
460.138	83.25
460.358	88.25
460.578	93.25
460.798	88.25
461.018	79.25
461.238	92.25
461.458	87.25
461.678	99.25
461.898	85.25
462.118	83.25
462.338	90.25
462.558	94.25
462.777	90.25
462.997	87.25
463.217	89.25
463.437	89.25
463.657	81.25
463.876	77.25
464.096	85.25
464.316	91.25
464.536	97.25
464.755	110.25
464.975	99.25
465.195	135.25
465.414	122.25
465.634	82.25
465.854	78.25
466.073	88.25
466.293	77.25
466.512	80.25
466.732	84.25
466.951	82.25
467.171	89.25
467.391	82.25
467.61	102.25
467.829	100.25
468.049	98.25
468.268	108.25
468.488	91.25
468.707	87.25
468.927	86.25
469.146	86.25
469.365	87.25
469.585	81.25
469.804	96.25
470.023	85.25
470.243	88.25
470.462	97.25
470.681	113.25
470.901	76.25
471.12	92.25
471.339	89.25
471.558	83.25
471.777	102.25
471.997	97.25
472.216	97.25
472.435	123.25
472.654	92.25
472.873	98.25
473.092	90.25
473.311	91.25
473.53	84.25
473.749	84.25
473.968	96.25
474.187	103.25
474.406	100.25
474.625	87.25
474.844	84.25
475.063	78.25
475.282	87.25
475.501	84.25
475.72	98.25
475.939	93.25
476.158	91.25
476.377	91.25
476.596	95.25
476.814	93.25
477.033	73.25
477.252	107.25
477.471	76.25
477.69	79.25
477.908	91.25
478.127	108.25
478.346	96.25
478.564	94.25
478.783	95.25
479.002	92.25
479.22	92.25
479.439	80.25
479.658	99.25
479.876	88.25
480.095	83.25
480.313	101.25
480.532	92.25
480.751	91.25
480.969	102.25
481.188	154.25
481.406	132.25
481.624	92.25
481.843	97.25
482.061	105.25
482.28	94.25
482.498	95.25
482.717	88.25
482.935	92.25
483.153	92.25
483.372	77.25
483.59	82.25
483.808	97.25
484.027	86.25
484.245	97.25
484.463	93.25
484.681	118.25
484.9	100.25
485.118	95.25
485.336	93.25
485.554	111.25
485.772	97.25
485.99	108.25
486.209	104.25
486.427	114.25
486.645	114.25
486.863	96.25
487.081	98.25
487.299	89.25
487.517	92.25
487.735	94.25
487.953	96.25
488.171	94.25
488.389	84.25
488.607	108.25
488.825	92.25
489.043	97.25
489.261	97.25
489.479	107.25
489.696	84.25
489.914	98.25
490.132	80.25
490.35	91.25
490.568	89.25
490.786	93.25
491.003	98.25
491.221	94.25
491.439	95.25
491.657	108.25
491.874	99.25
492.092	93.25
492.31	90.25
492.527	87.25
492.745	94.25
492.963	109.25
493.18	100.25
493.398	95.25
493.615	101.25
493.833	104.25
494.05	91.25
494.268	84.25
494.485	93.25
494.703	95.25
494.92	74.25
495.138	86.25
495.355	94.25
495.573	90.25
495.79	90.25
496.008	89.25
496.225	85.25
496.442	87.25
496.66	95.25
496.877	96.25
497.094	114.25
497.312	112.25
497.529	91.25
497.746	87.25
497.963	96.25
498.181	86.25
498.398	91.25
498.615	108.25
498.832	107.25
499.049	81.25
499.267	100.25
499.484	77.25
499.701	96.25
499.918	87.25
500.135	78.25
500.352	104.25
500.569	86.25
500.786	96.25
501.003	98.25
501.22	89.25
501.437	98.25
501.654	81.25
501.871	91.25
502.088	84.25
502.305	99.25
502.522	91.25
502.739	79.25
502.956	80.25
503.172	97.25
503.389	90.25
503.606	91.25
503.823	102.25
504.04	96.25
504.256	104.25
504.473	84.25
504.69	95.25
504.907	94.25
505.123	94.25
505.34	88.25
505.557	88.25
505.773	98.25
505.99	89.25
506.207	90.25
506.423	88.25
506.64	96.25
506.856	104.25
507.073	97.25
507.289	81.25
507.506	84.25
507.722	99.25
507.939	118.25
508.155	103.25
508.372	93.25
508.588	98.25
508.805	90.25
509.021	90.25
509.238	92.25
509.454	102.25
509.67	95.25
509.887	122.25
510.103	125.25
510.319	164.25
510.536	523.25
510.752	1513.25
510.968	451.25
511.184	147.25
511.401	120.25
511.617	109.25
511.833	90.25
512.049	89.25
512.265	90.25
512.481	89.25
512.698	75.25
512.914	99.25
513.13	97.25
513.346	97.25
513.562	95.25
513.778	97.25
513.994	105.25
514.21	111.25
514.426	116.25
514.642	116.25
514.858	111.25
515.074	133.25
515.29	300.25
515.506	841.25
515.721	357.25
515.937	132.25
516.153	93.25
516.369	107.25
516.585	91.25
516.801	86.25
517.016	91.25
517.232	93.25
517.448	89.25
517.664	80.25
517.879	76.25
518.095	94.25
518.311	91.25
518.527	97.25
518.742	100.25
518.958	81.25
519.173	112.25
519.389	104.25
519.605	90.25
519.82	108.25
520.036	100.25
520.251	98.25
520.467	111.25
520.682	112.25
520.898	90.25
521.113	99.25
521.329	125.25
521.544	153.25
521.76	367.25
521.975	1401.25
522.19	886.25
522.406	239.25
522.621	100.25
522.836	98.25
523.052	102.25
523.267	92.25
523.482	87.25
523.698	85.25
523.913	100.25
524.128	99.25
524.343	82.25
524.559	77.25
524.774	92.25
524.989	102.25
525.204	91.25
525.419	100.25
525.634	103.25
525.849	91.25
526.064	77.25
526.28	107.25
526.495	78.25
526.71	81.25
526.925	81.25
527.14	98.25
527.355	90.25
527.57	100.25
527.785	93.25
527.999	81.25
528.214	101.25
528.429	109.25
528.644	92.25
528.859	104.25
529.074	93.25
529.289	98.25
529.503	135.25
529.718	89.25
529.933	88.25
530.148	100.25
530.363	91.25
530.577	89.25
530.792	79.25
531.007	86.25
531.221	90.25
531.436	80.25
531.651	94.25
531.865	96.25
532.08	88.25
532.295	83.25
532.509	98.25
532.724	105.25
532.938	93.25
533.153	78.25
533.367	100.25
533.582	103.25
533.796	84.25
534.011	95.25
534.225	109.25
534.44	91.25
534.654	89.25
534.868	98.25
535.083	105.25
535.297	95.25
535.511	82.25
535.726	96.25
535.94	98.25
536.154	84.25
536.369	87.25
536.583	90.25
536.797	87.25
537.011	98.25
537.225	95.25
537.44	95.25
537.654	104.25
537.868	93.25
538.082	84.25
538.296	107.25
538.51	87.25
538.724	72.25
538.938	97.25
539.153	94.25
539.367	80.25
539.581	96.25
539.795	90.25
540.009	92.25
540.222	98.25
540.436	102.25
540.65	77.25
540.864	90.25
541.078	75.25
541.292	96.25
541.506	92.25
541.72	92.25
541.934	88.25
542.147	99.25
542.361	81.25
542.575	97.25
542.789	91.25
543.002	97.25
543.216	87.25
543.43	84.25
543.644	98.25
543.857	98.25
544.071	86.25
544.285	94.25
544.498	97.25
544.712	87.25
544.925	99.25
545.139	88.25
545.352	78.25
545.566	90.25
545.779	91.25
545.993	84.25
546.206	75.25
546.42	91.25
546.633	91.25
546.847	103.25
547.06	94.25
547.274	92.25
547.487	89.25
547.7	96.25
547.914	87.25
548.127	84.25
548.34	78.25
548.554	66.25
548.767	90.25
548.98	88.25
549.193	80.25
549.407	92.25
549.62	94.25
549.833	96.25
550.046	87.25
550.259	85.25
550.473	88.25
550.686	86.25
550.899	94.25
551.112	94.25
551.325	89.25
551.538	91.25
551.751	96.25
551.964	82.25
552.177	87.25
552.39	75.25
552.603	90.25
552.816	99.25
553.029	82.25
553.242	104.25
553.455	91.25
553.667	98.25
553.88	96.25
554.093	87.25
554.306	99.25
554.519	90.25
554.732	88.25
554.944	98.25
555.157	90.25
555.37	94.25
555.583	101.25
555.795	97.25
556.008	96.25
556.221	102.25
556.433	95.25
556.646	100.25
556.859	89.25
557.071	87.25
557.284	86.25
557.496	83.25
557.709	88.25
557.921	91.25
558.134	97.25
558.346	98.25
558.559	91.25
558.771	103.25
558.984	89.25
559.196	86.25
559.409	82.25
559.621	98.25
559.833	84.25
560.046	99.25
560.258	96.25
560.47	90.25
560.683	91.25
560.895	72.25
561.107	95.25
561.32	89.25
561.532	94.25
561.744	88.25
561.956	79.25
562.168	102.25
562.381	99.25
562.593	85.25
562.805	82.25
563.017	88.25
563.229	99.25
563.441	104.25
563.653	78.25
563.865	92.25
564.077	93.25
564.289	103.25
564.501	102.25
564.713	91.25
564.925	99.25
565.137	90.25
565.349	93.25
565.561	89.25
565.773	79.25
565.985	96.25
566.197	82.25
566.408	77.25
566.62	84.25
566.832	84.25
567.044	78.25
567.255	91.25
567.467	94.25
567.679	86.25
567.891	90.25
568.102	90.25
568.314	96.25
568.526	88.25
568.737	85.25
568.949	83.25
569.161	85.25
569.372	90.25
569.584	94.25
569.795	102.25
570.007	105.25
570.218	174.25
570.43	131.25
570.641	107.25
570.853	101.25
571.064	98.25
571.276	92.25
571.487	80.25
571.698	80.25
571.91	78.25
572.121	81.25
572.333	84.25
572.544	77.25
572.755	85.25
572.966	96.25
573.178	92.25
573.389	90.25
573.6	83.25
573.811	82.25
574.023	88.25
574.234	82.25
574.445	91.25
574.656	102.25
574.867	96.25
575.078	97.25
575.289	72.25
575.501	93.25
575.712	99.25
575.923	84.25
576.134	88.25
576.345	98.25
576.556	87.25
576.767	77.25
576.978	96.25
577.188	84.25
577.399	108.25
577.61	96.25
577.821	86.25
578.032	91.25
578.243	234.25
578.454	541.25
578.665	190.25
578.875	105.25
579.086	94.25
579.297	91.25
579.508	84.25
579.718	85.25
579.929	93.25
580.14	88.25
580.35	80.25
580.561	91.25
580.772	90.25
580.982	92.25
581.193	93.25
581.403	86.25
581.614	87.25
581.825	84.25
582.035	92.25
582.246	93.25
582.456	84.25
582.667	98.25
582.877	82.25
583.087	87.25
583.298	94.25
583.508	87.25
583.719	76.25
583.929	97.25
584.139	97.25
584.35	95.25
584.56	90.25
584.77	85.25
584.981	82.25
585.191	78.25
585.401	64.25
585.611	93.25
585.821	88.25
586.032	91.25
586.242	84.25
586.452	94.25
586.662	87.25
586.872	82.25
587.082	102.25
587.292	87.25
587.502	93.25
587.713	82.25
587.923	88.25
588.133	71.25
588.343	87.25
588.553	98.25
588.762	90.25
588.972	95.25
589.182	114.25
589.392	102.25
589.602	88.25
589.812	90.25
590.022	94.25
590.232	91.25
590.441	93.25
590.651	89.25
590.861	78.25
591.071	104.25
591.281	82.25
591.49	84.25
591.7	100.25
591.91	89.25
592.119	75.25
592.329	70.25
592.539	82.25
592.748	90.25
592.958	84.25
593.167	88.25
593.377	90.25
593.587	96.25
593.796	66.25
594.006	89.25
594.215	95.25
594.424	76.25
594.634	90.25
594.843	82.25
595.053	87.25
595.262	102.25
595.472	87.25
595.681	78.25
595.89	81.25
596.1	96.25
596.309	83.25
596.518	98.25
596.727	88.25
596.937	89.25
597.146	93.25
597.355	86.25
597.564	82.25
597.774	88.25
597.983	78.25
598.192	79.25
598.401	88.25
598.61	87.25
598.819	95.25
599.028	97.25
599.237	93.25
599.446	88.25
599.655	78.25
599.864	84.25
600.073	77.25
600.282	84.25
600.491	88.25
600.7	84.25
600.909	86.25
601.118	93.25
601.327	86.25
601.536	91.25
601.745	72.25
601.953	87.25
602.162	88.25
602.371	93.25
602.58	88.25
602.789	80.25
602.997	92.25
603.206	90.25
603.415	88.25
603.623	91.25
603.832	77.25
604.041	86.25
604.249	90.25
604.458	80.25
604.666	82.25
604.875	92.25
605.084	81.25
605.292	96.25
605.501	87.25
605.709	92.25
605.918	99.25
606.126	71.25
606.334	81.25
606.543	78.25
606.751	77.25
606.96	96.25
607.168	93.25
607.376	93.25
607.585	90.25
607.793	91.25
608.001	97.25
608.21	84.25
608.418	86.25
608.626	99.25
608.834	76.25
609.043	76.25
609.251	92.25
609.459	83.25
609.667	84.25
609.875	80.25
610.083	83.25
610.291	94.25
610.499	84.25
610.707	86.25
610.916	83.25
611.124	96.25
611.332	82.25
611.54	90.25
611.748	90.25
611.955	76.25
612.163	89.25
612.371	95.25
612.579	87.25
612.787	92.25
612.995	104.25
613.203	77.25
613.411	85.25
613.618	93.25
613.826	87.25
614.034	86.25
614.242	93.25
614.449	83.25
614.657	92.25
614.865	107.25
615.072	72.25
615.28	75.25
615.488	94.25
615.695	83.25
615.903	99.25
616.111	118.25
616.318	108.25
616.526	90.25
616.733	94.25
616.941	77.25
617.148	103.25
617.356	87.25
617.563	87.25
617.771	84.25
617.978	93.25
618.185	86.25
618.393	91.25
618.6	95.25
618.807	88.25
619.015	91.25
619.222	87.25
619.429	92.25
619.637	92.25
619.844	103.25
620.051	86.25
620.258	91.25
620.466	95.25
620.673	90.25
620.88	88.25
621.087	105.25
621.294	84.25
621.501	75.25
621.708	89.25
621.915	81.25
622.122	89.25
622.329	82.25
622.536	76.25
622.743	75.25
622.95	98.25
623.157	90.25
623.364	100.25
623.571	93.25
623.778	77.25
623.985	69.25
624.192	83.25
624.399	72.25
624.606	95.25
624.812	79.25
625.019	94.25
625.226	77.25
625.433	78.25
625.639	90.25
625.846	84.25
626.053	98.25
626.259	97.25
626.466	87.25
626.673	103.25
626.879	102.25
627.086	95.25
627.293	81.25
627.499	86.25
627.706	82.25
627.912	94.25
628.119	83.25
628.325	87.25
628.532	100.25
628.738	84.25
628.945	75.25
629.151	79.25
629.357	82.25
629.564	71.25
629.77	95.25
629.976	81.25
630.183	86.25
630.389	84.25
630.595	89.25
630.802	76.25
631.008	89.25
631.214	94.25
631.42	97.25
631.627	92.25
631.833	87.25
632.039	83.25
632.245	83.25
632.451	96.25
632.657	88.25
632.863	84.25
633.069	79.25
633.275	96.25
633.481	86.25
633.688	95.25
633.893	90.25
634.099	90.25
634.305	93.25
634.511	84.25
634.717	87.25
634.923	95.25
635.129	79.25
635.335	93.25
635.541	96.25
635.747	83.25
635.952	82.25
636.158	74.25
636.364	85.25
636.57	93.25
636.775	87.25
636.981	84.25
637.187	90.25
637.392	92.25
637.598	83.25
637.804	93.25
638.009	70.25
638.215	75.25
638.421	79.25
638.626	90.25
638.832	99.25
639.037	89.25
639.243	81.25
639.448	100.25
639.654	83.25
639.859	93.25
640.065	80.25
640.27	88.25
640.475	73.25
640.681	107.25
640.886	81.25
641.091	98.25
641.297	81.25
641.502	103.25
641.707	87.25
641.913	82.25
642.118	76.25
642.323	72.25
642.528	92.25
642.733	89.25
642.939	80.25
643.144	83.25
643.349	89.25
643.554	91.25
643.759	85.25
643.964	89.25
644.169	79.25
644.374	77.25
644.579	81.25
644.784	83.25
644.989	83.25
645.194	91.25
645.399	95.25
645.604	87.25
645.809	100.25
646.014	96.25
646.219	87.25
646.423	100.25
646.628	79.25
646.833	91.25
647.038	93.25
647.243	78.25
647.447	91.25
647.652	72.25
647.857	83.25
648.062	71.25
648.266	79.25
648.471	95.25
648.676	105.25
648.88	96.25
649.085	92.25
649.289	88.25
649.494	82.25
649.698	127.25
649.903	99.25
650.107	91.25
650.312	101.25
650.516	70.25
650.721	95.25
650.925	83.25
651.13	88.25
651.334	78.25
651.539	92.25
651.743	84.25
651.947	89.25
652.152	78.25
652.356	83.25
652.56	84.25
652.764	96.25
652.969	87.25
653.173	86.25
653.377	83.25
653.581	84.25
653.785	83.25
653.99	73.25
654.194	83.25
654.398	81.25
654.602	79.25
654.806	71.25
655.01	97.25
655.214	90.25
655.418	82.25
655.622	84.25
655.826	82.25
656.03	104.25
656.234	104.25
656.438	83.25
656.642	75.25
656.846	86.25
657.049	98.25
657.253	83.25
657.457	86.25
657.661	82.25
657.865	82.25
658.068	79.25
658.272	88.25
658.476	88.25
658.68	87.25
658.883	81.25
659.087	94.25
659.291	69.25
659.494	85.25
659.698	80.25
659.901	83.25
660.105	77.25
660.309	81.25
660.512	92.25
660.716	80.25
660.919	67.25
661.123	89.25
661.326	89.25
661.53	85.25
661.733	87.25
661.936	77.25
662.14	79.25
662.343	92.25
662.546	81.25
662.75	92.25
662.953	81.25
663.156	77.25
663.36	80.25
663.563	82.25
663.766	64.25
663.969	84.25
664.173	88.25
664.376	71.25
664.579	89.25
664.782	81.25
664.985	83.25
665.188	73.25
665.391	83.25
665.594	72.25
665.797	90.25
666	79.25
666.203	76.25
666.406	81.25
666.609	76.25
666.812	76.25
667.015	98.25
667.218	86.25
667.421	76.25
667.624	102.25
667.827	87.25
668.03	73.25
668.232	72.25
668.435	85.25
668.638	90.25
668.841	90.25
669.043	76.25
669.246	75.25
669.449	84.25
669.651	75.25
669.854	79.25
670.057	75.25
670.259	82.25
670.462	75.25
670.665	78.25
670.867	81.25
671.07	83.25
671.272	76.25
671.475	91.25
671.677	89.25
671.88	85.25
672.082	76.25
672.284	84.25
672.487	71.25
672.689	76.25
672.892	67.25
