Data from Uncirc_2009_H10_HRD10591_00037.txt Node
Date: Wed Jan 03 10:12:09 EST 2024
User: Yrep
Spectrometer: HR+D1059
Trigger mode: 1
Integration Time (sec): 1.000000E-1
Scans to average: 1
Electric dark correction enabled: true
Nonlinearity correction enabled: false
Boxcar width: 0
XAxis mode: Wavelengths
Number of Pixels in Spectrum: 2048
>>>>>Begin Spectral Data<<<<<
223.165	1.31
223.4	1.31
223.635	1.31
223.869	-12.69
224.104	-33.69
224.338	-20.69
224.573	-12.69
224.808	-26.69
225.042	1.31
225.277	-2.69
225.511	1.31
225.746	4.31
225.98	0.31
226.215	2.31
226.449	11.31
226.683	34.31
226.918	32.31
227.152	20.31
227.387	34.31
227.621	60.31
227.856	39.31
228.09	45.31
228.324	51.31
228.559	55.31
228.793	51.31
229.027	73.31
229.262	63.31
229.496	55.31
229.73	92.31
229.964	79.31
230.199	57.31
230.433	71.31
230.667	90.31
230.901	69.31
231.136	84.31
231.37	79.31
231.604	83.31
231.838	72.31
232.072	87.31
232.306	97.31
232.541	98.31
232.775	74.31
233.009	81.31
233.243	75.31
233.477	76.31
233.711	99.31
233.945	76.31
234.179	73.31
234.413	89.31
234.647	81.31
234.881	81.31
235.115	81.31
235.349	83.31
235.583	90.31
235.817	81.31
236.051	85.31
236.285	83.31
236.519	66.31
236.753	94.31
236.987	87.31
237.221	80.31
237.455	79.31
237.689	70.31
237.922	86.31
238.156	80.31
238.39	74.31
238.624	64.31
238.858	84.31
239.091	93.31
239.325	85.31
239.559	82.31
239.793	78.31
240.027	79.31
240.26	67.31
240.494	77.31
240.728	76.31
240.961	85.31
241.195	91.31
241.429	73.31
241.662	84.31
241.896	76.31
242.13	78.31
242.363	64.31
242.597	94.31
242.83	82.31
243.064	98.31
243.298	83.31
243.531	85.31
243.765	69.31
243.998	82.31
244.232	73.31
244.465	85.31
244.699	85.31
244.932	92.31
245.166	84.31
245.399	76.31
245.633	77.31
245.866	64.31
246.099	79.31
246.333	73.31
246.566	69.31
246.8	94.31
247.033	91.31
247.266	78.31
247.5	92.31
247.733	91.31
247.966	75.31
248.2	88.31
248.433	78.31
248.666	67.31
248.899	73.31
249.133	87.31
249.366	104.31
249.599	89.31
249.832	93.31
250.066	85.31
250.299	75.31
250.532	100.31
250.765	78.31
250.998	80.31
251.231	81.31
251.465	83.31
251.698	96.31
251.931	85.31
252.164	75.31
252.397	86.31
252.63	92.31
252.863	88.31
253.096	79.31
253.329	83.31
253.562	88.31
253.795	84.31
254.028	84.31
254.261	88.31
254.494	87.31
254.727	80.31
254.96	89.31
255.193	76.31
255.426	92.31
255.659	83.31
255.892	86.31
256.124	83.31
256.357	87.31
256.59	89.31
256.823	89.31
257.056	87.31
257.289	83.31
257.521	82.31
257.754	82.31
257.987	82.31
258.22	90.31
258.452	61.31
258.685	83.31
258.918	75.31
259.151	88.31
259.383	93.31
259.616	95.31
259.849	85.31
260.081	76.31
260.314	83.31
260.547	89.31
260.779	92.31
261.012	80.31
261.244	89.31
261.477	93.31
261.71	92.31
261.942	98.31
262.175	107.31
262.407	94.31
262.64	84.31
262.872	79.31
263.105	77.31
263.337	90.31
263.57	88.31
263.802	83.31
264.035	81.31
264.267	80.31
264.499	72.31
264.732	81.31
264.964	83.31
265.197	86.31
265.429	84.31
265.661	83.31
265.894	88.31
266.126	89.31
266.358	96.31
266.591	84.31
266.823	84.31
267.055	98.31
267.287	83.31
267.52	83.31
267.752	91.31
267.984	81.31
268.216	84.31
268.448	96.31
268.681	82.31
268.913	77.31
269.145	84.31
269.377	87.31
269.609	79.31
269.841	84.31
270.073	81.31
270.306	93.31
270.538	67.31
270.77	77.31
271.002	97.31
271.234	85.31
271.466	79.31
271.698	81.31
271.93	98.31
272.162	101.31
272.394	80.31
272.626	87.31
272.858	100.31
273.09	93.31
273.322	81.31
273.553	108.31
273.785	94.31
274.017	94.31
274.249	85.31
274.481	78.31
274.713	81.31
274.945	85.31
275.176	85.31
275.408	87.31
275.64	94.31
275.872	79.31
276.104	92.31
276.335	92.31
276.567	94.31
276.799	103.31
277.031	89.31
277.262	78.31
277.494	80.31
277.726	99.31
277.957	89.31
278.189	77.31
278.421	74.31
278.652	95.31
278.884	88.31
279.115	95.31
279.347	90.31
279.579	98.31
279.81	85.31
280.042	103.31
280.273	66.31
280.505	98.31
280.736	62.31
280.968	84.31
281.199	81.31
281.431	87.31
281.662	83.31
281.894	92.31
282.125	89.31
282.356	107.31
282.588	102.31
282.819	98.31
283.051	80.31
283.282	84.31
283.513	88.31
283.745	92.31
283.976	95.31
284.207	101.31
284.439	85.31
284.67	104.31
284.901	101.31
285.132	104.31
285.364	77.31
285.595	105.31
285.826	84.31
286.057	91.31
286.288	92.31
286.52	93.31
286.751	96.31
286.982	85.31
287.213	82.31
287.444	99.31
287.675	94.31
287.906	96.31
288.138	81.31
288.369	75.31
288.6	85.31
288.831	92.31
289.062	100.31
289.293	78.31
289.524	87.31
289.755	100.31
289.986	92.31
290.217	97.31
290.448	93.31
290.679	80.31
290.91	92.31
291.141	77.31
291.371	95.31
291.602	80.31
291.833	80.31
292.064	105.31
292.295	88.31
292.526	99.31
292.757	80.31
292.987	88.31
293.218	77.31
293.449	88.31
293.68	95.31
293.91	92.31
294.141	91.31
294.372	88.31
294.603	86.31
294.833	100.31
295.064	85.31
295.295	97.31
295.525	93.31
295.756	96.31
295.987	101.31
296.217	125.31
296.448	107.31
296.679	93.31
296.909	84.31
297.14	88.31
297.37	92.31
297.601	77.31
297.831	93.31
298.062	83.31
298.292	82.31
298.523	98.31
298.753	75.31
298.984	98.31
299.214	92.31
299.445	101.31
299.675	80.31
299.905	94.31
300.136	75.31
300.366	85.31
300.597	93.31
300.827	104.31
301.057	104.31
301.288	107.31
301.518	90.31
301.748	101.31
301.979	95.31
302.209	103.31
302.439	92.31
302.669	90.31
302.9	89.31
303.13	98.31
303.36	89.31
303.59	104.31
303.82	100.31
304.051	89.31
304.281	88.31
304.511	79.31
304.741	82.31
304.971	78.31
305.201	96.31
305.431	98.31
305.661	88.31
305.891	98.31
306.121	85.31
306.352	100.31
306.582	101.31
306.812	103.31
307.042	88.31
307.272	85.31
307.502	104.31
307.731	100.31
307.961	110.31
308.191	98.31
308.421	85.31
308.651	93.31
308.881	106.31
309.111	111.31
309.341	91.31
309.571	100.31
309.8	81.31
310.03	72.31
310.26	91.31
310.49	105.31
310.72	95.31
310.949	104.31
311.179	110.31
311.409	80.31
311.639	85.31
311.868	89.31
312.098	94.31
312.328	96.31
312.557	97.31
312.787	91.31
313.017	97.31
313.246	98.31
313.476	80.31
313.706	85.31
313.935	99.31
314.165	82.31
314.394	99.31
314.624	96.31
314.853	99.31
315.083	94.31
315.312	99.31
315.542	110.31
315.771	90.31
316.001	108.31
316.23	95.31
316.46	82.31
316.689	80.31
316.919	97.31
317.148	103.31
317.377	100.31
317.607	112.31
317.836	105.31
318.065	85.31
318.295	97.31
318.524	89.31
318.753	107.31
318.983	104.31
319.212	111.31
319.441	98.31
319.67	99.31
319.9	73.31
320.129	81.31
320.358	99.31
320.587	91.31
320.816	104.31
321.046	106.31
321.275	94.31
321.504	107.31
321.733	100.31
321.962	92.31
322.191	98.31
322.42	99.31
322.649	108.31
322.878	91.31
323.108	121.31
323.337	110.31
323.566	115.31
323.795	134.31
324.024	168.31
324.253	306.31
324.482	633.31
324.71	1298.31
324.939	1655.31
325.168	613.31
325.397	184.31
325.626	116.31
325.855	106.31
326.084	112.31
326.313	131.31
326.542	163.31
326.77	204.31
326.999	373.31
327.228	728.31
327.457	1293.31
327.686	1041.31
327.914	298.31
328.143	159.31
328.372	119.31
328.6	111.31
328.829	113.31
329.058	107.31
329.287	122.31
329.515	98.31
329.744	93.31
329.972	110.31
330.201	92.31
330.43	116.31
330.658	111.31
330.887	127.31
331.115	127.31
331.344	88.31
331.572	96.31
331.801	97.31
332.03	103.31
332.258	98.31
332.486	84.31
332.715	85.31
332.943	95.31
333.172	92.31
333.4	98.31
333.629	90.31
333.857	110.31
334.085	110.31
334.314	106.31
334.542	123.31
334.771	123.31
334.999	98.31
335.227	94.31
335.455	90.31
335.684	80.31
335.912	93.31
336.14	89.31
336.369	99.31
336.597	100.31
336.825	90.31
337.053	104.31
337.281	102.31
337.51	85.31
337.738	85.31
337.966	94.31
338.194	91.31
338.422	106.31
338.65	82.31
338.878	85.31
339.106	85.31
339.334	88.31
339.562	87.31
339.79	86.31
340.018	80.31
340.246	95.31
340.474	92.31
340.702	93.31
340.93	81.31
341.158	79.31
341.386	107.31
341.614	88.31
341.842	81.31
342.07	99.31
342.298	83.31
342.526	84.31
342.754	72.31
342.981	84.31
343.209	91.31
343.437	114.31
343.665	99.31
343.893	92.31
344.12	100.31
344.348	101.31
344.576	91.31
344.804	96.31
345.031	99.31
345.259	92.31
345.487	80.31
345.714	97.31
345.942	102.31
346.17	94.31
346.397	89.31
346.625	89.31
346.853	99.31
347.08	90.31
347.308	106.31
347.535	93.31
347.763	108.31
347.99	107.31
348.218	117.31
348.445	106.31
348.673	97.31
348.9	97.31
349.128	87.31
349.355	88.31
349.583	88.31
349.81	88.31
350.037	104.31
350.265	98.31
350.492	117.31
350.72	104.31
350.947	112.31
351.174	100.31
351.402	103.31
351.629	100.31
351.856	96.31
352.083	101.31
352.311	115.31
352.538	95.31
352.765	104.31
352.992	105.31
353.22	107.31
353.447	96.31
353.674	103.31
353.901	99.31
354.128	99.31
354.355	105.31
354.583	98.31
354.81	85.31
355.037	94.31
355.264	90.31
355.491	108.31
355.718	95.31
355.945	90.31
356.172	92.31
356.399	97.31
356.626	99.31
356.853	91.31
357.08	84.31
357.307	99.31
357.534	92.31
357.761	92.31
357.988	114.31
358.215	96.31
358.441	101.31
358.668	99.31
358.895	99.31
359.122	94.31
359.349	84.31
359.576	102.31
359.802	95.31
360.029	101.31
360.256	104.31
360.483	98.31
360.709	99.31
360.936	100.31
361.163	88.31
361.39	86.31
361.616	83.31
361.843	98.31
362.07	102.31
362.296	86.31
362.523	90.31
362.749	83.31
362.976	88.31
363.203	91.31
363.429	87.31
363.656	100.31
363.882	89.31
364.109	97.31
364.335	90.31
364.562	105.31
364.788	99.31
365.015	104.31
365.241	89.31
365.468	102.31
365.694	96.31
365.92	77.31
366.147	85.31
366.373	87.31
366.599	92.31
366.826	90.31
367.052	97.31
367.278	96.31
367.505	90.31
367.731	100.31
367.957	88.31
368.184	105.31
368.41	90.31
368.636	105.31
368.862	105.31
369.089	100.31
369.315	101.31
369.541	106.31
369.767	100.31
369.993	92.31
370.219	94.31
370.445	98.31
370.672	97.31
370.898	87.31
371.124	89.31
371.35	84.31
371.576	86.31
371.802	92.31
372.028	71.31
372.254	85.31
372.48	78.31
372.706	84.31
372.932	94.31
373.158	80.31
373.384	84.31
373.61	92.31
373.835	100.31
374.061	92.31
374.287	88.31
374.513	95.31
374.739	85.31
374.965	86.31
375.191	83.31
375.416	85.31
375.642	99.31
375.868	88.31
376.094	104.31
376.319	95.31
376.545	102.31
376.771	91.31
376.997	92.31
377.222	81.31
377.448	107.31
377.674	90.31
377.899	93.31
378.125	93.31
378.35	101.31
378.576	79.31
378.802	80.31
379.027	92.31
379.253	90.31
379.478	106.31
379.704	100.31
379.929	97.31
380.155	98.31
380.38	96.31
380.606	98.31
380.831	92.31
381.057	97.31
381.282	96.31
381.507	100.31
381.733	104.31
381.958	92.31
382.184	106.31
382.409	91.31
382.634	96.31
382.86	101.31
383.085	101.31
383.31	99.31
383.535	91.31
383.761	122.31
383.986	80.31
384.211	96.31
384.436	91.31
384.662	91.31
384.887	96.31
385.112	112.31
385.337	99.31
385.562	109.31
385.787	121.31
386.013	115.31
386.238	111.31
386.463	114.31
386.688	114.31
386.913	101.31
387.138	123.31
387.363	108.31
387.588	110.31
387.813	97.31
388.038	111.31
388.263	108.31
388.488	104.31
388.713	103.31
388.938	105.31
389.163	119.31
389.387	108.31
389.612	93.31
389.837	106.31
390.062	98.31
390.287	99.31
390.512	93.31
390.736	91.31
390.961	99.31
391.186	89.31
391.411	114.31
391.636	96.31
391.86	80.31
392.085	97.31
392.31	76.31
392.534	75.31
392.759	88.31
392.984	92.31
393.208	79.31
393.433	79.31
393.658	82.31
393.882	75.31
394.107	81.31
394.331	96.31
394.556	98.31
394.78	85.31
395.005	86.31
395.229	92.31
395.454	96.31
395.678	85.31
395.903	88.31
396.127	95.31
396.352	87.31
396.576	104.31
396.801	92.31
397.025	100.31
397.249	89.31
397.474	97.31
397.698	91.31
397.922	71.31
398.147	81.31
398.371	86.31
398.595	96.31
398.82	90.31
399.044	88.31
399.268	90.31
399.492	86.31
399.717	88.31
399.941	88.31
400.165	106.31
400.389	91.31
400.613	96.31
400.837	92.31
401.062	100.31
401.286	96.31
401.51	99.31
401.734	91.31
401.958	90.31
402.182	114.31
402.406	120.31
402.63	103.31
402.854	99.31
403.078	85.31
403.302	81.31
403.526	92.31
403.75	83.31
403.974	88.31
404.198	78.31
404.422	83.31
404.645	83.31
404.869	92.31
405.093	100.31
405.317	105.31
405.541	90.31
405.765	80.31
405.988	117.31
406.212	134.31
406.436	180.31
406.66	116.31
406.883	100.31
407.107	105.31
407.331	108.31
407.555	88.31
407.778	96.31
408.002	72.31
408.226	78.31
408.449	89.31
408.673	94.31
408.896	101.31
409.12	89.31
409.344	85.31
409.567	105.31
409.791	85.31
410.014	109.31
410.238	95.31
410.461	101.31
410.685	84.31
410.908	102.31
411.132	107.31
411.355	107.31
411.578	91.31
411.802	100.31
412.025	85.31
412.249	89.31
412.472	94.31
412.695	98.31
412.919	94.31
413.142	107.31
413.365	101.31
413.589	95.31
413.812	89.31
414.035	103.31
414.258	82.31
414.482	93.31
414.705	85.31
414.928	91.31
415.151	91.31
415.374	80.31
415.597	85.31
415.821	87.31
416.044	102.31
416.267	101.31
416.49	91.31
416.713	85.31
416.936	81.31
417.159	92.31
417.382	88.31
417.605	92.31
417.828	88.31
418.051	91.31
418.274	89.31
418.497	92.31
418.72	88.31
418.943	95.31
419.166	96.31
419.389	91.31
419.611	87.31
419.834	82.31
420.057	83.31
420.28	95.31
420.503	89.31
420.726	89.31
420.948	96.31
421.171	102.31
421.394	84.31
421.617	96.31
421.839	85.31
422.062	87.31
422.285	113.31
422.507	98.31
422.73	98.31
422.953	95.31
423.175	80.31
423.398	88.31
423.621	93.31
423.843	89.31
424.066	81.31
424.288	93.31
424.511	96.31
424.733	91.31
424.956	96.31
425.178	92.31
425.401	99.31
425.623	100.31
425.846	101.31
426.068	106.31
426.291	97.31
426.513	101.31
426.735	104.31
426.958	85.31
427.18	97.31
427.402	131.31
427.625	130.31
427.847	126.31
428.069	106.31
428.292	69.31
428.514	90.31
428.736	92.31
428.958	79.31
429.181	85.31
429.403	80.31
429.625	81.31
429.847	100.31
430.069	104.31
430.292	95.31
430.514	87.31
430.736	99.31
430.958	72.31
431.18	93.31
431.402	98.31
431.624	98.31
431.846	97.31
432.068	92.31
432.29	88.31
432.512	85.31
432.734	81.31
432.956	95.31
433.178	88.31
433.4	89.31
433.622	98.31
433.844	96.31
434.066	107.31
434.287	101.31
434.509	96.31
434.731	84.31
434.953	87.31
435.175	95.31
435.397	93.31
435.618	91.31
435.84	95.31
436.062	108.31
436.284	96.31
436.505	87.31
436.727	88.31
436.949	83.31
437.17	87.31
437.392	92.31
437.614	90.31
437.835	85.31
438.057	109.31
438.278	93.31
438.5	97.31
438.721	116.31
438.943	97.31
439.165	95.31
439.386	87.31
439.608	92.31
439.829	91.31
440.05	124.31
440.272	120.31
440.493	99.31
440.715	92.31
440.936	98.31
441.158	95.31
441.379	91.31
441.6	90.31
441.822	96.31
442.043	84.31
442.264	89.31
442.486	100.31
442.707	79.31
442.928	108.31
443.149	99.31
443.371	106.31
443.592	95.31
443.813	109.31
444.034	108.31
444.255	113.31
444.476	90.31
444.698	90.31
444.919	101.31
445.14	145.31
445.361	116.31
445.582	91.31
445.803	123.31
446.024	116.31
446.245	125.31
446.466	105.31
446.687	98.31
446.908	100.31
447.129	89.31
447.35	89.31
447.571	85.31
447.792	91.31
448.013	94.31
448.234	96.31
448.455	87.31
448.675	109.31
448.896	110.31
449.117	106.31
449.338	101.31
449.559	111.31
449.779	116.31
450	93.31
450.221	82.31
450.442	97.31
450.662	91.31
450.883	98.31
451.104	113.31
451.324	93.31
451.545	85.31
451.766	67.31
451.986	79.31
452.207	95.31
452.428	79.31
452.648	90.31
452.869	114.31
453.089	101.31
453.31	110.31
453.53	85.31
453.751	95.31
453.971	114.31
454.192	106.31
454.412	100.31
454.633	95.31
454.853	82.31
455.073	81.31
455.294	73.31
455.514	89.31
455.734	88.31
455.955	80.31
456.175	102.31
456.395	85.31
456.616	88.31
456.836	95.31
457.056	107.31
457.276	91.31
457.497	81.31
457.717	91.31
457.937	73.31
458.157	97.31
458.377	83.31
458.598	91.31
458.818	119.31
459.038	116.31
459.258	99.31
459.478	84.31
459.698	89.31
459.918	91.31
460.138	96.31
460.358	93.31
460.578	84.31
460.798	93.31
461.018	84.31
461.238	92.31
461.458	76.31
461.678	96.31
461.898	83.31
462.118	84.31
462.338	97.31
462.558	97.31
462.777	77.31
462.997	93.31
463.217	77.31
463.437	90.31
463.657	92.31
463.876	108.31
464.096	91.31
464.316	106.31
464.536	85.31
464.755	87.31
464.975	99.31
465.195	132.31
465.414	129.31
465.634	99.31
465.854	95.31
466.073	98.31
466.293	90.31
466.512	100.31
466.732	79.31
466.951	85.31
467.171	89.31
467.391	94.31
467.61	100.31
467.829	98.31
468.049	97.31
468.268	93.31
468.488	95.31
468.707	72.31
468.927	88.31
469.146	82.31
469.365	91.31
469.585	92.31
469.804	83.31
470.023	93.31
470.243	95.31
470.462	79.31
470.681	93.31
470.901	86.31
471.12	97.31
471.339	86.31
471.558	98.31
471.777	98.31
471.997	103.31
472.216	106.31
472.435	119.31
472.654	94.31
472.873	92.31
473.092	92.31
473.311	98.31
473.53	100.31
473.749	100.31
473.968	108.31
474.187	97.31
474.406	85.31
474.625	104.31
474.844	84.31
475.063	76.31
475.282	85.31
475.501	76.31
475.72	93.31
475.939	93.31
476.158	109.31
476.377	89.31
476.596	89.31
476.814	73.31
477.033	97.31
477.252	93.31
477.471	91.31
477.69	103.31
477.908	101.31
478.127	102.31
478.346	91.31
478.564	87.31
478.783	97.31
479.002	111.31
479.22	110.31
479.439	83.31
479.658	111.31
479.876	94.31
480.095	106.31
480.313	86.31
480.532	100.31
480.751	98.31
480.969	105.31
481.188	150.31
481.406	129.31
481.624	107.31
481.843	106.31
482.061	91.31
482.28	81.31
482.498	88.31
482.717	95.31
482.935	82.31
483.153	84.31
483.372	95.31
483.59	95.31
483.808	94.31
484.027	89.31
484.245	88.31
484.463	99.31
484.681	86.31
484.9	94.31
485.118	99.31
485.336	89.31
485.554	92.31
485.772	100.31
485.99	100.31
486.209	106.31
486.427	88.31
486.645	108.31
486.863	100.31
487.081	101.31
487.299	102.31
487.517	90.31
487.735	84.31
487.953	96.31
488.171	80.31
488.389	79.31
488.607	98.31
488.825	90.31
489.043	88.31
489.261	85.31
489.479	84.31
489.696	88.31
489.914	87.31
490.132	81.31
490.35	92.31
490.568	96.31
490.786	86.31
491.003	94.31
491.221	87.31
491.439	95.31
491.657	92.31
491.874	109.31
492.092	111.31
492.31	84.31
492.527	102.31
492.745	101.31
492.963	82.31
493.18	96.31
493.398	80.31
493.615	98.31
493.833	97.31
494.05	91.31
494.268	100.31
494.485	100.31
494.703	101.31
494.92	92.31
495.138	94.31
495.355	101.31
495.573	91.31
495.79	95.31
496.008	95.31
496.225	93.31
496.442	91.31
496.66	92.31
496.877	93.31
497.094	96.31
497.312	86.31
497.529	90.31
497.746	98.31
497.963	84.31
498.181	80.31
498.398	100.31
498.615	106.31
498.832	98.31
499.049	99.31
499.267	93.31
499.484	88.31
499.701	106.31
499.918	102.31
500.135	93.31
500.352	88.31
500.569	108.31
500.786	91.31
501.003	99.31
501.22	86.31
501.437	107.31
501.654	102.31
501.871	97.31
502.088	76.31
502.305	97.31
502.522	91.31
502.739	105.31
502.956	95.31
503.172	99.31
503.389	89.31
503.606	102.31
503.823	94.31
504.04	95.31
504.256	88.31
504.473	104.31
504.69	103.31
504.907	89.31
505.123	83.31
505.34	82.31
505.557	98.31
505.773	105.31
505.99	80.31
506.207	84.31
506.423	102.31
506.64	85.31
506.856	93.31
507.073	84.31
507.289	100.31
507.506	99.31
507.722	100.31
507.939	105.31
508.155	80.31
508.372	95.31
508.588	95.31
508.805	84.31
509.021	83.31
509.238	98.31
509.454	108.31
509.67	95.31
509.887	98.31
510.103	133.31
510.319	172.31
510.536	516.31
510.752	1502.31
510.968	451.31
511.184	139.31
511.401	115.31
511.617	99.31
511.833	98.31
512.049	87.31
512.265	95.31
512.481	109.31
512.698	104.31
512.914	85.31
513.13	87.31
513.346	84.31
513.562	107.31
513.778	107.31
513.994	82.31
514.21	89.31
514.426	96.31
514.642	116.31
514.858	103.31
515.074	147.31
515.29	304.31
515.506	872.31
515.721	354.31
515.937	139.31
516.153	84.31
516.369	99.31
516.585	102.31
516.801	81.31
517.016	95.31
517.232	93.31
517.448	98.31
517.664	99.31
517.879	83.31
518.095	95.31
518.311	90.31
518.527	103.31
518.742	90.31
518.958	91.31
519.173	98.31
519.389	91.31
519.605	93.31
519.82	88.31
520.036	99.31
520.251	116.31
520.467	89.31
520.682	111.31
520.898	91.31
521.113	99.31
521.329	133.31
521.544	153.31
521.76	338.31
521.975	1435.31
522.19	889.31
522.406	236.31
522.621	119.31
522.836	94.31
523.052	86.31
523.267	95.31
523.482	91.31
523.698	98.31
523.913	112.31
524.128	113.31
524.343	94.31
524.559	85.31
524.774	93.31
524.989	82.31
525.204	103.31
525.419	83.31
525.634	100.31
525.849	95.31
526.064	102.31
526.28	94.31
526.495	95.31
526.71	97.31
526.925	95.31
527.14	99.31
527.355	90.31
527.57	91.31
527.785	89.31
527.999	91.31
528.214	98.31
528.429	91.31
528.644	88.31
528.859	88.31
529.074	99.31
529.289	110.31
529.503	149.31
529.718	102.31
529.933	99.31
530.148	100.31
530.363	96.31
530.577	92.31
530.792	106.31
531.007	101.31
531.221	108.31
531.436	85.31
531.651	83.31
531.865	96.31
532.08	90.31
532.295	106.31
532.509	107.31
532.724	90.31
532.938	96.31
533.153	96.31
533.367	93.31
533.582	104.31
533.796	94.31
534.011	74.31
534.225	84.31
534.44	95.31
534.654	93.31
534.868	98.31
535.083	99.31
535.297	85.31
535.511	86.31
535.726	86.31
535.94	112.31
536.154	98.31
536.369	99.31
536.583	99.31
536.797	90.31
537.011	89.31
537.225	91.31
537.44	91.31
537.654	88.31
537.868	85.31
538.082	80.31
538.296	96.31
538.51	90.31
538.724	95.31
538.938	86.31
539.153	88.31
539.367	89.31
539.581	97.31
539.795	88.31
540.009	99.31
540.222	96.31
540.436	97.31
540.65	95.31
540.864	105.31
541.078	109.31
541.292	89.31
541.506	92.31
541.72	103.31
541.934	80.31
542.147	99.31
542.361	85.31
542.575	92.31
542.789	82.31
543.002	88.31
543.216	85.31
543.43	86.31
543.644	92.31
543.857	91.31
544.071	77.31
544.285	92.31
544.498	92.31
544.712	95.31
544.925	90.31
545.139	87.31
545.352	86.31
545.566	93.31
545.779	98.31
545.993	91.31
546.206	85.31
546.42	85.31
546.633	95.31
546.847	75.31
547.06	94.31
547.274	96.31
547.487	100.31
547.7	102.31
547.914	89.31
548.127	88.31
548.34	81.31
548.554	95.31
548.767	81.31
548.98	92.31
549.193	88.31
549.407	89.31
549.62	81.31
549.833	91.31
550.046	93.31
550.259	104.31
550.473	96.31
550.686	96.31
550.899	104.31
551.112	88.31
551.325	93.31
551.538	83.31
551.751	95.31
551.964	94.31
552.177	71.31
552.39	97.31
552.603	97.31
552.816	94.31
553.029	98.31
553.242	96.31
553.455	88.31
553.667	100.31
553.88	103.31
554.093	95.31
554.306	98.31
554.519	106.31
554.732	87.31
554.944	89.31
555.157	92.31
555.37	101.31
555.583	90.31
555.795	98.31
556.008	91.31
556.221	95.31
556.433	100.31
556.646	111.31
556.859	88.31
557.071	95.31
557.284	103.31
557.496	89.31
557.709	103.31
557.921	101.31
558.134	100.31
558.346	90.31
558.559	85.31
558.771	87.31
558.984	95.31
559.196	108.31
559.409	102.31
559.621	95.31
559.833	91.31
560.046	95.31
560.258	95.31
560.47	98.31
560.683	87.31
560.895	84.31
561.107	79.31
561.32	93.31
561.532	85.31
561.744	89.31
561.956	95.31
562.168	98.31
562.381	98.31
562.593	109.31
562.805	93.31
563.017	96.31
563.229	105.31
563.441	87.31
563.653	100.31
563.865	93.31
564.077	90.31
564.289	87.31
564.501	101.31
564.713	96.31
564.925	86.31
565.137	102.31
565.349	101.31
565.561	84.31
565.773	86.31
565.985	96.31
566.197	92.31
566.408	84.31
566.62	91.31
566.832	90.31
567.044	82.31
567.255	76.31
567.467	85.31
567.679	81.31
567.891	84.31
568.102	80.31
568.314	84.31
568.526	80.31
568.737	95.31
568.949	103.31
569.161	89.31
569.372	85.31
569.584	98.31
569.795	92.31
570.007	107.31
570.218	198.31
570.43	125.31
570.641	85.31
570.853	94.31
571.064	93.31
571.276	96.31
571.487	92.31
571.698	89.31
571.91	93.31
572.121	93.31
572.333	85.31
572.544	80.31
572.755	91.31
572.966	90.31
573.178	85.31
573.389	81.31
573.6	95.31
573.811	85.31
574.023	87.31
574.234	81.31
574.445	95.31
574.656	81.31
574.867	85.31
575.078	88.31
575.289	101.31
575.501	88.31
575.712	83.31
575.923	98.31
576.134	92.31
576.345	83.31
576.556	95.31
576.767	98.31
576.978	97.31
577.188	88.31
577.399	98.31
577.61	78.31
577.821	95.31
578.032	104.31
578.243	203.31
578.454	545.31
578.665	178.31
578.875	103.31
579.086	89.31
579.297	95.31
579.508	100.31
579.718	69.31
579.929	88.31
580.14	88.31
580.35	83.31
580.561	98.31
580.772	92.31
580.982	98.31
581.193	88.31
581.403	79.31
581.614	80.31
581.825	96.31
582.035	86.31
582.246	90.31
582.456	84.31
582.667	87.31
582.877	86.31
583.087	96.31
583.298	93.31
583.508	80.31
583.719	91.31
583.929	85.31
584.139	91.31
584.35	82.31
584.56	101.31
584.77	88.31
584.981	88.31
585.191	84.31
585.401	69.31
585.611	89.31
585.821	87.31
586.032	82.31
586.242	78.31
586.452	90.31
586.662	83.31
586.872	93.31
587.082	98.31
587.292	82.31
587.502	107.31
587.713	90.31
587.923	91.31
588.133	75.31
588.343	81.31
588.553	97.31
588.762	83.31
588.972	87.31
589.182	98.31
589.392	79.31
589.602	92.31
589.812	96.31
590.022	92.31
590.232	87.31
590.441	76.31
590.651	80.31
590.861	81.31
591.071	75.31
591.281	82.31
591.49	98.31
591.7	92.31
591.91	86.31
592.119	93.31
592.329	99.31
592.539	98.31
592.748	77.31
592.958	94.31
593.167	91.31
593.377	85.31
593.587	106.31
593.796	86.31
594.006	75.31
594.215	81.31
594.424	76.31
594.634	80.31
594.843	84.31
595.053	81.31
595.262	74.31
595.472	96.31
595.681	87.31
595.89	85.31
596.1	87.31
596.309	95.31
596.518	85.31
596.727	96.31
596.937	81.31
597.146	77.31
597.355	88.31
597.564	85.31
597.774	68.31
597.983	97.31
598.192	85.31
598.401	93.31
598.61	96.31
598.819	88.31
599.028	85.31
599.237	76.31
599.446	93.31
599.655	91.31
599.864	93.31
600.073	89.31
600.282	93.31
600.491	88.31
600.7	106.31
600.909	81.31
601.118	94.31
601.327	91.31
601.536	97.31
601.745	80.31
601.953	96.31
602.162	86.31
602.371	89.31
602.58	93.31
602.789	94.31
602.997	90.31
603.206	64.31
603.415	82.31
603.623	85.31
603.832	86.31
604.041	80.31
604.249	87.31
604.458	82.31
604.666	99.31
604.875	85.31
605.084	95.31
605.292	96.31
605.501	96.31
605.709	93.31
605.918	79.31
606.126	91.31
606.334	97.31
606.543	87.31
606.751	72.31
606.96	83.31
607.168	84.31
607.376	83.31
607.585	84.31
607.793	85.31
608.001	77.31
608.21	80.31
608.418	93.31
608.626	91.31
608.834	100.31
609.043	108.31
609.251	87.31
609.459	81.31
609.667	77.31
609.875	85.31
610.083	87.31
610.291	89.31
610.499	93.31
610.707	91.31
610.916	78.31
611.124	90.31
611.332	87.31
611.54	83.31
611.748	104.31
611.955	93.31
612.163	90.31
612.371	79.31
612.579	84.31
612.787	80.31
612.995	105.31
613.203	82.31
613.411	85.31
613.618	83.31
613.826	83.31
614.034	92.31
614.242	89.31
614.449	85.31
614.657	95.31
614.865	92.31
615.072	83.31
615.28	71.31
615.488	107.31
615.695	104.31
615.903	94.31
616.111	84.31
616.318	103.31
616.526	103.31
616.733	102.31
616.941	91.31
617.148	93.31
617.356	100.31
617.563	97.31
617.771	85.31
617.978	79.31
618.185	91.31
618.393	82.31
618.6	97.31
618.807	82.31
619.015	87.31
619.222	85.31
619.429	87.31
619.637	81.31
619.844	82.31
620.051	96.31
620.258	89.31
620.466	89.31
620.673	84.31
620.88	85.31
621.087	82.31
621.294	90.31
621.501	84.31
621.708	88.31
621.915	90.31
622.122	84.31
622.329	83.31
622.536	88.31
622.743	89.31
622.95	102.31
623.157	91.31
623.364	91.31
623.571	80.31
623.778	80.31
623.985	78.31
624.192	75.31
624.399	78.31
624.606	73.31
624.812	72.31
625.019	77.31
625.226	84.31
625.433	96.31
625.639	94.31
625.846	82.31
626.053	96.31
626.259	88.31
626.466	79.31
626.673	85.31
626.879	88.31
627.086	97.31
627.293	91.31
627.499	94.31
627.706	87.31
627.912	92.31
628.119	98.31
628.325	88.31
628.532	82.31
628.738	90.31
628.945	84.31
629.151	97.31
629.357	89.31
629.564	88.31
629.77	89.31
629.976	76.31
630.183	88.31
630.389	84.31
630.595	87.31
630.802	88.31
631.008	91.31
631.214	96.31
631.42	88.31
631.627	100.31
631.833	85.31
632.039	80.31
632.245	88.31
632.451	87.31
632.657	86.31
632.863	82.31
633.069	87.31
633.275	77.31
633.481	85.31
633.688	85.31
633.893	88.31
634.099	86.31
634.305	83.31
634.511	97.31
634.717	83.31
634.923	95.31
635.129	83.31
635.335	87.31
635.541	76.31
635.747	93.31
635.952	90.31
636.158	84.31
636.364	92.31
636.57	81.31
636.775	83.31
636.981	72.31
637.187	84.31
637.392	82.31
637.598	87.31
637.804	79.31
638.009	90.31
638.215	99.31
638.421	80.31
638.626	91.31
638.832	96.31
639.037	97.31
639.243	81.31
639.448	101.31
639.654	88.31
639.859	88.31
640.065	99.31
640.27	101.31
640.475	96.31
640.681	77.31
640.886	101.31
641.091	92.31
641.297	89.31
641.502	81.31
641.707	95.31
641.913	95.31
642.118	92.31
642.323	81.31
642.528	66.31
642.733	93.31
642.939	98.31
643.144	83.31
643.349	85.31
643.554	91.31
643.759	92.31
643.964	98.31
644.169	85.31
644.374	94.31
644.579	75.31
644.784	100.31
644.989	88.31
645.194	85.31
645.399	83.31
645.604	70.31
645.809	102.31
646.014	103.31
646.219	93.31
646.423	97.31
646.628	93.31
646.833	74.31
647.038	87.31
647.243	78.31
647.447	81.31
647.652	89.31
647.857	91.31
648.062	73.31
648.266	89.31
648.471	97.31
648.676	100.31
648.88	99.31
649.085	104.31
649.289	95.31
649.494	97.31
649.698	124.31
649.903	91.31
650.107	93.31
650.312	86.31
650.516	94.31
650.721	88.31
650.925	72.31
651.13	80.31
651.334	85.31
651.539	78.31
651.743	84.31
651.947	99.31
652.152	94.31
652.356	84.31
652.56	96.31
652.764	84.31
652.969	75.31
653.173	97.31
653.377	88.31
653.581	80.31
653.785	79.31
653.99	84.31
654.194	82.31
654.398	75.31
654.602	91.31
654.806	75.31
655.01	102.31
655.214	94.31
655.418	89.31
655.622	78.31
655.826	82.31
656.03	87.31
656.234	99.31
656.438	81.31
656.642	97.31
656.846	92.31
657.049	87.31
657.253	93.31
657.457	81.31
657.661	94.31
657.865	82.31
658.068	81.31
658.272	96.31
658.476	81.31
658.68	83.31
658.883	80.31
659.087	102.31
659.291	97.31
659.494	83.31
659.698	91.31
659.901	73.31
660.105	71.31
660.309	99.31
660.512	76.31
660.716	82.31
660.919	76.31
661.123	82.31
661.326	88.31
661.53	97.31
661.733	87.31
661.936	80.31
662.14	76.31
662.343	79.31
662.546	90.31
662.75	92.31
662.953	83.31
663.156	75.31
663.36	73.31
663.563	78.31
663.766	91.31
663.969	78.31
664.173	89.31
664.376	79.31
664.579	85.31
664.782	88.31
664.985	79.31
665.188	84.31
665.391	82.31
665.594	80.31
665.797	81.31
666	79.31
666.203	90.31
666.406	73.31
666.609	79.31
666.812	74.31
667.015	64.31
667.218	84.31
667.421	79.31
667.624	78.31
667.827	74.31
668.03	81.31
668.232	85.31
668.435	76.31
668.638	75.31
668.841	87.31
669.043	89.31
669.246	91.31
669.449	95.31
669.651	76.31
669.854	87.31
670.057	92.31
670.259	88.31
670.462	88.31
670.665	89.31
670.867	86.31
671.07	84.31
671.272	68.31
671.475	83.31
671.677	79.31
671.88	79.31
672.082	84.31
672.284	84.31
672.487	79.31
672.689	86.31
672.892	89.31
