Data from Uncirc_2004_H10_HRD10591_00092.txt Node
Date: Wed Jan 03 10:32:31 EST 2024
User: Yrep
Spectrometer: HR+D1059
Trigger mode: 1
Integration Time (sec): 1.000000E-1
Scans to average: 1
Electric dark correction enabled: true
Nonlinearity correction enabled: false
Boxcar width: 0
XAxis mode: Wavelengths
Number of Pixels in Spectrum: 2048
>>>>>Begin Spectral Data<<<<<
223.165	-25.31
223.4	-25.31
223.635	-25.31
223.869	-21.31
224.104	-30.31
224.338	-11.31
224.573	-24.31
224.808	-5.31
225.042	-5.31
225.277	0.69
225.511	6.69
225.746	9.69
225.98	2.69
226.215	9.69
226.449	24.69
226.683	21.69
226.918	18.69
227.152	28.69
227.387	41.69
227.621	51.69
227.856	57.69
228.09	59.69
228.324	56.69
228.559	69.69
228.793	47.69
229.027	63.69
229.262	62.69
229.496	84.69
229.73	74.69
229.964	88.69
230.199	83.69
230.433	67.69
230.667	85.69
230.901	84.69
231.136	72.69
231.37	102.69
231.604	84.69
231.838	78.69
232.072	82.69
232.306	106.69
232.541	88.69
232.775	87.69
233.009	92.69
233.243	77.69
233.477	79.69
233.711	77.69
233.945	79.69
234.179	91.69
234.413	83.69
234.647	68.69
234.881	90.69
235.115	83.69
235.349	85.69
235.583	81.69
235.817	80.69
236.051	75.69
236.285	75.69
236.519	76.69
236.753	82.69
236.987	78.69
237.221	83.69
237.455	92.69
237.689	78.69
237.922	83.69
238.156	84.69
238.39	88.69
238.624	84.69
238.858	68.69
239.091	87.69
239.325	83.69
239.559	91.69
239.793	92.69
240.027	86.69
240.26	85.69
240.494	78.69
240.728	75.69
240.961	80.69
241.195	81.69
241.429	85.69
241.662	74.69
241.896	63.69
242.13	82.69
242.363	81.69
242.597	84.69
242.83	82.69
243.064	82.69
243.298	81.69
243.531	65.69
243.765	80.69
243.998	65.69
244.232	80.69
244.465	100.69
244.699	79.69
244.932	81.69
245.166	76.69
245.399	79.69
245.633	77.69
245.866	78.69
246.099	77.69
246.333	77.69
246.566	78.69
246.8	84.69
247.033	78.69
247.266	90.69
247.5	76.69
247.733	73.69
247.966	86.69
248.2	73.69
248.433	75.69
248.666	77.69
248.899	84.69
249.133	90.69
249.366	103.69
249.599	89.69
249.832	75.69
250.066	97.69
250.299	84.69
250.532	83.69
250.765	89.69
250.998	83.69
251.231	81.69
251.465	81.69
251.698	82.69
251.931	84.69
252.164	92.69
252.397	91.69
252.63	98.69
252.863	79.69
253.096	74.69
253.329	82.69
253.562	86.69
253.795	90.69
254.028	78.69
254.261	95.69
254.494	91.69
254.727	89.69
254.96	88.69
255.193	105.69
255.426	86.69
255.659	87.69
255.892	89.69
256.124	72.69
256.357	82.69
256.59	85.69
256.823	75.69
257.056	86.69
257.289	86.69
257.521	87.69
257.754	83.69
257.987	70.69
258.22	82.69
258.452	94.69
258.685	97.69
258.918	87.69
259.151	67.69
259.383	91.69
259.616	78.69
259.849	78.69
260.081	80.69
260.314	85.69
260.547	82.69
260.779	86.69
261.012	87.69
261.244	89.69
261.477	88.69
261.71	104.69
261.942	125.69
262.175	117.69
262.407	86.69
262.64	89.69
262.872	82.69
263.105	91.69
263.337	102.69
263.57	78.69
263.802	90.69
264.035	104.69
264.267	80.69
264.499	82.69
264.732	95.69
264.964	84.69
265.197	97.69
265.429	82.69
265.661	80.69
265.894	89.69
266.126	84.69
266.358	91.69
266.591	91.69
266.823	90.69
267.055	85.69
267.287	91.69
267.52	83.69
267.752	83.69
267.984	87.69
268.216	87.69
268.448	92.69
268.681	104.69
268.913	75.69
269.145	85.69
269.377	91.69
269.609	101.69
269.841	96.69
270.073	89.69
270.306	91.69
270.538	82.69
270.77	99.69
271.002	82.69
271.234	93.69
271.466	99.69
271.698	91.69
271.93	73.69
272.162	99.69
272.394	89.69
272.626	93.69
272.858	86.69
273.09	106.69
273.322	87.69
273.553	74.69
273.785	96.69
274.017	78.69
274.249	90.69
274.481	94.69
274.713	84.69
274.945	98.69
275.176	89.69
275.408	87.69
275.64	88.69
275.872	96.69
276.104	71.69
276.335	92.69
276.567	104.69
276.799	110.69
277.031	96.69
277.262	96.69
277.494	92.69
277.726	89.69
277.957	95.69
278.189	91.69
278.421	85.69
278.652	102.69
278.884	100.69
279.115	88.69
279.347	90.69
279.579	85.69
279.81	95.69
280.042	99.69
280.273	82.69
280.505	76.69
280.736	99.69
280.968	79.69
281.199	82.69
281.431	83.69
281.662	81.69
281.894	84.69
282.125	110.69
282.356	127.69
282.588	133.69
282.819	113.69
283.051	91.69
283.282	100.69
283.513	102.69
283.745	93.69
283.976	84.69
284.207	92.69
284.439	79.69
284.67	81.69
284.901	91.69
285.132	89.69
285.364	95.69
285.595	81.69
285.826	105.69
286.057	90.69
286.288	87.69
286.52	94.69
286.751	81.69
286.982	92.69
287.213	83.69
287.444	81.69
287.675	82.69
287.906	99.69
288.138	96.69
288.369	99.69
288.6	96.69
288.831	104.69
289.062	88.69
289.293	97.69
289.524	80.69
289.755	90.69
289.986	94.69
290.217	96.69
290.448	87.69
290.679	97.69
290.91	101.69
291.141	80.69
291.371	88.69
291.602	82.69
291.833	103.69
292.064	94.69
292.295	82.69
292.526	98.69
292.757	91.69
292.987	103.69
293.218	81.69
293.449	94.69
293.68	107.69
293.91	84.69
294.141	95.69
294.372	98.69
294.603	98.69
294.833	91.69
295.064	86.69
295.295	99.69
295.525	96.69
295.756	113.69
295.987	120.69
296.217	146.69
296.448	122.69
296.679	92.69
296.909	91.69
297.14	86.69
297.37	97.69
297.601	85.69
297.831	100.69
298.062	94.69
298.292	88.69
298.523	84.69
298.753	99.69
298.984	86.69
299.214	100.69
299.445	91.69
299.675	95.69
299.905	87.69
300.136	109.69
300.366	97.69
300.597	82.69
300.827	95.69
301.057	94.69
301.288	108.69
301.518	102.69
301.748	97.69
301.979	102.69
302.209	96.69
302.439	95.69
302.669	102.69
302.9	90.69
303.13	100.69
303.36	103.69
303.59	107.69
303.82	106.69
304.051	94.69
304.281	92.69
304.511	86.69
304.741	96.69
304.971	98.69
305.201	85.69
305.431	91.69
305.661	95.69
305.891	96.69
306.121	105.69
306.352	102.69
306.582	107.69
306.812	102.69
307.042	104.69
307.272	99.69
307.502	88.69
307.731	107.69
307.961	104.69
308.191	70.69
308.421	96.69
308.651	91.69
308.881	102.69
309.111	102.69
309.341	97.69
309.571	92.69
309.8	98.69
310.03	92.69
310.26	99.69
310.49	94.69
310.72	96.69
310.949	99.69
311.179	92.69
311.409	88.69
311.639	98.69
311.868	107.69
312.098	100.69
312.328	107.69
312.557	94.69
312.787	111.69
313.017	101.69
313.246	107.69
313.476	85.69
313.706	82.69
313.935	98.69
314.165	88.69
314.394	98.69
314.624	101.69
314.853	99.69
315.083	92.69
315.312	96.69
315.542	121.69
315.771	94.69
316.001	92.69
316.23	97.69
316.46	96.69
316.689	110.69
316.919	92.69
317.148	105.69
317.377	100.69
317.607	97.69
317.836	91.69
318.065	83.69
318.295	94.69
318.524	97.69
318.753	99.69
318.983	92.69
319.212	99.69
319.441	118.69
319.67	111.69
319.9	95.69
320.129	98.69
320.358	101.69
320.587	90.69
320.816	84.69
321.046	111.69
321.275	108.69
321.504	91.69
321.733	100.69
321.962	88.69
322.191	105.69
322.42	96.69
322.649	110.69
322.878	113.69
323.108	132.69
323.337	122.69
323.566	134.69
323.795	150.69
324.024	214.69
324.253	404.69
324.482	818.69
324.71	1640.69
324.939	2144.69
325.168	804.69
325.397	243.69
325.626	156.69
325.855	126.69
326.084	119.69
326.313	119.69
326.542	154.69
326.77	226.69
326.999	450.69
327.228	960.69
327.457	1707.69
327.686	1325.69
327.914	347.69
328.143	194.69
328.372	150.69
328.6	118.69
328.829	121.69
329.058	106.69
329.287	117.69
329.515	106.69
329.744	102.69
329.972	104.69
330.201	98.69
330.43	105.69
330.658	112.69
330.887	143.69
331.115	137.69
331.344	103.69
331.572	91.69
331.801	116.69
332.03	102.69
332.258	102.69
332.486	99.69
332.715	100.69
332.943	104.69
333.172	109.69
333.4	99.69
333.629	95.69
333.857	119.69
334.085	121.69
334.314	107.69
334.542	113.69
334.771	114.69
334.999	106.69
335.227	102.69
335.455	104.69
335.684	104.69
335.912	91.69
336.14	110.69
336.369	87.69
336.597	94.69
336.825	92.69
337.053	106.69
337.281	99.69
337.51	101.69
337.738	115.69
337.966	108.69
338.194	91.69
338.422	91.69
338.65	93.69
338.878	91.69
339.106	89.69
339.334	98.69
339.562	104.69
339.79	103.69
340.018	90.69
340.246	100.69
340.474	111.69
340.702	96.69
340.93	106.69
341.158	97.69
341.386	103.69
341.614	79.69
341.842	96.69
342.07	83.69
342.298	99.69
342.526	96.69
342.754	83.69
342.981	93.69
343.209	85.69
343.437	104.69
343.665	86.69
343.893	95.69
344.12	92.69
344.348	82.69
344.576	81.69
344.804	89.69
345.031	92.69
345.259	94.69
345.487	90.69
345.714	87.69
345.942	95.69
346.17	94.69
346.397	97.69
346.625	92.69
346.853	95.69
347.08	81.69
347.308	88.69
347.535	102.69
347.763	97.69
347.99	99.69
348.218	108.69
348.445	98.69
348.673	108.69
348.9	111.69
349.128	89.69
349.355	96.69
349.583	111.69
349.81	99.69
350.037	102.69
350.265	105.69
350.492	98.69
350.72	94.69
350.947	95.69
351.174	105.69
351.402	105.69
351.629	101.69
351.856	119.69
352.083	101.69
352.311	97.69
352.538	117.69
352.765	106.69
352.992	105.69
353.22	111.69
353.447	113.69
353.674	98.69
353.901	97.69
354.128	92.69
354.355	91.69
354.583	104.69
354.81	101.69
355.037	93.69
355.264	97.69
355.491	95.69
355.718	83.69
355.945	109.69
356.172	105.69
356.399	92.69
356.626	102.69
356.853	93.69
357.08	100.69
357.307	79.69
357.534	83.69
357.761	110.69
357.988	96.69
358.215	101.69
358.441	96.69
358.668	96.69
358.895	96.69
359.122	88.69
359.349	86.69
359.576	87.69
359.802	113.69
360.029	115.69
360.256	126.69
360.483	105.69
360.709	91.69
360.936	95.69
361.163	83.69
361.39	96.69
361.616	112.69
361.843	103.69
362.07	96.69
362.296	105.69
362.523	95.69
362.749	101.69
362.976	91.69
363.203	95.69
363.429	92.69
363.656	94.69
363.882	100.69
364.109	80.69
364.335	88.69
364.562	103.69
364.788	105.69
365.015	95.69
365.241	100.69
365.468	111.69
365.694	105.69
365.92	75.69
366.147	93.69
366.373	74.69
366.599	93.69
366.826	81.69
367.052	84.69
367.278	94.69
367.505	98.69
367.731	90.69
367.957	91.69
368.184	92.69
368.41	110.69
368.636	110.69
368.862	116.69
369.089	103.69
369.315	95.69
369.541	91.69
369.767	109.69
369.993	105.69
370.219	98.69
370.445	96.69
370.672	91.69
370.898	90.69
371.124	85.69
371.35	86.69
371.576	90.69
371.802	100.69
372.028	84.69
372.254	95.69
372.48	87.69
372.706	78.69
372.932	81.69
373.158	92.69
373.384	99.69
373.61	102.69
373.835	89.69
374.061	86.69
374.287	91.69
374.513	86.69
374.739	98.69
374.965	99.69
375.191	104.69
375.416	93.69
375.642	90.69
375.868	90.69
376.094	104.69
376.319	89.69
376.545	83.69
376.771	91.69
376.997	88.69
377.222	81.69
377.448	88.69
377.674	90.69
377.899	98.69
378.125	82.69
378.35	98.69
378.576	104.69
378.802	104.69
379.027	83.69
379.253	82.69
379.478	87.69
379.704	108.69
379.929	102.69
380.155	106.69
380.38	90.69
380.606	113.69
380.831	84.69
381.057	99.69
381.282	87.69
381.507	99.69
381.733	87.69
381.958	96.69
382.184	101.69
382.409	95.69
382.634	111.69
382.86	99.69
383.085	86.69
383.31	102.69
383.535	114.69
383.761	94.69
383.986	91.69
384.211	94.69
384.436	101.69
384.662	99.69
384.887	110.69
385.112	106.69
385.337	97.69
385.562	114.69
385.787	105.69
386.013	102.69
386.238	114.69
386.463	117.69
386.688	96.69
386.913	103.69
387.138	100.69
387.363	100.69
387.588	104.69
387.813	107.69
388.038	116.69
388.263	101.69
388.488	105.69
388.713	106.69
388.938	87.69
389.163	111.69
389.387	101.69
389.612	93.69
389.837	97.69
390.062	88.69
390.287	99.69
390.512	94.69
390.736	87.69
390.961	98.69
391.186	86.69
391.411	97.69
391.636	82.69
391.86	90.69
392.085	92.69
392.31	84.69
392.534	99.69
392.759	78.69
392.984	89.69
393.208	99.69
393.433	77.69
393.658	93.69
393.882	92.69
394.107	92.69
394.331	80.69
394.556	87.69
394.78	91.69
395.005	76.69
395.229	92.69
395.454	87.69
395.678	94.69
395.903	87.69
396.127	87.69
396.352	92.69
396.576	85.69
396.801	79.69
397.025	89.69
397.249	91.69
397.474	90.69
397.698	92.69
397.922	92.69
398.147	99.69
398.371	77.69
398.595	70.69
398.82	87.69
399.044	82.69
399.268	91.69
399.492	106.69
399.717	97.69
399.941	89.69
400.165	95.69
400.389	87.69
400.613	99.69
400.837	100.69
401.062	91.69
401.286	83.69
401.51	80.69
401.734	85.69
401.958	95.69
402.182	136.69
402.406	152.69
402.63	107.69
402.854	96.69
403.078	94.69
403.302	86.69
403.526	95.69
403.75	94.69
403.974	86.69
404.198	105.69
404.422	91.69
404.645	98.69
404.869	100.69
405.093	89.69
405.317	99.69
405.541	106.69
405.765	99.69
405.988	129.69
406.212	204.69
406.436	207.69
406.66	167.69
406.883	109.69
407.107	102.69
407.331	97.69
407.555	87.69
407.778	82.69
408.002	82.69
408.226	79.69
408.449	89.69
408.673	75.69
408.896	97.69
409.12	107.69
409.344	85.69
409.567	97.69
409.791	82.69
410.014	84.69
410.238	111.69
410.461	106.69
410.685	97.69
410.908	96.69
411.132	104.69
411.355	104.69
411.578	90.69
411.802	87.69
412.025	88.69
412.249	84.69
412.472	89.69
412.695	95.69
412.919	104.69
413.142	91.69
413.365	88.69
413.589	94.69
413.812	99.69
414.035	103.69
414.258	87.69
414.482	96.69
414.705	102.69
414.928	90.69
415.151	82.69
415.374	103.69
415.597	96.69
415.821	90.69
416.044	83.69
416.267	75.69
416.49	95.69
416.713	87.69
416.936	88.69
417.159	88.69
417.382	100.69
417.605	95.69
417.828	95.69
418.051	100.69
418.274	97.69
418.497	96.69
418.72	89.69
418.943	96.69
419.166	87.69
419.389	96.69
419.611	82.69
419.834	100.69
420.057	79.69
420.28	75.69
420.503	89.69
420.726	99.69
420.948	90.69
421.171	100.69
421.394	89.69
421.617	97.69
421.839	88.69
422.062	96.69
422.285	86.69
422.507	83.69
422.73	95.69
422.953	103.69
423.175	83.69
423.398	96.69
423.621	89.69
423.843	82.69
424.066	92.69
424.288	91.69
424.511	93.69
424.733	98.69
424.956	100.69
425.178	106.69
425.401	96.69
425.623	110.69
425.846	84.69
426.068	82.69
426.291	90.69
426.513	99.69
426.735	106.69
426.958	88.69
427.18	92.69
427.402	134.69
427.625	154.69
427.847	132.69
428.069	108.69
428.292	98.69
428.514	98.69
428.736	88.69
428.958	87.69
429.181	95.69
429.403	74.69
429.625	84.69
429.847	82.69
430.069	104.69
430.292	96.69
430.514	76.69
430.736	82.69
430.958	87.69
431.18	79.69
431.402	82.69
431.624	90.69
431.846	96.69
432.068	95.69
432.29	84.69
432.512	96.69
432.734	83.69
432.956	103.69
433.178	98.69
433.4	92.69
433.622	107.69
433.844	91.69
434.066	100.69
434.287	92.69
434.509	87.69
434.731	82.69
434.953	89.69
435.175	77.69
435.397	87.69
435.618	106.69
435.84	114.69
436.062	108.69
436.284	119.69
436.505	91.69
436.727	97.69
436.949	88.69
437.17	84.69
437.392	82.69
437.614	107.69
437.835	107.69
438.057	111.69
438.278	113.69
438.5	98.69
438.721	130.69
438.943	102.69
439.165	110.69
439.386	79.69
439.608	105.69
439.829	105.69
440.05	110.69
440.272	143.69
440.493	88.69
440.715	81.69
440.936	91.69
441.158	91.69
441.379	83.69
441.6	107.69
441.822	101.69
442.043	96.69
442.264	103.69
442.486	100.69
442.707	95.69
442.928	117.69
443.149	125.69
443.371	134.69
443.592	111.69
443.813	115.69
444.034	103.69
444.255	91.69
444.476	98.69
444.698	80.69
444.919	90.69
445.14	128.69
445.361	135.69
445.582	107.69
445.803	134.69
446.024	134.69
446.245	125.69
446.466	107.69
446.687	93.69
446.908	89.69
447.129	95.69
447.35	104.69
447.571	93.69
447.792	84.69
448.013	108.69
448.234	100.69
448.455	103.69
448.675	102.69
448.896	106.69
449.117	91.69
449.338	94.69
449.559	118.69
449.779	131.69
450	98.69
450.221	99.69
450.442	90.69
450.662	94.69
450.883	115.69
451.104	115.69
451.324	96.69
451.545	89.69
451.766	90.69
451.986	91.69
452.207	92.69
452.428	103.69
452.648	103.69
452.869	100.69
453.089	101.69
453.31	119.69
453.53	95.69
453.751	89.69
453.971	93.69
454.192	98.69
454.412	94.69
454.633	85.69
454.853	87.69
455.073	87.69
455.294	97.69
455.514	94.69
455.734	108.69
455.955	86.69
456.175	76.69
456.395	99.69
456.616	88.69
456.836	76.69
457.056	87.69
457.276	105.69
457.497	89.69
457.717	80.69
457.937	107.69
458.157	84.69
458.377	88.69
458.598	94.69
458.818	141.69
459.038	157.69
459.258	112.69
459.478	83.69
459.698	73.69
459.918	84.69
460.138	86.69
460.358	86.69
460.578	103.69
460.798	87.69
461.018	92.69
461.238	89.69
461.458	88.69
461.678	78.69
461.898	85.69
462.118	91.69
462.338	96.69
462.558	84.69
462.777	88.69
462.997	96.69
463.217	93.69
463.437	90.69
463.657	81.69
463.876	84.69
464.096	99.69
464.316	91.69
464.536	98.69
464.755	108.69
464.975	112.69
465.195	169.69
465.414	146.69
465.634	88.69
465.854	93.69
466.073	89.69
466.293	77.69
466.512	81.69
466.732	104.69
466.951	95.69
467.171	91.69
467.391	79.69
467.61	93.69
467.829	98.69
468.049	102.69
468.268	97.69
468.488	91.69
468.707	92.69
468.927	86.69
469.146	74.69
469.365	98.69
469.585	92.69
469.804	83.69
470.023	103.69
470.243	90.69
470.462	95.69
470.681	106.69
470.901	99.69
471.12	92.69
471.339	92.69
471.558	91.69
471.777	90.69
471.997	91.69
472.216	93.69
472.435	99.69
472.654	89.69
472.873	86.69
473.092	91.69
473.311	110.69
473.53	76.69
473.749	88.69
473.968	83.69
474.187	111.69
474.406	87.69
474.625	94.69
474.844	94.69
475.063	75.69
475.282	92.69
475.501	81.69
475.72	89.69
475.939	87.69
476.158	89.69
476.377	89.69
476.596	92.69
476.814	87.69
477.033	105.69
477.252	99.69
477.471	84.69
477.69	102.69
477.908	95.69
478.127	94.69
478.346	80.69
478.564	91.69
478.783	97.69
479.002	86.69
479.22	85.69
479.439	101.69
479.658	111.69
479.876	87.69
480.095	97.69
480.313	100.69
480.532	93.69
480.751	102.69
480.969	105.69
481.188	111.69
481.406	120.69
481.624	102.69
481.843	98.69
482.061	91.69
482.28	97.69
482.498	86.69
482.717	90.69
482.935	92.69
483.153	82.69
483.372	90.69
483.59	90.69
483.808	98.69
484.027	96.69
484.245	110.69
484.463	93.69
484.681	100.69
484.9	94.69
485.118	102.69
485.336	106.69
485.554	93.69
485.772	98.69
485.99	104.69
486.209	87.69
486.427	92.69
486.645	111.69
486.863	118.69
487.081	94.69
487.299	93.69
487.517	90.69
487.735	90.69
487.953	84.69
488.171	107.69
488.389	106.69
488.607	102.69
488.825	88.69
489.043	79.69
489.261	87.69
489.479	93.69
489.696	89.69
489.914	107.69
490.132	92.69
490.35	88.69
490.568	86.69
490.786	90.69
491.003	96.69
491.221	90.69
491.439	100.69
491.657	87.69
491.874	93.69
492.092	100.69
492.31	105.69
492.527	91.69
492.745	95.69
492.963	110.69
493.18	87.69
493.398	101.69
493.615	95.69
493.833	102.69
494.05	92.69
494.268	99.69
494.485	79.69
494.703	91.69
494.92	95.69
495.138	104.69
495.355	98.69
495.573	97.69
495.79	90.69
496.008	83.69
496.225	85.69
496.442	103.69
496.66	97.69
496.877	101.69
497.094	77.69
497.312	96.69
497.529	100.69
497.746	91.69
497.963	105.69
498.181	100.69
498.398	114.69
498.615	103.69
498.832	107.69
499.049	95.69
499.267	91.69
499.484	110.69
499.701	95.69
499.918	89.69
500.135	92.69
500.352	92.69
500.569	98.69
500.786	101.69
501.003	83.69
501.22	86.69
501.437	87.69
501.654	98.69
501.871	109.69
502.088	96.69
502.305	94.69
502.522	91.69
502.739	105.69
502.956	90.69
503.172	97.69
503.389	100.69
503.606	107.69
503.823	102.69
504.04	99.69
504.256	99.69
504.473	86.69
504.69	97.69
504.907	96.69
505.123	88.69
505.34	102.69
505.557	80.69
505.773	90.69
505.99	90.69
506.207	98.69
506.423	70.69
506.64	77.69
506.856	109.69
507.073	104.69
507.289	94.69
507.506	105.69
507.722	108.69
507.939	107.69
508.155	99.69
508.372	91.69
508.588	113.69
508.805	106.69
509.021	112.69
509.238	96.69
509.454	87.69
509.67	96.69
509.887	112.69
510.103	139.69
510.319	233.69
510.536	766.69
510.752	2482.69
510.968	693.69
511.184	160.69
511.401	103.69
511.617	99.69
511.833	112.69
512.049	83.69
512.265	95.69
512.481	86.69
512.698	88.69
512.914	85.69
513.13	90.69
513.346	95.69
513.562	81.69
513.778	86.69
513.994	92.69
514.21	96.69
514.426	117.69
514.642	136.69
514.858	122.69
515.074	159.69
515.29	470.69
515.506	1467.69
515.721	540.69
515.937	162.69
516.153	110.69
516.369	108.69
516.585	103.69
516.801	92.69
517.016	90.69
517.232	83.69
517.448	95.69
517.664	97.69
517.879	98.69
518.095	87.69
518.311	91.69
518.527	100.69
518.742	94.69
518.958	96.69
519.173	84.69
519.389	108.69
519.605	74.69
519.82	88.69
520.036	103.69
520.251	119.69
520.467	115.69
520.682	106.69
520.898	120.69
521.113	113.69
521.329	137.69
521.544	208.69
521.76	548.69
521.975	2431.69
522.19	1457.69
522.406	306.69
522.621	122.69
522.836	111.69
523.052	99.69
523.267	105.69
523.482	97.69
523.698	98.69
523.913	127.69
524.128	99.69
524.343	99.69
524.559	92.69
524.774	86.69
524.989	105.69
525.204	103.69
525.419	83.69
525.634	99.69
525.849	88.69
526.064	108.69
526.28	81.69
526.495	91.69
526.71	88.69
526.925	92.69
527.14	74.69
527.355	84.69
527.57	96.69
527.785	82.69
527.999	86.69
528.214	96.69
528.429	112.69
528.644	99.69
528.859	89.69
529.074	93.69
529.289	140.69
529.503	183.69
529.718	105.69
529.933	96.69
530.148	82.69
530.363	93.69
530.577	90.69
530.792	92.69
531.007	99.69
531.221	84.69
531.436	84.69
531.651	87.69
531.865	93.69
532.08	109.69
532.295	93.69
532.509	105.69
532.724	73.69
532.938	101.69
533.153	97.69
533.367	95.69
533.582	96.69
533.796	97.69
534.011	85.69
534.225	93.69
534.44	89.69
534.654	106.69
534.868	85.69
535.083	98.69
535.297	108.69
535.511	102.69
535.726	107.69
535.94	102.69
536.154	87.69
536.369	87.69
536.583	99.69
536.797	94.69
537.011	106.69
537.225	86.69
537.44	89.69
537.654	81.69
537.868	86.69
538.082	98.69
538.296	86.69
538.51	91.69
538.724	89.69
538.938	91.69
539.153	81.69
539.367	105.69
539.581	99.69
539.795	89.69
540.009	93.69
540.222	79.69
540.436	94.69
540.65	78.69
540.864	96.69
541.078	93.69
541.292	91.69
541.506	101.69
541.72	98.69
541.934	91.69
542.147	96.69
542.361	82.69
542.575	89.69
542.789	83.69
543.002	88.69
543.216	88.69
543.43	95.69
543.644	95.69
543.857	88.69
544.071	92.69
544.285	90.69
544.498	74.69
544.712	76.69
544.925	93.69
545.139	96.69
545.352	89.69
545.566	94.69
545.779	95.69
545.993	100.69
546.206	92.69
546.42	94.69
546.633	98.69
546.847	83.69
547.06	90.69
547.274	98.69
547.487	102.69
547.7	107.69
547.914	100.69
548.127	90.69
548.34	91.69
548.554	80.69
548.767	108.69
548.98	98.69
549.193	88.69
549.407	99.69
549.62	89.69
549.833	91.69
550.046	89.69
550.259	80.69
550.473	89.69
550.686	94.69
550.899	90.69
551.112	89.69
551.325	101.69
551.538	106.69
551.751	88.69
551.964	99.69
552.177	78.69
552.39	86.69
552.603	93.69
552.816	94.69
553.029	89.69
553.242	89.69
553.455	98.69
553.667	84.69
553.88	86.69
554.093	93.69
554.306	98.69
554.519	88.69
554.732	111.69
554.944	117.69
555.157	95.69
555.37	82.69
555.583	80.69
555.795	98.69
556.008	102.69
556.221	100.69
556.433	81.69
556.646	92.69
556.859	95.69
557.071	100.69
557.284	83.69
557.496	79.69
557.709	96.69
557.921	85.69
558.134	94.69
558.346	82.69
558.559	102.69
558.771	91.69
558.984	90.69
559.196	83.69
559.409	82.69
559.621	86.69
559.833	96.69
560.046	86.69
560.258	87.69
560.47	106.69
560.683	85.69
560.895	85.69
561.107	84.69
561.32	92.69
561.532	88.69
561.744	88.69
561.956	95.69
562.168	88.69
562.381	95.69
562.593	82.69
562.805	81.69
563.017	92.69
563.229	88.69
563.441	78.69
563.653	95.69
563.865	98.69
564.077	95.69
564.289	92.69
564.501	94.69
564.713	92.69
564.925	92.69
565.137	90.69
565.349	98.69
565.561	100.69
565.773	95.69
565.985	87.69
566.197	91.69
566.408	99.69
566.62	91.69
566.832	83.69
567.044	70.69
567.255	88.69
567.467	91.69
567.679	80.69
567.891	87.69
568.102	86.69
568.314	80.69
568.526	71.69
568.737	94.69
568.949	92.69
569.161	99.69
569.372	100.69
569.584	105.69
569.795	93.69
570.007	114.69
570.218	263.69
570.43	137.69
570.641	95.69
570.853	101.69
571.064	90.69
571.276	90.69
571.487	95.69
571.698	88.69
571.91	72.69
572.121	76.69
572.333	81.69
572.544	92.69
572.755	92.69
572.966	90.69
573.178	80.69
573.389	86.69
573.6	86.69
573.811	84.69
574.023	98.69
574.234	88.69
574.445	86.69
574.656	92.69
574.867	96.69
575.078	88.69
575.289	92.69
575.501	94.69
575.712	85.69
575.923	96.69
576.134	88.69
576.345	94.69
576.556	92.69
576.767	106.69
576.978	96.69
577.188	97.69
577.399	105.69
577.61	86.69
577.821	99.69
578.032	125.69
578.243	294.69
578.454	791.69
578.665	224.69
578.875	106.69
579.086	102.69
579.297	80.69
579.508	86.69
579.718	99.69
579.929	86.69
580.14	109.69
580.35	77.69
580.561	100.69
580.772	83.69
580.982	96.69
581.193	78.69
581.403	99.69
581.614	96.69
581.825	90.69
582.035	96.69
582.246	81.69
582.456	98.69
582.667	84.69
582.877	92.69
583.087	91.69
583.298	94.69
583.508	90.69
583.719	86.69
583.929	93.69
584.139	82.69
584.35	84.69
584.56	91.69
584.77	80.69
584.981	81.69
585.191	97.69
585.401	90.69
585.611	95.69
585.821	98.69
586.032	83.69
586.242	83.69
586.452	88.69
586.662	81.69
586.872	80.69
587.082	88.69
587.292	81.69
587.502	76.69
587.713	89.69
587.923	88.69
588.133	91.69
588.343	73.69
588.553	89.69
588.762	103.69
588.972	76.69
589.182	102.69
589.392	102.69
589.602	101.69
589.812	93.69
590.022	91.69
590.232	85.69
590.441	90.69
590.651	100.69
590.861	99.69
591.071	82.69
591.281	85.69
591.49	90.69
591.7	88.69
591.91	102.69
592.119	86.69
592.329	92.69
592.539	89.69
592.748	93.69
592.958	87.69
593.167	82.69
593.377	78.69
593.587	91.69
593.796	99.69
594.006	93.69
594.215	98.69
594.424	95.69
594.634	88.69
594.843	88.69
595.053	104.69
595.262	89.69
595.472	83.69
595.681	99.69
595.89	101.69
596.1	93.69
596.309	98.69
596.518	82.69
596.727	93.69
596.937	97.69
597.146	96.69
597.355	99.69
597.564	89.69
597.774	91.69
597.983	90.69
598.192	89.69
598.401	90.69
598.61	88.69
598.819	75.69
599.028	88.69
599.237	90.69
599.446	86.69
599.655	84.69
599.864	94.69
600.073	87.69
600.282	84.69
600.491	94.69
600.7	98.69
600.909	86.69
601.118	91.69
601.327	99.69
601.536	82.69
601.745	92.69
601.953	98.69
602.162	96.69
602.371	87.69
602.58	101.69
602.789	71.69
602.997	98.69
603.206	92.69
603.415	89.69
603.623	86.69
603.832	102.69
604.041	60.69
604.249	96.69
604.458	86.69
604.666	85.69
604.875	80.69
605.084	78.69
605.292	77.69
605.501	93.69
605.709	88.69
605.918	85.69
606.126	90.69
606.334	91.69
606.543	87.69
606.751	90.69
606.96	87.69
607.168	83.69
607.376	91.69
607.585	97.69
607.793	88.69
608.001	81.69
608.21	94.69
608.418	85.69
608.626	100.69
608.834	97.69
609.043	79.69
609.251	90.69
609.459	95.69
609.667	95.69
609.875	81.69
610.083	87.69
610.291	95.69
610.499	78.69
610.707	92.69
610.916	82.69
611.124	96.69
611.332	86.69
611.54	83.69
611.748	89.69
611.955	87.69
612.163	87.69
612.371	79.69
612.579	81.69
612.787	89.69
612.995	82.69
613.203	92.69
613.411	77.69
613.618	82.69
613.826	90.69
614.034	95.69
614.242	92.69
614.449	92.69
614.657	87.69
614.865	86.69
615.072	82.69
615.28	95.69
615.488	76.69
615.695	110.69
615.903	93.69
616.111	118.69
616.318	96.69
616.526	85.69
616.733	92.69
616.941	99.69
617.148	104.69
617.356	91.69
617.563	76.69
617.771	91.69
617.978	87.69
618.185	97.69
618.393	91.69
618.6	88.69
618.807	95.69
619.015	86.69
619.222	96.69
619.429	83.69
619.637	96.69
619.844	90.69
620.051	87.69
620.258	82.69
620.466	102.69
620.673	86.69
620.88	84.69
621.087	85.69
621.294	91.69
621.501	106.69
621.708	104.69
621.915	92.69
622.122	82.69
622.329	93.69
622.536	87.69
622.743	87.69
622.95	98.69
623.157	79.69
623.364	86.69
623.571	93.69
623.778	79.69
623.985	94.69
624.192	89.69
624.399	89.69
624.606	81.69
624.812	91.69
625.019	95.69
625.226	81.69
625.433	90.69
625.639	92.69
625.846	95.69
626.053	86.69
626.259	86.69
626.466	97.69
626.673	90.69
626.879	89.69
627.086	90.69
627.293	89.69
627.499	96.69
627.706	77.69
627.912	85.69
628.119	90.69
628.325	95.69
628.532	87.69
628.738	83.69
628.945	100.69
629.151	89.69
629.357	81.69
629.564	95.69
629.77	87.69
629.976	83.69
630.183	81.69
630.389	95.69
630.595	92.69
630.802	80.69
631.008	82.69
631.214	89.69
631.42	85.69
631.627	98.69
631.833	93.69
632.039	76.69
632.245	84.69
632.451	94.69
632.657	89.69
632.863	92.69
633.069	97.69
633.275	75.69
633.481	84.69
633.688	81.69
633.893	99.69
634.099	90.69
634.305	67.69
634.511	81.69
634.717	95.69
634.923	90.69
635.129	90.69
635.335	88.69
635.541	87.69
635.747	70.69
635.952	79.69
636.158	82.69
636.364	86.69
636.57	95.69
636.775	82.69
636.981	79.69
637.187	83.69
637.392	81.69
637.598	78.69
637.804	90.69
638.009	101.69
638.215	89.69
638.421	83.69
638.626	92.69
638.832	87.69
639.037	90.69
639.243	92.69
639.448	97.69
639.654	69.69
639.859	83.69
640.065	96.69
640.27	90.69
640.475	84.69
640.681	85.69
640.886	84.69
641.091	81.69
641.297	92.69
641.502	102.69
641.707	98.69
641.913	86.69
642.118	80.69
642.323	87.69
642.528	90.69
642.733	84.69
642.939	95.69
643.144	82.69
643.349	72.69
643.554	87.69
643.759	88.69
643.964	105.69
644.169	91.69
644.374	86.69
644.579	82.69
644.784	91.69
644.989	90.69
645.194	81.69
645.399	84.69
645.604	80.69
645.809	88.69
646.014	74.69
646.219	78.69
646.423	90.69
646.628	85.69
646.833	84.69
647.038	78.69
647.243	80.69
647.447	94.69
647.652	83.69
647.857	86.69
648.062	92.69
648.266	87.69
648.471	78.69
648.676	95.69
648.88	97.69
649.085	91.69
649.289	98.69
649.494	99.69
649.698	133.69
649.903	98.69
650.107	89.69
650.312	94.69
650.516	84.69
650.721	82.69
650.925	78.69
651.13	85.69
651.334	90.69
651.539	88.69
651.743	82.69
651.947	78.69
652.152	93.69
652.356	73.69
652.56	89.69
652.764	79.69
652.969	85.69
653.173	81.69
653.377	92.69
653.581	71.69
653.785	86.69
653.99	88.69
654.194	85.69
654.398	82.69
654.602	76.69
654.806	95.69
655.01	96.69
655.214	97.69
655.418	98.69
655.622	89.69
655.826	90.69
656.03	93.69
656.234	82.69
656.438	86.69
656.642	98.69
656.846	97.69
657.049	76.69
657.253	81.69
657.457	79.69
657.661	87.69
657.865	78.69
658.068	85.69
658.272	66.69
658.476	79.69
658.68	89.69
658.883	76.69
659.087	78.69
659.291	82.69
659.494	73.69
659.698	78.69
659.901	81.69
660.105	80.69
660.309	62.69
660.512	90.69
660.716	79.69
660.919	84.69
661.123	79.69
661.326	82.69
661.53	88.69
661.733	79.69
661.936	86.69
662.14	97.69
662.343	78.69
662.546	95.69
662.75	97.69
662.953	91.69
663.156	92.69
663.36	85.69
663.563	74.69
663.766	95.69
663.969	90.69
664.173	76.69
664.376	94.69
664.579	92.69
664.782	89.69
664.985	93.69
665.188	78.69
665.391	86.69
665.594	75.69
665.797	91.69
666	86.69
666.203	94.69
666.406	80.69
666.609	91.69
666.812	71.69
667.015	77.69
667.218	67.69
667.421	64.69
667.624	96.69
667.827	84.69
668.03	89.69
668.232	85.69
668.435	87.69
668.638	97.69
668.841	71.69
669.043	85.69
669.246	73.69
669.449	84.69
669.651	76.69
669.854	87.69
670.057	83.69
670.259	89.69
670.462	82.69
670.665	74.69
670.867	84.69
671.07	92.69
671.272	99.69
671.475	81.69
671.677	82.69
671.88	75.69
672.082	88.69
672.284	79.69
672.487	89.69
672.689	75.69
672.892	83.69
