Data from Uncirc_2004_H10_HRD10591_00064.txt Node
Date: Wed Jan 03 10:32:25 EST 2024
User: Yrep
Spectrometer: HR+D1059
Trigger mode: 1
Integration Time (sec): 1.000000E-1
Scans to average: 1
Electric dark correction enabled: true
Nonlinearity correction enabled: false
Boxcar width: 0
XAxis mode: Wavelengths
Number of Pixels in Spectrum: 2048
>>>>>Begin Spectral Data<<<<<
223.165	-18.94
223.4	-18.94
223.635	-18.94
223.869	-14.94
224.104	-12.94
224.338	-23.94
224.573	-12.94
224.808	-17.94
225.042	-4.94
225.277	2.06
225.511	7.06
225.746	6.06
225.98	-1.94
226.215	4.06
226.449	5.06
226.683	29.06
226.918	25.06
227.152	30.06
227.387	26.06
227.621	41.06
227.856	56.06
228.09	41.06
228.324	62.06
228.559	76.06
228.793	54.06
229.027	68.06
229.262	63.06
229.496	81.06
229.73	86.06
229.964	101.06
230.199	75.06
230.433	76.06
230.667	72.06
230.901	65.06
231.136	81.06
231.37	89.06
231.604	90.06
231.838	86.06
232.072	84.06
232.306	78.06
232.541	88.06
232.775	75.06
233.009	76.06
233.243	85.06
233.477	95.06
233.711	70.06
233.945	82.06
234.179	80.06
234.413	91.06
234.647	94.06
234.881	95.06
235.115	78.06
235.349	61.06
235.583	82.06
235.817	87.06
236.051	93.06
236.285	91.06
236.519	81.06
236.753	73.06
236.987	80.06
237.221	92.06
237.455	100.06
237.689	86.06
237.922	75.06
238.156	74.06
238.39	66.06
238.624	84.06
238.858	72.06
239.091	64.06
239.325	83.06
239.559	78.06
239.793	68.06
240.027	80.06
240.26	71.06
240.494	70.06
240.728	71.06
240.961	87.06
241.195	77.06
241.429	85.06
241.662	88.06
241.896	91.06
242.13	92.06
242.363	83.06
242.597	79.06
242.83	64.06
243.064	82.06
243.298	75.06
243.531	74.06
243.765	66.06
243.998	81.06
244.232	84.06
244.465	86.06
244.699	91.06
244.932	76.06
245.166	76.06
245.399	91.06
245.633	86.06
245.866	64.06
246.099	85.06
246.333	93.06
246.566	90.06
246.8	82.06
247.033	93.06
247.266	89.06
247.5	80.06
247.733	74.06
247.966	92.06
248.2	77.06
248.433	82.06
248.666	89.06
248.899	93.06
249.133	87.06
249.366	108.06
249.599	91.06
249.832	82.06
250.066	103.06
250.299	74.06
250.532	94.06
250.765	79.06
250.998	87.06
251.231	84.06
251.465	90.06
251.698	87.06
251.931	68.06
252.164	82.06
252.397	59.06
252.63	77.06
252.863	80.06
253.096	77.06
253.329	92.06
253.562	93.06
253.795	85.06
254.028	84.06
254.261	68.06
254.494	90.06
254.727	64.06
254.96	77.06
255.193	79.06
255.426	71.06
255.659	81.06
255.892	84.06
256.124	88.06
256.357	72.06
256.59	92.06
256.823	85.06
257.056	89.06
257.289	82.06
257.521	78.06
257.754	83.06
257.987	98.06
258.22	98.06
258.452	89.06
258.685	90.06
258.918	77.06
259.151	92.06
259.383	86.06
259.616	91.06
259.849	82.06
260.081	81.06
260.314	78.06
260.547	79.06
260.779	87.06
261.012	82.06
261.244	81.06
261.477	89.06
261.71	95.06
261.942	98.06
262.175	125.06
262.407	87.06
262.64	97.06
262.872	86.06
263.105	106.06
263.337	102.06
263.57	87.06
263.802	85.06
264.035	80.06
264.267	74.06
264.499	97.06
264.732	86.06
264.964	91.06
265.197	91.06
265.429	74.06
265.661	90.06
265.894	73.06
266.126	81.06
266.358	76.06
266.591	86.06
266.823	92.06
267.055	82.06
267.287	82.06
267.52	77.06
267.752	77.06
267.984	91.06
268.216	79.06
268.448	70.06
268.681	81.06
268.913	87.06
269.145	83.06
269.377	78.06
269.609	77.06
269.841	74.06
270.073	86.06
270.306	81.06
270.538	80.06
270.77	93.06
271.002	96.06
271.234	103.06
271.466	85.06
271.698	95.06
271.93	85.06
272.162	89.06
272.394	94.06
272.626	84.06
272.858	84.06
273.09	88.06
273.322	92.06
273.553	78.06
273.785	77.06
274.017	94.06
274.249	88.06
274.481	85.06
274.713	92.06
274.945	99.06
275.176	86.06
275.408	91.06
275.64	91.06
275.872	103.06
276.104	92.06
276.335	101.06
276.567	80.06
276.799	104.06
277.031	100.06
277.262	83.06
277.494	106.06
277.726	94.06
277.957	76.06
278.189	86.06
278.421	87.06
278.652	77.06
278.884	91.06
279.115	92.06
279.347	90.06
279.579	85.06
279.81	89.06
280.042	82.06
280.273	87.06
280.505	89.06
280.736	84.06
280.968	72.06
281.199	84.06
281.431	93.06
281.662	98.06
281.894	86.06
282.125	104.06
282.356	107.06
282.588	129.06
282.819	129.06
283.051	102.06
283.282	92.06
283.513	76.06
283.745	85.06
283.976	84.06
284.207	78.06
284.439	83.06
284.67	89.06
284.901	85.06
285.132	82.06
285.364	85.06
285.595	83.06
285.826	92.06
286.057	88.06
286.288	86.06
286.52	93.06
286.751	85.06
286.982	96.06
287.213	86.06
287.444	102.06
287.675	92.06
287.906	90.06
288.138	96.06
288.369	92.06
288.6	88.06
288.831	87.06
289.062	104.06
289.293	80.06
289.524	80.06
289.755	91.06
289.986	111.06
290.217	100.06
290.448	100.06
290.679	87.06
290.91	88.06
291.141	94.06
291.371	94.06
291.602	103.06
291.833	88.06
292.064	84.06
292.295	87.06
292.526	88.06
292.757	86.06
292.987	91.06
293.218	88.06
293.449	90.06
293.68	95.06
293.91	92.06
294.141	91.06
294.372	91.06
294.603	99.06
294.833	89.06
295.064	84.06
295.295	92.06
295.525	91.06
295.756	99.06
295.987	114.06
296.217	121.06
296.448	108.06
296.679	105.06
296.909	104.06
297.14	86.06
297.37	94.06
297.601	98.06
297.831	97.06
298.062	110.06
298.292	88.06
298.523	90.06
298.753	107.06
298.984	86.06
299.214	96.06
299.445	91.06
299.675	96.06
299.905	103.06
300.136	96.06
300.366	88.06
300.597	97.06
300.827	100.06
301.057	100.06
301.288	112.06
301.518	99.06
301.748	84.06
301.979	104.06
302.209	109.06
302.439	92.06
302.669	92.06
302.9	101.06
303.13	104.06
303.36	91.06
303.59	100.06
303.82	97.06
304.051	102.06
304.281	94.06
304.511	92.06
304.741	87.06
304.971	80.06
305.201	83.06
305.431	83.06
305.661	90.06
305.891	93.06
306.121	96.06
306.352	104.06
306.582	97.06
306.812	88.06
307.042	92.06
307.272	95.06
307.502	96.06
307.731	89.06
307.961	90.06
308.191	104.06
308.421	105.06
308.651	91.06
308.881	93.06
309.111	99.06
309.341	96.06
309.571	95.06
309.8	104.06
310.03	98.06
310.26	86.06
310.49	90.06
310.72	114.06
310.949	108.06
311.179	103.06
311.409	100.06
311.639	104.06
311.868	96.06
312.098	106.06
312.328	94.06
312.557	105.06
312.787	102.06
313.017	110.06
313.246	100.06
313.476	96.06
313.706	88.06
313.935	79.06
314.165	101.06
314.394	91.06
314.624	82.06
314.853	104.06
315.083	77.06
315.312	97.06
315.542	96.06
315.771	106.06
316.001	101.06
316.23	90.06
316.46	89.06
316.689	94.06
316.919	100.06
317.148	107.06
317.377	104.06
317.607	83.06
317.836	97.06
318.065	92.06
318.295	102.06
318.524	93.06
318.753	99.06
318.983	91.06
319.212	110.06
319.441	109.06
319.67	102.06
319.9	90.06
320.129	79.06
320.358	89.06
320.587	84.06
320.816	88.06
321.046	100.06
321.275	111.06
321.504	93.06
321.733	97.06
321.962	96.06
322.191	102.06
322.42	107.06
322.649	108.06
322.878	108.06
323.108	124.06
323.337	112.06
323.566	130.06
323.795	148.06
324.024	204.06
324.253	378.06
324.482	784.06
324.71	1674.06
324.939	2118.06
325.168	786.06
325.397	242.06
325.626	154.06
325.855	134.06
326.084	129.06
326.313	141.06
326.542	155.06
326.77	215.06
326.999	455.06
327.228	927.06
327.457	1649.06
327.686	1317.06
327.914	363.06
328.143	184.06
328.372	146.06
328.6	102.06
328.829	104.06
329.058	117.06
329.287	123.06
329.515	110.06
329.744	124.06
329.972	101.06
330.201	112.06
330.43	103.06
330.658	123.06
330.887	131.06
331.115	138.06
331.344	104.06
331.572	86.06
331.801	100.06
332.03	105.06
332.258	87.06
332.486	96.06
332.715	91.06
332.943	103.06
333.172	109.06
333.4	95.06
333.629	123.06
333.857	101.06
334.085	103.06
334.314	80.06
334.542	96.06
334.771	105.06
334.999	97.06
335.227	76.06
335.455	100.06
335.684	104.06
335.912	91.06
336.14	103.06
336.369	105.06
336.597	106.06
336.825	106.06
337.053	102.06
337.281	93.06
337.51	93.06
337.738	97.06
337.966	100.06
338.194	97.06
338.422	82.06
338.65	101.06
338.878	93.06
339.106	104.06
339.334	103.06
339.562	96.06
339.79	105.06
340.018	104.06
340.246	112.06
340.474	92.06
340.702	104.06
340.93	112.06
341.158	99.06
341.386	85.06
341.614	98.06
341.842	101.06
342.07	92.06
342.298	88.06
342.526	100.06
342.754	87.06
342.981	108.06
343.209	100.06
343.437	98.06
343.665	94.06
343.893	91.06
344.12	85.06
344.348	94.06
344.576	85.06
344.804	95.06
345.031	99.06
345.259	98.06
345.487	79.06
345.714	105.06
345.942	103.06
346.17	112.06
346.397	91.06
346.625	106.06
346.853	87.06
347.08	84.06
347.308	85.06
347.535	106.06
347.763	98.06
347.99	93.06
348.218	103.06
348.445	109.06
348.673	107.06
348.9	95.06
349.128	94.06
349.355	105.06
349.583	84.06
349.81	97.06
350.037	107.06
350.265	91.06
350.492	114.06
350.72	97.06
350.947	98.06
351.174	105.06
351.402	107.06
351.629	102.06
351.856	101.06
352.083	97.06
352.311	97.06
352.538	103.06
352.765	113.06
352.992	117.06
353.22	110.06
353.447	114.06
353.674	102.06
353.901	103.06
354.128	102.06
354.355	102.06
354.583	102.06
354.81	94.06
355.037	110.06
355.264	91.06
355.491	102.06
355.718	107.06
355.945	100.06
356.172	108.06
356.399	93.06
356.626	101.06
356.853	103.06
357.08	98.06
357.307	90.06
357.534	105.06
357.761	99.06
357.988	98.06
358.215	91.06
358.441	100.06
358.668	89.06
358.895	88.06
359.122	75.06
359.349	90.06
359.576	103.06
359.802	102.06
360.029	108.06
360.256	117.06
360.483	107.06
360.709	87.06
360.936	87.06
361.163	101.06
361.39	89.06
361.616	88.06
361.843	99.06
362.07	93.06
362.296	87.06
362.523	89.06
362.749	90.06
362.976	93.06
363.203	85.06
363.429	96.06
363.656	84.06
363.882	105.06
364.109	93.06
364.335	91.06
364.562	95.06
364.788	92.06
365.015	101.06
365.241	99.06
365.468	112.06
365.694	108.06
365.92	99.06
366.147	92.06
366.373	90.06
366.599	91.06
366.826	101.06
367.052	104.06
367.278	107.06
367.505	82.06
367.731	86.06
367.957	98.06
368.184	95.06
368.41	98.06
368.636	112.06
368.862	127.06
369.089	112.06
369.315	103.06
369.541	92.06
369.767	84.06
369.993	96.06
370.219	87.06
370.445	98.06
370.672	102.06
370.898	98.06
371.124	98.06
371.35	81.06
371.576	84.06
371.802	67.06
372.028	90.06
372.254	86.06
372.48	95.06
372.706	90.06
372.932	95.06
373.158	81.06
373.384	98.06
373.61	89.06
373.835	93.06
374.061	98.06
374.287	94.06
374.513	97.06
374.739	98.06
374.965	97.06
375.191	85.06
375.416	94.06
375.642	83.06
375.868	94.06
376.094	86.06
376.319	90.06
376.545	87.06
376.771	115.06
376.997	100.06
377.222	93.06
377.448	91.06
377.674	99.06
377.899	99.06
378.125	90.06
378.35	87.06
378.576	105.06
378.802	86.06
379.027	93.06
379.253	99.06
379.478	97.06
379.704	94.06
379.929	97.06
380.155	103.06
380.38	92.06
380.606	98.06
380.831	102.06
381.057	99.06
381.282	100.06
381.507	91.06
381.733	96.06
381.958	108.06
382.184	97.06
382.409	101.06
382.634	105.06
382.86	92.06
383.085	112.06
383.31	99.06
383.535	105.06
383.761	100.06
383.986	102.06
384.211	98.06
384.436	110.06
384.662	97.06
384.887	99.06
385.112	109.06
385.337	95.06
385.562	91.06
385.787	112.06
386.013	112.06
386.238	100.06
386.463	93.06
386.688	127.06
386.913	116.06
387.138	116.06
387.363	90.06
387.588	110.06
387.813	96.06
388.038	113.06
388.263	106.06
388.488	107.06
388.713	113.06
388.938	90.06
389.163	100.06
389.387	109.06
389.612	101.06
389.837	90.06
390.062	91.06
390.287	85.06
390.512	92.06
390.736	100.06
390.961	100.06
391.186	94.06
391.411	91.06
391.636	95.06
391.86	85.06
392.085	96.06
392.31	98.06
392.534	83.06
392.759	93.06
392.984	86.06
393.208	73.06
393.433	89.06
393.658	87.06
393.882	95.06
394.107	96.06
394.331	86.06
394.556	91.06
394.78	84.06
395.005	87.06
395.229	84.06
395.454	81.06
395.678	85.06
395.903	96.06
396.127	89.06
396.352	94.06
396.576	92.06
396.801	98.06
397.025	101.06
397.249	89.06
397.474	101.06
397.698	98.06
397.922	97.06
398.147	85.06
398.371	90.06
398.595	98.06
398.82	92.06
399.044	96.06
399.268	91.06
399.492	82.06
399.717	85.06
399.941	86.06
400.165	90.06
400.389	99.06
400.613	93.06
400.837	91.06
401.062	86.06
401.286	87.06
401.51	97.06
401.734	84.06
401.958	98.06
402.182	139.06
402.406	156.06
402.63	116.06
402.854	90.06
403.078	90.06
403.302	103.06
403.526	90.06
403.75	95.06
403.974	91.06
404.198	88.06
404.422	85.06
404.645	94.06
404.869	80.06
405.093	96.06
405.317	107.06
405.541	97.06
405.765	106.06
405.988	104.06
406.212	161.06
406.436	205.06
406.66	147.06
406.883	94.06
407.107	100.06
407.331	107.06
407.555	91.06
407.778	94.06
408.002	103.06
408.226	100.06
408.449	109.06
408.673	104.06
408.896	106.06
409.12	104.06
409.344	100.06
409.567	97.06
409.791	100.06
410.014	106.06
410.238	98.06
410.461	100.06
410.685	95.06
410.908	82.06
411.132	97.06
411.355	86.06
411.578	92.06
411.802	93.06
412.025	96.06
412.249	99.06
412.472	100.06
412.695	95.06
412.919	89.06
413.142	99.06
413.365	94.06
413.589	101.06
413.812	88.06
414.035	107.06
414.258	90.06
414.482	84.06
414.705	92.06
414.928	94.06
415.151	96.06
415.374	102.06
415.597	89.06
415.821	99.06
416.044	95.06
416.267	89.06
416.49	95.06
416.713	91.06
416.936	89.06
417.159	88.06
417.382	84.06
417.605	93.06
417.828	106.06
418.051	104.06
418.274	111.06
418.497	89.06
418.72	89.06
418.943	98.06
419.166	96.06
419.389	111.06
419.611	99.06
419.834	90.06
420.057	90.06
420.28	99.06
420.503	81.06
420.726	81.06
420.948	92.06
421.171	87.06
421.394	94.06
421.617	96.06
421.839	96.06
422.062	90.06
422.285	94.06
422.507	95.06
422.73	110.06
422.953	102.06
423.175	102.06
423.398	116.06
423.621	92.06
423.843	88.06
424.066	87.06
424.288	88.06
424.511	101.06
424.733	101.06
424.956	118.06
425.178	110.06
425.401	101.06
425.623	104.06
425.846	109.06
426.068	100.06
426.291	85.06
426.513	92.06
426.735	91.06
426.958	113.06
427.18	112.06
427.402	139.06
427.625	156.06
427.847	116.06
428.069	115.06
428.292	84.06
428.514	92.06
428.736	85.06
428.958	83.06
429.181	99.06
429.403	84.06
429.625	90.06
429.847	106.06
430.069	101.06
430.292	97.06
430.514	90.06
430.736	87.06
430.958	92.06
431.18	86.06
431.402	82.06
431.624	79.06
431.846	96.06
432.068	85.06
432.29	77.06
432.512	112.06
432.734	108.06
432.956	96.06
433.178	109.06
433.4	98.06
433.622	96.06
433.844	92.06
434.066	97.06
434.287	109.06
434.509	90.06
434.731	98.06
434.953	89.06
435.175	80.06
435.397	84.06
435.618	99.06
435.84	105.06
436.062	118.06
436.284	113.06
436.505	110.06
436.727	97.06
436.949	104.06
437.17	103.06
437.392	81.06
437.614	75.06
437.835	109.06
438.057	118.06
438.278	101.06
438.5	94.06
438.721	116.06
438.943	104.06
439.165	100.06
439.386	92.06
439.608	90.06
439.829	108.06
440.05	133.06
440.272	144.06
440.493	96.06
440.715	97.06
440.936	86.06
441.158	89.06
441.379	86.06
441.6	96.06
441.822	92.06
442.043	92.06
442.264	84.06
442.486	103.06
442.707	98.06
442.928	91.06
443.149	105.06
443.371	118.06
443.592	106.06
443.813	117.06
444.034	115.06
444.255	92.06
444.476	94.06
444.698	100.06
444.919	94.06
445.14	129.06
445.361	127.06
445.582	111.06
445.803	123.06
446.024	144.06
446.245	142.06
446.466	100.06
446.687	88.06
446.908	97.06
447.129	86.06
447.35	96.06
447.571	105.06
447.792	107.06
448.013	105.06
448.234	96.06
448.455	94.06
448.675	124.06
448.896	122.06
449.117	105.06
449.338	102.06
449.559	126.06
449.779	124.06
450	104.06
450.221	97.06
450.442	97.06
450.662	97.06
450.883	116.06
451.104	91.06
451.324	89.06
451.545	90.06
451.766	100.06
451.986	93.06
452.207	80.06
452.428	82.06
452.648	87.06
452.869	113.06
453.089	116.06
453.31	96.06
453.53	97.06
453.751	93.06
453.971	112.06
454.192	117.06
454.412	100.06
454.633	89.06
454.853	91.06
455.073	99.06
455.294	99.06
455.514	89.06
455.734	82.06
455.955	83.06
456.175	100.06
456.395	91.06
456.616	77.06
456.836	90.06
457.056	78.06
457.276	90.06
457.497	86.06
457.717	102.06
457.937	85.06
458.157	95.06
458.377	99.06
458.598	107.06
458.818	144.06
459.038	141.06
459.258	122.06
459.478	103.06
459.698	79.06
459.918	91.06
460.138	99.06
460.358	73.06
460.578	86.06
460.798	84.06
461.018	83.06
461.238	86.06
461.458	80.06
461.678	100.06
461.898	85.06
462.118	88.06
462.338	87.06
462.558	82.06
462.777	81.06
462.997	90.06
463.217	100.06
463.437	115.06
463.657	89.06
463.876	97.06
464.096	107.06
464.316	96.06
464.536	94.06
464.755	85.06
464.975	116.06
465.195	154.06
465.414	150.06
465.634	101.06
465.854	82.06
466.073	83.06
466.293	98.06
466.512	94.06
466.732	91.06
466.951	85.06
467.171	91.06
467.391	93.06
467.61	106.06
467.829	100.06
468.049	89.06
468.268	94.06
468.488	90.06
468.707	87.06
468.927	94.06
469.146	104.06
469.365	94.06
469.585	97.06
469.804	86.06
470.023	92.06
470.243	92.06
470.462	107.06
470.681	115.06
470.901	87.06
471.12	91.06
471.339	103.06
471.558	80.06
471.777	82.06
471.997	80.06
472.216	98.06
472.435	105.06
472.654	98.06
472.873	102.06
473.092	89.06
473.311	88.06
473.53	81.06
473.749	88.06
473.968	89.06
474.187	84.06
474.406	87.06
474.625	77.06
474.844	84.06
475.063	107.06
475.282	74.06
475.501	91.06
475.72	94.06
475.939	78.06
476.158	97.06
476.377	84.06
476.596	90.06
476.814	96.06
477.033	107.06
477.252	98.06
477.471	82.06
477.69	98.06
477.908	98.06
478.127	95.06
478.346	86.06
478.564	105.06
478.783	101.06
479.002	91.06
479.22	86.06
479.439	105.06
479.658	82.06
479.876	89.06
480.095	97.06
480.313	91.06
480.532	87.06
480.751	90.06
480.969	91.06
481.188	125.06
481.406	120.06
481.624	96.06
481.843	92.06
482.061	87.06
482.28	103.06
482.498	94.06
482.717	94.06
482.935	82.06
483.153	102.06
483.372	96.06
483.59	86.06
483.808	85.06
484.027	91.06
484.245	85.06
484.463	96.06
484.681	96.06
484.9	98.06
485.118	96.06
485.336	98.06
485.554	91.06
485.772	96.06
485.99	98.06
486.209	92.06
486.427	109.06
486.645	117.06
486.863	112.06
487.081	91.06
487.299	98.06
487.517	102.06
487.735	87.06
487.953	92.06
488.171	103.06
488.389	98.06
488.607	105.06
488.825	97.06
489.043	98.06
489.261	98.06
489.479	80.06
489.696	81.06
489.914	91.06
490.132	96.06
490.35	95.06
490.568	102.06
490.786	101.06
491.003	107.06
491.221	97.06
491.439	93.06
491.657	100.06
491.874	108.06
492.092	104.06
492.31	89.06
492.527	76.06
492.745	91.06
492.963	101.06
493.18	100.06
493.398	102.06
493.615	99.06
493.833	99.06
494.05	102.06
494.268	102.06
494.485	91.06
494.703	82.06
494.92	94.06
495.138	102.06
495.355	82.06
495.573	102.06
495.79	98.06
496.008	97.06
496.225	86.06
496.442	100.06
496.66	73.06
496.877	82.06
497.094	101.06
497.312	98.06
497.529	84.06
497.746	91.06
497.963	83.06
498.181	93.06
498.398	109.06
498.615	109.06
498.832	105.06
499.049	76.06
499.267	84.06
499.484	87.06
499.701	101.06
499.918	93.06
500.135	95.06
500.352	75.06
500.569	98.06
500.786	93.06
501.003	90.06
501.22	109.06
501.437	102.06
501.654	101.06
501.871	106.06
502.088	74.06
502.305	83.06
502.522	93.06
502.739	92.06
502.956	92.06
503.172	93.06
503.389	93.06
503.606	115.06
503.823	97.06
504.04	85.06
504.256	91.06
504.473	99.06
504.69	98.06
504.907	109.06
505.123	100.06
505.34	105.06
505.557	83.06
505.773	94.06
505.99	93.06
506.207	91.06
506.423	79.06
506.64	87.06
506.856	90.06
507.073	99.06
507.289	109.06
507.506	105.06
507.722	98.06
507.939	106.06
508.155	101.06
508.372	97.06
508.588	92.06
508.805	113.06
509.021	96.06
509.238	92.06
509.454	106.06
509.67	107.06
509.887	105.06
510.103	142.06
510.319	221.06
510.536	746.06
510.752	2448.06
510.968	676.06
511.184	156.06
511.401	111.06
511.617	104.06
511.833	92.06
512.049	92.06
512.265	92.06
512.481	84.06
512.698	90.06
512.914	98.06
513.13	102.06
513.346	99.06
513.562	97.06
513.778	104.06
513.994	105.06
514.21	115.06
514.426	116.06
514.642	145.06
514.858	131.06
515.074	172.06
515.29	469.06
515.506	1483.06
515.721	520.06
515.937	135.06
516.153	112.06
516.369	94.06
516.585	89.06
516.801	108.06
517.016	101.06
517.232	91.06
517.448	100.06
517.664	93.06
517.879	104.06
518.095	105.06
518.311	100.06
518.527	85.06
518.742	100.06
518.958	105.06
519.173	92.06
519.389	94.06
519.605	87.06
519.82	118.06
520.036	108.06
520.251	130.06
520.467	106.06
520.682	117.06
520.898	114.06
521.113	122.06
521.329	137.06
521.544	198.06
521.76	560.06
521.975	2390.06
522.19	1450.06
522.406	322.06
522.621	122.06
522.836	105.06
523.052	103.06
523.267	106.06
523.482	102.06
523.698	113.06
523.913	123.06
524.128	121.06
524.343	120.06
524.559	89.06
524.774	88.06
524.989	106.06
525.204	105.06
525.419	107.06
525.634	99.06
525.849	110.06
526.064	96.06
526.28	106.06
526.495	84.06
526.71	117.06
526.925	102.06
527.14	97.06
527.355	84.06
527.57	91.06
527.785	92.06
527.999	105.06
528.214	103.06
528.429	100.06
528.644	84.06
528.859	93.06
529.074	93.06
529.289	118.06
529.503	172.06
529.718	109.06
529.933	112.06
530.148	97.06
530.363	99.06
530.577	90.06
530.792	104.06
531.007	97.06
531.221	90.06
531.436	108.06
531.651	96.06
531.865	94.06
532.08	98.06
532.295	94.06
532.509	91.06
532.724	86.06
532.938	98.06
533.153	114.06
533.367	97.06
533.582	101.06
533.796	86.06
534.011	92.06
534.225	90.06
534.44	107.06
534.654	98.06
534.868	90.06
535.083	100.06
535.297	107.06
535.511	103.06
535.726	116.06
535.94	103.06
536.154	99.06
536.369	83.06
536.583	98.06
536.797	108.06
537.011	96.06
537.225	116.06
537.44	98.06
537.654	97.06
537.868	103.06
538.082	88.06
538.296	89.06
538.51	95.06
538.724	104.06
538.938	99.06
539.153	95.06
539.367	113.06
539.581	91.06
539.795	91.06
540.009	92.06
540.222	98.06
540.436	101.06
540.65	99.06
540.864	77.06
541.078	86.06
541.292	90.06
541.506	82.06
541.72	83.06
541.934	76.06
542.147	89.06
542.361	84.06
542.575	92.06
542.789	91.06
543.002	100.06
543.216	100.06
543.43	103.06
543.644	98.06
543.857	101.06
544.071	97.06
544.285	89.06
544.498	92.06
544.712	93.06
544.925	99.06
545.139	105.06
545.352	83.06
545.566	87.06
545.779	90.06
545.993	102.06
546.206	111.06
546.42	100.06
546.633	83.06
546.847	100.06
547.06	93.06
547.274	80.06
547.487	94.06
547.7	93.06
547.914	94.06
548.127	105.06
548.34	79.06
548.554	82.06
548.767	101.06
548.98	90.06
549.193	94.06
549.407	95.06
549.62	95.06
549.833	101.06
550.046	94.06
550.259	86.06
550.473	87.06
550.686	92.06
550.899	91.06
551.112	86.06
551.325	98.06
551.538	89.06
551.751	85.06
551.964	88.06
552.177	96.06
552.39	92.06
552.603	98.06
552.816	87.06
553.029	103.06
553.242	101.06
553.455	101.06
553.667	114.06
553.88	104.06
554.093	88.06
554.306	106.06
554.519	92.06
554.732	92.06
554.944	97.06
555.157	90.06
555.37	93.06
555.583	92.06
555.795	102.06
556.008	92.06
556.221	104.06
556.433	94.06
556.646	95.06
556.859	100.06
557.071	96.06
557.284	84.06
557.496	93.06
557.709	96.06
557.921	91.06
558.134	93.06
558.346	83.06
558.559	87.06
558.771	87.06
558.984	98.06
559.196	107.06
559.409	89.06
559.621	97.06
559.833	92.06
560.046	92.06
560.258	105.06
560.47	91.06
560.683	91.06
560.895	84.06
561.107	103.06
561.32	100.06
561.532	100.06
561.744	92.06
561.956	93.06
562.168	108.06
562.381	88.06
562.593	94.06
562.805	77.06
563.017	90.06
563.229	90.06
563.441	98.06
563.653	73.06
563.865	86.06
564.077	85.06
564.289	90.06
564.501	89.06
564.713	98.06
564.925	83.06
565.137	103.06
565.349	98.06
565.561	92.06
565.773	85.06
565.985	102.06
566.197	85.06
566.408	80.06
566.62	84.06
566.832	98.06
567.044	101.06
567.255	99.06
567.467	100.06
567.679	81.06
567.891	101.06
568.102	98.06
568.314	82.06
568.526	76.06
568.737	93.06
568.949	94.06
569.161	89.06
569.372	98.06
569.584	99.06
569.795	104.06
570.007	129.06
570.218	272.06
570.43	144.06
570.641	112.06
570.853	90.06
571.064	108.06
571.276	73.06
571.487	84.06
571.698	89.06
571.91	97.06
572.121	98.06
572.333	93.06
572.544	91.06
572.755	100.06
572.966	95.06
573.178	88.06
573.389	95.06
573.6	90.06
573.811	104.06
574.023	93.06
574.234	85.06
574.445	88.06
574.656	87.06
574.867	88.06
575.078	93.06
575.289	90.06
575.501	98.06
575.712	94.06
575.923	94.06
576.134	80.06
576.345	96.06
576.556	85.06
576.767	91.06
576.978	99.06
577.188	96.06
577.399	105.06
577.61	107.06
577.821	98.06
578.032	106.06
578.243	279.06
578.454	796.06
578.665	224.06
578.875	106.06
579.086	92.06
579.297	92.06
579.508	99.06
579.718	100.06
579.929	84.06
580.14	78.06
580.35	77.06
580.561	82.06
580.772	100.06
580.982	92.06
581.193	90.06
581.403	101.06
581.614	105.06
581.825	83.06
582.035	79.06
582.246	84.06
582.456	91.06
582.667	98.06
582.877	98.06
583.087	84.06
583.298	86.06
583.508	79.06
583.719	79.06
583.929	107.06
584.139	88.06
584.35	98.06
584.56	92.06
584.77	98.06
584.981	96.06
585.191	86.06
585.401	100.06
585.611	89.06
585.821	77.06
586.032	97.06
586.242	96.06
586.452	92.06
586.662	93.06
586.872	95.06
587.082	89.06
587.292	81.06
587.502	80.06
587.713	85.06
587.923	93.06
588.133	85.06
588.343	76.06
588.553	91.06
588.762	104.06
588.972	113.06
589.182	108.06
589.392	92.06
589.602	93.06
589.812	104.06
590.022	96.06
590.232	91.06
590.441	87.06
590.651	84.06
590.861	80.06
591.071	72.06
591.281	100.06
591.49	89.06
591.7	100.06
591.91	82.06
592.119	90.06
592.329	106.06
592.539	94.06
592.748	104.06
592.958	88.06
593.167	85.06
593.377	94.06
593.587	105.06
593.796	89.06
594.006	97.06
594.215	92.06
594.424	97.06
594.634	85.06
594.843	88.06
595.053	84.06
595.262	103.06
595.472	88.06
595.681	108.06
595.89	96.06
596.1	89.06
596.309	94.06
596.518	91.06
596.727	92.06
596.937	89.06
597.146	85.06
597.355	90.06
597.564	87.06
597.774	93.06
597.983	79.06
598.192	94.06
598.401	96.06
598.61	101.06
598.819	86.06
599.028	87.06
599.237	91.06
599.446	91.06
599.655	85.06
599.864	89.06
600.073	93.06
600.282	79.06
600.491	100.06
600.7	91.06
600.909	82.06
601.118	101.06
601.327	114.06
601.536	98.06
601.745	93.06
601.953	99.06
602.162	94.06
602.371	81.06
602.58	90.06
602.789	89.06
602.997	103.06
603.206	102.06
603.415	85.06
603.623	83.06
603.832	98.06
604.041	92.06
604.249	84.06
604.458	98.06
604.666	89.06
604.875	111.06
605.084	90.06
605.292	106.06
605.501	85.06
605.709	75.06
605.918	87.06
606.126	87.06
606.334	96.06
606.543	83.06
606.751	86.06
606.96	87.06
607.168	88.06
607.376	78.06
607.585	86.06
607.793	92.06
608.001	96.06
608.21	98.06
608.418	106.06
608.626	91.06
608.834	86.06
609.043	94.06
609.251	96.06
609.459	86.06
609.667	101.06
609.875	89.06
610.083	87.06
610.291	100.06
610.499	96.06
610.707	94.06
610.916	88.06
611.124	89.06
611.332	88.06
611.54	91.06
611.748	94.06
611.955	93.06
612.163	92.06
612.371	91.06
612.579	83.06
612.787	97.06
612.995	83.06
613.203	93.06
613.411	92.06
613.618	99.06
613.826	90.06
614.034	87.06
614.242	84.06
614.449	87.06
614.657	90.06
614.865	85.06
615.072	91.06
615.28	93.06
615.488	101.06
615.695	95.06
615.903	100.06
616.111	98.06
616.318	84.06
616.526	91.06
616.733	99.06
616.941	93.06
617.148	97.06
617.356	76.06
617.563	88.06
617.771	92.06
617.978	90.06
618.185	93.06
618.393	86.06
618.6	84.06
618.807	86.06
619.015	81.06
619.222	76.06
619.429	98.06
619.637	90.06
619.844	93.06
620.051	92.06
620.258	90.06
620.466	97.06
620.673	78.06
620.88	97.06
621.087	95.06
621.294	92.06
621.501	85.06
621.708	89.06
621.915	91.06
622.122	99.06
622.329	93.06
622.536	83.06
622.743	73.06
622.95	82.06
623.157	92.06
623.364	83.06
623.571	69.06
623.778	89.06
623.985	78.06
624.192	96.06
624.399	84.06
624.606	84.06
624.812	90.06
625.019	85.06
625.226	87.06
625.433	89.06
625.639	82.06
625.846	91.06
626.053	87.06
626.259	96.06
626.466	88.06
626.673	81.06
626.879	92.06
627.086	94.06
627.293	97.06
627.499	83.06
627.706	103.06
627.912	88.06
628.119	86.06
628.325	80.06
628.532	102.06
628.738	98.06
628.945	75.06
629.151	76.06
629.357	105.06
629.564	92.06
629.77	92.06
629.976	87.06
630.183	88.06
630.389	76.06
630.595	96.06
630.802	82.06
631.008	87.06
631.214	93.06
631.42	90.06
631.627	86.06
631.833	77.06
632.039	89.06
632.245	96.06
632.451	83.06
632.657	78.06
632.863	88.06
633.069	83.06
633.275	96.06
633.481	84.06
633.688	77.06
633.893	85.06
634.099	80.06
634.305	67.06
634.511	80.06
634.717	94.06
634.923	94.06
635.129	99.06
635.335	70.06
635.541	89.06
635.747	80.06
635.952	80.06
636.158	85.06
636.364	92.06
636.57	97.06
636.775	89.06
636.981	81.06
637.187	96.06
637.392	91.06
637.598	77.06
637.804	79.06
638.009	83.06
638.215	86.06
638.421	106.06
638.626	96.06
638.832	94.06
639.037	85.06
639.243	88.06
639.448	76.06
639.654	100.06
639.859	94.06
640.065	77.06
640.27	93.06
640.475	82.06
640.681	75.06
640.886	89.06
641.091	95.06
641.297	94.06
641.502	87.06
641.707	101.06
641.913	95.06
642.118	98.06
642.323	100.06
642.528	93.06
642.733	86.06
642.939	90.06
643.144	91.06
643.349	87.06
643.554	84.06
643.759	96.06
643.964	85.06
644.169	91.06
644.374	98.06
644.579	94.06
644.784	84.06
644.989	77.06
645.194	88.06
645.399	90.06
645.604	91.06
645.809	93.06
646.014	86.06
646.219	99.06
646.423	92.06
646.628	93.06
646.833	92.06
647.038	89.06
647.243	102.06
647.447	89.06
647.652	73.06
647.857	98.06
648.062	99.06
648.266	89.06
648.471	91.06
648.676	107.06
648.88	107.06
649.085	88.06
649.289	86.06
649.494	120.06
649.698	144.06
649.903	94.06
650.107	94.06
650.312	90.06
650.516	88.06
650.721	99.06
650.925	80.06
651.13	90.06
651.334	91.06
651.539	97.06
651.743	80.06
651.947	92.06
652.152	86.06
652.356	85.06
652.56	75.06
652.764	88.06
652.969	90.06
653.173	88.06
653.377	97.06
653.581	81.06
653.785	93.06
653.99	85.06
654.194	89.06
654.398	82.06
654.602	99.06
654.806	98.06
655.01	112.06
655.214	94.06
655.418	92.06
655.622	93.06
655.826	89.06
656.03	91.06
656.234	91.06
656.438	91.06
656.642	101.06
656.846	88.06
657.049	91.06
657.253	91.06
657.457	100.06
657.661	90.06
657.865	94.06
658.068	86.06
658.272	90.06
658.476	90.06
658.68	84.06
658.883	87.06
659.087	74.06
659.291	89.06
659.494	83.06
659.698	82.06
659.901	94.06
660.105	89.06
660.309	78.06
660.512	82.06
660.716	88.06
660.919	79.06
661.123	97.06
661.326	82.06
661.53	69.06
661.733	90.06
661.936	77.06
662.14	93.06
662.343	105.06
662.546	87.06
662.75	96.06
662.953	83.06
663.156	80.06
663.36	79.06
663.563	85.06
663.766	85.06
663.969	90.06
664.173	80.06
664.376	83.06
664.579	87.06
664.782	94.06
664.985	96.06
665.188	73.06
665.391	82.06
665.594	84.06
665.797	86.06
666	78.06
666.203	82.06
666.406	82.06
666.609	85.06
666.812	96.06
667.015	89.06
667.218	86.06
667.421	84.06
667.624	78.06
667.827	84.06
668.03	77.06
668.232	87.06
668.435	77.06
668.638	93.06
668.841	80.06
669.043	87.06
669.246	86.06
669.449	90.06
669.651	91.06
669.854	66.06
670.057	77.06
670.259	86.06
670.462	77.06
670.665	77.06
670.867	95.06
671.07	86.06
671.272	64.06
671.475	84.06
671.677	78.06
671.88	90.06
672.082	86.06
672.284	94.06
672.487	85.06
672.689	83.06
672.892	67.06
