Data from Uncirc_2004_H10_HRD10591_00097.txt Node
Date: Wed Jan 03 10:32:32 EST 2024
User: Yrep
Spectrometer: HR+D1059
Trigger mode: 1
Integration Time (sec): 1.000000E-1
Scans to average: 1
Electric dark correction enabled: true
Nonlinearity correction enabled: false
Boxcar width: 0
XAxis mode: Wavelengths
Number of Pixels in Spectrum: 2048
>>>>>Begin Spectral Data<<<<<
223.165	-19.75
223.4	-19.75
223.635	-19.75
223.869	-11.75
224.104	-32.75
224.338	-18.75
224.573	-16.75
224.808	-8.75
225.042	-20.75
225.277	-1.75
225.511	-9.75
225.746	4.25
225.98	18.25
226.215	12.25
226.449	24.25
226.683	27.25
226.918	24.25
227.152	30.25
227.387	36.25
227.621	39.25
227.856	43.25
228.09	48.25
228.324	60.25
228.559	62.25
228.793	70.25
229.027	48.25
229.262	71.25
229.496	74.25
229.73	102.25
229.964	78.25
230.199	79.25
230.433	89.25
230.667	72.25
230.901	80.25
231.136	65.25
231.37	89.25
231.604	84.25
231.838	98.25
232.072	77.25
232.306	73.25
232.541	57.25
232.775	81.25
233.009	69.25
233.243	90.25
233.477	76.25
233.711	71.25
233.945	81.25
234.179	85.25
234.413	87.25
234.647	70.25
234.881	84.25
235.115	94.25
235.349	65.25
235.583	68.25
235.817	75.25
236.051	88.25
236.285	82.25
236.519	70.25
236.753	96.25
236.987	82.25
237.221	80.25
237.455	76.25
237.689	77.25
237.922	71.25
238.156	75.25
238.39	85.25
238.624	78.25
238.858	77.25
239.091	77.25
239.325	81.25
239.559	80.25
239.793	84.25
240.027	81.25
240.26	72.25
240.494	82.25
240.728	64.25
240.961	84.25
241.195	73.25
241.429	77.25
241.662	73.25
241.896	74.25
242.13	86.25
242.363	73.25
242.597	81.25
242.83	85.25
243.064	86.25
243.298	78.25
243.531	80.25
243.765	84.25
243.998	90.25
244.232	68.25
244.465	87.25
244.699	94.25
244.932	72.25
245.166	84.25
245.399	86.25
245.633	81.25
245.866	85.25
246.099	92.25
246.333	76.25
246.566	82.25
246.8	79.25
247.033	79.25
247.266	83.25
247.5	78.25
247.733	74.25
247.966	81.25
248.2	88.25
248.433	83.25
248.666	88.25
248.899	76.25
249.133	90.25
249.366	119.25
249.599	88.25
249.832	75.25
250.066	92.25
250.299	82.25
250.532	73.25
250.765	84.25
250.998	78.25
251.231	72.25
251.465	85.25
251.698	71.25
251.931	90.25
252.164	84.25
252.397	78.25
252.63	76.25
252.863	84.25
253.096	81.25
253.329	80.25
253.562	84.25
253.795	92.25
254.028	90.25
254.261	78.25
254.494	75.25
254.727	84.25
254.96	85.25
255.193	91.25
255.426	81.25
255.659	82.25
255.892	82.25
256.124	84.25
256.357	80.25
256.59	71.25
256.823	79.25
257.056	86.25
257.289	91.25
257.521	71.25
257.754	86.25
257.987	85.25
258.22	85.25
258.452	77.25
258.685	97.25
258.918	84.25
259.151	68.25
259.383	81.25
259.616	77.25
259.849	73.25
260.081	76.25
260.314	86.25
260.547	86.25
260.779	82.25
261.012	76.25
261.244	85.25
261.477	96.25
261.71	97.25
261.942	115.25
262.175	116.25
262.407	78.25
262.64	86.25
262.872	93.25
263.105	80.25
263.337	73.25
263.57	88.25
263.802	77.25
264.035	78.25
264.267	79.25
264.499	80.25
264.732	76.25
264.964	74.25
265.197	87.25
265.429	86.25
265.661	79.25
265.894	84.25
266.126	81.25
266.358	97.25
266.591	86.25
266.823	79.25
267.055	100.25
267.287	74.25
267.52	71.25
267.752	74.25
267.984	72.25
268.216	82.25
268.448	90.25
268.681	73.25
268.913	82.25
269.145	77.25
269.377	80.25
269.609	93.25
269.841	87.25
270.073	79.25
270.306	94.25
270.538	92.25
270.77	89.25
271.002	90.25
271.234	83.25
271.466	87.25
271.698	93.25
271.93	82.25
272.162	90.25
272.394	83.25
272.626	78.25
272.858	78.25
273.09	77.25
273.322	87.25
273.553	76.25
273.785	80.25
274.017	85.25
274.249	89.25
274.481	89.25
274.713	86.25
274.945	95.25
275.176	103.25
275.408	76.25
275.64	89.25
275.872	82.25
276.104	80.25
276.335	99.25
276.567	107.25
276.799	112.25
277.031	101.25
277.262	95.25
277.494	79.25
277.726	89.25
277.957	93.25
278.189	102.25
278.421	80.25
278.652	95.25
278.884	78.25
279.115	85.25
279.347	91.25
279.579	84.25
279.81	77.25
280.042	80.25
280.273	87.25
280.505	76.25
280.736	86.25
280.968	86.25
281.199	93.25
281.431	76.25
281.662	85.25
281.894	101.25
282.125	110.25
282.356	111.25
282.588	152.25
282.819	118.25
283.051	78.25
283.282	86.25
283.513	93.25
283.745	96.25
283.976	81.25
284.207	108.25
284.439	90.25
284.67	88.25
284.901	95.25
285.132	103.25
285.364	86.25
285.595	81.25
285.826	83.25
286.057	81.25
286.288	84.25
286.52	84.25
286.751	75.25
286.982	87.25
287.213	94.25
287.444	73.25
287.675	82.25
287.906	93.25
288.138	82.25
288.369	99.25
288.6	97.25
288.831	88.25
289.062	90.25
289.293	90.25
289.524	80.25
289.755	86.25
289.986	72.25
290.217	81.25
290.448	77.25
290.679	90.25
290.91	87.25
291.141	80.25
291.371	94.25
291.602	78.25
291.833	84.25
292.064	96.25
292.295	92.25
292.526	79.25
292.757	88.25
292.987	93.25
293.218	96.25
293.449	90.25
293.68	90.25
293.91	72.25
294.141	93.25
294.372	90.25
294.603	100.25
294.833	99.25
295.064	98.25
295.295	89.25
295.525	104.25
295.756	85.25
295.987	125.25
296.217	148.25
296.448	120.25
296.679	98.25
296.909	99.25
297.14	98.25
297.37	88.25
297.601	86.25
297.831	98.25
298.062	99.25
298.292	94.25
298.523	100.25
298.753	96.25
298.984	73.25
299.214	84.25
299.445	85.25
299.675	89.25
299.905	90.25
300.136	89.25
300.366	84.25
300.597	75.25
300.827	72.25
301.057	96.25
301.288	104.25
301.518	103.25
301.748	87.25
301.979	98.25
302.209	97.25
302.439	87.25
302.669	83.25
302.9	96.25
303.13	84.25
303.36	106.25
303.59	100.25
303.82	106.25
304.051	91.25
304.281	88.25
304.511	102.25
304.741	101.25
304.971	83.25
305.201	88.25
305.431	91.25
305.661	78.25
305.891	91.25
306.121	94.25
306.352	100.25
306.582	102.25
306.812	95.25
307.042	94.25
307.272	105.25
307.502	93.25
307.731	110.25
307.961	93.25
308.191	90.25
308.421	96.25
308.651	90.25
308.881	98.25
309.111	93.25
309.341	89.25
309.571	106.25
309.8	101.25
310.03	99.25
310.26	112.25
310.49	89.25
310.72	93.25
310.949	82.25
311.179	102.25
311.409	91.25
311.639	89.25
311.868	96.25
312.098	96.25
312.328	91.25
312.557	104.25
312.787	102.25
313.017	97.25
313.246	88.25
313.476	94.25
313.706	76.25
313.935	78.25
314.165	94.25
314.394	109.25
314.624	110.25
314.853	92.25
315.083	82.25
315.312	90.25
315.542	81.25
315.771	82.25
316.001	90.25
316.23	86.25
316.46	89.25
316.689	93.25
316.919	99.25
317.148	79.25
317.377	100.25
317.607	96.25
317.836	89.25
318.065	103.25
318.295	97.25
318.524	86.25
318.753	111.25
318.983	100.25
319.212	119.25
319.441	104.25
319.67	97.25
319.9	94.25
320.129	89.25
320.358	89.25
320.587	87.25
320.816	106.25
321.046	97.25
321.275	94.25
321.504	87.25
321.733	97.25
321.962	96.25
322.191	105.25
322.42	102.25
322.649	120.25
322.878	90.25
323.108	116.25
323.337	114.25
323.566	145.25
323.795	144.25
324.024	223.25
324.253	417.25
324.482	869.25
324.71	1736.25
324.939	2261.25
325.168	821.25
325.397	244.25
325.626	144.25
325.855	132.25
326.084	126.25
326.313	138.25
326.542	160.25
326.77	241.25
326.999	471.25
327.228	982.25
327.457	1712.25
327.686	1352.25
327.914	373.25
328.143	199.25
328.372	156.25
328.6	128.25
328.829	121.25
329.058	137.25
329.287	126.25
329.515	102.25
329.744	111.25
329.972	97.25
330.201	107.25
330.43	113.25
330.658	130.25
330.887	138.25
331.115	126.25
331.344	89.25
331.572	108.25
331.801	103.25
332.03	105.25
332.258	108.25
332.486	92.25
332.715	105.25
332.943	91.25
333.172	90.25
333.4	82.25
333.629	111.25
333.857	115.25
334.085	104.25
334.314	115.25
334.542	118.25
334.771	96.25
334.999	92.25
335.227	106.25
335.455	103.25
335.684	96.25
335.912	87.25
336.14	101.25
336.369	96.25
336.597	113.25
336.825	79.25
337.053	102.25
337.281	93.25
337.51	111.25
337.738	90.25
337.966	110.25
338.194	108.25
338.422	89.25
338.65	101.25
338.878	86.25
339.106	99.25
339.334	89.25
339.562	100.25
339.79	100.25
340.018	85.25
340.246	88.25
340.474	101.25
340.702	91.25
340.93	106.25
341.158	96.25
341.386	93.25
341.614	91.25
341.842	104.25
342.07	80.25
342.298	105.25
342.526	89.25
342.754	97.25
342.981	103.25
343.209	84.25
343.437	101.25
343.665	95.25
343.893	89.25
344.12	94.25
344.348	89.25
344.576	104.25
344.804	101.25
345.031	95.25
345.259	104.25
345.487	93.25
345.714	90.25
345.942	103.25
346.17	96.25
346.397	94.25
346.625	90.25
346.853	100.25
347.08	85.25
347.308	87.25
347.535	106.25
347.763	104.25
347.99	93.25
348.218	110.25
348.445	102.25
348.673	101.25
348.9	85.25
349.128	89.25
349.355	91.25
349.583	99.25
349.81	97.25
350.037	99.25
350.265	101.25
350.492	87.25
350.72	105.25
350.947	98.25
351.174	96.25
351.402	110.25
351.629	108.25
351.856	102.25
352.083	101.25
352.311	112.25
352.538	126.25
352.765	101.25
352.992	104.25
353.22	113.25
353.447	105.25
353.674	109.25
353.901	97.25
354.128	100.25
354.355	112.25
354.583	99.25
354.81	105.25
355.037	97.25
355.264	101.25
355.491	91.25
355.718	102.25
355.945	95.25
356.172	101.25
356.399	101.25
356.626	94.25
356.853	81.25
357.08	92.25
357.307	95.25
357.534	91.25
357.761	97.25
357.988	90.25
358.215	90.25
358.441	86.25
358.668	95.25
358.895	92.25
359.122	83.25
359.349	86.25
359.576	91.25
359.802	97.25
360.029	102.25
360.256	102.25
360.483	95.25
360.709	89.25
360.936	99.25
361.163	85.25
361.39	86.25
361.616	93.25
361.843	101.25
362.07	99.25
362.296	105.25
362.523	88.25
362.749	87.25
362.976	84.25
363.203	93.25
363.429	90.25
363.656	79.25
363.882	87.25
364.109	92.25
364.335	98.25
364.562	89.25
364.788	81.25
365.015	96.25
365.241	87.25
365.468	113.25
365.694	100.25
365.92	95.25
366.147	87.25
366.373	87.25
366.599	74.25
366.826	92.25
367.052	94.25
367.278	88.25
367.505	81.25
367.731	89.25
367.957	88.25
368.184	89.25
368.41	103.25
368.636	117.25
368.862	119.25
369.089	121.25
369.315	93.25
369.541	103.25
369.767	92.25
369.993	103.25
370.219	91.25
370.445	83.25
370.672	101.25
370.898	95.25
371.124	91.25
371.35	89.25
371.576	92.25
371.802	95.25
372.028	97.25
372.254	90.25
372.48	92.25
372.706	83.25
372.932	86.25
373.158	97.25
373.384	85.25
373.61	98.25
373.835	88.25
374.061	87.25
374.287	89.25
374.513	99.25
374.739	82.25
374.965	82.25
375.191	95.25
375.416	88.25
375.642	94.25
375.868	93.25
376.094	111.25
376.319	76.25
376.545	89.25
376.771	89.25
376.997	84.25
377.222	83.25
377.448	81.25
377.674	93.25
377.899	87.25
378.125	112.25
378.35	90.25
378.576	89.25
378.802	93.25
379.027	97.25
379.253	93.25
379.478	94.25
379.704	90.25
379.929	104.25
380.155	96.25
380.38	86.25
380.606	93.25
380.831	91.25
381.057	104.25
381.282	103.25
381.507	90.25
381.733	94.25
381.958	108.25
382.184	105.25
382.409	105.25
382.634	99.25
382.86	109.25
383.085	92.25
383.31	104.25
383.535	95.25
383.761	106.25
383.986	101.25
384.211	101.25
384.436	83.25
384.662	95.25
384.887	97.25
385.112	96.25
385.337	106.25
385.562	114.25
385.787	113.25
386.013	106.25
386.238	101.25
386.463	95.25
386.688	81.25
386.913	97.25
387.138	101.25
387.363	111.25
387.588	98.25
387.813	105.25
388.038	105.25
388.263	111.25
388.488	103.25
388.713	88.25
388.938	83.25
389.163	93.25
389.387	86.25
389.612	76.25
389.837	97.25
390.062	96.25
390.287	79.25
390.512	103.25
390.736	99.25
390.961	108.25
391.186	108.25
391.411	104.25
391.636	74.25
391.86	85.25
392.085	81.25
392.31	88.25
392.534	86.25
392.759	84.25
392.984	93.25
393.208	92.25
393.433	85.25
393.658	85.25
393.882	84.25
394.107	84.25
394.331	92.25
394.556	92.25
394.78	81.25
395.005	99.25
395.229	95.25
395.454	89.25
395.678	86.25
395.903	84.25
396.127	88.25
396.352	96.25
396.576	79.25
396.801	92.25
397.025	89.25
397.249	75.25
397.474	93.25
397.698	77.25
397.922	87.25
398.147	80.25
398.371	89.25
398.595	89.25
398.82	78.25
399.044	82.25
399.268	88.25
399.492	89.25
399.717	97.25
399.941	93.25
400.165	87.25
400.389	92.25
400.613	79.25
400.837	101.25
401.062	85.25
401.286	73.25
401.51	88.25
401.734	86.25
401.958	102.25
402.182	136.25
402.406	159.25
402.63	120.25
402.854	100.25
403.078	95.25
403.302	87.25
403.526	68.25
403.75	62.25
403.974	93.25
404.198	99.25
404.422	95.25
404.645	96.25
404.869	89.25
405.093	88.25
405.317	102.25
405.541	101.25
405.765	80.25
405.988	116.25
406.212	183.25
406.436	242.25
406.66	148.25
406.883	89.25
407.107	86.25
407.331	88.25
407.555	89.25
407.778	85.25
408.002	103.25
408.226	99.25
408.449	85.25
408.673	101.25
408.896	105.25
409.12	96.25
409.344	84.25
409.567	95.25
409.791	100.25
410.014	94.25
410.238	94.25
410.461	93.25
410.685	86.25
410.908	99.25
411.132	104.25
411.355	101.25
411.578	89.25
411.802	80.25
412.025	82.25
412.249	90.25
412.472	99.25
412.695	92.25
412.919	95.25
413.142	93.25
413.365	79.25
413.589	90.25
413.812	74.25
414.035	98.25
414.258	91.25
414.482	89.25
414.705	86.25
414.928	105.25
415.151	83.25
415.374	80.25
415.597	90.25
415.821	106.25
416.044	78.25
416.267	93.25
416.49	96.25
416.713	96.25
416.936	82.25
417.159	90.25
417.382	89.25
417.605	87.25
417.828	117.25
418.051	93.25
418.274	80.25
418.497	87.25
418.72	77.25
418.943	87.25
419.166	74.25
419.389	100.25
419.611	81.25
419.834	101.25
420.057	83.25
420.28	99.25
420.503	85.25
420.726	79.25
420.948	80.25
421.171	90.25
421.394	79.25
421.617	81.25
421.839	91.25
422.062	104.25
422.285	99.25
422.507	100.25
422.73	110.25
422.953	82.25
423.175	97.25
423.398	82.25
423.621	77.25
423.843	92.25
424.066	76.25
424.288	68.25
424.511	96.25
424.733	93.25
424.956	103.25
425.178	100.25
425.401	92.25
425.623	102.25
425.846	86.25
426.068	104.25
426.291	91.25
426.513	91.25
426.735	90.25
426.958	96.25
427.18	113.25
427.402	135.25
427.625	168.25
427.847	123.25
428.069	111.25
428.292	81.25
428.514	92.25
428.736	88.25
428.958	81.25
429.181	81.25
429.403	73.25
429.625	77.25
429.847	97.25
430.069	96.25
430.292	102.25
430.514	96.25
430.736	85.25
430.958	84.25
431.18	84.25
431.402	96.25
431.624	95.25
431.846	83.25
432.068	85.25
432.29	84.25
432.512	96.25
432.734	77.25
432.956	79.25
433.178	95.25
433.4	93.25
433.622	88.25
433.844	84.25
434.066	82.25
434.287	87.25
434.509	80.25
434.731	88.25
434.953	69.25
435.175	86.25
435.397	102.25
435.618	93.25
435.84	102.25
436.062	109.25
436.284	113.25
436.505	93.25
436.727	92.25
436.949	88.25
437.17	82.25
437.392	86.25
437.614	100.25
437.835	98.25
438.057	114.25
438.278	110.25
438.5	120.25
438.721	110.25
438.943	86.25
439.165	94.25
439.386	95.25
439.608	102.25
439.829	98.25
440.05	124.25
440.272	135.25
440.493	96.25
440.715	91.25
440.936	94.25
441.158	89.25
441.379	96.25
441.6	94.25
441.822	106.25
442.043	82.25
442.264	94.25
442.486	96.25
442.707	91.25
442.928	100.25
443.149	133.25
443.371	121.25
443.592	115.25
443.813	108.25
444.034	101.25
444.255	81.25
444.476	89.25
444.698	88.25
444.919	81.25
445.14	128.25
445.361	130.25
445.582	105.25
445.803	103.25
446.024	129.25
446.245	130.25
446.466	88.25
446.687	90.25
446.908	84.25
447.129	74.25
447.35	82.25
447.571	101.25
447.792	88.25
448.013	102.25
448.234	98.25
448.455	89.25
448.675	114.25
448.896	114.25
449.117	99.25
449.338	101.25
449.559	113.25
449.779	124.25
450	87.25
450.221	86.25
450.442	80.25
450.662	84.25
450.883	112.25
451.104	104.25
451.324	85.25
451.545	79.25
451.766	95.25
451.986	85.25
452.207	95.25
452.428	92.25
452.648	90.25
452.869	106.25
453.089	119.25
453.31	130.25
453.53	104.25
453.751	92.25
453.971	99.25
454.192	108.25
454.412	98.25
454.633	97.25
454.853	90.25
455.073	95.25
455.294	93.25
455.514	90.25
455.734	99.25
455.955	82.25
456.175	99.25
456.395	83.25
456.616	83.25
456.836	98.25
457.056	82.25
457.276	85.25
457.497	90.25
457.717	95.25
457.937	105.25
458.157	76.25
458.377	106.25
458.598	98.25
458.818	151.25
459.038	151.25
459.258	94.25
459.478	76.25
459.698	78.25
459.918	80.25
460.138	82.25
460.358	91.25
460.578	92.25
460.798	67.25
461.018	98.25
461.238	91.25
461.458	83.25
461.678	100.25
461.898	83.25
462.118	95.25
462.338	87.25
462.558	88.25
462.777	87.25
462.997	87.25
463.217	93.25
463.437	85.25
463.657	80.25
463.876	89.25
464.096	100.25
464.316	86.25
464.536	97.25
464.755	98.25
464.975	94.25
465.195	155.25
465.414	146.25
465.634	95.25
465.854	96.25
466.073	97.25
466.293	90.25
466.512	94.25
466.732	84.25
466.951	97.25
467.171	86.25
467.391	82.25
467.61	94.25
467.829	106.25
468.049	86.25
468.268	97.25
468.488	96.25
468.707	87.25
468.927	73.25
469.146	82.25
469.365	93.25
469.585	89.25
469.804	97.25
470.023	101.25
470.243	82.25
470.462	98.25
470.681	100.25
470.901	90.25
471.12	90.25
471.339	95.25
471.558	80.25
471.777	81.25
471.997	98.25
472.216	90.25
472.435	102.25
472.654	106.25
472.873	86.25
473.092	96.25
473.311	98.25
473.53	91.25
473.749	82.25
473.968	96.25
474.187	115.25
474.406	90.25
474.625	102.25
474.844	97.25
475.063	103.25
475.282	75.25
475.501	90.25
475.72	91.25
475.939	84.25
476.158	84.25
476.377	77.25
476.596	79.25
476.814	94.25
477.033	93.25
477.252	99.25
477.471	82.25
477.69	89.25
477.908	105.25
478.127	98.25
478.346	92.25
478.564	100.25
478.783	112.25
479.002	105.25
479.22	86.25
479.439	81.25
479.658	95.25
479.876	94.25
480.095	86.25
480.313	88.25
480.532	86.25
480.751	82.25
480.969	100.25
481.188	126.25
481.406	107.25
481.624	89.25
481.843	96.25
482.061	85.25
482.28	77.25
482.498	78.25
482.717	90.25
482.935	103.25
483.153	95.25
483.372	89.25
483.59	89.25
483.808	92.25
484.027	87.25
484.245	108.25
484.463	86.25
484.681	98.25
484.9	91.25
485.118	92.25
485.336	97.25
485.554	102.25
485.772	106.25
485.99	113.25
486.209	109.25
486.427	97.25
486.645	104.25
486.863	115.25
487.081	102.25
487.299	94.25
487.517	96.25
487.735	97.25
487.953	97.25
488.171	104.25
488.389	108.25
488.607	86.25
488.825	88.25
489.043	85.25
489.261	100.25
489.479	88.25
489.696	92.25
489.914	93.25
490.132	91.25
490.35	86.25
490.568	104.25
490.786	84.25
491.003	89.25
491.221	97.25
491.439	88.25
491.657	103.25
491.874	100.25
492.092	87.25
492.31	103.25
492.527	94.25
492.745	92.25
492.963	92.25
493.18	95.25
493.398	87.25
493.615	89.25
493.833	93.25
494.05	79.25
494.268	90.25
494.485	84.25
494.703	90.25
494.92	95.25
495.138	74.25
495.355	90.25
495.573	86.25
495.79	88.25
496.008	97.25
496.225	91.25
496.442	83.25
496.66	98.25
496.877	97.25
497.094	108.25
497.312	81.25
497.529	83.25
497.746	90.25
497.963	96.25
498.181	88.25
498.398	80.25
498.615	106.25
498.832	99.25
499.049	83.25
499.267	84.25
499.484	93.25
499.701	87.25
499.918	91.25
500.135	87.25
500.352	83.25
500.569	95.25
500.786	92.25
501.003	90.25
501.22	90.25
501.437	98.25
501.654	97.25
501.871	118.25
502.088	97.25
502.305	86.25
502.522	85.25
502.739	93.25
502.956	81.25
503.172	101.25
503.389	89.25
503.606	108.25
503.823	97.25
504.04	98.25
504.256	88.25
504.473	85.25
504.69	107.25
504.907	94.25
505.123	79.25
505.34	98.25
505.557	98.25
505.773	93.25
505.99	88.25
506.207	80.25
506.423	88.25
506.64	80.25
506.856	85.25
507.073	95.25
507.289	101.25
507.506	97.25
507.722	105.25
507.939	117.25
508.155	93.25
508.372	105.25
508.588	96.25
508.805	100.25
509.021	99.25
509.238	97.25
509.454	102.25
509.67	97.25
509.887	134.25
510.103	130.25
510.319	213.25
510.536	860.25
510.752	2693.25
510.968	739.25
511.184	163.25
511.401	112.25
511.617	85.25
511.833	79.25
512.049	89.25
512.265	104.25
512.481	99.25
512.698	88.25
512.914	84.25
513.13	103.25
513.346	93.25
513.562	101.25
513.778	98.25
513.994	110.25
514.21	106.25
514.426	112.25
514.642	125.25
514.858	132.25
515.074	190.25
515.29	493.25
515.506	1676.25
515.721	590.25
515.937	160.25
516.153	111.25
516.369	102.25
516.585	92.25
516.801	103.25
517.016	83.25
517.232	100.25
517.448	113.25
517.664	96.25
517.879	94.25
518.095	95.25
518.311	74.25
518.527	93.25
518.742	93.25
518.958	94.25
519.173	90.25
519.389	92.25
519.605	102.25
519.82	96.25
520.036	98.25
520.251	129.25
520.467	109.25
520.682	106.25
520.898	110.25
521.113	103.25
521.329	152.25
521.544	202.25
521.76	598.25
521.975	2733.25
522.19	1621.25
522.406	343.25
522.621	130.25
522.836	113.25
523.052	97.25
523.267	95.25
523.482	82.25
523.698	104.25
523.913	113.25
524.128	104.25
524.343	81.25
524.559	106.25
524.774	100.25
524.989	105.25
525.204	99.25
525.419	107.25
525.634	94.25
525.849	97.25
526.064	92.25
526.28	101.25
526.495	93.25
526.71	81.25
526.925	89.25
527.14	77.25
527.355	86.25
527.57	77.25
527.785	76.25
527.999	93.25
528.214	99.25
528.429	110.25
528.644	98.25
528.859	95.25
529.074	94.25
529.289	126.25
529.503	194.25
529.718	102.25
529.933	98.25
530.148	96.25
530.363	88.25
530.577	89.25
530.792	91.25
531.007	84.25
531.221	88.25
531.436	84.25
531.651	94.25
531.865	76.25
532.08	91.25
532.295	92.25
532.509	95.25
532.724	90.25
532.938	103.25
533.153	94.25
533.367	94.25
533.582	102.25
533.796	78.25
534.011	104.25
534.225	109.25
534.44	108.25
534.654	85.25
534.868	91.25
535.083	85.25
535.297	98.25
535.511	95.25
535.726	117.25
535.94	96.25
536.154	97.25
536.369	97.25
536.583	82.25
536.797	77.25
537.011	90.25
537.225	96.25
537.44	85.25
537.654	97.25
537.868	94.25
538.082	97.25
538.296	93.25
538.51	98.25
538.724	86.25
538.938	89.25
539.153	79.25
539.367	106.25
539.581	97.25
539.795	87.25
540.009	90.25
540.222	88.25
540.436	89.25
540.65	90.25
540.864	93.25
541.078	113.25
541.292	95.25
541.506	94.25
541.72	90.25
541.934	89.25
542.147	89.25
542.361	95.25
542.575	95.25
542.789	96.25
543.002	87.25
543.216	110.25
543.43	102.25
543.644	81.25
543.857	101.25
544.071	96.25
544.285	96.25
544.498	101.25
544.712	104.25
544.925	87.25
545.139	96.25
545.352	78.25
545.566	92.25
545.779	78.25
545.993	93.25
546.206	84.25
546.42	94.25
546.633	108.25
546.847	97.25
547.06	95.25
547.274	87.25
547.487	95.25
547.7	101.25
547.914	80.25
548.127	86.25
548.34	105.25
548.554	93.25
548.767	87.25
548.98	79.25
549.193	86.25
549.407	81.25
549.62	87.25
549.833	94.25
550.046	96.25
550.259	85.25
550.473	95.25
550.686	99.25
550.899	94.25
551.112	89.25
551.325	77.25
551.538	80.25
551.751	89.25
551.964	86.25
552.177	94.25
552.39	93.25
552.603	84.25
552.816	97.25
553.029	76.25
553.242	97.25
553.455	92.25
553.667	99.25
553.88	94.25
554.093	101.25
554.306	96.25
554.519	101.25
554.732	85.25
554.944	97.25
555.157	80.25
555.37	89.25
555.583	86.25
555.795	97.25
556.008	96.25
556.221	85.25
556.433	89.25
556.646	92.25
556.859	79.25
557.071	93.25
557.284	89.25
557.496	94.25
557.709	85.25
557.921	94.25
558.134	95.25
558.346	96.25
558.559	101.25
558.771	81.25
558.984	82.25
559.196	102.25
559.409	102.25
559.621	82.25
559.833	92.25
560.046	91.25
560.258	106.25
560.47	98.25
560.683	86.25
560.895	96.25
561.107	89.25
561.32	109.25
561.532	82.25
561.744	89.25
561.956	85.25
562.168	95.25
562.381	88.25
562.593	97.25
562.805	86.25
563.017	90.25
563.229	86.25
563.441	96.25
563.653	99.25
563.865	94.25
564.077	98.25
564.289	91.25
564.501	85.25
564.713	107.25
564.925	92.25
565.137	95.25
565.349	103.25
565.561	88.25
565.773	101.25
565.985	74.25
566.197	87.25
566.408	87.25
566.62	85.25
566.832	78.25
567.044	101.25
567.255	90.25
567.467	89.25
567.679	80.25
567.891	85.25
568.102	87.25
568.314	86.25
568.526	90.25
568.737	99.25
568.949	89.25
569.161	82.25
569.372	76.25
569.584	101.25
569.795	96.25
570.007	130.25
570.218	292.25
570.43	156.25
570.641	115.25
570.853	96.25
571.064	89.25
571.276	84.25
571.487	84.25
571.698	98.25
571.91	84.25
572.121	80.25
572.333	94.25
572.544	89.25
572.755	91.25
572.966	86.25
573.178	91.25
573.389	98.25
573.6	102.25
573.811	94.25
574.023	91.25
574.234	101.25
574.445	88.25
574.656	85.25
574.867	94.25
575.078	84.25
575.289	94.25
575.501	92.25
575.712	103.25
575.923	101.25
576.134	97.25
576.345	98.25
576.556	88.25
576.767	90.25
576.978	96.25
577.188	90.25
577.399	85.25
577.61	102.25
577.821	97.25
578.032	124.25
578.243	313.25
578.454	872.25
578.665	239.25
578.875	114.25
579.086	86.25
579.297	104.25
579.508	90.25
579.718	89.25
579.929	82.25
580.14	92.25
580.35	89.25
580.561	83.25
580.772	93.25
580.982	80.25
581.193	78.25
581.403	84.25
581.614	96.25
581.825	86.25
582.035	90.25
582.246	84.25
582.456	91.25
582.667	106.25
582.877	83.25
583.087	88.25
583.298	101.25
583.508	91.25
583.719	102.25
583.929	89.25
584.139	92.25
584.35	98.25
584.56	109.25
584.77	90.25
584.981	80.25
585.191	83.25
585.401	93.25
585.611	91.25
585.821	89.25
586.032	86.25
586.242	99.25
586.452	89.25
586.662	84.25
586.872	77.25
587.082	94.25
587.292	81.25
587.502	69.25
587.713	85.25
587.923	87.25
588.133	97.25
588.343	82.25
588.553	81.25
588.762	103.25
588.972	98.25
589.182	104.25
589.392	89.25
589.602	89.25
589.812	75.25
590.022	92.25
590.232	90.25
590.441	95.25
590.651	87.25
590.861	85.25
591.071	84.25
591.281	100.25
591.49	83.25
591.7	84.25
591.91	96.25
592.119	92.25
592.329	89.25
592.539	106.25
592.748	93.25
592.958	95.25
593.167	89.25
593.377	90.25
593.587	81.25
593.796	85.25
594.006	73.25
594.215	89.25
594.424	106.25
594.634	96.25
594.843	77.25
595.053	72.25
595.262	87.25
595.472	85.25
595.681	103.25
595.89	87.25
596.1	88.25
596.309	72.25
596.518	90.25
596.727	92.25
596.937	79.25
597.146	94.25
597.355	97.25
597.564	97.25
597.774	104.25
597.983	97.25
598.192	94.25
598.401	82.25
598.61	89.25
598.819	61.25
599.028	81.25
599.237	85.25
599.446	92.25
599.655	86.25
599.864	85.25
600.073	85.25
600.282	89.25
600.491	95.25
600.7	88.25
600.909	94.25
601.118	89.25
601.327	87.25
601.536	85.25
601.745	90.25
601.953	81.25
602.162	96.25
602.371	104.25
602.58	79.25
602.789	88.25
602.997	89.25
603.206	83.25
603.415	85.25
603.623	88.25
603.832	85.25
604.041	84.25
604.249	73.25
604.458	86.25
604.666	82.25
604.875	76.25
605.084	79.25
605.292	87.25
605.501	82.25
605.709	85.25
605.918	79.25
606.126	86.25
606.334	89.25
606.543	93.25
606.751	95.25
606.96	90.25
607.168	93.25
607.376	89.25
607.585	85.25
607.793	90.25
608.001	83.25
608.21	87.25
608.418	93.25
608.626	95.25
608.834	90.25
609.043	81.25
609.251	97.25
609.459	75.25
609.667	92.25
609.875	71.25
610.083	98.25
610.291	86.25
610.499	77.25
610.707	94.25
610.916	91.25
611.124	90.25
611.332	104.25
611.54	89.25
611.748	88.25
611.955	74.25
612.163	89.25
612.371	73.25
612.579	95.25
612.787	103.25
612.995	82.25
613.203	93.25
613.411	89.25
613.618	86.25
613.826	81.25
614.034	74.25
614.242	95.25
614.449	91.25
614.657	91.25
614.865	85.25
615.072	73.25
615.28	77.25
615.488	98.25
615.695	102.25
615.903	91.25
616.111	104.25
616.318	101.25
616.526	100.25
616.733	88.25
616.941	97.25
617.148	90.25
617.356	108.25
617.563	82.25
617.771	105.25
617.978	85.25
618.185	101.25
618.393	84.25
618.6	81.25
618.807	73.25
619.015	96.25
619.222	100.25
619.429	89.25
619.637	98.25
619.844	95.25
620.051	98.25
620.258	82.25
620.466	55.25
620.673	88.25
620.88	85.25
621.087	78.25
621.294	87.25
621.501	86.25
621.708	72.25
621.915	84.25
622.122	94.25
622.329	78.25
622.536	88.25
622.743	92.25
622.95	82.25
623.157	84.25
623.364	92.25
623.571	90.25
623.778	82.25
623.985	83.25
624.192	84.25
624.399	100.25
624.606	88.25
624.812	91.25
625.019	81.25
625.226	85.25
625.433	98.25
625.639	96.25
625.846	88.25
626.053	84.25
626.259	79.25
626.466	85.25
626.673	87.25
626.879	98.25
627.086	84.25
627.293	89.25
627.499	74.25
627.706	84.25
627.912	85.25
628.119	80.25
628.325	96.25
628.532	87.25
628.738	85.25
628.945	82.25
629.151	78.25
629.357	80.25
629.564	92.25
629.77	84.25
629.976	80.25
630.183	86.25
630.389	89.25
630.595	76.25
630.802	94.25
631.008	89.25
631.214	80.25
631.42	82.25
631.627	78.25
631.833	82.25
632.039	80.25
632.245	87.25
632.451	83.25
632.657	88.25
632.863	81.25
633.069	80.25
633.275	87.25
633.481	80.25
633.688	77.25
633.893	89.25
634.099	85.25
634.305	79.25
634.511	87.25
634.717	62.25
634.923	82.25
635.129	85.25
635.335	89.25
635.541	75.25
635.747	84.25
635.952	92.25
636.158	82.25
636.364	91.25
636.57	83.25
636.775	78.25
636.981	73.25
637.187	69.25
637.392	74.25
637.598	89.25
637.804	102.25
638.009	78.25
638.215	70.25
638.421	84.25
638.626	99.25
638.832	78.25
639.037	93.25
639.243	82.25
639.448	90.25
639.654	93.25
639.859	78.25
640.065	89.25
640.27	100.25
640.475	81.25
640.681	81.25
640.886	95.25
641.091	86.25
641.297	78.25
641.502	80.25
641.707	86.25
641.913	74.25
642.118	78.25
642.323	82.25
642.528	86.25
642.733	94.25
642.939	90.25
643.144	84.25
643.349	94.25
643.554	96.25
643.759	100.25
643.964	94.25
644.169	90.25
644.374	85.25
644.579	85.25
644.784	73.25
644.989	87.25
645.194	85.25
645.399	89.25
645.604	91.25
645.809	82.25
646.014	77.25
646.219	92.25
646.423	98.25
646.628	103.25
646.833	85.25
647.038	82.25
647.243	105.25
647.447	96.25
647.652	90.25
647.857	86.25
648.062	77.25
648.266	76.25
648.471	94.25
648.676	90.25
648.88	89.25
649.085	113.25
649.289	86.25
649.494	98.25
649.698	140.25
649.903	88.25
650.107	96.25
650.312	91.25
650.516	86.25
650.721	70.25
650.925	90.25
651.13	85.25
651.334	82.25
651.539	83.25
651.743	70.25
651.947	83.25
652.152	87.25
652.356	81.25
652.56	106.25
652.764	86.25
652.969	77.25
653.173	80.25
653.377	94.25
653.581	88.25
653.785	83.25
653.99	81.25
654.194	98.25
654.398	88.25
654.602	84.25
654.806	88.25
655.01	95.25
655.214	90.25
655.418	99.25
655.622	76.25
655.826	83.25
656.03	81.25
656.234	90.25
656.438	101.25
656.642	94.25
656.846	88.25
657.049	78.25
657.253	99.25
657.457	85.25
657.661	71.25
657.865	81.25
658.068	78.25
658.272	85.25
658.476	85.25
658.68	69.25
658.883	95.25
659.087	82.25
659.291	93.25
659.494	65.25
659.698	80.25
659.901	90.25
660.105	93.25
660.309	86.25
660.512	66.25
660.716	87.25
660.919	77.25
661.123	90.25
661.326	81.25
661.53	89.25
661.733	80.25
661.936	87.25
662.14	66.25
662.343	80.25
662.546	76.25
662.75	79.25
662.953	95.25
663.156	75.25
663.36	80.25
663.563	85.25
663.766	78.25
663.969	85.25
664.173	89.25
664.376	85.25
664.579	82.25
664.782	86.25
664.985	77.25
665.188	80.25
665.391	80.25
665.594	81.25
665.797	79.25
666	69.25
666.203	74.25
666.406	90.25
666.609	87.25
666.812	79.25
667.015	86.25
667.218	66.25
667.421	79.25
667.624	80.25
667.827	93.25
668.03	79.25
668.232	81.25
668.435	85.25
668.638	87.25
668.841	72.25
669.043	68.25
669.246	89.25
669.449	86.25
669.651	82.25
669.854	80.25
670.057	67.25
670.259	87.25
670.462	90.25
670.665	86.25
670.867	83.25
671.07	93.25
671.272	84.25
671.475	81.25
671.677	85.25
671.88	75.25
672.082	65.25
672.284	87.25
672.487	89.25
672.689	89.25
672.892	81.25
