Data from Uncirc_2004_H10_HRD10591_00080.txt Node
Date: Wed Jan 03 10:32:28 EST 2024
User: Yrep
Spectrometer: HR+D1059
Trigger mode: 1
Integration Time (sec): 1.000000E-1
Scans to average: 1
Electric dark correction enabled: true
Nonlinearity correction enabled: false
Boxcar width: 0
XAxis mode: Wavelengths
Number of Pixels in Spectrum: 2048
>>>>>Begin Spectral Data<<<<<
223.165	-19.06
223.4	-19.06
223.635	-19.06
223.869	-22.06
224.104	-30.06
224.338	-27.06
224.573	-22.06
224.808	0.94
225.042	-5.06
225.277	-6.06
225.511	2.94
225.746	3.94
225.98	2.94
226.215	11.94
226.449	21.94
226.683	18.94
226.918	33.94
227.152	33.94
227.387	33.94
227.621	33.94
227.856	35.94
228.09	40.94
228.324	70.94
228.559	51.94
228.793	55.94
229.027	59.94
229.262	70.94
229.496	78.94
229.73	80.94
229.964	78.94
230.199	79.94
230.433	73.94
230.667	81.94
230.901	66.94
231.136	81.94
231.37	80.94
231.604	78.94
231.838	82.94
232.072	80.94
232.306	87.94
232.541	80.94
232.775	89.94
233.009	85.94
233.243	81.94
233.477	69.94
233.711	85.94
233.945	78.94
234.179	74.94
234.413	80.94
234.647	70.94
234.881	75.94
235.115	82.94
235.349	74.94
235.583	84.94
235.817	71.94
236.051	77.94
236.285	90.94
236.519	79.94
236.753	86.94
236.987	82.94
237.221	87.94
237.455	78.94
237.689	76.94
237.922	73.94
238.156	68.94
238.39	67.94
238.624	80.94
238.858	73.94
239.091	82.94
239.325	91.94
239.559	68.94
239.793	77.94
240.027	66.94
240.26	92.94
240.494	78.94
240.728	68.94
240.961	90.94
241.195	77.94
241.429	84.94
241.662	82.94
241.896	83.94
242.13	87.94
242.363	88.94
242.597	73.94
242.83	68.94
243.064	77.94
243.298	82.94
243.531	72.94
243.765	85.94
243.998	82.94
244.232	62.94
244.465	83.94
244.699	72.94
244.932	81.94
245.166	78.94
245.399	82.94
245.633	80.94
245.866	71.94
246.099	88.94
246.333	79.94
246.566	63.94
246.8	71.94
247.033	80.94
247.266	79.94
247.5	88.94
247.733	72.94
247.966	69.94
248.2	68.94
248.433	69.94
248.666	75.94
248.899	82.94
249.133	81.94
249.366	102.94
249.599	96.94
249.832	73.94
250.066	88.94
250.299	82.94
250.532	83.94
250.765	78.94
250.998	72.94
251.231	81.94
251.465	85.94
251.698	88.94
251.931	77.94
252.164	71.94
252.397	84.94
252.63	79.94
252.863	96.94
253.096	90.94
253.329	93.94
253.562	73.94
253.795	84.94
254.028	72.94
254.261	83.94
254.494	88.94
254.727	77.94
254.96	75.94
255.193	75.94
255.426	74.94
255.659	64.94
255.892	88.94
256.124	74.94
256.357	90.94
256.59	90.94
256.823	81.94
257.056	80.94
257.289	91.94
257.521	97.94
257.754	77.94
257.987	88.94
258.22	89.94
258.452	75.94
258.685	84.94
258.918	104.94
259.151	78.94
259.383	86.94
259.616	95.94
259.849	86.94
260.081	88.94
260.314	80.94
260.547	94.94
260.779	87.94
261.012	78.94
261.244	87.94
261.477	91.94
261.71	85.94
261.942	118.94
262.175	110.94
262.407	109.94
262.64	75.94
262.872	80.94
263.105	80.94
263.337	86.94
263.57	85.94
263.802	97.94
264.035	88.94
264.267	75.94
264.499	74.94
264.732	91.94
264.964	72.94
265.197	83.94
265.429	95.94
265.661	83.94
265.894	80.94
266.126	82.94
266.358	72.94
266.591	89.94
266.823	83.94
267.055	85.94
267.287	88.94
267.52	67.94
267.752	89.94
267.984	79.94
268.216	82.94
268.448	72.94
268.681	85.94
268.913	73.94
269.145	85.94
269.377	72.94
269.609	84.94
269.841	81.94
270.073	71.94
270.306	93.94
270.538	77.94
270.77	88.94
271.002	90.94
271.234	76.94
271.466	100.94
271.698	99.94
271.93	80.94
272.162	78.94
272.394	82.94
272.626	93.94
272.858	81.94
273.09	81.94
273.322	85.94
273.553	88.94
273.785	74.94
274.017	81.94
274.249	80.94
274.481	74.94
274.713	90.94
274.945	85.94
275.176	80.94
275.408	89.94
275.64	95.94
275.872	95.94
276.104	83.94
276.335	90.94
276.567	115.94
276.799	117.94
277.031	109.94
277.262	80.94
277.494	85.94
277.726	101.94
277.957	88.94
278.189	85.94
278.421	74.94
278.652	84.94
278.884	75.94
279.115	79.94
279.347	90.94
279.579	85.94
279.81	83.94
280.042	95.94
280.273	81.94
280.505	97.94
280.736	80.94
280.968	71.94
281.199	78.94
281.431	80.94
281.662	102.94
281.894	72.94
282.125	96.94
282.356	108.94
282.588	130.94
282.819	115.94
283.051	98.94
283.282	81.94
283.513	90.94
283.745	95.94
283.976	81.94
284.207	78.94
284.439	90.94
284.67	70.94
284.901	96.94
285.132	84.94
285.364	87.94
285.595	91.94
285.826	85.94
286.057	94.94
286.288	87.94
286.52	91.94
286.751	84.94
286.982	78.94
287.213	83.94
287.444	97.94
287.675	85.94
287.906	112.94
288.138	88.94
288.369	95.94
288.6	110.94
288.831	72.94
289.062	88.94
289.293	99.94
289.524	91.94
289.755	84.94
289.986	81.94
290.217	88.94
290.448	78.94
290.679	96.94
290.91	97.94
291.141	94.94
291.371	97.94
291.602	87.94
291.833	95.94
292.064	96.94
292.295	88.94
292.526	79.94
292.757	82.94
292.987	97.94
293.218	98.94
293.449	82.94
293.68	82.94
293.91	84.94
294.141	108.94
294.372	90.94
294.603	85.94
294.833	93.94
295.064	97.94
295.295	86.94
295.525	90.94
295.756	110.94
295.987	100.94
296.217	129.94
296.448	122.94
296.679	91.94
296.909	89.94
297.14	79.94
297.37	92.94
297.601	90.94
297.831	98.94
298.062	100.94
298.292	90.94
298.523	99.94
298.753	90.94
298.984	86.94
299.214	93.94
299.445	83.94
299.675	82.94
299.905	100.94
300.136	86.94
300.366	95.94
300.597	103.94
300.827	95.94
301.057	97.94
301.288	106.94
301.518	96.94
301.748	104.94
301.979	95.94
302.209	84.94
302.439	91.94
302.669	102.94
302.9	88.94
303.13	94.94
303.36	98.94
303.59	95.94
303.82	109.94
304.051	101.94
304.281	103.94
304.511	90.94
304.741	78.94
304.971	85.94
305.201	74.94
305.431	95.94
305.661	98.94
305.891	84.94
306.121	89.94
306.352	112.94
306.582	101.94
306.812	81.94
307.042	82.94
307.272	90.94
307.502	104.94
307.731	87.94
307.961	87.94
308.191	86.94
308.421	96.94
308.651	99.94
308.881	92.94
309.111	93.94
309.341	91.94
309.571	94.94
309.8	101.94
310.03	100.94
310.26	110.94
310.49	95.94
310.72	80.94
310.949	101.94
311.179	98.94
311.409	95.94
311.639	104.94
311.868	100.94
312.098	99.94
312.328	90.94
312.557	101.94
312.787	102.94
313.017	87.94
313.246	107.94
313.476	90.94
313.706	94.94
313.935	96.94
314.165	97.94
314.394	94.94
314.624	98.94
314.853	90.94
315.083	103.94
315.312	94.94
315.542	85.94
315.771	100.94
316.001	112.94
316.23	93.94
316.46	79.94
316.689	89.94
316.919	87.94
317.148	101.94
317.377	100.94
317.607	92.94
317.836	99.94
318.065	90.94
318.295	98.94
318.524	101.94
318.753	97.94
318.983	96.94
319.212	91.94
319.441	97.94
319.67	110.94
319.9	87.94
320.129	97.94
320.358	90.94
320.587	100.94
320.816	87.94
321.046	86.94
321.275	87.94
321.504	100.94
321.733	97.94
321.962	80.94
322.191	97.94
322.42	100.94
322.649	99.94
322.878	109.94
323.108	120.94
323.337	129.94
323.566	128.94
323.795	151.94
324.024	211.94
324.253	413.94
324.482	813.94
324.71	1655.94
324.939	2169.94
325.168	791.94
325.397	239.94
325.626	165.94
325.855	132.94
326.084	123.94
326.313	126.94
326.542	151.94
326.77	229.94
326.999	462.94
327.228	930.94
327.457	1691.94
327.686	1307.94
327.914	347.94
328.143	187.94
328.372	139.94
328.6	125.94
328.829	106.94
329.058	132.94
329.287	143.94
329.515	108.94
329.744	102.94
329.972	108.94
330.201	103.94
330.43	103.94
330.658	112.94
330.887	120.94
331.115	127.94
331.344	105.94
331.572	117.94
331.801	109.94
332.03	98.94
332.258	104.94
332.486	91.94
332.715	98.94
332.943	84.94
333.172	89.94
333.4	84.94
333.629	107.94
333.857	110.94
334.085	114.94
334.314	102.94
334.542	113.94
334.771	106.94
334.999	92.94
335.227	87.94
335.455	106.94
335.684	101.94
335.912	86.94
336.14	95.94
336.369	98.94
336.597	99.94
336.825	96.94
337.053	103.94
337.281	105.94
337.51	97.94
337.738	90.94
337.966	99.94
338.194	91.94
338.422	98.94
338.65	88.94
338.878	93.94
339.106	103.94
339.334	99.94
339.562	92.94
339.79	91.94
340.018	87.94
340.246	90.94
340.474	94.94
340.702	105.94
340.93	85.94
341.158	90.94
341.386	103.94
341.614	105.94
341.842	97.94
342.07	85.94
342.298	102.94
342.526	92.94
342.754	82.94
342.981	99.94
343.209	87.94
343.437	96.94
343.665	97.94
343.893	102.94
344.12	85.94
344.348	106.94
344.576	89.94
344.804	90.94
345.031	96.94
345.259	97.94
345.487	108.94
345.714	92.94
345.942	93.94
346.17	81.94
346.397	81.94
346.625	94.94
346.853	92.94
347.08	100.94
347.308	105.94
347.535	98.94
347.763	94.94
347.99	101.94
348.218	111.94
348.445	99.94
348.673	93.94
348.9	88.94
349.128	99.94
349.355	91.94
349.583	96.94
349.81	93.94
350.037	96.94
350.265	107.94
350.492	104.94
350.72	103.94
350.947	112.94
351.174	102.94
351.402	98.94
351.629	97.94
351.856	83.94
352.083	105.94
352.311	112.94
352.538	107.94
352.765	114.94
352.992	110.94
353.22	107.94
353.447	107.94
353.674	103.94
353.901	87.94
354.128	82.94
354.355	110.94
354.583	113.94
354.81	93.94
355.037	97.94
355.264	102.94
355.491	96.94
355.718	99.94
355.945	101.94
356.172	94.94
356.399	104.94
356.626	95.94
356.853	87.94
357.08	103.94
357.307	99.94
357.534	81.94
357.761	88.94
357.988	108.94
358.215	96.94
358.441	106.94
358.668	81.94
358.895	83.94
359.122	86.94
359.349	96.94
359.576	90.94
359.802	92.94
360.029	90.94
360.256	100.94
360.483	99.94
360.709	86.94
360.936	99.94
361.163	86.94
361.39	99.94
361.616	98.94
361.843	88.94
362.07	100.94
362.296	93.94
362.523	96.94
362.749	96.94
362.976	105.94
363.203	86.94
363.429	86.94
363.656	93.94
363.882	88.94
364.109	101.94
364.335	107.94
364.562	81.94
364.788	93.94
365.015	103.94
365.241	101.94
365.468	100.94
365.694	115.94
365.92	87.94
366.147	95.94
366.373	91.94
366.599	93.94
366.826	84.94
367.052	82.94
367.278	80.94
367.505	93.94
367.731	110.94
367.957	87.94
368.184	87.94
368.41	96.94
368.636	112.94
368.862	136.94
369.089	109.94
369.315	93.94
369.541	86.94
369.767	83.94
369.993	92.94
370.219	90.94
370.445	86.94
370.672	98.94
370.898	97.94
371.124	88.94
371.35	100.94
371.576	94.94
371.802	92.94
372.028	86.94
372.254	89.94
372.48	90.94
372.706	86.94
372.932	98.94
373.158	84.94
373.384	98.94
373.61	103.94
373.835	98.94
374.061	91.94
374.287	103.94
374.513	90.94
374.739	89.94
374.965	68.94
375.191	90.94
375.416	88.94
375.642	91.94
375.868	89.94
376.094	101.94
376.319	108.94
376.545	79.94
376.771	76.94
376.997	90.94
377.222	86.94
377.448	86.94
377.674	97.94
377.899	93.94
378.125	78.94
378.35	93.94
378.576	95.94
378.802	89.94
379.027	85.94
379.253	97.94
379.478	100.94
379.704	79.94
379.929	98.94
380.155	96.94
380.38	104.94
380.606	73.94
380.831	111.94
381.057	112.94
381.282	96.94
381.507	91.94
381.733	99.94
381.958	100.94
382.184	103.94
382.409	103.94
382.634	103.94
382.86	112.94
383.085	95.94
383.31	98.94
383.535	109.94
383.761	91.94
383.986	111.94
384.211	90.94
384.436	85.94
384.662	105.94
384.887	109.94
385.112	101.94
385.337	94.94
385.562	95.94
385.787	101.94
386.013	91.94
386.238	104.94
386.463	118.94
386.688	111.94
386.913	104.94
387.138	114.94
387.363	101.94
387.588	106.94
387.813	76.94
388.038	100.94
388.263	101.94
388.488	109.94
388.713	97.94
388.938	103.94
389.163	94.94
389.387	102.94
389.612	112.94
389.837	89.94
390.062	98.94
390.287	97.94
390.512	118.94
390.736	85.94
390.961	109.94
391.186	101.94
391.411	99.94
391.636	104.94
391.86	96.94
392.085	95.94
392.31	93.94
392.534	102.94
392.759	85.94
392.984	93.94
393.208	103.94
393.433	90.94
393.658	87.94
393.882	88.94
394.107	85.94
394.331	89.94
394.556	95.94
394.78	99.94
395.005	89.94
395.229	99.94
395.454	79.94
395.678	82.94
395.903	84.94
396.127	84.94
396.352	85.94
396.576	96.94
396.801	95.94
397.025	77.94
397.249	88.94
397.474	95.94
397.698	81.94
397.922	97.94
398.147	85.94
398.371	80.94
398.595	90.94
398.82	87.94
399.044	77.94
399.268	74.94
399.492	102.94
399.717	93.94
399.941	96.94
400.165	96.94
400.389	99.94
400.613	101.94
400.837	88.94
401.062	82.94
401.286	82.94
401.51	100.94
401.734	94.94
401.958	102.94
402.182	135.94
402.406	163.94
402.63	116.94
402.854	96.94
403.078	87.94
403.302	89.94
403.526	82.94
403.75	103.94
403.974	83.94
404.198	97.94
404.422	85.94
404.645	91.94
404.869	84.94
405.093	90.94
405.317	99.94
405.541	101.94
405.765	88.94
405.988	117.94
406.212	177.94
406.436	224.94
406.66	155.94
406.883	99.94
407.107	82.94
407.331	90.94
407.555	95.94
407.778	74.94
408.002	90.94
408.226	114.94
408.449	101.94
408.673	101.94
408.896	95.94
409.12	96.94
409.344	101.94
409.567	102.94
409.791	90.94
410.014	104.94
410.238	113.94
410.461	80.94
410.685	89.94
410.908	91.94
411.132	120.94
411.355	99.94
411.578	105.94
411.802	88.94
412.025	96.94
412.249	90.94
412.472	95.94
412.695	91.94
412.919	84.94
413.142	91.94
413.365	90.94
413.589	102.94
413.812	102.94
414.035	100.94
414.258	87.94
414.482	88.94
414.705	94.94
414.928	88.94
415.151	94.94
415.374	89.94
415.597	103.94
415.821	91.94
416.044	91.94
416.267	82.94
416.49	80.94
416.713	87.94
416.936	87.94
417.159	95.94
417.382	95.94
417.605	91.94
417.828	87.94
418.051	101.94
418.274	100.94
418.497	91.94
418.72	94.94
418.943	91.94
419.166	85.94
419.389	92.94
419.611	101.94
419.834	103.94
420.057	110.94
420.28	84.94
420.503	99.94
420.726	94.94
420.948	90.94
421.171	99.94
421.394	90.94
421.617	89.94
421.839	91.94
422.062	88.94
422.285	102.94
422.507	89.94
422.73	97.94
422.953	89.94
423.175	101.94
423.398	81.94
423.621	97.94
423.843	82.94
424.066	84.94
424.288	90.94
424.511	97.94
424.733	100.94
424.956	86.94
425.178	72.94
425.401	88.94
425.623	94.94
425.846	109.94
426.068	103.94
426.291	85.94
426.513	94.94
426.735	85.94
426.958	90.94
427.18	110.94
427.402	133.94
427.625	153.94
427.847	120.94
428.069	102.94
428.292	99.94
428.514	101.94
428.736	69.94
428.958	95.94
429.181	89.94
429.403	84.94
429.625	81.94
429.847	106.94
430.069	101.94
430.292	85.94
430.514	88.94
430.736	87.94
430.958	90.94
431.18	86.94
431.402	87.94
431.624	83.94
431.846	87.94
432.068	84.94
432.29	83.94
432.512	91.94
432.734	80.94
432.956	100.94
433.178	100.94
433.4	112.94
433.622	95.94
433.844	81.94
434.066	87.94
434.287	89.94
434.509	70.94
434.731	79.94
434.953	87.94
435.175	84.94
435.397	99.94
435.618	87.94
435.84	106.94
436.062	129.94
436.284	119.94
436.505	90.94
436.727	107.94
436.949	106.94
437.17	95.94
437.392	97.94
437.614	86.94
437.835	93.94
438.057	117.94
438.278	96.94
438.5	106.94
438.721	115.94
438.943	101.94
439.165	87.94
439.386	80.94
439.608	90.94
439.829	92.94
440.05	109.94
440.272	126.94
440.493	91.94
440.715	81.94
440.936	101.94
441.158	91.94
441.379	81.94
441.6	76.94
441.822	101.94
442.043	91.94
442.264	97.94
442.486	98.94
442.707	87.94
442.928	94.94
443.149	114.94
443.371	124.94
443.592	92.94
443.813	102.94
444.034	101.94
444.255	73.94
444.476	94.94
444.698	76.94
444.919	89.94
445.14	138.94
445.361	117.94
445.582	118.94
445.803	139.94
446.024	118.94
446.245	122.94
446.466	103.94
446.687	90.94
446.908	104.94
447.129	90.94
447.35	89.94
447.571	111.94
447.792	82.94
448.013	98.94
448.234	116.94
448.455	103.94
448.675	106.94
448.896	121.94
449.117	96.94
449.338	86.94
449.559	121.94
449.779	121.94
450	106.94
450.221	95.94
450.442	86.94
450.662	90.94
450.883	106.94
451.104	102.94
451.324	97.94
451.545	95.94
451.766	96.94
451.986	91.94
452.207	99.94
452.428	103.94
452.648	98.94
452.869	98.94
453.089	114.94
453.31	119.94
453.53	89.94
453.751	85.94
453.971	97.94
454.192	102.94
454.412	97.94
454.633	83.94
454.853	86.94
455.073	90.94
455.294	80.94
455.514	95.94
455.734	98.94
455.955	80.94
456.175	81.94
456.395	98.94
456.616	86.94
456.836	81.94
457.056	80.94
457.276	101.94
457.497	83.94
457.717	86.94
457.937	91.94
458.157	100.94
458.377	90.94
458.598	110.94
458.818	145.94
459.038	147.94
459.258	108.94
459.478	97.94
459.698	91.94
459.918	77.94
460.138	95.94
460.358	77.94
460.578	91.94
460.798	74.94
461.018	94.94
461.238	95.94
461.458	97.94
461.678	90.94
461.898	93.94
462.118	91.94
462.338	80.94
462.558	97.94
462.777	99.94
462.997	94.94
463.217	99.94
463.437	89.94
463.657	90.94
463.876	88.94
464.096	86.94
464.316	92.94
464.536	91.94
464.755	97.94
464.975	109.94
465.195	155.94
465.414	149.94
465.634	89.94
465.854	102.94
466.073	90.94
466.293	89.94
466.512	84.94
466.732	88.94
466.951	80.94
467.171	95.94
467.391	87.94
467.61	86.94
467.829	97.94
468.049	99.94
468.268	87.94
468.488	86.94
468.707	101.94
468.927	82.94
469.146	90.94
469.365	89.94
469.585	95.94
469.804	93.94
470.023	78.94
470.243	90.94
470.462	99.94
470.681	98.94
470.901	83.94
471.12	85.94
471.339	85.94
471.558	87.94
471.777	96.94
471.997	87.94
472.216	90.94
472.435	110.94
472.654	95.94
472.873	78.94
473.092	86.94
473.311	89.94
473.53	83.94
473.749	85.94
473.968	117.94
474.187	99.94
474.406	86.94
474.625	81.94
474.844	77.94
475.063	94.94
475.282	86.94
475.501	99.94
475.72	80.94
475.939	90.94
476.158	98.94
476.377	97.94
476.596	101.94
476.814	95.94
477.033	99.94
477.252	98.94
477.471	94.94
477.69	80.94
477.908	82.94
478.127	89.94
478.346	94.94
478.564	103.94
478.783	98.94
479.002	99.94
479.22	102.94
479.439	102.94
479.658	93.94
479.876	84.94
480.095	90.94
480.313	82.94
480.532	97.94
480.751	100.94
480.969	97.94
481.188	113.94
481.406	118.94
481.624	100.94
481.843	89.94
482.061	91.94
482.28	90.94
482.498	89.94
482.717	80.94
482.935	94.94
483.153	98.94
483.372	81.94
483.59	78.94
483.808	97.94
484.027	85.94
484.245	94.94
484.463	102.94
484.681	97.94
484.9	99.94
485.118	95.94
485.336	103.94
485.554	98.94
485.772	92.94
485.99	113.94
486.209	84.94
486.427	95.94
486.645	120.94
486.863	113.94
487.081	109.94
487.299	99.94
487.517	89.94
487.735	98.94
487.953	95.94
488.171	97.94
488.389	106.94
488.607	89.94
488.825	95.94
489.043	91.94
489.261	92.94
489.479	88.94
489.696	87.94
489.914	93.94
490.132	105.94
490.35	87.94
490.568	97.94
490.786	95.94
491.003	71.94
491.221	97.94
491.439	89.94
491.657	99.94
491.874	86.94
492.092	94.94
492.31	95.94
492.527	96.94
492.745	96.94
492.963	102.94
493.18	101.94
493.398	91.94
493.615	100.94
493.833	86.94
494.05	99.94
494.268	86.94
494.485	106.94
494.703	95.94
494.92	96.94
495.138	99.94
495.355	105.94
495.573	94.94
495.79	92.94
496.008	109.94
496.225	94.94
496.442	91.94
496.66	99.94
496.877	93.94
497.094	94.94
497.312	91.94
497.529	95.94
497.746	77.94
497.963	99.94
498.181	100.94
498.398	88.94
498.615	111.94
498.832	97.94
499.049	84.94
499.267	94.94
499.484	97.94
499.701	96.94
499.918	78.94
500.135	87.94
500.352	87.94
500.569	87.94
500.786	84.94
501.003	89.94
501.22	93.94
501.437	91.94
501.654	106.94
501.871	98.94
502.088	86.94
502.305	90.94
502.522	88.94
502.739	89.94
502.956	97.94
503.172	95.94
503.389	93.94
503.606	115.94
503.823	110.94
504.04	111.94
504.256	78.94
504.473	88.94
504.69	92.94
504.907	94.94
505.123	87.94
505.34	96.94
505.557	88.94
505.773	93.94
505.99	97.94
506.207	97.94
506.423	82.94
506.64	85.94
506.856	81.94
507.073	102.94
507.289	91.94
507.506	93.94
507.722	97.94
507.939	117.94
508.155	86.94
508.372	92.94
508.588	95.94
508.805	91.94
509.021	91.94
509.238	109.94
509.454	102.94
509.67	104.94
509.887	106.94
510.103	142.94
510.319	233.94
510.536	823.94
510.752	2599.94
510.968	725.94
511.184	173.94
511.401	120.94
511.617	90.94
511.833	83.94
512.049	88.94
512.265	87.94
512.481	108.94
512.698	86.94
512.914	86.94
513.13	103.94
513.346	85.94
513.562	90.94
513.778	93.94
513.994	93.94
514.21	97.94
514.426	116.94
514.642	126.94
514.858	120.94
515.074	159.94
515.29	467.94
515.506	1504.94
515.721	563.94
515.937	160.94
516.153	103.94
516.369	89.94
516.585	100.94
516.801	111.94
517.016	88.94
517.232	93.94
517.448	83.94
517.664	97.94
517.879	89.94
518.095	95.94
518.311	97.94
518.527	97.94
518.742	88.94
518.958	80.94
519.173	88.94
519.389	112.94
519.605	91.94
519.82	101.94
520.036	112.94
520.251	106.94
520.467	113.94
520.682	121.94
520.898	111.94
521.113	106.94
521.329	125.94
521.544	225.94
521.76	583.94
521.975	2517.94
522.19	1488.94
522.406	328.94
522.621	129.94
522.836	104.94
523.052	100.94
523.267	104.94
523.482	82.94
523.698	104.94
523.913	120.94
524.128	103.94
524.343	98.94
524.559	99.94
524.774	80.94
524.989	87.94
525.204	112.94
525.419	114.94
525.634	98.94
525.849	101.94
526.064	102.94
526.28	102.94
526.495	91.94
526.71	75.94
526.925	78.94
527.14	87.94
527.355	85.94
527.57	88.94
527.785	89.94
527.999	96.94
528.214	89.94
528.429	89.94
528.644	77.94
528.859	91.94
529.074	96.94
529.289	114.94
529.503	168.94
529.718	114.94
529.933	89.94
530.148	95.94
530.363	93.94
530.577	73.94
530.792	88.94
531.007	90.94
531.221	101.94
531.436	86.94
531.651	95.94
531.865	70.94
532.08	98.94
532.295	88.94
532.509	99.94
532.724	77.94
532.938	93.94
533.153	100.94
533.367	102.94
533.582	99.94
533.796	106.94
534.011	90.94
534.225	90.94
534.44	95.94
534.654	99.94
534.868	85.94
535.083	98.94
535.297	85.94
535.511	105.94
535.726	100.94
535.94	98.94
536.154	78.94
536.369	91.94
536.583	98.94
536.797	96.94
537.011	86.94
537.225	97.94
537.44	82.94
537.654	105.94
537.868	83.94
538.082	91.94
538.296	89.94
538.51	77.94
538.724	84.94
538.938	79.94
539.153	101.94
539.367	106.94
539.581	117.94
539.795	90.94
540.009	95.94
540.222	102.94
540.436	89.94
540.65	89.94
540.864	90.94
541.078	93.94
541.292	103.94
541.506	107.94
541.72	88.94
541.934	71.94
542.147	83.94
542.361	83.94
542.575	82.94
542.789	96.94
543.002	96.94
543.216	100.94
543.43	102.94
543.644	85.94
543.857	90.94
544.071	94.94
544.285	89.94
544.498	100.94
544.712	91.94
544.925	81.94
545.139	82.94
545.352	69.94
545.566	93.94
545.779	81.94
545.993	99.94
546.206	86.94
546.42	92.94
546.633	80.94
546.847	99.94
547.06	93.94
547.274	105.94
547.487	85.94
547.7	94.94
547.914	87.94
548.127	92.94
548.34	90.94
548.554	90.94
548.767	71.94
548.98	97.94
549.193	81.94
549.407	88.94
549.62	90.94
549.833	90.94
550.046	94.94
550.259	74.94
550.473	91.94
550.686	90.94
550.899	79.94
551.112	81.94
551.325	86.94
551.538	92.94
551.751	97.94
551.964	88.94
552.177	95.94
552.39	95.94
552.603	94.94
552.816	95.94
553.029	90.94
553.242	88.94
553.455	107.94
553.667	107.94
553.88	111.94
554.093	94.94
554.306	97.94
554.519	96.94
554.732	93.94
554.944	90.94
555.157	79.94
555.37	103.94
555.583	86.94
555.795	91.94
556.008	93.94
556.221	97.94
556.433	86.94
556.646	77.94
556.859	107.94
557.071	90.94
557.284	81.94
557.496	104.94
557.709	105.94
557.921	91.94
558.134	85.94
558.346	102.94
558.559	95.94
558.771	79.94
558.984	86.94
559.196	97.94
559.409	91.94
559.621	84.94
559.833	80.94
560.046	86.94
560.258	87.94
560.47	65.94
560.683	78.94
560.895	83.94
561.107	88.94
561.32	90.94
561.532	86.94
561.744	87.94
561.956	91.94
562.168	95.94
562.381	83.94
562.593	92.94
562.805	103.94
563.017	88.94
563.229	92.94
563.441	98.94
563.653	83.94
563.865	86.94
564.077	92.94
564.289	100.94
564.501	100.94
564.713	95.94
564.925	106.94
565.137	118.94
565.349	92.94
565.561	90.94
565.773	89.94
565.985	83.94
566.197	98.94
566.408	95.94
566.62	80.94
566.832	85.94
567.044	86.94
567.255	87.94
567.467	92.94
567.679	83.94
567.891	93.94
568.102	84.94
568.314	81.94
568.526	86.94
568.737	90.94
568.949	71.94
569.161	93.94
569.372	94.94
569.584	87.94
569.795	89.94
570.007	124.94
570.218	277.94
570.43	151.94
570.641	112.94
570.853	84.94
571.064	82.94
571.276	93.94
571.487	87.94
571.698	92.94
571.91	95.94
572.121	101.94
572.333	98.94
572.544	82.94
572.755	89.94
572.966	106.94
573.178	84.94
573.389	94.94
573.6	91.94
573.811	97.94
574.023	88.94
574.234	81.94
574.445	91.94
574.656	85.94
574.867	88.94
575.078	90.94
575.289	91.94
575.501	84.94
575.712	100.94
575.923	92.94
576.134	97.94
576.345	95.94
576.556	97.94
576.767	84.94
576.978	96.94
577.188	93.94
577.399	91.94
577.61	98.94
577.821	101.94
578.032	143.94
578.243	296.94
578.454	839.94
578.665	237.94
578.875	107.94
579.086	82.94
579.297	81.94
579.508	77.94
579.718	104.94
579.929	84.94
580.14	71.94
580.35	85.94
580.561	87.94
580.772	83.94
580.982	87.94
581.193	74.94
581.403	92.94
581.614	99.94
581.825	93.94
582.035	84.94
582.246	73.94
582.456	104.94
582.667	80.94
582.877	80.94
583.087	66.94
583.298	88.94
583.508	89.94
583.719	100.94
583.929	97.94
584.139	90.94
584.35	98.94
584.56	105.94
584.77	89.94
584.981	100.94
585.191	101.94
585.401	99.94
585.611	86.94
585.821	85.94
586.032	88.94
586.242	84.94
586.452	72.94
586.662	75.94
586.872	94.94
587.082	78.94
587.292	86.94
587.502	88.94
587.713	92.94
587.923	87.94
588.133	99.94
588.343	99.94
588.553	98.94
588.762	102.94
588.972	95.94
589.182	97.94
589.392	83.94
589.602	88.94
589.812	90.94
590.022	98.94
590.232	83.94
590.441	81.94
590.651	97.94
590.861	91.94
591.071	80.94
591.281	87.94
591.49	91.94
591.7	79.94
591.91	83.94
592.119	75.94
592.329	80.94
592.539	93.94
592.748	101.94
592.958	89.94
593.167	91.94
593.377	77.94
593.587	86.94
593.796	86.94
594.006	82.94
594.215	85.94
594.424	80.94
594.634	91.94
594.843	92.94
595.053	85.94
595.262	80.94
595.472	86.94
595.681	90.94
595.89	82.94
596.1	93.94
596.309	89.94
596.518	96.94
596.727	89.94
596.937	97.94
597.146	91.94
597.355	85.94
597.564	78.94
597.774	84.94
597.983	86.94
598.192	85.94
598.401	96.94
598.61	90.94
598.819	86.94
599.028	81.94
599.237	83.94
599.446	87.94
599.655	95.94
599.864	102.94
600.073	93.94
600.282	80.94
600.491	100.94
600.7	92.94
600.909	102.94
601.118	97.94
601.327	96.94
601.536	82.94
601.745	86.94
601.953	80.94
602.162	80.94
602.371	96.94
602.58	91.94
602.789	93.94
602.997	84.94
603.206	94.94
603.415	87.94
603.623	91.94
603.832	63.94
604.041	90.94
604.249	90.94
604.458	75.94
604.666	82.94
604.875	86.94
605.084	79.94
605.292	77.94
605.501	94.94
605.709	92.94
605.918	83.94
606.126	85.94
606.334	92.94
606.543	85.94
606.751	89.94
606.96	100.94
607.168	95.94
607.376	82.94
607.585	78.94
607.793	89.94
608.001	90.94
608.21	96.94
608.418	83.94
608.626	85.94
608.834	74.94
609.043	98.94
609.251	89.94
609.459	85.94
609.667	76.94
609.875	97.94
610.083	73.94
610.291	74.94
610.499	95.94
610.707	78.94
610.916	79.94
611.124	95.94
611.332	80.94
611.54	87.94
611.748	92.94
611.955	78.94
612.163	77.94
612.371	97.94
612.579	90.94
612.787	80.94
612.995	87.94
613.203	93.94
613.411	84.94
613.618	93.94
613.826	81.94
614.034	82.94
614.242	90.94
614.449	80.94
614.657	78.94
614.865	98.94
615.072	89.94
615.28	80.94
615.488	85.94
615.695	95.94
615.903	103.94
616.111	108.94
616.318	89.94
616.526	79.94
616.733	86.94
616.941	79.94
617.148	82.94
617.356	92.94
617.563	100.94
617.771	82.94
617.978	89.94
618.185	81.94
618.393	95.94
618.6	96.94
618.807	96.94
619.015	100.94
619.222	84.94
619.429	74.94
619.637	85.94
619.844	88.94
620.051	82.94
620.258	99.94
620.466	95.94
620.673	89.94
620.88	93.94
621.087	86.94
621.294	83.94
621.501	80.94
621.708	69.94
621.915	86.94
622.122	91.94
622.329	87.94
622.536	86.94
622.743	92.94
622.95	81.94
623.157	88.94
623.364	78.94
623.571	80.94
623.778	89.94
623.985	89.94
624.192	83.94
624.399	77.94
624.606	82.94
624.812	94.94
625.019	84.94
625.226	86.94
625.433	82.94
625.639	86.94
625.846	71.94
626.053	94.94
626.259	82.94
626.466	82.94
626.673	99.94
626.879	99.94
627.086	88.94
627.293	95.94
627.499	81.94
627.706	91.94
627.912	89.94
628.119	85.94
628.325	88.94
628.532	84.94
628.738	85.94
628.945	90.94
629.151	86.94
629.357	89.94
629.564	99.94
629.77	85.94
629.976	94.94
630.183	85.94
630.389	88.94
630.595	85.94
630.802	71.94
631.008	80.94
631.214	85.94
631.42	75.94
631.627	80.94
631.833	85.94
632.039	77.94
632.245	88.94
632.451	85.94
632.657	99.94
632.863	89.94
633.069	101.94
633.275	87.94
633.481	92.94
633.688	88.94
633.893	82.94
634.099	81.94
634.305	73.94
634.511	91.94
634.717	88.94
634.923	84.94
635.129	83.94
635.335	89.94
635.541	91.94
635.747	91.94
635.952	80.94
636.158	87.94
636.364	80.94
636.57	83.94
636.775	73.94
636.981	100.94
637.187	81.94
637.392	109.94
637.598	84.94
637.804	94.94
638.009	81.94
638.215	103.94
638.421	92.94
638.626	86.94
638.832	79.94
639.037	85.94
639.243	81.94
639.448	85.94
639.654	80.94
639.859	75.94
640.065	72.94
640.27	93.94
640.475	80.94
640.681	82.94
640.886	91.94
641.091	101.94
641.297	85.94
641.502	87.94
641.707	88.94
641.913	79.94
642.118	85.94
642.323	101.94
642.528	75.94
642.733	87.94
642.939	75.94
643.144	76.94
643.349	85.94
643.554	80.94
643.759	85.94
643.964	87.94
644.169	91.94
644.374	83.94
644.579	79.94
644.784	87.94
644.989	98.94
645.194	80.94
645.399	89.94
645.604	91.94
645.809	98.94
646.014	82.94
646.219	94.94
646.423	85.94
646.628	101.94
646.833	90.94
647.038	85.94
647.243	85.94
647.447	79.94
647.652	95.94
647.857	71.94
648.062	71.94
648.266	99.94
648.471	88.94
648.676	98.94
648.88	91.94
649.085	90.94
649.289	90.94
649.494	110.94
649.698	137.94
649.903	83.94
650.107	88.94
650.312	99.94
650.516	84.94
650.721	102.94
650.925	88.94
651.13	87.94
651.334	72.94
651.539	96.94
651.743	89.94
651.947	81.94
652.152	95.94
652.356	95.94
652.56	93.94
652.764	91.94
652.969	90.94
653.173	77.94
653.377	83.94
653.581	81.94
653.785	82.94
653.99	81.94
654.194	102.94
654.398	82.94
654.602	97.94
654.806	83.94
655.01	106.94
655.214	93.94
655.418	98.94
655.622	92.94
655.826	86.94
656.03	93.94
656.234	97.94
656.438	99.94
656.642	82.94
656.846	86.94
657.049	91.94
657.253	83.94
657.457	89.94
657.661	96.94
657.865	74.94
658.068	99.94
658.272	87.94
658.476	92.94
658.68	94.94
658.883	70.94
659.087	81.94
659.291	84.94
659.494	77.94
659.698	76.94
659.901	79.94
660.105	62.94
660.309	84.94
660.512	82.94
660.716	97.94
660.919	82.94
661.123	84.94
661.326	85.94
661.53	82.94
661.733	81.94
661.936	81.94
662.14	77.94
662.343	86.94
662.546	86.94
662.75	80.94
662.953	79.94
663.156	68.94
663.36	82.94
663.563	82.94
663.766	80.94
663.969	84.94
664.173	75.94
664.376	73.94
664.579	85.94
664.782	82.94
664.985	93.94
665.188	83.94
665.391	91.94
665.594	91.94
665.797	82.94
666	81.94
666.203	84.94
666.406	97.94
666.609	86.94
666.812	93.94
667.015	91.94
667.218	83.94
667.421	79.94
667.624	74.94
667.827	80.94
668.03	72.94
668.232	89.94
668.435	90.94
668.638	87.94
668.841	87.94
669.043	88.94
669.246	81.94
669.449	80.94
669.651	85.94
669.854	84.94
670.057	86.94
670.259	91.94
670.462	84.94
670.665	90.94
670.867	87.94
671.07	96.94
671.272	78.94
671.475	104.94
671.677	95.94
671.88	85.94
672.082	91.94
672.284	83.94
672.487	87.94
672.689	79.94
672.892	81.94
