Data from HP_3_HRD10591_00026.txt Node
Date: Mon Jan 19 14:17:13 EST 2026
User: Yrep
Spectrometer: HR+D1059
Trigger mode: 1
Integration Time (sec): 1.000000E-1
Scans to average: 1
Electric dark correction enabled: true
Nonlinearity correction enabled: false
Boxcar width: 0
XAxis mode: Wavelengths
Number of Pixels in Spectrum: 2048
>>>>>Begin Spectral Data<<<<<
223.165	-9.38
223.4	-9.38
223.635	-9.38
223.869	-18.38
224.104	-19.38
224.338	-12.38
224.573	-15.38
224.808	-6.38
225.042	-9.38
225.277	-7.38
225.511	-22.38
225.746	-13.38
225.98	4.62
226.215	25.62
226.449	29.62
226.683	29.62
226.918	16.62
227.152	27.62
227.387	16.62
227.621	39.62
227.856	58.62
228.09	36.62
228.324	62.62
228.559	62.62
228.793	56.62
229.027	73.62
229.262	54.62
229.496	75.62
229.73	63.62
229.964	61.62
230.199	80.62
230.433	70.62
230.667	64.62
230.901	74.62
231.136	73.62
231.37	73.62
231.604	63.62
231.838	85.62
232.072	72.62
232.306	66.62
232.541	74.62
232.775	81.62
233.009	87.62
233.243	77.62
233.477	95.62
233.711	82.62
233.945	69.62
234.179	74.62
234.413	77.62
234.647	80.62
234.881	82.62
235.115	61.62
235.349	69.62
235.583	70.62
235.817	68.62
236.051	69.62
236.285	81.62
236.519	75.62
236.753	82.62
236.987	69.62
237.221	80.62
237.455	65.62
237.689	70.62
237.922	70.62
238.156	60.62
238.39	76.62
238.624	72.62
238.858	68.62
239.091	67.62
239.325	82.62
239.559	73.62
239.793	74.62
240.027	84.62
240.26	63.62
240.494	74.62
240.728	72.62
240.961	75.62
241.195	84.62
241.429	81.62
241.662	80.62
241.896	64.62
242.13	72.62
242.363	62.62
242.597	71.62
242.83	77.62
243.064	80.62
243.298	83.62
243.531	70.62
243.765	88.62
243.998	64.62
244.232	69.62
244.465	74.62
244.699	65.62
244.932	71.62
245.166	72.62
245.399	65.62
245.633	73.62
245.866	73.62
246.099	76.62
246.333	60.62
246.566	71.62
246.8	70.62
247.033	84.62
247.266	69.62
247.5	68.62
247.733	88.62
247.966	75.62
248.2	76.62
248.433	69.62
248.666	87.62
248.899	74.62
249.133	67.62
249.366	85.62
249.599	72.62
249.832	73.62
250.066	79.62
250.299	70.62
250.532	86.62
250.765	68.62
250.998	78.62
251.231	83.62
251.465	83.62
251.698	68.62
251.931	90.62
252.164	83.62
252.397	67.62
252.63	87.62
252.863	75.62
253.096	83.62
253.329	68.62
253.562	72.62
253.795	75.62
254.028	77.62
254.261	74.62
254.494	82.62
254.727	77.62
254.96	80.62
255.193	78.62
255.426	74.62
255.659	78.62
255.892	67.62
256.124	66.62
256.357	85.62
256.59	81.62
256.823	78.62
257.056	58.62
257.289	84.62
257.521	81.62
257.754	84.62
257.987	83.62
258.22	74.62
258.452	76.62
258.685	74.62
258.918	82.62
259.151	80.62
259.383	84.62
259.616	84.62
259.849	73.62
260.081	82.62
260.314	75.62
260.547	76.62
260.779	79.62
261.012	88.62
261.244	82.62
261.477	73.62
261.71	85.62
261.942	73.62
262.175	79.62
262.407	73.62
262.64	70.62
262.872	82.62
263.105	86.62
263.337	92.62
263.57	68.62
263.802	78.62
264.035	82.62
264.267	81.62
264.499	85.62
264.732	80.62
264.964	78.62
265.197	86.62
265.429	73.62
265.661	86.62
265.894	89.62
266.126	73.62
266.358	81.62
266.591	82.62
266.823	84.62
267.055	78.62
267.287	66.62
267.52	74.62
267.752	76.62
267.984	70.62
268.216	68.62
268.448	81.62
268.681	62.62
268.913	75.62
269.145	99.62
269.377	81.62
269.609	61.62
269.841	100.62
270.073	77.62
270.306	79.62
270.538	74.62
270.77	84.62
271.002	81.62
271.234	61.62
271.466	89.62
271.698	81.62
271.93	75.62
272.162	78.62
272.394	86.62
272.626	84.62
272.858	80.62
273.09	70.62
273.322	73.62
273.553	82.62
273.785	93.62
274.017	82.62
274.249	85.62
274.481	63.62
274.713	76.62
274.945	68.62
275.176	82.62
275.408	83.62
275.64	76.62
275.872	75.62
276.104	84.62
276.335	74.62
276.567	68.62
276.799	84.62
277.031	76.62
277.262	88.62
277.494	81.62
277.726	78.62
277.957	69.62
278.189	74.62
278.421	80.62
278.652	83.62
278.884	80.62
279.115	85.62
279.347	73.62
279.579	75.62
279.81	87.62
280.042	85.62
280.273	92.62
280.505	92.62
280.736	77.62
280.968	88.62
281.199	95.62
281.431	80.62
281.662	87.62
281.894	83.62
282.125	79.62
282.356	83.62
282.588	84.62
282.819	86.62
283.051	89.62
283.282	66.62
283.513	84.62
283.745	86.62
283.976	89.62
284.207	76.62
284.439	76.62
284.67	73.62
284.901	74.62
285.132	83.62
285.364	88.62
285.595	85.62
285.826	85.62
286.057	94.62
286.288	86.62
286.52	72.62
286.751	95.62
286.982	87.62
287.213	82.62
287.444	85.62
287.675	88.62
287.906	92.62
288.138	100.62
288.369	80.62
288.6	81.62
288.831	87.62
289.062	85.62
289.293	85.62
289.524	81.62
289.755	89.62
289.986	77.62
290.217	89.62
290.448	93.62
290.679	75.62
290.91	60.62
291.141	82.62
291.371	79.62
291.602	81.62
291.833	87.62
292.064	90.62
292.295	86.62
292.526	82.62
292.757	82.62
292.987	82.62
293.218	76.62
293.449	80.62
293.68	86.62
293.91	97.62
294.141	89.62
294.372	72.62
294.603	71.62
294.833	75.62
295.064	78.62
295.295	65.62
295.525	76.62
295.756	84.62
295.987	83.62
296.217	84.62
296.448	94.62
296.679	90.62
296.909	92.62
297.14	95.62
297.37	95.62
297.601	79.62
297.831	78.62
298.062	87.62
298.292	75.62
298.523	77.62
298.753	73.62
298.984	73.62
299.214	79.62
299.445	80.62
299.675	83.62
299.905	84.62
300.136	79.62
300.366	75.62
300.597	84.62
300.827	85.62
301.057	88.62
301.288	65.62
301.518	85.62
301.748	71.62
301.979	91.62
302.209	70.62
302.439	88.62
302.669	81.62
302.9	93.62
303.13	78.62
303.36	93.62
303.59	75.62
303.82	80.62
304.051	69.62
304.281	82.62
304.511	82.62
304.741	67.62
304.971	92.62
305.201	87.62
305.431	87.62
305.661	90.62
305.891	79.62
306.121	100.62
306.352	87.62
306.582	66.62
306.812	88.62
307.042	82.62
307.272	88.62
307.502	99.62
307.731	94.62
307.961	88.62
308.191	72.62
308.421	81.62
308.651	82.62
308.881	75.62
309.111	74.62
309.341	114.62
309.571	88.62
309.8	72.62
310.03	78.62
310.26	78.62
310.49	74.62
310.72	92.62
310.949	82.62
311.179	87.62
311.409	85.62
311.639	80.62
311.868	84.62
312.098	95.62
312.328	82.62
312.557	82.62
312.787	70.62
313.017	88.62
313.246	88.62
313.476	86.62
313.706	84.62
313.935	82.62
314.165	74.62
314.394	74.62
314.624	85.62
314.853	89.62
315.083	96.62
315.312	92.62
315.542	86.62
315.771	81.62
316.001	72.62
316.23	83.62
316.46	87.62
316.689	67.62
316.919	92.62
317.148	88.62
317.377	77.62
317.607	82.62
317.836	104.62
318.065	99.62
318.295	85.62
318.524	75.62
318.753	79.62
318.983	83.62
319.212	85.62
319.441	74.62
319.67	73.62
319.9	77.62
320.129	79.62
320.358	97.62
320.587	80.62
320.816	81.62
321.046	70.62
321.275	78.62
321.504	93.62
321.733	78.62
321.962	87.62
322.191	73.62
322.42	74.62
322.649	83.62
322.878	84.62
323.108	81.62
323.337	89.62
323.566	86.62
323.795	69.62
324.024	86.62
324.253	97.62
324.482	70.62
324.71	78.62
324.939	72.62
325.168	90.62
325.397	77.62
325.626	93.62
325.855	77.62
326.084	88.62
326.313	79.62
326.542	94.62
326.77	95.62
326.999	85.62
327.228	80.62
327.457	74.62
327.686	85.62
327.914	81.62
328.143	80.62
328.372	87.62
328.6	78.62
328.829	99.62
329.058	84.62
329.287	87.62
329.515	92.62
329.744	88.62
329.972	95.62
330.201	81.62
330.43	72.62
330.658	78.62
330.887	88.62
331.115	88.62
331.344	64.62
331.572	84.62
331.801	86.62
332.03	65.62
332.258	77.62
332.486	90.62
332.715	83.62
332.943	84.62
333.172	79.62
333.4	92.62
333.629	84.62
333.857	88.62
334.085	85.62
334.314	73.62
334.542	72.62
334.771	78.62
334.999	86.62
335.227	78.62
335.455	68.62
335.684	76.62
335.912	81.62
336.14	93.62
336.369	87.62
336.597	72.62
336.825	86.62
337.053	84.62
337.281	85.62
337.51	84.62
337.738	81.62
337.966	80.62
338.194	75.62
338.422	97.62
338.65	74.62
338.878	73.62
339.106	91.62
339.334	86.62
339.562	89.62
339.79	87.62
340.018	89.62
340.246	71.62
340.474	89.62
340.702	73.62
340.93	78.62
341.158	85.62
341.386	79.62
341.614	68.62
341.842	70.62
342.07	65.62
342.298	80.62
342.526	89.62
342.754	62.62
342.981	86.62
343.209	81.62
343.437	91.62
343.665	76.62
343.893	91.62
344.12	70.62
344.348	83.62
344.576	88.62
344.804	84.62
345.031	74.62
345.259	97.62
345.487	86.62
345.714	78.62
345.942	72.62
346.17	76.62
346.397	87.62
346.625	87.62
346.853	78.62
347.08	89.62
347.308	79.62
347.535	81.62
347.763	85.62
347.99	84.62
348.218	83.62
348.445	88.62
348.673	79.62
348.9	76.62
349.128	70.62
349.355	92.62
349.583	86.62
349.81	79.62
350.037	95.62
350.265	92.62
350.492	91.62
350.72	80.62
350.947	85.62
351.174	100.62
351.402	85.62
351.629	87.62
351.856	81.62
352.083	95.62
352.311	62.62
352.538	80.62
352.765	88.62
352.992	80.62
353.22	81.62
353.447	80.62
353.674	78.62
353.901	78.62
354.128	96.62
354.355	68.62
354.583	80.62
354.81	70.62
355.037	79.62
355.264	100.62
355.491	85.62
355.718	91.62
355.945	84.62
356.172	87.62
356.399	78.62
356.626	84.62
356.853	79.62
357.08	98.62
357.307	87.62
357.534	72.62
357.761	89.62
357.988	73.62
358.215	95.62
358.441	66.62
358.668	73.62
358.895	77.62
359.122	81.62
359.349	91.62
359.576	82.62
359.802	73.62
360.029	77.62
360.256	85.62
360.483	69.62
360.709	73.62
360.936	83.62
361.163	86.62
361.39	74.62
361.616	77.62
361.843	87.62
362.07	98.62
362.296	85.62
362.523	81.62
362.749	82.62
362.976	92.62
363.203	87.62
363.429	87.62
363.656	78.62
363.882	88.62
364.109	86.62
364.335	95.62
364.562	101.62
364.788	95.62
365.015	94.62
365.241	89.62
365.468	75.62
365.694	80.62
365.92	93.62
366.147	77.62
366.373	64.62
366.599	66.62
366.826	71.62
367.052	81.62
367.278	82.62
367.505	89.62
367.731	84.62
367.957	88.62
368.184	89.62
368.41	82.62
368.636	85.62
368.862	86.62
369.089	72.62
369.315	70.62
369.541	72.62
369.767	72.62
369.993	81.62
370.219	63.62
370.445	84.62
370.672	87.62
370.898	88.62
371.124	78.62
371.35	79.62
371.576	63.62
371.802	84.62
372.028	82.62
372.254	91.62
372.48	74.62
372.706	85.62
372.932	93.62
373.158	96.62
373.384	100.62
373.61	109.62
373.835	95.62
374.061	92.62
374.287	105.62
374.513	90.62
374.739	74.62
374.965	87.62
375.191	98.62
375.416	87.62
375.642	83.62
375.868	90.62
376.094	84.62
376.319	92.62
376.545	86.62
376.771	64.62
376.997	82.62
377.222	80.62
377.448	78.62
377.674	83.62
377.899	73.62
378.125	74.62
378.35	95.62
378.576	75.62
378.802	70.62
379.027	78.62
379.253	94.62
379.478	80.62
379.704	92.62
379.929	71.62
380.155	92.62
380.38	85.62
380.606	84.62
380.831	81.62
381.057	81.62
381.282	80.62
381.507	81.62
381.733	84.62
381.958	93.62
382.184	78.62
382.409	100.62
382.634	74.62
382.86	85.62
383.085	86.62
383.31	95.62
383.535	105.62
383.761	85.62
383.986	86.62
384.211	85.62
384.436	81.62
384.662	79.62
384.887	77.62
385.112	79.62
385.337	79.62
385.562	93.62
385.787	78.62
386.013	97.62
386.238	94.62
386.463	79.62
386.688	92.62
386.913	75.62
387.138	88.62
387.363	80.62
387.588	78.62
387.813	88.62
388.038	79.62
388.263	83.62
388.488	75.62
388.713	83.62
388.938	89.62
389.163	91.62
389.387	84.62
389.612	84.62
389.837	75.62
390.062	90.62
390.287	84.62
390.512	89.62
390.736	90.62
390.961	88.62
391.186	75.62
391.411	78.62
391.636	71.62
391.86	87.62
392.085	83.62
392.31	82.62
392.534	98.62
392.759	119.62
392.984	127.62
393.208	220.62
393.433	342.62
393.658	260.62
393.882	118.62
394.107	101.62
394.331	88.62
394.556	105.62
394.78	86.62
395.005	84.62
395.229	78.62
395.454	86.62
395.678	93.62
395.903	86.62
396.127	109.62
396.352	131.62
396.576	139.62
396.801	239.62
397.025	286.62
397.249	133.62
397.474	93.62
397.698	81.62
397.922	77.62
398.147	85.62
398.371	91.62
398.595	93.62
398.82	81.62
399.044	87.62
399.268	75.62
399.492	77.62
399.717	81.62
399.941	77.62
400.165	92.62
400.389	93.62
400.613	71.62
400.837	61.62
401.062	80.62
401.286	74.62
401.51	89.62
401.734	79.62
401.958	87.62
402.182	69.62
402.406	72.62
402.63	88.62
402.854	100.62
403.078	81.62
403.302	75.62
403.526	74.62
403.75	88.62
403.974	70.62
404.198	86.62
404.422	81.62
404.645	91.62
404.869	84.62
405.093	98.62
405.317	79.62
405.541	64.62
405.765	65.62
405.988	78.62
406.212	97.62
406.436	80.62
406.66	70.62
406.883	72.62
407.107	89.62
407.331	85.62
407.555	94.62
407.778	96.62
408.002	85.62
408.226	86.62
408.449	84.62
408.673	87.62
408.896	94.62
409.12	74.62
409.344	87.62
409.567	72.62
409.791	87.62
410.014	87.62
410.238	83.62
410.461	79.62
410.685	73.62
410.908	74.62
411.132	86.62
411.355	73.62
411.578	78.62
411.802	80.62
412.025	78.62
412.249	78.62
412.472	89.62
412.695	88.62
412.919	92.62
413.142	77.62
413.365	89.62
413.589	72.62
413.812	81.62
414.035	86.62
414.258	77.62
414.482	80.62
414.705	84.62
414.928	94.62
415.151	70.62
415.374	83.62
415.597	78.62
415.821	83.62
416.044	86.62
416.267	84.62
416.49	84.62
416.713	71.62
416.936	69.62
417.159	96.62
417.382	76.62
417.605	96.62
417.828	79.62
418.051	78.62
418.274	86.62
418.497	72.62
418.72	75.62
418.943	82.62
419.166	85.62
419.389	68.62
419.611	82.62
419.834	86.62
420.057	63.62
420.28	83.62
420.503	75.62
420.726	76.62
420.948	79.62
421.171	88.62
421.394	88.62
421.617	107.62
421.839	99.62
422.062	92.62
422.285	110.62
422.507	156.62
422.73	258.62
422.953	228.62
423.175	123.62
423.398	82.62
423.621	84.62
423.843	88.62
424.066	81.62
424.288	81.62
424.511	73.62
424.733	75.62
424.956	92.62
425.178	88.62
425.401	80.62
425.623	87.62
425.846	88.62
426.068	77.62
426.291	75.62
426.513	85.62
426.735	89.62
426.958	70.62
427.18	79.62
427.402	88.62
427.625	76.62
427.847	84.62
428.069	75.62
428.292	94.62
428.514	101.62
428.736	94.62
428.958	104.62
429.181	95.62
429.403	81.62
429.625	96.62
429.847	94.62
430.069	120.62
430.292	122.62
430.514	127.62
430.736	103.62
430.958	117.62
431.18	92.62
431.402	80.62
431.624	85.62
431.846	106.62
432.068	108.62
432.29	82.62
432.512	92.62
432.734	86.62
432.956	88.62
433.178	84.62
433.4	82.62
433.622	67.62
433.844	81.62
434.066	74.62
434.287	75.62
434.509	87.62
434.731	77.62
434.953	90.62
435.175	88.62
435.397	82.62
435.618	82.62
435.84	81.62
436.062	84.62
436.284	84.62
436.505	78.62
436.727	81.62
436.949	95.62
437.17	84.62
437.392	83.62
437.614	78.62
437.835	91.62
438.057	80.62
438.278	74.62
438.5	94.62
438.721	76.62
438.943	89.62
439.165	79.62
439.386	73.62
439.608	84.62
439.829	75.62
440.05	97.62
440.272	81.62
440.493	68.62
440.715	64.62
440.936	78.62
441.158	85.62
441.379	72.62
441.6	65.62
441.822	84.62
442.043	85.62
442.264	92.62
442.486	94.62
442.707	113.62
442.928	94.62
443.149	79.62
443.371	106.62
443.592	134.62
443.813	127.62
444.034	81.62
444.255	78.62
444.476	80.62
444.698	63.62
444.919	97.62
445.14	171.62
445.361	141.62
445.582	160.62
445.803	133.62
446.024	82.62
446.245	90.62
446.466	74.62
446.687	80.62
446.908	86.62
447.129	67.62
447.35	86.62
447.571	82.62
447.792	75.62
448.013	86.62
448.234	83.62
448.455	68.62
448.675	78.62
448.896	84.62
449.117	81.62
449.338	73.62
449.559	90.62
449.779	94.62
450	71.62
450.221	72.62
450.442	68.62
450.662	71.62
450.883	81.62
451.104	75.62
451.324	69.62
451.545	82.62
451.766	78.62
451.986	73.62
452.207	89.62
452.428	68.62
452.648	73.62
452.869	87.62
453.089	76.62
453.31	96.62
453.53	92.62
453.751	85.62
453.971	86.62
454.192	73.62
454.412	70.62
454.633	69.62
454.853	81.62
455.073	70.62
455.294	74.62
455.514	71.62
455.734	72.62
455.955	81.62
456.175	80.62
456.395	69.62
456.616	77.62
456.836	60.62
457.056	77.62
457.276	86.62
457.497	85.62
457.717	97.62
457.937	93.62
458.157	84.62
458.377	69.62
458.598	87.62
458.818	92.62
459.038	80.62
459.258	89.62
459.478	88.62
459.698	82.62
459.918	79.62
460.138	95.62
460.358	89.62
460.578	105.62
460.798	102.62
461.018	99.62
461.238	77.62
461.458	85.62
461.678	82.62
461.898	82.62
462.118	77.62
462.338	67.62
462.558	76.62
462.777	79.62
462.997	81.62
463.217	82.62
463.437	80.62
463.657	90.62
463.876	81.62
464.096	81.62
464.316	82.62
464.536	89.62
464.755	78.62
464.975	82.62
465.195	79.62
465.414	83.62
465.634	79.62
465.854	73.62
466.073	86.62
466.293	80.62
466.512	87.62
466.732	87.62
466.951	81.62
467.171	84.62
467.391	62.62
467.61	77.62
467.829	75.62
468.049	74.62
468.268	75.62
468.488	81.62
468.707	67.62
468.927	81.62
469.146	67.62
469.365	80.62
469.585	91.62
469.804	74.62
470.023	86.62
470.243	64.62
470.462	78.62
470.681	74.62
470.901	62.62
471.12	88.62
471.339	81.62
471.558	86.62
471.777	69.62
471.997	92.62
472.216	88.62
472.435	79.62
472.654	77.62
472.873	95.62
473.092	78.62
473.311	76.62
473.53	90.62
473.749	100.62
473.968	85.62
474.187	87.62
474.406	79.62
474.625	80.62
474.844	82.62
475.063	80.62
475.282	85.62
475.501	82.62
475.72	81.62
475.939	92.62
476.158	69.62
476.377	68.62
476.596	80.62
476.814	85.62
477.033	83.62
477.252	83.62
477.471	82.62
477.69	75.62
477.908	84.62
478.127	75.62
478.346	76.62
478.564	84.62
478.783	90.62
479.002	69.62
479.22	84.62
479.439	77.62
479.658	73.62
479.876	66.62
480.095	83.62
480.313	90.62
480.532	79.62
480.751	82.62
480.969	73.62
481.188	88.62
481.406	73.62
481.624	75.62
481.843	72.62
482.061	81.62
482.28	84.62
482.498	74.62
482.717	92.62
482.935	87.62
483.153	73.62
483.372	75.62
483.59	97.62
483.808	81.62
484.027	86.62
484.245	83.62
484.463	86.62
484.681	90.62
484.9	81.62
485.118	80.62
485.336	77.62
485.554	74.62
485.772	69.62
485.99	86.62
486.209	97.62
486.427	81.62
486.645	87.62
486.863	77.62
487.081	88.62
487.299	78.62
487.517	87.62
487.735	101.62
487.953	96.62
488.171	101.62
488.389	67.62
488.607	78.62
488.825	80.62
489.043	83.62
489.261	89.62
489.479	82.62
489.696	75.62
489.914	74.62
490.132	78.62
490.35	85.62
490.568	79.62
490.786	66.62
491.003	64.62
491.221	60.62
491.439	92.62
491.657	83.62
491.874	81.62
492.092	86.62
492.31	70.62
492.527	84.62
492.745	81.62
492.963	80.62
493.18	87.62
493.398	74.62
493.615	80.62
493.833	86.62
494.05	86.62
494.268	82.62
494.485	88.62
494.703	74.62
494.92	86.62
495.138	79.62
495.355	88.62
495.573	77.62
495.79	89.62
496.008	80.62
496.225	74.62
496.442	71.62
496.66	80.62
496.877	78.62
497.094	78.62
497.312	70.62
497.529	84.62
497.746	78.62
497.963	78.62
498.181	85.62
498.398	97.62
498.615	85.62
498.832	79.62
499.049	98.62
499.267	84.62
499.484	78.62
499.701	92.62
499.918	73.62
500.135	80.62
500.352	82.62
500.569	92.62
500.786	78.62
501.003	88.62
501.22	80.62
501.437	83.62
501.654	83.62
501.871	91.62
502.088	81.62
502.305	80.62
502.522	79.62
502.739	77.62
502.956	80.62
503.172	80.62
503.389	71.62
503.606	81.62
503.823	74.62
504.04	86.62
504.256	93.62
504.473	80.62
504.69	87.62
504.907	88.62
505.123	80.62
505.34	74.62
505.557	85.62
505.773	84.62
505.99	75.62
506.207	81.62
506.423	72.62
506.64	96.62
506.856	73.62
507.073	73.62
507.289	82.62
507.506	80.62
507.722	71.62
507.939	69.62
508.155	81.62
508.372	77.62
508.588	73.62
508.805	84.62
509.021	73.62
509.238	99.62
509.454	81.62
509.67	93.62
509.887	74.62
510.103	68.62
510.319	94.62
510.536	83.62
510.752	77.62
510.968	70.62
511.184	79.62
511.401	66.62
511.617	75.62
511.833	90.62
512.049	82.62
512.265	90.62
512.481	88.62
512.698	80.62
512.914	85.62
513.13	88.62
513.346	76.62
513.562	68.62
513.778	97.62
513.994	81.62
514.21	74.62
514.426	99.62
514.642	79.62
514.858	97.62
515.074	78.62
515.29	79.62
515.506	90.62
515.721	78.62
515.937	75.62
516.153	80.62
516.369	85.62
516.585	70.62
516.801	84.62
517.016	73.62
517.232	96.62
517.448	95.62
517.664	89.62
517.879	87.62
518.095	72.62
518.311	86.62
518.527	78.62
518.742	75.62
518.958	100.62
519.173	95.62
519.389	80.62
519.605	73.62
519.82	62.62
520.036	74.62
520.251	82.62
520.467	93.62
520.682	73.62
520.898	81.62
521.113	74.62
521.329	73.62
521.544	81.62
521.76	78.62
521.975	79.62
522.19	71.62
522.406	83.62
522.621	76.62
522.836	82.62
523.052	94.62
523.267	69.62
523.482	70.62
523.698	82.62
523.913	78.62
524.128	92.62
524.343	81.62
524.559	92.62
524.774	80.62
524.989	80.62
525.204	93.62
525.419	78.62
525.634	87.62
525.849	79.62
526.064	91.62
526.28	114.62
526.495	137.62
526.71	146.62
526.925	120.62
527.14	133.62
527.355	136.62
527.57	87.62
527.785	88.62
527.999	92.62
528.214	94.62
528.429	63.62
528.644	76.62
528.859	77.62
529.074	82.62
529.289	73.62
529.503	93.62
529.718	79.62
529.933	92.62
530.148	68.62
530.363	78.62
530.577	72.62
530.792	77.62
531.007	83.62
531.221	98.62
531.436	84.62
531.651	89.62
531.865	83.62
532.08	80.62
532.295	81.62
532.509	91.62
532.724	80.62
532.938	89.62
533.153	90.62
533.367	74.62
533.582	82.62
533.796	84.62
534.011	80.62
534.225	73.62
534.44	84.62
534.654	82.62
534.868	90.62
535.083	119.62
535.297	101.62
535.511	81.62
535.726	77.62
535.94	72.62
536.154	89.62
536.369	88.62
536.583	85.62
536.797	97.62
537.011	88.62
537.225	81.62
537.44	80.62
537.654	84.62
537.868	101.62
538.082	82.62
538.296	75.62
538.51	67.62
538.724	85.62
538.938	95.62
539.153	96.62
539.367	83.62
539.581	99.62
539.795	85.62
540.009	103.62
540.222	84.62
540.436	79.62
540.65	72.62
540.864	76.62
541.078	86.62
541.292	94.62
541.506	97.62
541.72	88.62
541.934	89.62
542.147	89.62
542.361	72.62
542.575	98.62
542.789	73.62
543.002	62.62
543.216	109.62
543.43	82.62
543.644	88.62
543.857	91.62
544.071	91.62
544.285	86.62
544.498	96.62
544.712	85.62
544.925	85.62
545.139	108.62
545.352	78.62
545.566	95.62
545.779	82.62
545.993	82.62
546.206	89.62
546.42	98.62
546.633	89.62
546.847	102.62
547.06	109.62
547.274	104.62
547.487	109.62
547.7	110.62
547.914	115.62
548.127	122.62
548.34	108.62
548.554	125.62
548.767	92.62
548.98	125.62
549.193	119.62
549.407	118.62
549.62	126.62
549.833	115.62
550.046	124.62
550.259	129.62
550.473	124.62
550.686	147.62
550.899	137.62
551.112	146.62
551.325	137.62
551.538	172.62
551.751	136.62
551.964	150.62
552.177	147.62
552.39	146.62
552.603	134.62
552.816	143.62
553.029	134.62
553.242	139.62
553.455	137.62
553.667	147.62
553.88	136.62
554.093	142.62
554.306	134.62
554.519	151.62
554.732	144.62
554.944	139.62
555.157	133.62
555.37	133.62
555.583	131.62
555.795	111.62
556.008	105.62
556.221	117.62
556.433	121.62
556.646	109.62
556.859	113.62
557.071	106.62
557.284	117.62
557.496	94.62
557.709	108.62
557.921	106.62
558.134	105.62
558.346	119.62
558.559	121.62
558.771	118.62
558.984	176.62
559.196	205.62
559.409	126.62
559.621	159.62
559.833	128.62
560.046	147.62
560.258	147.62
560.47	137.62
560.683	85.62
560.895	108.62
561.107	98.62
561.32	92.62
561.532	82.62
561.744	91.62
561.956	88.62
562.168	88.62
562.381	86.62
562.593	80.62
562.805	99.62
563.017	92.62
563.229	65.62
563.441	104.62
563.653	84.62
563.865	87.62
564.077	74.62
564.289	93.62
564.501	87.62
564.713	76.62
564.925	72.62
565.137	77.62
565.349	92.62
565.561	87.62
565.773	86.62
565.985	82.62
566.197	78.62
566.408	100.62
566.62	89.62
566.832	92.62
567.044	75.62
567.255	86.62
567.467	90.62
567.679	91.62
567.891	78.62
568.102	98.62
568.314	93.62
568.526	79.62
568.737	85.62
568.949	66.62
569.161	78.62
569.372	86.62
569.584	93.62
569.795	83.62
570.007	77.62
570.218	87.62
570.43	70.62
570.641	73.62
570.853	88.62
571.064	80.62
571.276	73.62
571.487	88.62
571.698	74.62
571.91	91.62
572.121	75.62
572.333	75.62
572.544	78.62
572.755	75.62
572.966	89.62
573.178	75.62
573.389	102.62
573.6	76.62
573.811	80.62
574.023	87.62
574.234	89.62
574.445	83.62
574.656	79.62
574.867	99.62
575.078	99.62
575.289	83.62
575.501	71.62
575.712	82.62
575.923	71.62
576.134	85.62
576.345	92.62
576.556	89.62
576.767	93.62
576.978	81.62
577.188	81.62
577.399	78.62
577.61	75.62
577.821	85.62
578.032	83.62
578.243	75.62
578.454	78.62
578.665	82.62
578.875	81.62
579.086	81.62
579.297	80.62
579.508	85.62
579.718	80.62
579.929	93.62
580.14	89.62
580.35	88.62
580.561	82.62
580.772	80.62
580.982	77.62
581.193	89.62
581.403	82.62
581.614	79.62
581.825	88.62
582.035	79.62
582.246	86.62
582.456	75.62
582.667	84.62
582.877	84.62
583.087	93.62
583.298	88.62
583.508	93.62
583.719	91.62
583.929	88.62
584.139	85.62
584.35	87.62
584.56	72.62
584.77	78.62
584.981	92.62
585.191	74.62
585.401	84.62
585.611	93.62
585.821	100.62
586.032	129.62
586.242	100.62
586.452	89.62
586.662	87.62
586.872	87.62
587.082	85.62
587.292	84.62
587.502	90.62
587.713	95.62
587.923	94.62
588.133	84.62
588.343	89.62
588.553	91.62
588.762	102.62
588.972	180.62
589.182	380.62
589.392	248.62
589.602	170.62
589.812	325.62
590.022	174.62
590.232	94.62
590.441	113.62
590.651	90.62
590.861	100.62
591.071	85.62
591.281	92.62
591.49	76.62
591.7	91.62
591.91	87.62
592.119	85.62
592.329	99.62
592.539	81.62
592.748	100.62
592.958	112.62
593.167	100.62
593.377	85.62
593.587	108.62
593.796	88.62
594.006	103.62
594.215	102.62
594.424	111.62
594.634	104.62
594.843	97.62
595.053	101.62
595.262	92.62
595.472	94.62
595.681	101.62
595.89	104.62
596.1	99.62
596.309	110.62
596.518	105.62
596.727	90.62
596.937	111.62
597.146	108.62
597.355	119.62
597.564	108.62
597.774	104.62
597.983	102.62
598.192	106.62
598.401	103.62
598.61	124.62
598.819	125.62
599.028	117.62
599.237	134.62
599.446	123.62
599.655	120.62
599.864	121.62
600.073	110.62
600.282	118.62
600.491	119.62
600.7	122.62
600.909	112.62
601.118	101.62
601.327	108.62
601.536	101.62
601.745	118.62
601.953	106.62
602.162	100.62
602.371	114.62
602.58	112.62
602.789	102.62
602.997	123.62
603.206	105.62
603.415	110.62
603.623	109.62
603.832	100.62
604.041	123.62
604.249	108.62
604.458	109.62
604.666	120.62
604.875	102.62
605.084	116.62
605.292	123.62
605.501	126.62
605.709	129.62
605.918	129.62
606.126	136.62
606.334	133.62
606.543	129.62
606.751	112.62
606.96	113.62
607.168	105.62
607.376	122.62
607.585	113.62
607.793	119.62
608.001	104.62
608.21	119.62
608.418	114.62
608.626	126.62
608.834	116.62
609.043	122.62
609.251	119.62
609.459	122.62
609.667	136.62
609.875	128.62
610.083	139.62
610.291	126.62
610.499	163.62
610.707	131.62
610.916	113.62
611.124	129.62
611.332	136.62
611.54	124.62
611.748	140.62
611.955	149.62
612.163	162.62
612.371	196.62
612.579	182.62
612.787	126.62
612.995	138.62
613.203	138.62
613.411	143.62
613.618	123.62
613.826	127.62
614.034	137.62
614.242	142.62
614.449	130.62
614.657	138.62
614.865	142.62
615.072	132.62
615.28	109.62
615.488	129.62
615.695	127.62
615.903	139.62
616.111	144.62
616.318	202.62
616.526	216.62
616.733	160.62
616.941	142.62
617.148	160.62
617.356	136.62
617.563	131.62
617.771	128.62
617.978	123.62
618.185	124.62
618.393	138.62
618.6	122.62
618.807	118.62
619.015	97.62
619.222	125.62
619.429	113.62
619.637	109.62
619.844	116.62
620.051	115.62
620.258	144.62
620.466	109.62
620.673	106.62
620.88	127.62
621.087	130.62
621.294	121.62
621.501	114.62
621.708	122.62
621.915	136.62
622.122	136.62
622.329	125.62
622.536	126.62
622.743	105.62
622.95	110.62
623.157	127.62
623.364	114.62
623.571	128.62
623.778	122.62
623.985	102.62
624.192	92.62
624.399	122.62
624.606	118.62
624.812	120.62
625.019	110.62
625.226	124.62
625.433	114.62
625.639	112.62
625.846	112.62
626.053	111.62
626.259	124.62
626.466	100.62
626.673	114.62
626.879	105.62
627.086	103.62
627.293	99.62
627.499	93.62
627.706	99.62
627.912	92.62
628.119	92.62
628.325	92.62
628.532	98.62
628.738	90.62
628.945	94.62
629.151	95.62
629.357	101.62
629.564	74.62
629.77	95.62
629.976	81.62
630.183	88.62
630.389	82.62
630.595	89.62
630.802	96.62
631.008	93.62
631.214	84.62
631.42	95.62
631.627	94.62
631.833	85.62
632.039	96.62
632.245	93.62
632.451	93.62
632.657	89.62
632.863	74.62
633.069	95.62
633.275	103.62
633.481	86.62
633.688	75.62
633.893	92.62
634.099	85.62
634.305	94.62
634.511	78.62
634.717	74.62
634.923	95.62
635.129	75.62
635.335	96.62
635.541	84.62
635.747	83.62
635.952	86.62
636.158	82.62
636.364	79.62
636.57	85.62
636.775	83.62
636.981	82.62
637.187	83.62
637.392	84.62
637.598	81.62
637.804	88.62
638.009	81.62
638.215	92.62
638.421	78.62
638.626	81.62
638.832	96.62
639.037	91.62
639.243	79.62
639.448	72.62
639.654	83.62
639.859	87.62
640.065	79.62
640.27	88.62
640.475	86.62
640.681	97.62
640.886	78.62
641.091	76.62
641.297	97.62
641.502	85.62
641.707	80.62
641.913	91.62
642.118	73.62
642.323	76.62
642.528	83.62
642.733	94.62
642.939	92.62
643.144	94.62
643.349	72.62
643.554	87.62
643.759	94.62
643.964	118.62
644.169	131.62
644.374	97.62
644.579	88.62
644.784	80.62
644.989	87.62
645.194	102.62
645.399	101.62
645.604	90.62
645.809	98.62
646.014	89.62
646.219	80.62
646.423	106.62
646.628	88.62
646.833	89.62
647.038	78.62
647.243	83.62
647.447	91.62
647.652	73.62
647.857	81.62
648.062	87.62
648.266	74.62
648.471	88.62
648.676	78.62
648.88	87.62
649.085	82.62
649.289	90.62
649.494	90.62
649.698	86.62
649.903	82.62
650.107	90.62
650.312	66.62
650.516	74.62
650.721	68.62
650.925	73.62
651.13	68.62
651.334	72.62
651.539	79.62
651.743	79.62
651.947	75.62
652.152	83.62
652.356	97.62
652.56	90.62
652.764	84.62
652.969	78.62
653.173	78.62
653.377	88.62
653.581	70.62
653.785	70.62
653.99	75.62
654.194	74.62
654.398	81.62
654.602	84.62
654.806	76.62
655.01	86.62
655.214	90.62
655.418	71.62
655.622	90.62
655.826	86.62
656.03	80.62
656.234	88.62
656.438	64.62
656.642	83.62
656.846	88.62
657.049	83.62
657.253	90.62
657.457	84.62
657.661	79.62
657.865	72.62
658.068	78.62
658.272	72.62
658.476	71.62
658.68	74.62
658.883	85.62
659.087	74.62
659.291	87.62
659.494	78.62
659.698	74.62
659.901	83.62
660.105	81.62
660.309	88.62
660.512	83.62
660.716	78.62
660.919	72.62
661.123	85.62
661.326	72.62
661.53	66.62
661.733	84.62
661.936	91.62
662.14	81.62
662.343	77.62
662.546	78.62
662.75	72.62
662.953	67.62
663.156	71.62
663.36	83.62
663.563	93.62
663.766	76.62
663.969	80.62
664.173	81.62
664.376	80.62
664.579	71.62
664.782	77.62
664.985	74.62
665.188	75.62
665.391	69.62
665.594	72.62
665.797	74.62
666	73.62
666.203	78.62
666.406	76.62
666.609	65.62
666.812	72.62
667.015	88.62
667.218	66.62
667.421	79.62
667.624	78.62
667.827	70.62
668.03	63.62
668.232	79.62
668.435	72.62
668.638	60.62
668.841	79.62
669.043	70.62
669.246	81.62
669.449	80.62
669.651	79.62
669.854	60.62
670.057	79.62
670.259	71.62
670.462	69.62
670.665	85.62
670.867	75.62
671.07	70.62
671.272	70.62
671.475	93.62
671.677	96.62
671.88	82.62
672.082	83.62
672.284	64.62
672.487	80.62
672.689	70.62
672.892	77.62
