Data from HP_3_HRD10591_00031.txt Node
Date: Mon Jan 19 14:17:16 EST 2026
User: Yrep
Spectrometer: HR+D1059
Trigger mode: 1
Integration Time (sec): 1.000000E-1
Scans to average: 1
Electric dark correction enabled: true
Nonlinearity correction enabled: false
Boxcar width: 0
XAxis mode: Wavelengths
Number of Pixels in Spectrum: 2048
>>>>>Begin Spectral Data<<<<<
223.165	-6.81
223.4	-6.81
223.635	-6.81
223.869	-12.81
224.104	-22.81
224.338	-29.81
224.573	-22.81
224.808	-15.81
225.042	2.19
225.277	-0.81
225.511	18.19
225.746	-3.81
225.98	14.19
226.215	9.19
226.449	8.19
226.683	28.19
226.918	12.19
227.152	23.19
227.387	51.19
227.621	41.19
227.856	38.19
228.09	51.19
228.324	48.19
228.559	43.19
228.793	36.19
229.027	63.19
229.262	66.19
229.496	65.19
229.73	65.19
229.964	78.19
230.199	77.19
230.433	77.19
230.667	74.19
230.901	76.19
231.136	81.19
231.37	78.19
231.604	80.19
231.838	86.19
232.072	81.19
232.306	74.19
232.541	92.19
232.775	73.19
233.009	74.19
233.243	88.19
233.477	79.19
233.711	76.19
233.945	82.19
234.179	84.19
234.413	74.19
234.647	95.19
234.881	84.19
235.115	71.19
235.349	75.19
235.583	79.19
235.817	81.19
236.051	84.19
236.285	69.19
236.519	84.19
236.753	74.19
236.987	72.19
237.221	88.19
237.455	66.19
237.689	80.19
237.922	78.19
238.156	92.19
238.39	94.19
238.624	75.19
238.858	77.19
239.091	79.19
239.325	60.19
239.559	83.19
239.793	63.19
240.027	77.19
240.26	82.19
240.494	78.19
240.728	77.19
240.961	60.19
241.195	74.19
241.429	66.19
241.662	80.19
241.896	92.19
242.13	69.19
242.363	64.19
242.597	60.19
242.83	67.19
243.064	80.19
243.298	83.19
243.531	64.19
243.765	68.19
243.998	77.19
244.232	76.19
244.465	84.19
244.699	84.19
244.932	90.19
245.166	79.19
245.399	78.19
245.633	75.19
245.866	70.19
246.099	80.19
246.333	74.19
246.566	74.19
246.8	83.19
247.033	74.19
247.266	81.19
247.5	80.19
247.733	77.19
247.966	82.19
248.2	74.19
248.433	65.19
248.666	74.19
248.899	82.19
249.133	76.19
249.366	89.19
249.599	78.19
249.832	74.19
250.066	82.19
250.299	70.19
250.532	74.19
250.765	78.19
250.998	80.19
251.231	78.19
251.465	69.19
251.698	89.19
251.931	85.19
252.164	58.19
252.397	67.19
252.63	84.19
252.863	84.19
253.096	67.19
253.329	80.19
253.562	77.19
253.795	80.19
254.028	74.19
254.261	84.19
254.494	74.19
254.727	82.19
254.96	80.19
255.193	86.19
255.426	75.19
255.659	78.19
255.892	88.19
256.124	73.19
256.357	71.19
256.59	95.19
256.823	95.19
257.056	83.19
257.289	74.19
257.521	90.19
257.754	99.19
257.987	87.19
258.22	94.19
258.452	62.19
258.685	70.19
258.918	95.19
259.151	84.19
259.383	82.19
259.616	79.19
259.849	62.19
260.081	74.19
260.314	77.19
260.547	78.19
260.779	78.19
261.012	76.19
261.244	82.19
261.477	85.19
261.71	86.19
261.942	86.19
262.175	88.19
262.407	81.19
262.64	75.19
262.872	80.19
263.105	97.19
263.337	87.19
263.57	70.19
263.802	72.19
264.035	90.19
264.267	76.19
264.499	89.19
264.732	86.19
264.964	74.19
265.197	92.19
265.429	82.19
265.661	79.19
265.894	82.19
266.126	94.19
266.358	75.19
266.591	95.19
266.823	74.19
267.055	89.19
267.287	70.19
267.52	93.19
267.752	75.19
267.984	100.19
268.216	75.19
268.448	76.19
268.681	80.19
268.913	85.19
269.145	66.19
269.377	79.19
269.609	64.19
269.841	101.19
270.073	91.19
270.306	87.19
270.538	88.19
270.77	86.19
271.002	80.19
271.234	72.19
271.466	72.19
271.698	71.19
271.93	73.19
272.162	82.19
272.394	76.19
272.626	70.19
272.858	82.19
273.09	77.19
273.322	83.19
273.553	86.19
273.785	83.19
274.017	86.19
274.249	81.19
274.481	93.19
274.713	92.19
274.945	92.19
275.176	86.19
275.408	88.19
275.64	91.19
275.872	72.19
276.104	70.19
276.335	87.19
276.567	84.19
276.799	83.19
277.031	91.19
277.262	62.19
277.494	81.19
277.726	99.19
277.957	80.19
278.189	67.19
278.421	84.19
278.652	87.19
278.884	74.19
279.115	61.19
279.347	70.19
279.579	79.19
279.81	77.19
280.042	83.19
280.273	70.19
280.505	78.19
280.736	74.19
280.968	93.19
281.199	89.19
281.431	91.19
281.662	79.19
281.894	74.19
282.125	82.19
282.356	76.19
282.588	84.19
282.819	83.19
283.051	74.19
283.282	77.19
283.513	87.19
283.745	80.19
283.976	85.19
284.207	80.19
284.439	96.19
284.67	79.19
284.901	90.19
285.132	82.19
285.364	90.19
285.595	88.19
285.826	74.19
286.057	92.19
286.288	70.19
286.52	76.19
286.751	87.19
286.982	77.19
287.213	78.19
287.444	78.19
287.675	90.19
287.906	94.19
288.138	80.19
288.369	79.19
288.6	76.19
288.831	75.19
289.062	79.19
289.293	80.19
289.524	82.19
289.755	86.19
289.986	85.19
290.217	78.19
290.448	84.19
290.679	81.19
290.91	84.19
291.141	74.19
291.371	66.19
291.602	86.19
291.833	90.19
292.064	71.19
292.295	81.19
292.526	89.19
292.757	92.19
292.987	77.19
293.218	81.19
293.449	83.19
293.68	93.19
293.91	82.19
294.141	90.19
294.372	86.19
294.603	86.19
294.833	84.19
295.064	93.19
295.295	89.19
295.525	82.19
295.756	80.19
295.987	86.19
296.217	85.19
296.448	88.19
296.679	66.19
296.909	82.19
297.14	87.19
297.37	82.19
297.601	92.19
297.831	80.19
298.062	78.19
298.292	82.19
298.523	85.19
298.753	72.19
298.984	82.19
299.214	82.19
299.445	87.19
299.675	93.19
299.905	82.19
300.136	103.19
300.366	76.19
300.597	78.19
300.827	80.19
301.057	73.19
301.288	88.19
301.518	89.19
301.748	82.19
301.979	97.19
302.209	83.19
302.439	80.19
302.669	83.19
302.9	95.19
303.13	84.19
303.36	81.19
303.59	105.19
303.82	86.19
304.051	80.19
304.281	95.19
304.511	98.19
304.741	77.19
304.971	83.19
305.201	79.19
305.431	77.19
305.661	88.19
305.891	86.19
306.121	70.19
306.352	84.19
306.582	73.19
306.812	86.19
307.042	96.19
307.272	86.19
307.502	83.19
307.731	84.19
307.961	73.19
308.191	73.19
308.421	90.19
308.651	89.19
308.881	87.19
309.111	70.19
309.341	89.19
309.571	87.19
309.8	82.19
310.03	90.19
310.26	77.19
310.49	82.19
310.72	72.19
310.949	80.19
311.179	84.19
311.409	94.19
311.639	64.19
311.868	86.19
312.098	99.19
312.328	74.19
312.557	92.19
312.787	94.19
313.017	84.19
313.246	79.19
313.476	91.19
313.706	74.19
313.935	102.19
314.165	83.19
314.394	86.19
314.624	86.19
314.853	83.19
315.083	74.19
315.312	80.19
315.542	87.19
315.771	63.19
316.001	76.19
316.23	83.19
316.46	79.19
316.689	91.19
316.919	78.19
317.148	84.19
317.377	76.19
317.607	90.19
317.836	76.19
318.065	76.19
318.295	98.19
318.524	64.19
318.753	75.19
318.983	86.19
319.212	94.19
319.441	89.19
319.67	84.19
319.9	88.19
320.129	94.19
320.358	83.19
320.587	82.19
320.816	87.19
321.046	85.19
321.275	92.19
321.504	76.19
321.733	73.19
321.962	80.19
322.191	75.19
322.42	82.19
322.649	87.19
322.878	80.19
323.108	83.19
323.337	82.19
323.566	83.19
323.795	79.19
324.024	88.19
324.253	82.19
324.482	95.19
324.71	87.19
324.939	95.19
325.168	90.19
325.397	73.19
325.626	81.19
325.855	77.19
326.084	77.19
326.313	78.19
326.542	88.19
326.77	96.19
326.999	94.19
327.228	81.19
327.457	100.19
327.686	86.19
327.914	76.19
328.143	73.19
328.372	71.19
328.6	75.19
328.829	78.19
329.058	74.19
329.287	83.19
329.515	70.19
329.744	90.19
329.972	86.19
330.201	74.19
330.43	94.19
330.658	86.19
330.887	77.19
331.115	96.19
331.344	80.19
331.572	84.19
331.801	105.19
332.03	82.19
332.258	76.19
332.486	76.19
332.715	71.19
332.943	91.19
333.172	76.19
333.4	85.19
333.629	82.19
333.857	72.19
334.085	105.19
334.314	84.19
334.542	69.19
334.771	75.19
334.999	94.19
335.227	82.19
335.455	88.19
335.684	75.19
335.912	78.19
336.14	86.19
336.369	72.19
336.597	83.19
336.825	90.19
337.053	85.19
337.281	88.19
337.51	92.19
337.738	84.19
337.966	90.19
338.194	80.19
338.422	79.19
338.65	86.19
338.878	88.19
339.106	91.19
339.334	84.19
339.562	87.19
339.79	89.19
340.018	88.19
340.246	80.19
340.474	82.19
340.702	91.19
340.93	87.19
341.158	96.19
341.386	80.19
341.614	84.19
341.842	86.19
342.07	71.19
342.298	82.19
342.526	86.19
342.754	75.19
342.981	82.19
343.209	84.19
343.437	93.19
343.665	86.19
343.893	86.19
344.12	91.19
344.348	81.19
344.576	97.19
344.804	88.19
345.031	80.19
345.259	86.19
345.487	72.19
345.714	78.19
345.942	76.19
346.17	81.19
346.397	79.19
346.625	64.19
346.853	81.19
347.08	77.19
347.308	92.19
347.535	102.19
347.763	70.19
347.99	83.19
348.218	82.19
348.445	80.19
348.673	87.19
348.9	94.19
349.128	92.19
349.355	85.19
349.583	88.19
349.81	90.19
350.037	83.19
350.265	74.19
350.492	86.19
350.72	76.19
350.947	75.19
351.174	86.19
351.402	80.19
351.629	79.19
351.856	76.19
352.083	81.19
352.311	86.19
352.538	85.19
352.765	94.19
352.992	96.19
353.22	84.19
353.447	80.19
353.674	75.19
353.901	74.19
354.128	84.19
354.355	86.19
354.583	82.19
354.81	86.19
355.037	92.19
355.264	70.19
355.491	74.19
355.718	69.19
355.945	84.19
356.172	92.19
356.399	83.19
356.626	88.19
356.853	76.19
357.08	83.19
357.307	79.19
357.534	96.19
357.761	80.19
357.988	91.19
358.215	94.19
358.441	76.19
358.668	70.19
358.895	76.19
359.122	74.19
359.349	73.19
359.576	72.19
359.802	75.19
360.029	79.19
360.256	82.19
360.483	79.19
360.709	79.19
360.936	74.19
361.163	76.19
361.39	77.19
361.616	84.19
361.843	95.19
362.07	87.19
362.296	82.19
362.523	82.19
362.749	66.19
362.976	95.19
363.203	96.19
363.429	72.19
363.656	93.19
363.882	86.19
364.109	85.19
364.335	91.19
364.562	95.19
364.788	89.19
365.015	88.19
365.241	71.19
365.468	79.19
365.694	81.19
365.92	82.19
366.147	69.19
366.373	79.19
366.599	75.19
366.826	78.19
367.052	82.19
367.278	86.19
367.505	98.19
367.731	91.19
367.957	70.19
368.184	86.19
368.41	83.19
368.636	75.19
368.862	79.19
369.089	75.19
369.315	83.19
369.541	98.19
369.767	87.19
369.993	80.19
370.219	76.19
370.445	62.19
370.672	74.19
370.898	82.19
371.124	96.19
371.35	75.19
371.576	79.19
371.802	74.19
372.028	84.19
372.254	99.19
372.48	88.19
372.706	98.19
372.932	80.19
373.158	91.19
373.384	80.19
373.61	87.19
373.835	97.19
374.061	86.19
374.287	97.19
374.513	83.19
374.739	87.19
374.965	99.19
375.191	80.19
375.416	81.19
375.642	84.19
375.868	84.19
376.094	99.19
376.319	81.19
376.545	87.19
376.771	83.19
376.997	79.19
377.222	90.19
377.448	79.19
377.674	88.19
377.899	91.19
378.125	99.19
378.35	75.19
378.576	94.19
378.802	82.19
379.027	74.19
379.253	82.19
379.478	83.19
379.704	82.19
379.929	80.19
380.155	69.19
380.38	72.19
380.606	82.19
380.831	89.19
381.057	87.19
381.282	79.19
381.507	78.19
381.733	82.19
381.958	85.19
382.184	70.19
382.409	94.19
382.634	104.19
382.86	106.19
383.085	89.19
383.31	86.19
383.535	82.19
383.761	92.19
383.986	82.19
384.211	69.19
384.436	82.19
384.662	79.19
384.887	90.19
385.112	82.19
385.337	83.19
385.562	79.19
385.787	80.19
386.013	104.19
386.238	74.19
386.463	95.19
386.688	88.19
386.913	87.19
387.138	84.19
387.363	86.19
387.588	74.19
387.813	90.19
388.038	88.19
388.263	90.19
388.488	82.19
388.713	90.19
388.938	88.19
389.163	92.19
389.387	88.19
389.612	89.19
389.837	90.19
390.062	84.19
390.287	71.19
390.512	99.19
390.736	91.19
390.961	87.19
391.186	92.19
391.411	76.19
391.636	86.19
391.86	87.19
392.085	81.19
392.31	73.19
392.534	85.19
392.759	91.19
392.984	114.19
393.208	157.19
393.433	222.19
393.658	178.19
393.882	96.19
394.107	84.19
394.331	90.19
394.556	90.19
394.78	82.19
395.005	87.19
395.229	107.19
395.454	87.19
395.678	98.19
395.903	90.19
396.127	89.19
396.352	99.19
396.576	136.19
396.801	173.19
397.025	190.19
397.249	125.19
397.474	100.19
397.698	88.19
397.922	83.19
398.147	90.19
398.371	71.19
398.595	80.19
398.82	76.19
399.044	96.19
399.268	83.19
399.492	77.19
399.717	81.19
399.941	95.19
400.165	82.19
400.389	103.19
400.613	88.19
400.837	88.19
401.062	90.19
401.286	77.19
401.51	61.19
401.734	86.19
401.958	97.19
402.182	80.19
402.406	78.19
402.63	86.19
402.854	81.19
403.078	80.19
403.302	86.19
403.526	86.19
403.75	90.19
403.974	68.19
404.198	80.19
404.422	97.19
404.645	75.19
404.869	79.19
405.093	86.19
405.317	85.19
405.541	84.19
405.765	75.19
405.988	102.19
406.212	86.19
406.436	92.19
406.66	81.19
406.883	72.19
407.107	82.19
407.331	86.19
407.555	86.19
407.778	96.19
408.002	101.19
408.226	92.19
408.449	83.19
408.673	84.19
408.896	92.19
409.12	80.19
409.344	75.19
409.567	90.19
409.791	83.19
410.014	115.19
410.238	85.19
410.461	68.19
410.685	86.19
410.908	95.19
411.132	78.19
411.355	81.19
411.578	100.19
411.802	85.19
412.025	86.19
412.249	84.19
412.472	100.19
412.695	75.19
412.919	84.19
413.142	76.19
413.365	82.19
413.589	78.19
413.812	99.19
414.035	93.19
414.258	83.19
414.482	78.19
414.705	72.19
414.928	79.19
415.151	84.19
415.374	67.19
415.597	80.19
415.821	76.19
416.044	89.19
416.267	80.19
416.49	75.19
416.713	84.19
416.936	64.19
417.159	70.19
417.382	72.19
417.605	86.19
417.828	75.19
418.051	75.19
418.274	60.19
418.497	90.19
418.72	74.19
418.943	90.19
419.166	91.19
419.389	83.19
419.611	75.19
419.834	88.19
420.057	71.19
420.28	86.19
420.503	85.19
420.726	89.19
420.948	79.19
421.171	73.19
421.394	84.19
421.617	94.19
421.839	115.19
422.062	100.19
422.285	103.19
422.507	141.19
422.73	218.19
422.953	194.19
423.175	107.19
423.398	92.19
423.621	86.19
423.843	88.19
424.066	82.19
424.288	86.19
424.511	88.19
424.733	73.19
424.956	77.19
425.178	86.19
425.401	75.19
425.623	81.19
425.846	82.19
426.068	76.19
426.291	90.19
426.513	88.19
426.735	83.19
426.958	75.19
427.18	86.19
427.402	68.19
427.625	80.19
427.847	96.19
428.069	99.19
428.292	88.19
428.514	106.19
428.736	84.19
428.958	79.19
429.181	102.19
429.403	86.19
429.625	74.19
429.847	102.19
430.069	113.19
430.292	104.19
430.514	105.19
430.736	94.19
430.958	92.19
431.18	82.19
431.402	86.19
431.624	79.19
431.846	87.19
432.068	106.19
432.29	79.19
432.512	92.19
432.734	96.19
432.956	72.19
433.178	77.19
433.4	78.19
433.622	80.19
433.844	79.19
434.066	90.19
434.287	69.19
434.509	85.19
434.731	85.19
434.953	87.19
435.175	72.19
435.397	88.19
435.618	78.19
435.84	83.19
436.062	76.19
436.284	65.19
436.505	76.19
436.727	76.19
436.949	91.19
437.17	74.19
437.392	75.19
437.614	74.19
437.835	88.19
438.057	89.19
438.278	78.19
438.5	83.19
438.721	69.19
438.943	79.19
439.165	90.19
439.386	82.19
439.608	93.19
439.829	72.19
440.05	95.19
440.272	87.19
440.493	77.19
440.715	79.19
440.936	84.19
441.158	90.19
441.379	91.19
441.6	88.19
441.822	82.19
442.043	79.19
442.264	68.19
442.486	89.19
442.707	100.19
442.928	88.19
443.149	89.19
443.371	92.19
443.592	124.19
443.813	107.19
444.034	96.19
444.255	81.19
444.476	94.19
444.698	72.19
444.919	86.19
445.14	164.19
445.361	150.19
445.582	144.19
445.803	128.19
446.024	99.19
446.245	74.19
446.466	86.19
446.687	81.19
446.908	80.19
447.129	94.19
447.35	77.19
447.571	72.19
447.792	92.19
448.013	77.19
448.234	81.19
448.455	62.19
448.675	80.19
448.896	76.19
449.117	77.19
449.338	83.19
449.559	81.19
449.779	79.19
450	90.19
450.221	76.19
450.442	94.19
450.662	83.19
450.883	84.19
451.104	72.19
451.324	74.19
451.545	77.19
451.766	76.19
451.986	81.19
452.207	85.19
452.428	91.19
452.648	74.19
452.869	86.19
453.089	76.19
453.31	86.19
453.53	81.19
453.751	72.19
453.971	80.19
454.192	88.19
454.412	81.19
454.633	83.19
454.853	94.19
455.073	89.19
455.294	82.19
455.514	82.19
455.734	92.19
455.955	81.19
456.175	80.19
456.395	76.19
456.616	82.19
456.836	86.19
457.056	89.19
457.276	77.19
457.497	90.19
457.717	78.19
457.937	78.19
458.157	91.19
458.377	94.19
458.598	74.19
458.818	79.19
459.038	68.19
459.258	86.19
459.478	67.19
459.698	88.19
459.918	98.19
460.138	78.19
460.358	87.19
460.578	85.19
460.798	102.19
461.018	86.19
461.238	94.19
461.458	86.19
461.678	92.19
461.898	79.19
462.118	90.19
462.338	77.19
462.558	96.19
462.777	65.19
462.997	90.19
463.217	84.19
463.437	75.19
463.657	83.19
463.876	72.19
464.096	78.19
464.316	93.19
464.536	71.19
464.755	65.19
464.975	85.19
465.195	82.19
465.414	71.19
465.634	72.19
465.854	76.19
466.073	76.19
466.293	84.19
466.512	80.19
466.732	83.19
466.951	74.19
467.171	70.19
467.391	79.19
467.61	74.19
467.829	88.19
468.049	84.19
468.268	82.19
468.488	79.19
468.707	83.19
468.927	88.19
469.146	76.19
469.365	78.19
469.585	90.19
469.804	76.19
470.023	82.19
470.243	83.19
470.462	89.19
470.681	78.19
470.901	73.19
471.12	74.19
471.339	74.19
471.558	67.19
471.777	75.19
471.997	74.19
472.216	79.19
472.435	89.19
472.654	77.19
472.873	84.19
473.092	93.19
473.311	89.19
473.53	80.19
473.749	91.19
473.968	86.19
474.187	86.19
474.406	90.19
474.625	88.19
474.844	81.19
475.063	89.19
475.282	78.19
475.501	77.19
475.72	95.19
475.939	82.19
476.158	76.19
476.377	74.19
476.596	85.19
476.814	77.19
477.033	87.19
477.252	80.19
477.471	71.19
477.69	91.19
477.908	84.19
478.127	75.19
478.346	82.19
478.564	77.19
478.783	75.19
479.002	92.19
479.22	78.19
479.439	83.19
479.658	81.19
479.876	81.19
480.095	81.19
480.313	83.19
480.532	81.19
480.751	88.19
480.969	78.19
481.188	75.19
481.406	75.19
481.624	83.19
481.843	78.19
482.061	94.19
482.28	81.19
482.498	78.19
482.717	89.19
482.935	88.19
483.153	82.19
483.372	89.19
483.59	86.19
483.808	84.19
484.027	92.19
484.245	91.19
484.463	81.19
484.681	90.19
484.9	98.19
485.118	91.19
485.336	86.19
485.554	86.19
485.772	79.19
485.99	86.19
486.209	90.19
486.427	82.19
486.645	90.19
486.863	81.19
487.081	94.19
487.299	90.19
487.517	87.19
487.735	80.19
487.953	102.19
488.171	99.19
488.389	84.19
488.607	76.19
488.825	95.19
489.043	84.19
489.261	92.19
489.479	82.19
489.696	88.19
489.914	86.19
490.132	85.19
490.35	83.19
490.568	72.19
490.786	94.19
491.003	95.19
491.221	81.19
491.439	92.19
491.657	72.19
491.874	83.19
492.092	98.19
492.31	86.19
492.527	90.19
492.745	88.19
492.963	85.19
493.18	89.19
493.398	86.19
493.615	75.19
493.833	73.19
494.05	95.19
494.268	90.19
494.485	87.19
494.703	85.19
494.92	92.19
495.138	86.19
495.355	92.19
495.573	81.19
495.79	92.19
496.008	98.19
496.225	86.19
496.442	91.19
496.66	87.19
496.877	86.19
497.094	92.19
497.312	80.19
497.529	74.19
497.746	97.19
497.963	81.19
498.181	80.19
498.398	76.19
498.615	89.19
498.832	74.19
499.049	87.19
499.267	92.19
499.484	76.19
499.701	92.19
499.918	81.19
500.135	75.19
500.352	91.19
500.569	86.19
500.786	92.19
501.003	80.19
501.22	75.19
501.437	94.19
501.654	88.19
501.871	75.19
502.088	78.19
502.305	75.19
502.522	78.19
502.739	88.19
502.956	80.19
503.172	75.19
503.389	78.19
503.606	88.19
503.823	84.19
504.04	94.19
504.256	92.19
504.473	90.19
504.69	92.19
504.907	98.19
505.123	81.19
505.34	74.19
505.557	88.19
505.773	87.19
505.99	76.19
506.207	87.19
506.423	92.19
506.64	79.19
506.856	78.19
507.073	75.19
507.289	80.19
507.506	81.19
507.722	72.19
507.939	76.19
508.155	89.19
508.372	82.19
508.588	78.19
508.805	92.19
509.021	94.19
509.238	82.19
509.454	87.19
509.67	87.19
509.887	91.19
510.103	82.19
510.319	84.19
510.536	66.19
510.752	93.19
510.968	88.19
511.184	67.19
511.401	84.19
511.617	78.19
511.833	84.19
512.049	85.19
512.265	94.19
512.481	90.19
512.698	92.19
512.914	88.19
513.13	87.19
513.346	81.19
513.562	89.19
513.778	98.19
513.994	79.19
514.21	91.19
514.426	94.19
514.642	79.19
514.858	82.19
515.074	88.19
515.29	90.19
515.506	98.19
515.721	64.19
515.937	90.19
516.153	87.19
516.369	75.19
516.585	86.19
516.801	91.19
517.016	77.19
517.232	90.19
517.448	78.19
517.664	70.19
517.879	84.19
518.095	86.19
518.311	98.19
518.527	86.19
518.742	82.19
518.958	94.19
519.173	110.19
519.389	99.19
519.605	67.19
519.82	80.19
520.036	77.19
520.251	83.19
520.467	98.19
520.682	75.19
520.898	72.19
521.113	85.19
521.329	79.19
521.544	92.19
521.76	89.19
521.975	88.19
522.19	75.19
522.406	104.19
522.621	93.19
522.836	87.19
523.052	97.19
523.267	97.19
523.482	83.19
523.698	82.19
523.913	87.19
524.128	90.19
524.343	84.19
524.559	82.19
524.774	87.19
524.989	76.19
525.204	95.19
525.419	74.19
525.634	88.19
525.849	83.19
526.064	98.19
526.28	112.19
526.495	133.19
526.71	142.19
526.925	91.19
527.14	124.19
527.355	128.19
527.57	87.19
527.785	89.19
527.999	85.19
528.214	87.19
528.429	80.19
528.644	74.19
528.859	81.19
529.074	88.19
529.289	78.19
529.503	74.19
529.718	86.19
529.933	86.19
530.148	82.19
530.363	83.19
530.577	78.19
530.792	91.19
531.007	84.19
531.221	85.19
531.436	82.19
531.651	84.19
531.865	88.19
532.08	101.19
532.295	78.19
532.509	86.19
532.724	86.19
532.938	76.19
533.153	79.19
533.367	84.19
533.582	84.19
533.796	87.19
534.011	89.19
534.225	86.19
534.44	88.19
534.654	100.19
534.868	78.19
535.083	105.19
535.297	108.19
535.511	99.19
535.726	77.19
535.94	100.19
536.154	93.19
536.369	89.19
536.583	83.19
536.797	76.19
537.011	81.19
537.225	78.19
537.44	98.19
537.654	86.19
537.868	84.19
538.082	80.19
538.296	95.19
538.51	91.19
538.724	94.19
538.938	91.19
539.153	82.19
539.367	94.19
539.581	87.19
539.795	86.19
540.009	95.19
540.222	80.19
540.436	73.19
540.65	66.19
540.864	91.19
541.078	91.19
541.292	92.19
541.506	88.19
541.72	80.19
541.934	84.19
542.147	84.19
542.361	95.19
542.575	83.19
542.789	73.19
543.002	80.19
543.216	76.19
543.43	87.19
543.644	81.19
543.857	95.19
544.071	89.19
544.285	91.19
544.498	67.19
544.712	87.19
544.925	78.19
545.139	84.19
545.352	82.19
545.566	88.19
545.779	94.19
545.993	94.19
546.206	103.19
546.42	79.19
546.633	94.19
546.847	107.19
547.06	108.19
547.274	101.19
547.487	115.19
547.7	120.19
547.914	114.19
548.127	110.19
548.34	96.19
548.554	110.19
548.767	116.19
548.98	115.19
549.193	114.19
549.407	108.19
549.62	115.19
549.833	117.19
550.046	124.19
550.259	117.19
550.473	129.19
550.686	117.19
550.899	143.19
551.112	149.19
551.325	138.19
551.538	146.19
551.751	130.19
551.964	129.19
552.177	123.19
552.39	127.19
552.603	125.19
552.816	131.19
553.029	126.19
553.242	129.19
553.455	126.19
553.667	127.19
553.88	135.19
554.093	115.19
554.306	130.19
554.519	129.19
554.732	129.19
554.944	136.19
555.157	116.19
555.37	105.19
555.583	128.19
555.795	114.19
556.008	94.19
556.221	106.19
556.433	120.19
556.646	98.19
556.859	104.19
557.071	111.19
557.284	120.19
557.496	96.19
557.709	87.19
557.921	117.19
558.134	104.19
558.346	109.19
558.559	106.19
558.771	93.19
558.984	137.19
559.196	165.19
559.409	119.19
559.621	139.19
559.833	115.19
560.046	142.19
560.258	117.19
560.47	116.19
560.683	100.19
560.895	87.19
561.107	92.19
561.32	92.19
561.532	83.19
561.744	85.19
561.956	100.19
562.168	84.19
562.381	73.19
562.593	98.19
562.805	76.19
563.017	93.19
563.229	91.19
563.441	88.19
563.653	98.19
563.865	85.19
564.077	77.19
564.289	86.19
564.501	87.19
564.713	92.19
564.925	87.19
565.137	83.19
565.349	81.19
565.561	84.19
565.773	82.19
565.985	72.19
566.197	78.19
566.408	71.19
566.62	94.19
566.832	86.19
567.044	94.19
567.255	90.19
567.467	86.19
567.679	77.19
567.891	96.19
568.102	98.19
568.314	93.19
568.526	87.19
568.737	89.19
568.949	83.19
569.161	88.19
569.372	71.19
569.584	79.19
569.795	80.19
570.007	92.19
570.218	93.19
570.43	92.19
570.641	82.19
570.853	103.19
571.064	101.19
571.276	75.19
571.487	85.19
571.698	86.19
571.91	91.19
572.121	79.19
572.333	86.19
572.544	82.19
572.755	84.19
572.966	100.19
573.178	82.19
573.389	88.19
573.6	73.19
573.811	82.19
574.023	67.19
574.234	76.19
574.445	82.19
574.656	82.19
574.867	77.19
575.078	87.19
575.289	86.19
575.501	94.19
575.712	70.19
575.923	91.19
576.134	90.19
576.345	82.19
576.556	91.19
576.767	94.19
576.978	82.19
577.188	83.19
577.399	81.19
577.61	76.19
577.821	71.19
578.032	76.19
578.243	82.19
578.454	89.19
578.665	93.19
578.875	94.19
579.086	99.19
579.297	90.19
579.508	95.19
579.718	82.19
579.929	74.19
580.14	77.19
580.35	72.19
580.561	87.19
580.772	86.19
580.982	78.19
581.193	70.19
581.403	79.19
581.614	74.19
581.825	88.19
582.035	89.19
582.246	84.19
582.456	89.19
582.667	75.19
582.877	105.19
583.087	89.19
583.298	81.19
583.508	75.19
583.719	82.19
583.929	94.19
584.139	78.19
584.35	90.19
584.56	76.19
584.77	91.19
584.981	84.19
585.191	76.19
585.401	75.19
585.611	82.19
585.821	94.19
586.032	115.19
586.242	85.19
586.452	93.19
586.662	86.19
586.872	88.19
587.082	87.19
587.292	99.19
587.502	92.19
587.713	88.19
587.923	91.19
588.133	90.19
588.343	100.19
588.553	78.19
588.762	112.19
588.972	144.19
589.182	329.19
589.392	214.19
589.602	162.19
589.812	262.19
590.022	156.19
590.232	92.19
590.441	87.19
590.651	92.19
590.861	96.19
591.071	91.19
591.281	101.19
591.49	84.19
591.7	87.19
591.91	83.19
592.119	94.19
592.329	91.19
592.539	94.19
592.748	92.19
592.958	95.19
593.167	97.19
593.377	88.19
593.587	106.19
593.796	89.19
594.006	96.19
594.215	98.19
594.424	84.19
594.634	96.19
594.843	91.19
595.053	87.19
595.262	93.19
595.472	107.19
595.681	98.19
595.89	104.19
596.1	100.19
596.309	111.19
596.518	102.19
596.727	94.19
596.937	105.19
597.146	110.19
597.355	100.19
597.564	103.19
597.774	108.19
597.983	98.19
598.192	108.19
598.401	114.19
598.61	99.19
598.819	102.19
599.028	111.19
599.237	115.19
599.446	106.19
599.655	103.19
599.864	111.19
600.073	110.19
600.282	104.19
600.491	106.19
600.7	107.19
600.909	92.19
601.118	114.19
601.327	92.19
601.536	111.19
601.745	111.19
601.953	95.19
602.162	102.19
602.371	92.19
602.58	104.19
602.789	95.19
602.997	104.19
603.206	107.19
603.415	108.19
603.623	100.19
603.832	95.19
604.041	100.19
604.249	106.19
604.458	121.19
604.666	114.19
604.875	128.19
605.084	126.19
605.292	104.19
605.501	114.19
605.709	121.19
605.918	116.19
606.126	119.19
606.334	114.19
606.543	114.19
606.751	116.19
606.96	131.19
607.168	129.19
607.376	112.19
607.585	114.19
607.793	114.19
608.001	104.19
608.21	112.19
608.418	116.19
608.626	112.19
608.834	131.19
609.043	112.19
609.251	107.19
609.459	101.19
609.667	117.19
609.875	126.19
610.083	112.19
610.291	113.19
610.499	137.19
610.707	106.19
610.916	129.19
611.124	124.19
611.332	122.19
611.54	134.19
611.748	122.19
611.955	129.19
612.163	147.19
612.371	169.19
612.579	152.19
612.787	135.19
612.995	129.19
613.203	124.19
613.411	113.19
613.618	122.19
613.826	118.19
614.034	123.19
614.242	134.19
614.449	138.19
614.657	132.19
614.865	119.19
615.072	125.19
615.28	120.19
615.488	130.19
615.695	116.19
615.903	123.19
616.111	128.19
616.318	193.19
616.526	209.19
616.733	138.19
616.941	129.19
617.148	145.19
617.356	124.19
617.563	122.19
617.771	129.19
617.978	111.19
618.185	128.19
618.393	112.19
618.6	105.19
618.807	115.19
619.015	118.19
619.222	114.19
619.429	107.19
619.637	99.19
619.844	114.19
620.051	94.19
620.258	91.19
620.466	118.19
620.673	104.19
620.88	108.19
621.087	111.19
621.294	117.19
621.501	107.19
621.708	108.19
621.915	118.19
622.122	106.19
622.329	106.19
622.536	107.19
622.743	123.19
622.95	110.19
623.157	107.19
623.364	100.19
623.571	108.19
623.778	113.19
623.985	103.19
624.192	93.19
624.399	108.19
624.606	112.19
624.812	107.19
625.019	117.19
625.226	110.19
625.433	91.19
625.639	110.19
625.846	111.19
626.053	90.19
626.259	96.19
626.466	110.19
626.673	88.19
626.879	99.19
627.086	95.19
627.293	105.19
627.499	97.19
627.706	84.19
627.912	89.19
628.119	105.19
628.325	96.19
628.532	89.19
628.738	96.19
628.945	80.19
629.151	89.19
629.357	102.19
629.564	90.19
629.77	88.19
629.976	80.19
630.183	103.19
630.389	89.19
630.595	85.19
630.802	53.19
631.008	82.19
631.214	94.19
631.42	94.19
631.627	87.19
631.833	88.19
632.039	87.19
632.245	88.19
632.451	84.19
632.657	89.19
632.863	85.19
633.069	80.19
633.275	95.19
633.481	90.19
633.688	95.19
633.893	93.19
634.099	86.19
634.305	78.19
634.511	94.19
634.717	77.19
634.923	76.19
635.129	70.19
635.335	94.19
635.541	93.19
635.747	88.19
635.952	108.19
636.158	79.19
636.364	87.19
636.57	91.19
636.775	95.19
636.981	77.19
637.187	97.19
637.392	85.19
637.598	83.19
637.804	97.19
638.009	90.19
638.215	73.19
638.421	70.19
638.626	81.19
638.832	84.19
639.037	94.19
639.243	86.19
639.448	88.19
639.654	89.19
639.859	85.19
640.065	98.19
640.27	92.19
640.475	80.19
640.681	69.19
640.886	86.19
641.091	92.19
641.297	88.19
641.502	86.19
641.707	88.19
641.913	79.19
642.118	88.19
642.323	89.19
642.528	83.19
642.733	89.19
642.939	80.19
643.144	75.19
643.349	87.19
643.554	77.19
643.759	104.19
643.964	96.19
644.169	107.19
644.374	84.19
644.579	105.19
644.784	75.19
644.989	92.19
645.194	92.19
645.399	74.19
645.604	68.19
645.809	83.19
646.014	87.19
646.219	76.19
646.423	111.19
646.628	90.19
646.833	84.19
647.038	89.19
647.243	97.19
647.447	83.19
647.652	90.19
647.857	84.19
648.062	80.19
648.266	92.19
648.471	85.19
648.676	91.19
648.88	95.19
649.085	73.19
649.289	90.19
649.494	86.19
649.698	91.19
649.903	73.19
650.107	87.19
650.312	76.19
650.516	78.19
650.721	88.19
650.925	98.19
651.13	81.19
651.334	81.19
651.539	89.19
651.743	70.19
651.947	80.19
652.152	95.19
652.356	73.19
652.56	78.19
652.764	68.19
652.969	91.19
653.173	76.19
653.377	82.19
653.581	84.19
653.785	86.19
653.99	90.19
654.194	84.19
654.398	84.19
654.602	80.19
654.806	73.19
655.01	76.19
655.214	76.19
655.418	67.19
655.622	72.19
655.826	70.19
656.03	78.19
656.234	73.19
656.438	65.19
656.642	84.19
656.846	71.19
657.049	78.19
657.253	72.19
657.457	87.19
657.661	73.19
657.865	76.19
658.068	85.19
658.272	84.19
658.476	90.19
658.68	88.19
658.883	74.19
659.087	75.19
659.291	71.19
659.494	83.19
659.698	72.19
659.901	76.19
660.105	86.19
660.309	90.19
660.512	82.19
660.716	81.19
660.919	87.19
661.123	90.19
661.326	90.19
661.53	76.19
661.733	84.19
661.936	90.19
662.14	92.19
662.343	79.19
662.546	76.19
662.75	86.19
662.953	84.19
663.156	83.19
663.36	84.19
663.563	90.19
663.766	90.19
663.969	82.19
664.173	72.19
664.376	86.19
664.579	83.19
664.782	70.19
664.985	64.19
665.188	67.19
665.391	85.19
665.594	83.19
665.797	88.19
666	87.19
666.203	74.19
666.406	71.19
666.609	87.19
666.812	83.19
667.015	73.19
667.218	79.19
667.421	79.19
667.624	66.19
667.827	85.19
668.03	72.19
668.232	91.19
668.435	84.19
668.638	84.19
668.841	82.19
669.043	75.19
669.246	82.19
669.449	103.19
669.651	78.19
669.854	75.19
670.057	74.19
670.259	83.19
670.462	75.19
670.665	81.19
670.867	79.19
671.07	76.19
671.272	99.19
671.475	94.19
671.677	92.19
671.88	77.19
672.082	70.19
672.284	75.19
672.487	88.19
672.689	70.19
672.892	78.19
