Data from Sand_1_HRD10591_00027.txt Node
Date: Mon Jan 19 13:31:54 EST 2026
User: Yrep
Spectrometer: HR+D1059
Trigger mode: 1
Integration Time (sec): 1.000000E-1
Scans to average: 1
Electric dark correction enabled: true
Nonlinearity correction enabled: false
Boxcar width: 0
XAxis mode: Wavelengths
Number of Pixels in Spectrum: 2048
>>>>>Begin Spectral Data<<<<<
223.165	-31.56
223.4	-31.56
223.635	-31.56
223.869	-15.56
224.104	-21.56
224.338	-18.56
224.573	-15.56
224.808	-3.56
225.042	-3.56
225.277	-6.56
225.511	4.44
225.746	10.44
225.98	3.44
226.215	11.44
226.449	21.44
226.683	28.44
226.918	18.44
227.152	18.44
227.387	27.44
227.621	37.44
227.856	42.44
228.09	38.44
228.324	49.44
228.559	54.44
228.793	58.44
229.027	73.44
229.262	62.44
229.496	72.44
229.73	73.44
229.964	60.44
230.199	85.44
230.433	76.44
230.667	77.44
230.901	76.44
231.136	71.44
231.37	83.44
231.604	69.44
231.838	71.44
232.072	62.44
232.306	71.44
232.541	80.44
232.775	92.44
233.009	79.44
233.243	69.44
233.477	89.44
233.711	90.44
233.945	84.44
234.179	77.44
234.413	76.44
234.647	81.44
234.881	73.44
235.115	67.44
235.349	70.44
235.583	79.44
235.817	82.44
236.051	81.44
236.285	90.44
236.519	72.44
236.753	65.44
236.987	55.44
237.221	79.44
237.455	79.44
237.689	70.44
237.922	81.44
238.156	85.44
238.39	70.44
238.624	76.44
238.858	81.44
239.091	74.44
239.325	72.44
239.559	72.44
239.793	79.44
240.027	89.44
240.26	64.44
240.494	72.44
240.728	64.44
240.961	76.44
241.195	71.44
241.429	60.44
241.662	62.44
241.896	72.44
242.13	66.44
242.363	81.44
242.597	56.44
242.83	69.44
243.064	70.44
243.298	78.44
243.531	73.44
243.765	81.44
243.998	70.44
244.232	86.44
244.465	71.44
244.699	69.44
244.932	82.44
245.166	86.44
245.399	74.44
245.633	82.44
245.866	69.44
246.099	70.44
246.333	66.44
246.566	70.44
246.8	74.44
247.033	75.44
247.266	61.44
247.5	74.44
247.733	64.44
247.966	68.44
248.2	72.44
248.433	65.44
248.666	70.44
248.899	81.44
249.133	101.44
249.366	70.44
249.599	62.44
249.832	85.44
250.066	76.44
250.299	66.44
250.532	74.44
250.765	79.44
250.998	76.44
251.231	67.44
251.465	77.44
251.698	76.44
251.931	81.44
252.164	74.44
252.397	71.44
252.63	92.44
252.863	75.44
253.096	77.44
253.329	81.44
253.562	77.44
253.795	57.44
254.028	74.44
254.261	85.44
254.494	70.44
254.727	88.44
254.96	67.44
255.193	79.44
255.426	84.44
255.659	70.44
255.892	74.44
256.124	87.44
256.357	88.44
256.59	67.44
256.823	93.44
257.056	71.44
257.289	80.44
257.521	76.44
257.754	84.44
257.987	83.44
258.22	69.44
258.452	86.44
258.685	82.44
258.918	74.44
259.151	81.44
259.383	66.44
259.616	80.44
259.849	81.44
260.081	71.44
260.314	90.44
260.547	72.44
260.779	65.44
261.012	88.44
261.244	81.44
261.477	104.44
261.71	77.44
261.942	83.44
262.175	80.44
262.407	70.44
262.64	74.44
262.872	72.44
263.105	67.44
263.337	87.44
263.57	80.44
263.802	75.44
264.035	77.44
264.267	77.44
264.499	79.44
264.732	74.44
264.964	74.44
265.197	85.44
265.429	80.44
265.661	94.44
265.894	72.44
266.126	69.44
266.358	77.44
266.591	66.44
266.823	80.44
267.055	70.44
267.287	84.44
267.52	80.44
267.752	80.44
267.984	84.44
268.216	67.44
268.448	84.44
268.681	75.44
268.913	92.44
269.145	78.44
269.377	85.44
269.609	78.44
269.841	89.44
270.073	69.44
270.306	83.44
270.538	84.44
270.77	62.44
271.002	87.44
271.234	73.44
271.466	82.44
271.698	77.44
271.93	75.44
272.162	76.44
272.394	70.44
272.626	64.44
272.858	80.44
273.09	78.44
273.322	78.44
273.553	70.44
273.785	88.44
274.017	82.44
274.249	102.44
274.481	71.44
274.713	72.44
274.945	86.44
275.176	78.44
275.408	80.44
275.64	81.44
275.872	71.44
276.104	89.44
276.335	78.44
276.567	68.44
276.799	75.44
277.031	80.44
277.262	86.44
277.494	76.44
277.726	86.44
277.957	76.44
278.189	87.44
278.421	82.44
278.652	76.44
278.884	67.44
279.115	71.44
279.347	84.44
279.579	77.44
279.81	74.44
280.042	85.44
280.273	67.44
280.505	89.44
280.736	77.44
280.968	78.44
281.199	92.44
281.431	81.44
281.662	88.44
281.894	83.44
282.125	70.44
282.356	80.44
282.588	96.44
282.819	90.44
283.051	68.44
283.282	73.44
283.513	68.44
283.745	75.44
283.976	84.44
284.207	81.44
284.439	70.44
284.67	73.44
284.901	82.44
285.132	77.44
285.364	86.44
285.595	77.44
285.826	76.44
286.057	73.44
286.288	72.44
286.52	74.44
286.751	86.44
286.982	82.44
287.213	84.44
287.444	84.44
287.675	84.44
287.906	94.44
288.138	69.44
288.369	79.44
288.6	91.44
288.831	72.44
289.062	77.44
289.293	66.44
289.524	74.44
289.755	77.44
289.986	85.44
290.217	86.44
290.448	82.44
290.679	80.44
290.91	85.44
291.141	88.44
291.371	73.44
291.602	72.44
291.833	76.44
292.064	85.44
292.295	80.44
292.526	100.44
292.757	75.44
292.987	80.44
293.218	78.44
293.449	89.44
293.68	90.44
293.91	80.44
294.141	83.44
294.372	82.44
294.603	75.44
294.833	80.44
295.064	76.44
295.295	66.44
295.525	69.44
295.756	61.44
295.987	82.44
296.217	93.44
296.448	78.44
296.679	105.44
296.909	86.44
297.14	79.44
297.37	77.44
297.601	78.44
297.831	87.44
298.062	79.44
298.292	95.44
298.523	87.44
298.753	69.44
298.984	71.44
299.214	93.44
299.445	63.44
299.675	78.44
299.905	86.44
300.136	101.44
300.366	80.44
300.597	76.44
300.827	99.44
301.057	86.44
301.288	72.44
301.518	83.44
301.748	80.44
301.979	96.44
302.209	85.44
302.439	92.44
302.669	85.44
302.9	86.44
303.13	77.44
303.36	87.44
303.59	73.44
303.82	83.44
304.051	89.44
304.281	78.44
304.511	84.44
304.741	72.44
304.971	93.44
305.201	98.44
305.431	89.44
305.661	95.44
305.891	67.44
306.121	78.44
306.352	89.44
306.582	77.44
306.812	78.44
307.042	78.44
307.272	80.44
307.502	89.44
307.731	71.44
307.961	85.44
308.191	86.44
308.421	94.44
308.651	79.44
308.881	87.44
309.111	89.44
309.341	78.44
309.571	106.44
309.8	82.44
310.03	84.44
310.26	80.44
310.49	87.44
310.72	83.44
310.949	108.44
311.179	80.44
311.409	72.44
311.639	89.44
311.868	70.44
312.098	69.44
312.328	97.44
312.557	70.44
312.787	77.44
313.017	83.44
313.246	86.44
313.476	78.44
313.706	78.44
313.935	81.44
314.165	79.44
314.394	85.44
314.624	65.44
314.853	80.44
315.083	88.44
315.312	67.44
315.542	90.44
315.771	87.44
316.001	83.44
316.23	86.44
316.46	74.44
316.689	81.44
316.919	75.44
317.148	90.44
317.377	85.44
317.607	89.44
317.836	79.44
318.065	87.44
318.295	78.44
318.524	76.44
318.753	76.44
318.983	75.44
319.212	93.44
319.441	78.44
319.67	88.44
319.9	80.44
320.129	66.44
320.358	76.44
320.587	85.44
320.816	76.44
321.046	84.44
321.275	81.44
321.504	84.44
321.733	78.44
321.962	89.44
322.191	76.44
322.42	78.44
322.649	89.44
322.878	73.44
323.108	87.44
323.337	87.44
323.566	75.44
323.795	89.44
324.024	95.44
324.253	81.44
324.482	85.44
324.71	81.44
324.939	86.44
325.168	74.44
325.397	66.44
325.626	78.44
325.855	78.44
326.084	92.44
326.313	85.44
326.542	69.44
326.77	78.44
326.999	81.44
327.228	70.44
327.457	86.44
327.686	76.44
327.914	74.44
328.143	102.44
328.372	85.44
328.6	62.44
328.829	77.44
329.058	70.44
329.287	80.44
329.515	79.44
329.744	87.44
329.972	85.44
330.201	78.44
330.43	89.44
330.658	80.44
330.887	70.44
331.115	72.44
331.344	76.44
331.572	95.44
331.801	85.44
332.03	75.44
332.258	96.44
332.486	80.44
332.715	79.44
332.943	70.44
333.172	85.44
333.4	80.44
333.629	72.44
333.857	85.44
334.085	76.44
334.314	93.44
334.542	76.44
334.771	86.44
334.999	81.44
335.227	66.44
335.455	92.44
335.684	66.44
335.912	84.44
336.14	86.44
336.369	77.44
336.597	78.44
336.825	87.44
337.053	95.44
337.281	80.44
337.51	89.44
337.738	79.44
337.966	77.44
338.194	84.44
338.422	77.44
338.65	82.44
338.878	84.44
339.106	72.44
339.334	91.44
339.562	67.44
339.79	76.44
340.018	60.44
340.246	88.44
340.474	91.44
340.702	84.44
340.93	88.44
341.158	72.44
341.386	75.44
341.614	74.44
341.842	77.44
342.07	74.44
342.298	100.44
342.526	86.44
342.754	71.44
342.981	70.44
343.209	78.44
343.437	97.44
343.665	72.44
343.893	81.44
344.12	91.44
344.348	81.44
344.576	102.44
344.804	98.44
345.031	85.44
345.259	77.44
345.487	81.44
345.714	87.44
345.942	92.44
346.17	80.44
346.397	81.44
346.625	83.44
346.853	80.44
347.08	71.44
347.308	76.44
347.535	86.44
347.763	76.44
347.99	63.44
348.218	85.44
348.445	78.44
348.673	67.44
348.9	74.44
349.128	81.44
349.355	58.44
349.583	86.44
349.81	60.44
350.037	65.44
350.265	79.44
350.492	79.44
350.72	87.44
350.947	74.44
351.174	82.44
351.402	79.44
351.629	85.44
351.856	77.44
352.083	88.44
352.311	54.44
352.538	92.44
352.765	77.44
352.992	92.44
353.22	77.44
353.447	76.44
353.674	79.44
353.901	80.44
354.128	85.44
354.355	66.44
354.583	70.44
354.81	77.44
355.037	84.44
355.264	80.44
355.491	77.44
355.718	91.44
355.945	74.44
356.172	91.44
356.399	82.44
356.626	74.44
356.853	69.44
357.08	72.44
357.307	78.44
357.534	90.44
357.761	87.44
357.988	89.44
358.215	85.44
358.441	76.44
358.668	70.44
358.895	83.44
359.122	86.44
359.349	77.44
359.576	87.44
359.802	68.44
360.029	75.44
360.256	77.44
360.483	96.44
360.709	75.44
360.936	90.44
361.163	83.44
361.39	75.44
361.616	76.44
361.843	84.44
362.07	75.44
362.296	90.44
362.523	85.44
362.749	77.44
362.976	79.44
363.203	79.44
363.429	85.44
363.656	74.44
363.882	81.44
364.109	84.44
364.335	86.44
364.562	89.44
364.788	87.44
365.015	81.44
365.241	80.44
365.468	85.44
365.694	76.44
365.92	71.44
366.147	83.44
366.373	78.44
366.599	82.44
366.826	82.44
367.052	78.44
367.278	78.44
367.505	76.44
367.731	85.44
367.957	63.44
368.184	84.44
368.41	94.44
368.636	82.44
368.862	83.44
369.089	73.44
369.315	74.44
369.541	95.44
369.767	88.44
369.993	83.44
370.219	75.44
370.445	85.44
370.672	75.44
370.898	79.44
371.124	79.44
371.35	75.44
371.576	87.44
371.802	65.44
372.028	67.44
372.254	69.44
372.48	71.44
372.706	87.44
372.932	78.44
373.158	85.44
373.384	90.44
373.61	77.44
373.835	80.44
374.061	70.44
374.287	94.44
374.513	90.44
374.739	81.44
374.965	87.44
375.191	84.44
375.416	65.44
375.642	82.44
375.868	102.44
376.094	92.44
376.319	72.44
376.545	82.44
376.771	85.44
376.997	70.44
377.222	79.44
377.448	72.44
377.674	93.44
377.899	84.44
378.125	71.44
378.35	79.44
378.576	92.44
378.802	76.44
379.027	87.44
379.253	84.44
379.478	75.44
379.704	76.44
379.929	74.44
380.155	81.44
380.38	70.44
380.606	81.44
380.831	70.44
381.057	82.44
381.282	82.44
381.507	82.44
381.733	73.44
381.958	75.44
382.184	77.44
382.409	74.44
382.634	66.44
382.86	75.44
383.085	64.44
383.31	80.44
383.535	75.44
383.761	100.44
383.986	77.44
384.211	80.44
384.436	80.44
384.662	85.44
384.887	77.44
385.112	82.44
385.337	77.44
385.562	66.44
385.787	74.44
386.013	76.44
386.238	73.44
386.463	75.44
386.688	73.44
386.913	69.44
387.138	81.44
387.363	80.44
387.588	77.44
387.813	78.44
388.038	81.44
388.263	77.44
388.488	91.44
388.713	93.44
388.938	69.44
389.163	74.44
389.387	69.44
389.612	73.44
389.837	93.44
390.062	86.44
390.287	81.44
390.512	96.44
390.736	65.44
390.961	84.44
391.186	72.44
391.411	88.44
391.636	83.44
391.86	86.44
392.085	87.44
392.31	91.44
392.534	92.44
392.759	75.44
392.984	74.44
393.208	90.44
393.433	94.44
393.658	92.44
393.882	72.44
394.107	87.44
394.331	91.44
394.556	127.44
394.78	74.44
395.005	86.44
395.229	78.44
395.454	92.44
395.678	82.44
395.903	99.44
396.127	107.44
396.352	123.44
396.576	105.44
396.801	91.44
397.025	102.44
397.249	72.44
397.474	77.44
397.698	93.44
397.922	72.44
398.147	75.44
398.371	73.44
398.595	84.44
398.82	68.44
399.044	71.44
399.268	69.44
399.492	82.44
399.717	96.44
399.941	79.44
400.165	84.44
400.389	86.44
400.613	81.44
400.837	84.44
401.062	84.44
401.286	57.44
401.51	70.44
401.734	90.44
401.958	73.44
402.182	81.44
402.406	86.44
402.63	79.44
402.854	73.44
403.078	79.44
403.302	89.44
403.526	86.44
403.75	81.44
403.974	85.44
404.198	125.44
404.422	195.44
404.645	217.44
404.869	175.44
405.093	132.44
405.317	87.44
405.541	80.44
405.765	70.44
405.988	82.44
406.212	78.44
406.436	85.44
406.66	85.44
406.883	78.44
407.107	96.44
407.331	91.44
407.555	72.44
407.778	95.44
408.002	77.44
408.226	89.44
408.449	86.44
408.673	77.44
408.896	80.44
409.12	85.44
409.344	89.44
409.567	95.44
409.791	80.44
410.014	80.44
410.238	83.44
410.461	82.44
410.685	75.44
410.908	79.44
411.132	77.44
411.355	73.44
411.578	84.44
411.802	72.44
412.025	69.44
412.249	82.44
412.472	72.44
412.695	67.44
412.919	76.44
413.142	96.44
413.365	86.44
413.589	83.44
413.812	91.44
414.035	93.44
414.258	85.44
414.482	82.44
414.705	86.44
414.928	75.44
415.151	68.44
415.374	76.44
415.597	85.44
415.821	92.44
416.044	81.44
416.267	82.44
416.49	85.44
416.713	61.44
416.936	83.44
417.159	61.44
417.382	73.44
417.605	76.44
417.828	77.44
418.051	98.44
418.274	89.44
418.497	82.44
418.72	78.44
418.943	70.44
419.166	78.44
419.389	74.44
419.611	73.44
419.834	85.44
420.057	85.44
420.28	71.44
420.503	70.44
420.726	84.44
420.948	85.44
421.171	71.44
421.394	78.44
421.617	74.44
421.839	82.44
422.062	77.44
422.285	85.44
422.507	103.44
422.73	120.44
422.953	109.44
423.175	84.44
423.398	79.44
423.621	75.44
423.843	71.44
424.066	82.44
424.288	73.44
424.511	83.44
424.733	64.44
424.956	86.44
425.178	86.44
425.401	69.44
425.623	87.44
425.846	79.44
426.068	79.44
426.291	80.44
426.513	85.44
426.735	73.44
426.958	84.44
427.18	81.44
427.402	79.44
427.625	89.44
427.847	88.44
428.069	82.44
428.292	86.44
428.514	74.44
428.736	96.44
428.958	78.44
429.181	81.44
429.403	85.44
429.625	79.44
429.847	83.44
430.069	85.44
430.292	89.44
430.514	88.44
430.736	75.44
430.958	76.44
431.18	74.44
431.402	81.44
431.624	74.44
431.846	79.44
432.068	76.44
432.29	77.44
432.512	89.44
432.734	88.44
432.956	84.44
433.178	86.44
433.4	76.44
433.622	80.44
433.844	64.44
434.066	74.44
434.287	81.44
434.509	81.44
434.731	82.44
434.953	80.44
435.175	70.44
435.397	87.44
435.618	84.44
435.84	79.44
436.062	73.44
436.284	84.44
436.505	94.44
436.727	79.44
436.949	76.44
437.17	86.44
437.392	82.44
437.614	82.44
437.835	84.44
438.057	71.44
438.278	87.44
438.5	72.44
438.721	94.44
438.943	70.44
439.165	70.44
439.386	67.44
439.608	88.44
439.829	72.44
440.05	82.44
440.272	81.44
440.493	91.44
440.715	86.44
440.936	88.44
441.158	93.44
441.379	77.44
441.6	87.44
441.822	72.44
442.043	87.44
442.264	82.44
442.486	81.44
442.707	81.44
442.928	74.44
443.149	74.44
443.371	69.44
443.592	88.44
443.813	91.44
444.034	76.44
444.255	81.44
444.476	77.44
444.698	87.44
444.919	74.44
445.14	139.44
445.361	106.44
445.582	89.44
445.803	78.44
446.024	88.44
446.245	89.44
446.466	89.44
446.687	85.44
446.908	73.44
447.129	76.44
447.35	70.44
447.571	81.44
447.792	68.44
448.013	74.44
448.234	85.44
448.455	82.44
448.675	74.44
448.896	79.44
449.117	81.44
449.338	74.44
449.559	73.44
449.779	86.44
450	84.44
450.221	87.44
450.442	79.44
450.662	91.44
450.883	92.44
451.104	75.44
451.324	76.44
451.545	75.44
451.766	76.44
451.986	74.44
452.207	91.44
452.428	78.44
452.648	79.44
452.869	75.44
453.089	84.44
453.31	66.44
453.53	78.44
453.751	84.44
453.971	69.44
454.192	79.44
454.412	70.44
454.633	79.44
454.853	72.44
455.073	87.44
455.294	86.44
455.514	86.44
455.734	84.44
455.955	78.44
456.175	82.44
456.395	78.44
456.616	81.44
456.836	81.44
457.056	86.44
457.276	80.44
457.497	80.44
457.717	84.44
457.937	83.44
458.157	79.44
458.377	86.44
458.598	81.44
458.818	93.44
459.038	85.44
459.258	86.44
459.478	87.44
459.698	90.44
459.918	86.44
460.138	69.44
460.358	85.44
460.578	86.44
460.798	82.44
461.018	66.44
461.238	76.44
461.458	80.44
461.678	74.44
461.898	80.44
462.118	91.44
462.338	83.44
462.558	86.44
462.777	74.44
462.997	72.44
463.217	74.44
463.437	85.44
463.657	91.44
463.876	87.44
464.096	85.44
464.316	85.44
464.536	85.44
464.755	74.44
464.975	82.44
465.195	77.44
465.414	78.44
465.634	69.44
465.854	85.44
466.073	77.44
466.293	72.44
466.512	84.44
466.732	82.44
466.951	79.44
467.171	65.44
467.391	86.44
467.61	81.44
467.829	97.44
468.049	91.44
468.268	81.44
468.488	77.44
468.707	85.44
468.927	95.44
469.146	90.44
469.365	86.44
469.585	75.44
469.804	79.44
470.023	86.44
470.243	77.44
470.462	82.44
470.681	93.44
470.901	86.44
471.12	74.44
471.339	86.44
471.558	82.44
471.777	86.44
471.997	95.44
472.216	86.44
472.435	88.44
472.654	70.44
472.873	77.44
473.092	86.44
473.311	72.44
473.53	89.44
473.749	79.44
473.968	90.44
474.187	84.44
474.406	79.44
474.625	77.44
474.844	83.44
475.063	93.44
475.282	96.44
475.501	82.44
475.72	84.44
475.939	84.44
476.158	85.44
476.377	86.44
476.596	81.44
476.814	75.44
477.033	76.44
477.252	92.44
477.471	87.44
477.69	76.44
477.908	82.44
478.127	91.44
478.346	83.44
478.564	90.44
478.783	80.44
479.002	80.44
479.22	87.44
479.439	82.44
479.658	83.44
479.876	82.44
480.095	67.44
480.313	85.44
480.532	76.44
480.751	79.44
480.969	76.44
481.188	92.44
481.406	79.44
481.624	82.44
481.843	88.44
482.061	76.44
482.28	80.44
482.498	85.44
482.717	90.44
482.935	84.44
483.153	81.44
483.372	85.44
483.59	76.44
483.808	90.44
484.027	80.44
484.245	80.44
484.463	85.44
484.681	81.44
484.9	76.44
485.118	104.44
485.336	96.44
485.554	93.44
485.772	78.44
485.99	87.44
486.209	78.44
486.427	91.44
486.645	70.44
486.863	93.44
487.081	104.44
487.299	72.44
487.517	81.44
487.735	74.44
487.953	96.44
488.171	90.44
488.389	86.44
488.607	80.44
488.825	74.44
489.043	84.44
489.261	89.44
489.479	80.44
489.696	82.44
489.914	77.44
490.132	79.44
490.35	88.44
490.568	87.44
490.786	85.44
491.003	66.44
491.221	73.44
491.439	76.44
491.657	86.44
491.874	72.44
492.092	100.44
492.31	94.44
492.527	90.44
492.745	96.44
492.963	104.44
493.18	76.44
493.398	90.44
493.615	89.44
493.833	81.44
494.05	94.44
494.268	81.44
494.485	87.44
494.703	79.44
494.92	90.44
495.138	89.44
495.355	91.44
495.573	82.44
495.79	84.44
496.008	94.44
496.225	87.44
496.442	82.44
496.66	70.44
496.877	81.44
497.094	87.44
497.312	79.44
497.529	92.44
497.746	79.44
497.963	84.44
498.181	93.44
498.398	105.44
498.615	92.44
498.832	79.44
499.049	87.44
499.267	86.44
499.484	80.44
499.701	74.44
499.918	86.44
500.135	89.44
500.352	77.44
500.569	76.44
500.786	85.44
501.003	73.44
501.22	79.44
501.437	90.44
501.654	80.44
501.871	78.44
502.088	102.44
502.305	91.44
502.522	89.44
502.739	92.44
502.956	82.44
503.172	92.44
503.389	93.44
503.606	82.44
503.823	72.44
504.04	88.44
504.256	89.44
504.473	91.44
504.69	94.44
504.907	95.44
505.123	72.44
505.34	75.44
505.557	76.44
505.773	94.44
505.99	102.44
506.207	91.44
506.423	80.44
506.64	80.44
506.856	94.44
507.073	74.44
507.289	80.44
507.506	86.44
507.722	95.44
507.939	79.44
508.155	91.44
508.372	91.44
508.588	84.44
508.805	84.44
509.021	95.44
509.238	72.44
509.454	76.44
509.67	89.44
509.887	93.44
510.103	83.44
510.319	98.44
510.536	75.44
510.752	75.44
510.968	92.44
511.184	94.44
511.401	72.44
511.617	79.44
511.833	88.44
512.049	86.44
512.265	83.44
512.481	86.44
512.698	92.44
512.914	67.44
513.13	88.44
513.346	88.44
513.562	80.44
513.778	82.44
513.994	80.44
514.21	85.44
514.426	101.44
514.642	76.44
514.858	74.44
515.074	91.44
515.29	78.44
515.506	93.44
515.721	93.44
515.937	86.44
516.153	96.44
516.369	71.44
516.585	75.44
516.801	88.44
517.016	84.44
517.232	94.44
517.448	79.44
517.664	90.44
517.879	98.44
518.095	71.44
518.311	80.44
518.527	65.44
518.742	80.44
518.958	79.44
519.173	81.44
519.389	88.44
519.605	89.44
519.82	71.44
520.036	84.44
520.251	88.44
520.467	79.44
520.682	92.44
520.898	75.44
521.113	97.44
521.329	73.44
521.544	65.44
521.76	92.44
521.975	78.44
522.19	88.44
522.406	66.44
522.621	77.44
522.836	78.44
523.052	80.44
523.267	85.44
523.482	85.44
523.698	83.44
523.913	81.44
524.128	85.44
524.343	84.44
524.559	76.44
524.774	70.44
524.989	90.44
525.204	86.44
525.419	67.44
525.634	95.44
525.849	76.44
526.064	74.44
526.28	69.44
526.495	79.44
526.71	86.44
526.925	73.44
527.14	74.44
527.355	79.44
527.57	86.44
527.785	82.44
527.999	82.44
528.214	88.44
528.429	97.44
528.644	82.44
528.859	93.44
529.074	82.44
529.289	88.44
529.503	95.44
529.718	85.44
529.933	86.44
530.148	73.44
530.363	87.44
530.577	73.44
530.792	104.44
531.007	77.44
531.221	91.44
531.436	78.44
531.651	80.44
531.865	80.44
532.08	64.44
532.295	87.44
532.509	78.44
532.724	73.44
532.938	74.44
533.153	86.44
533.367	93.44
533.582	85.44
533.796	82.44
534.011	65.44
534.225	96.44
534.44	93.44
534.654	102.44
534.868	95.44
535.083	100.44
535.297	85.44
535.511	86.44
535.726	88.44
535.94	82.44
536.154	91.44
536.369	101.44
536.583	84.44
536.797	104.44
537.011	89.44
537.225	81.44
537.44	83.44
537.654	100.44
537.868	101.44
538.082	80.44
538.296	80.44
538.51	88.44
538.724	84.44
538.938	81.44
539.153	79.44
539.367	90.44
539.581	87.44
539.795	71.44
540.009	93.44
540.222	84.44
540.436	100.44
540.65	84.44
540.864	76.44
541.078	82.44
541.292	76.44
541.506	89.44
541.72	84.44
541.934	76.44
542.147	89.44
542.361	78.44
542.575	89.44
542.789	88.44
543.002	87.44
543.216	80.44
543.43	88.44
543.644	76.44
543.857	80.44
544.071	81.44
544.285	81.44
544.498	93.44
544.712	79.44
544.925	87.44
545.139	82.44
545.352	84.44
545.566	73.44
545.779	91.44
545.993	89.44
546.206	78.44
546.42	77.44
546.633	73.44
546.847	82.44
547.06	87.44
547.274	94.44
547.487	75.44
547.7	76.44
547.914	66.44
548.127	104.44
548.34	83.44
548.554	80.44
548.767	92.44
548.98	85.44
549.193	81.44
549.407	87.44
549.62	80.44
549.833	84.44
550.046	76.44
550.259	72.44
550.473	81.44
550.686	87.44
550.899	76.44
551.112	86.44
551.325	87.44
551.538	76.44
551.751	73.44
551.964	78.44
552.177	78.44
552.39	89.44
552.603	89.44
552.816	83.44
553.029	90.44
553.242	76.44
553.455	79.44
553.667	81.44
553.88	75.44
554.093	93.44
554.306	79.44
554.519	87.44
554.732	77.44
554.944	82.44
555.157	82.44
555.37	95.44
555.583	86.44
555.795	86.44
556.008	85.44
556.221	79.44
556.433	84.44
556.646	91.44
556.859	78.44
557.071	81.44
557.284	96.44
557.496	78.44
557.709	92.44
557.921	100.44
558.134	80.44
558.346	79.44
558.559	90.44
558.771	103.44
558.984	100.44
559.196	82.44
559.409	95.44
559.621	78.44
559.833	81.44
560.046	82.44
560.258	80.44
560.47	86.44
560.683	80.44
560.895	94.44
561.107	89.44
561.32	79.44
561.532	81.44
561.744	82.44
561.956	84.44
562.168	76.44
562.381	80.44
562.593	95.44
562.805	93.44
563.017	93.44
563.229	84.44
563.441	94.44
563.653	82.44
563.865	91.44
564.077	77.44
564.289	92.44
564.501	96.44
564.713	82.44
564.925	80.44
565.137	93.44
565.349	80.44
565.561	84.44
565.773	76.44
565.985	75.44
566.197	87.44
566.408	94.44
566.62	85.44
566.832	87.44
567.044	93.44
567.255	79.44
567.467	86.44
567.679	89.44
567.891	93.44
568.102	92.44
568.314	87.44
568.526	86.44
568.737	108.44
568.949	103.44
569.161	119.44
569.372	103.44
569.584	102.44
569.795	84.44
570.007	99.44
570.218	96.44
570.43	93.44
570.641	72.44
570.853	78.44
571.064	80.44
571.276	78.44
571.487	91.44
571.698	76.44
571.91	81.44
572.121	82.44
572.333	82.44
572.544	80.44
572.755	76.44
572.966	76.44
573.178	79.44
573.389	89.44
573.6	74.44
573.811	84.44
574.023	83.44
574.234	90.44
574.445	84.44
574.656	72.44
574.867	65.44
575.078	79.44
575.289	74.44
575.501	87.44
575.712	84.44
575.923	88.44
576.134	82.44
576.345	83.44
576.556	81.44
576.767	88.44
576.978	69.44
577.188	79.44
577.399	78.44
577.61	90.44
577.821	96.44
578.032	90.44
578.243	96.44
578.454	110.44
578.665	105.44
578.875	86.44
579.086	76.44
579.297	82.44
579.508	89.44
579.718	87.44
579.929	83.44
580.14	89.44
580.35	108.44
580.561	112.44
580.772	101.44
580.982	97.44
581.193	95.44
581.403	92.44
581.614	101.44
581.825	80.44
582.035	86.44
582.246	82.44
582.456	83.44
582.667	82.44
582.877	87.44
583.087	89.44
583.298	102.44
583.508	90.44
583.719	94.44
583.929	98.44
584.139	80.44
584.35	88.44
584.56	88.44
584.77	83.44
584.981	84.44
585.191	80.44
585.401	90.44
585.611	96.44
585.821	87.44
586.032	86.44
586.242	80.44
586.452	78.44
586.662	72.44
586.872	96.44
587.082	87.44
587.292	93.44
587.502	87.44
587.713	96.44
587.923	111.44
588.133	109.44
588.343	126.44
588.553	143.44
588.762	224.44
588.972	452.44
589.182	990.44
589.392	742.44
589.602	523.44
589.812	833.44
590.022	500.44
590.232	206.44
590.441	146.44
590.651	113.44
590.861	105.44
591.071	86.44
591.281	97.44
591.49	94.44
591.7	88.44
591.91	90.44
592.119	93.44
592.329	92.44
592.539	89.44
592.748	92.44
592.958	88.44
593.167	87.44
593.377	92.44
593.587	92.44
593.796	84.44
594.006	68.44
594.215	79.44
594.424	81.44
594.634	77.44
594.843	78.44
595.053	64.44
595.262	79.44
595.472	78.44
595.681	65.44
595.89	76.44
596.1	93.44
596.309	86.44
596.518	87.44
596.727	102.44
596.937	93.44
597.146	80.44
597.355	81.44
597.564	88.44
597.774	85.44
597.983	85.44
598.192	98.44
598.401	96.44
598.61	78.44
598.819	72.44
599.028	82.44
599.237	76.44
599.446	79.44
599.655	85.44
599.864	95.44
600.073	77.44
600.282	75.44
600.491	74.44
600.7	93.44
600.909	84.44
601.118	74.44
601.327	80.44
601.536	70.44
601.745	87.44
601.953	78.44
602.162	84.44
602.371	76.44
602.58	83.44
602.789	77.44
602.997	82.44
603.206	91.44
603.415	82.44
603.623	80.44
603.832	74.44
604.041	87.44
604.249	85.44
604.458	97.44
604.666	81.44
604.875	76.44
605.084	76.44
605.292	76.44
605.501	90.44
605.709	77.44
605.918	83.44
606.126	78.44
606.334	95.44
606.543	88.44
606.751	72.44
606.96	84.44
607.168	89.44
607.376	89.44
607.585	95.44
607.793	90.44
608.001	84.44
608.21	75.44
608.418	77.44
608.626	69.44
608.834	79.44
609.043	94.44
609.251	85.44
609.459	83.44
609.667	86.44
609.875	69.44
610.083	81.44
610.291	87.44
610.499	84.44
610.707	80.44
610.916	92.44
611.124	76.44
611.332	90.44
611.54	80.44
611.748	90.44
611.955	82.44
612.163	95.44
612.371	81.44
612.579	76.44
612.787	81.44
612.995	84.44
613.203	70.44
613.411	82.44
613.618	77.44
613.826	75.44
614.034	85.44
614.242	85.44
614.449	94.44
614.657	80.44
614.865	74.44
615.072	79.44
615.28	81.44
615.488	80.44
615.695	83.44
615.903	81.44
616.111	78.44
616.318	92.44
616.526	65.44
616.733	80.44
616.941	80.44
617.148	87.44
617.356	91.44
617.563	84.44
617.771	79.44
617.978	72.44
618.185	78.44
618.393	68.44
618.6	78.44
618.807	75.44
619.015	83.44
619.222	94.44
619.429	88.44
619.637	88.44
619.844	89.44
620.051	73.44
620.258	83.44
620.466	73.44
620.673	79.44
620.88	82.44
621.087	78.44
621.294	79.44
621.501	66.44
621.708	75.44
621.915	80.44
622.122	74.44
622.329	73.44
622.536	75.44
622.743	70.44
622.95	84.44
623.157	79.44
623.364	95.44
623.571	88.44
623.778	78.44
623.985	83.44
624.192	83.44
624.399	76.44
624.606	81.44
624.812	93.44
625.019	84.44
625.226	91.44
625.433	86.44
625.639	89.44
625.846	74.44
626.053	71.44
626.259	71.44
626.466	80.44
626.673	85.44
626.879	80.44
627.086	87.44
627.293	86.44
627.499	73.44
627.706	74.44
627.912	78.44
628.119	75.44
628.325	91.44
628.532	70.44
628.738	72.44
628.945	78.44
629.151	89.44
629.357	81.44
629.564	76.44
629.77	74.44
629.976	81.44
630.183	85.44
630.389	78.44
630.595	80.44
630.802	62.44
631.008	80.44
631.214	66.44
631.42	80.44
631.627	90.44
631.833	86.44
632.039	74.44
632.245	86.44
632.451	88.44
632.657	86.44
632.863	89.44
633.069	75.44
633.275	74.44
633.481	77.44
633.688	71.44
633.893	89.44
634.099	79.44
634.305	85.44
634.511	82.44
634.717	63.44
634.923	80.44
635.129	75.44
635.335	91.44
635.541	74.44
635.747	72.44
635.952	66.44
636.158	78.44
636.364	86.44
636.57	80.44
636.775	84.44
636.981	63.44
637.187	80.44
637.392	69.44
637.598	76.44
637.804	83.44
638.009	91.44
638.215	84.44
638.421	84.44
638.626	74.44
638.832	92.44
639.037	76.44
639.243	83.44
639.448	81.44
639.654	77.44
639.859	76.44
640.065	81.44
640.27	93.44
640.475	67.44
640.681	64.44
640.886	76.44
641.091	91.44
641.297	77.44
641.502	82.44
641.707	86.44
641.913	72.44
642.118	64.44
642.323	91.44
642.528	84.44
642.733	80.44
642.939	76.44
643.144	69.44
643.349	68.44
643.554	80.44
643.759	76.44
643.964	88.44
644.169	85.44
644.374	76.44
644.579	82.44
644.784	85.44
644.989	88.44
645.194	84.44
645.399	82.44
645.604	74.44
645.809	83.44
646.014	79.44
646.219	89.44
646.423	83.44
646.628	79.44
646.833	79.44
647.038	89.44
647.243	85.44
647.447	84.44
647.652	97.44
647.857	85.44
648.062	74.44
648.266	62.44
648.471	79.44
648.676	80.44
648.88	79.44
649.085	81.44
649.289	73.44
649.494	80.44
649.698	88.44
649.903	89.44
650.107	87.44
650.312	89.44
650.516	75.44
650.721	85.44
650.925	86.44
651.13	89.44
651.334	89.44
651.539	76.44
651.743	76.44
651.947	75.44
652.152	71.44
652.356	72.44
652.56	73.44
652.764	70.44
652.969	74.44
653.173	72.44
653.377	79.44
653.581	70.44
653.785	61.44
653.99	75.44
654.194	73.44
654.398	87.44
654.602	90.44
654.806	77.44
655.01	67.44
655.214	78.44
655.418	54.44
655.622	80.44
655.826	80.44
656.03	74.44
656.234	86.44
656.438	65.44
656.642	63.44
656.846	74.44
657.049	84.44
657.253	80.44
657.457	70.44
657.661	86.44
657.865	81.44
658.068	75.44
658.272	64.44
658.476	65.44
658.68	67.44
658.883	66.44
659.087	66.44
659.291	88.44
659.494	79.44
659.698	68.44
659.901	69.44
660.105	77.44
660.309	80.44
660.512	70.44
660.716	79.44
660.919	74.44
661.123	80.44
661.326	78.44
661.53	70.44
661.733	84.44
661.936	71.44
662.14	70.44
662.343	87.44
662.546	64.44
662.75	66.44
662.953	71.44
663.156	92.44
663.36	91.44
663.563	72.44
663.766	91.44
663.969	83.44
664.173	89.44
664.376	75.44
664.579	66.44
664.782	70.44
664.985	77.44
665.188	81.44
665.391	89.44
665.594	76.44
665.797	81.44
666	78.44
666.203	71.44
666.406	81.44
666.609	86.44
666.812	81.44
667.015	81.44
667.218	74.44
667.421	69.44
667.624	81.44
667.827	82.44
668.03	74.44
668.232	65.44
668.435	83.44
668.638	72.44
668.841	80.44
669.043	97.44
669.246	80.44
669.449	75.44
669.651	77.44
669.854	73.44
670.057	80.44
670.259	74.44
670.462	78.44
670.665	74.44
670.867	82.44
671.07	89.44
671.272	89.44
671.475	85.44
671.677	64.44
671.88	60.44
672.082	69.44
672.284	73.44
672.487	86.44
672.689	76.44
672.892	78.44
