Data from Sand_1_HRD10591_00002.txt Node
Date: Mon Jan 19 13:31:41 EST 2026
User: Yrep
Spectrometer: HR+D1059
Trigger mode: 1
Integration Time (sec): 1.000000E-1
Scans to average: 1
Electric dark correction enabled: true
Nonlinearity correction enabled: false
Boxcar width: 0
XAxis mode: Wavelengths
Number of Pixels in Spectrum: 2048
>>>>>Begin Spectral Data<<<<<
223.165	-18.38
223.4	-18.38
223.635	-18.38
223.869	-24.38
224.104	-19.38
224.338	-21.38
224.573	-10.38
224.808	-15.38
225.042	-9.38
225.277	-2.38
225.511	-5.38
225.746	5.62
225.98	9.62
226.215	25.62
226.449	20.62
226.683	17.62
226.918	16.62
227.152	30.62
227.387	37.62
227.621	36.62
227.856	34.62
228.09	54.62
228.324	40.62
228.559	55.62
228.793	51.62
229.027	50.62
229.262	79.62
229.496	74.62
229.73	69.62
229.964	60.62
230.199	54.62
230.433	81.62
230.667	73.62
230.901	66.62
231.136	92.62
231.37	81.62
231.604	76.62
231.838	81.62
232.072	71.62
232.306	82.62
232.541	71.62
232.775	79.62
233.009	78.62
233.243	79.62
233.477	81.62
233.711	71.62
233.945	68.62
234.179	75.62
234.413	85.62
234.647	75.62
234.881	71.62
235.115	80.62
235.349	72.62
235.583	82.62
235.817	67.62
236.051	71.62
236.285	87.62
236.519	81.62
236.753	75.62
236.987	66.62
237.221	71.62
237.455	85.62
237.689	65.62
237.922	71.62
238.156	65.62
238.39	78.62
238.624	79.62
238.858	82.62
239.091	80.62
239.325	54.62
239.559	78.62
239.793	59.62
240.027	77.62
240.26	71.62
240.494	93.62
240.728	82.62
240.961	87.62
241.195	93.62
241.429	73.62
241.662	87.62
241.896	81.62
242.13	71.62
242.363	77.62
242.597	81.62
242.83	87.62
243.064	73.62
243.298	80.62
243.531	77.62
243.765	70.62
243.998	78.62
244.232	71.62
244.465	82.62
244.699	74.62
244.932	68.62
245.166	95.62
245.399	88.62
245.633	83.62
245.866	65.62
246.099	79.62
246.333	75.62
246.566	82.62
246.8	62.62
247.033	78.62
247.266	83.62
247.5	75.62
247.733	59.62
247.966	79.62
248.2	76.62
248.433	79.62
248.666	86.62
248.899	76.62
249.133	80.62
249.366	81.62
249.599	81.62
249.832	85.62
250.066	80.62
250.299	78.62
250.532	83.62
250.765	78.62
250.998	86.62
251.231	79.62
251.465	93.62
251.698	86.62
251.931	87.62
252.164	77.62
252.397	75.62
252.63	82.62
252.863	85.62
253.096	79.62
253.329	76.62
253.562	77.62
253.795	67.62
254.028	73.62
254.261	77.62
254.494	78.62
254.727	83.62
254.96	82.62
255.193	78.62
255.426	87.62
255.659	71.62
255.892	80.62
256.124	75.62
256.357	81.62
256.59	93.62
256.823	75.62
257.056	77.62
257.289	85.62
257.521	69.62
257.754	77.62
257.987	80.62
258.22	83.62
258.452	81.62
258.685	80.62
258.918	64.62
259.151	81.62
259.383	77.62
259.616	84.62
259.849	68.62
260.081	64.62
260.314	76.62
260.547	86.62
260.779	81.62
261.012	78.62
261.244	80.62
261.477	82.62
261.71	74.62
261.942	83.62
262.175	90.62
262.407	77.62
262.64	63.62
262.872	77.62
263.105	73.62
263.337	85.62
263.57	92.62
263.802	75.62
264.035	77.62
264.267	90.62
264.499	77.62
264.732	86.62
264.964	78.62
265.197	88.62
265.429	83.62
265.661	73.62
265.894	77.62
266.126	65.62
266.358	77.62
266.591	80.62
266.823	78.62
267.055	74.62
267.287	74.62
267.52	82.62
267.752	75.62
267.984	92.62
268.216	91.62
268.448	80.62
268.681	88.62
268.913	73.62
269.145	92.62
269.377	81.62
269.609	77.62
269.841	70.62
270.073	88.62
270.306	75.62
270.538	88.62
270.77	73.62
271.002	87.62
271.234	82.62
271.466	82.62
271.698	75.62
271.93	76.62
272.162	76.62
272.394	97.62
272.626	91.62
272.858	79.62
273.09	71.62
273.322	70.62
273.553	67.62
273.785	71.62
274.017	87.62
274.249	83.62
274.481	77.62
274.713	87.62
274.945	78.62
275.176	83.62
275.408	76.62
275.64	93.62
275.872	88.62
276.104	78.62
276.335	73.62
276.567	80.62
276.799	86.62
277.031	71.62
277.262	78.62
277.494	78.62
277.726	68.62
277.957	89.62
278.189	77.62
278.421	79.62
278.652	87.62
278.884	87.62
279.115	92.62
279.347	89.62
279.579	90.62
279.81	102.62
280.042	88.62
280.273	74.62
280.505	88.62
280.736	65.62
280.968	82.62
281.199	68.62
281.431	71.62
281.662	80.62
281.894	79.62
282.125	82.62
282.356	79.62
282.588	80.62
282.819	81.62
283.051	92.62
283.282	84.62
283.513	85.62
283.745	95.62
283.976	64.62
284.207	73.62
284.439	87.62
284.67	99.62
284.901	83.62
285.132	93.62
285.364	103.62
285.595	93.62
285.826	108.62
286.057	87.62
286.288	87.62
286.52	91.62
286.751	91.62
286.982	81.62
287.213	83.62
287.444	83.62
287.675	80.62
287.906	91.62
288.138	85.62
288.369	83.62
288.6	87.62
288.831	103.62
289.062	106.62
289.293	75.62
289.524	75.62
289.755	81.62
289.986	95.62
290.217	88.62
290.448	77.62
290.679	89.62
290.91	81.62
291.141	75.62
291.371	87.62
291.602	78.62
291.833	87.62
292.064	86.62
292.295	91.62
292.526	72.62
292.757	67.62
292.987	92.62
293.218	93.62
293.449	80.62
293.68	93.62
293.91	85.62
294.141	95.62
294.372	84.62
294.603	76.62
294.833	92.62
295.064	67.62
295.295	73.62
295.525	95.62
295.756	81.62
295.987	93.62
296.217	76.62
296.448	80.62
296.679	74.62
296.909	80.62
297.14	82.62
297.37	96.62
297.601	101.62
297.831	81.62
298.062	83.62
298.292	88.62
298.523	75.62
298.753	89.62
298.984	102.62
299.214	75.62
299.445	84.62
299.675	102.62
299.905	89.62
300.136	96.62
300.366	96.62
300.597	65.62
300.827	89.62
301.057	91.62
301.288	84.62
301.518	91.62
301.748	87.62
301.979	97.62
302.209	79.62
302.439	93.62
302.669	74.62
302.9	81.62
303.13	95.62
303.36	74.62
303.59	77.62
303.82	82.62
304.051	87.62
304.281	75.62
304.511	72.62
304.741	76.62
304.971	79.62
305.201	89.62
305.431	88.62
305.661	92.62
305.891	86.62
306.121	83.62
306.352	91.62
306.582	86.62
306.812	77.62
307.042	91.62
307.272	87.62
307.502	88.62
307.731	81.62
307.961	97.62
308.191	104.62
308.421	115.62
308.651	98.62
308.881	84.62
309.111	103.62
309.341	130.62
309.571	101.62
309.8	91.62
310.03	98.62
310.26	89.62
310.49	75.62
310.72	89.62
310.949	91.62
311.179	92.62
311.409	81.62
311.639	84.62
311.868	92.62
312.098	82.62
312.328	87.62
312.557	93.62
312.787	87.62
313.017	89.62
313.246	96.62
313.476	84.62
313.706	85.62
313.935	89.62
314.165	81.62
314.394	101.62
314.624	85.62
314.853	87.62
315.083	77.62
315.312	80.62
315.542	89.62
315.771	88.62
316.001	95.62
316.23	96.62
316.46	110.62
316.689	80.62
316.919	89.62
317.148	85.62
317.377	86.62
317.607	73.62
317.836	89.62
318.065	81.62
318.295	79.62
318.524	78.62
318.753	97.62
318.983	95.62
319.212	82.62
319.441	88.62
319.67	83.62
319.9	91.62
320.129	95.62
320.358	90.62
320.587	80.62
320.816	110.62
321.046	88.62
321.275	94.62
321.504	89.62
321.733	106.62
321.962	93.62
322.191	99.62
322.42	94.62
322.649	86.62
322.878	93.62
323.108	94.62
323.337	66.62
323.566	87.62
323.795	98.62
324.024	82.62
324.253	86.62
324.482	87.62
324.71	72.62
324.939	97.62
325.168	97.62
325.397	76.62
325.626	76.62
325.855	91.62
326.084	89.62
326.313	98.62
326.542	79.62
326.77	94.62
326.999	98.62
327.228	93.62
327.457	94.62
327.686	92.62
327.914	94.62
328.143	90.62
328.372	81.62
328.6	86.62
328.829	97.62
329.058	103.62
329.287	105.62
329.515	104.62
329.744	107.62
329.972	120.62
330.201	141.62
330.43	139.62
330.658	124.62
330.887	99.62
331.115	104.62
331.344	95.62
331.572	86.62
331.801	86.62
332.03	83.62
332.258	93.62
332.486	83.62
332.715	98.62
332.943	87.62
333.172	91.62
333.4	85.62
333.629	84.62
333.857	100.62
334.085	93.62
334.314	84.62
334.542	97.62
334.771	87.62
334.999	90.62
335.227	77.62
335.455	89.62
335.684	98.62
335.912	111.62
336.14	81.62
336.369	95.62
336.597	85.62
336.825	80.62
337.053	90.62
337.281	85.62
337.51	98.62
337.738	84.62
337.966	80.62
338.194	94.62
338.422	89.62
338.65	94.62
338.878	90.62
339.106	88.62
339.334	89.62
339.562	85.62
339.79	89.62
340.018	95.62
340.246	90.62
340.474	91.62
340.702	84.62
340.93	86.62
341.158	93.62
341.386	98.62
341.614	88.62
341.842	92.62
342.07	103.62
342.298	101.62
342.526	94.62
342.754	79.62
342.981	79.62
343.209	92.62
343.437	99.62
343.665	97.62
343.893	104.62
344.12	105.62
344.348	106.62
344.576	125.62
344.804	140.62
345.031	126.62
345.259	82.62
345.487	101.62
345.714	77.62
345.942	97.62
346.17	90.62
346.397	86.62
346.625	96.62
346.853	89.62
347.08	97.62
347.308	105.62
347.535	106.62
347.763	84.62
347.99	75.62
348.218	103.62
348.445	81.62
348.673	79.62
348.9	90.62
349.128	84.62
349.355	96.62
349.583	89.62
349.81	83.62
350.037	94.62
350.265	86.62
350.492	90.62
350.72	95.62
350.947	97.62
351.174	96.62
351.402	103.62
351.629	92.62
351.856	80.62
352.083	92.62
352.311	106.62
352.538	93.62
352.765	103.62
352.992	97.62
353.22	81.62
353.447	84.62
353.674	96.62
353.901	87.62
354.128	87.62
354.355	87.62
354.583	93.62
354.81	69.62
355.037	86.62
355.264	91.62
355.491	79.62
355.718	82.62
355.945	97.62
356.172	104.62
356.399	95.62
356.626	86.62
356.853	91.62
357.08	96.62
357.307	87.62
357.534	85.62
357.761	80.62
357.988	89.62
358.215	94.62
358.441	104.62
358.668	98.62
358.895	85.62
359.122	89.62
359.349	86.62
359.576	89.62
359.802	90.62
360.029	96.62
360.256	90.62
360.483	94.62
360.709	78.62
360.936	87.62
361.163	91.62
361.39	101.62
361.616	97.62
361.843	87.62
362.07	101.62
362.296	93.62
362.523	85.62
362.749	89.62
362.976	89.62
363.203	98.62
363.429	85.62
363.656	89.62
363.882	98.62
364.109	91.62
364.335	85.62
364.562	97.62
364.788	79.62
365.015	94.62
365.241	104.62
365.468	83.62
365.694	89.62
365.92	95.62
366.147	95.62
366.373	98.62
366.599	92.62
366.826	89.62
367.052	94.62
367.278	93.62
367.505	81.62
367.731	99.62
367.957	92.62
368.184	94.62
368.41	89.62
368.636	80.62
368.862	71.62
369.089	95.62
369.315	75.62
369.541	99.62
369.767	92.62
369.993	80.62
370.219	90.62
370.445	102.62
370.672	92.62
370.898	92.62
371.124	102.62
371.35	83.62
371.576	81.62
371.802	93.62
372.028	82.62
372.254	101.62
372.48	91.62
372.706	90.62
372.932	83.62
373.158	95.62
373.384	99.62
373.61	106.62
373.835	100.62
374.061	78.62
374.287	82.62
374.513	85.62
374.739	91.62
374.965	86.62
375.191	75.62
375.416	104.62
375.642	92.62
375.868	99.62
376.094	102.62
376.319	91.62
376.545	91.62
376.771	89.62
376.997	86.62
377.222	95.62
377.448	95.62
377.674	91.62
377.899	96.62
378.125	89.62
378.35	82.62
378.576	88.62
378.802	85.62
379.027	83.62
379.253	94.62
379.478	87.62
379.704	86.62
379.929	83.62
380.155	98.62
380.38	86.62
380.606	89.62
380.831	91.62
381.057	89.62
381.282	79.62
381.507	91.62
381.733	93.62
381.958	97.62
382.184	89.62
382.409	96.62
382.634	88.62
382.86	94.62
383.085	93.62
383.31	98.62
383.535	91.62
383.761	105.62
383.986	72.62
384.211	74.62
384.436	90.62
384.662	92.62
384.887	94.62
385.112	89.62
385.337	110.62
385.562	89.62
385.787	87.62
386.013	92.62
386.238	101.62
386.463	95.62
386.688	99.62
386.913	82.62
387.138	85.62
387.363	99.62
387.588	82.62
387.813	100.62
388.038	90.62
388.263	90.62
388.488	93.62
388.713	93.62
388.938	98.62
389.163	80.62
389.387	93.62
389.612	85.62
389.837	87.62
390.062	81.62
390.287	82.62
390.512	94.62
390.736	87.62
390.961	89.62
391.186	90.62
391.411	94.62
391.636	94.62
391.86	93.62
392.085	92.62
392.31	88.62
392.534	97.62
392.759	114.62
392.984	122.62
393.208	165.62
393.433	198.62
393.658	179.62
393.882	113.62
394.107	122.62
394.331	158.62
394.556	205.62
394.78	122.62
395.005	87.62
395.229	103.62
395.454	117.62
395.678	96.62
395.903	138.62
396.127	192.62
396.352	255.62
396.576	158.62
396.801	158.62
397.025	182.62
397.249	110.62
397.474	105.62
397.698	93.62
397.922	95.62
398.147	92.62
398.371	97.62
398.595	101.62
398.82	99.62
399.044	105.62
399.268	91.62
399.492	103.62
399.717	122.62
399.941	86.62
400.165	88.62
400.389	83.62
400.613	86.62
400.837	85.62
401.062	97.62
401.286	77.62
401.51	87.62
401.734	86.62
401.958	96.62
402.182	104.62
402.406	96.62
402.63	94.62
402.854	96.62
403.078	110.62
403.302	92.62
403.526	126.62
403.75	129.62
403.974	174.62
404.198	284.62
404.422	519.62
404.645	673.62
404.869	560.62
405.093	350.62
405.317	185.62
405.541	140.62
405.765	121.62
405.988	105.62
406.212	98.62
406.436	88.62
406.66	111.62
406.883	96.62
407.107	103.62
407.331	95.62
407.555	102.62
407.778	94.62
408.002	97.62
408.226	92.62
408.449	104.62
408.673	88.62
408.896	102.62
409.12	91.62
409.344	97.62
409.567	71.62
409.791	87.62
410.014	77.62
410.238	104.62
410.461	87.62
410.685	93.62
410.908	94.62
411.132	94.62
411.355	83.62
411.578	90.62
411.802	82.62
412.025	86.62
412.249	81.62
412.472	89.62
412.695	88.62
412.919	96.62
413.142	96.62
413.365	87.62
413.589	93.62
413.812	92.62
414.035	97.62
414.258	99.62
414.482	96.62
414.705	109.62
414.928	89.62
415.151	92.62
415.374	92.62
415.597	81.62
415.821	87.62
416.044	85.62
416.267	87.62
416.49	81.62
416.713	82.62
416.936	95.62
417.159	98.62
417.382	81.62
417.605	78.62
417.828	86.62
418.051	99.62
418.274	96.62
418.497	75.62
418.72	96.62
418.943	87.62
419.166	82.62
419.389	100.62
419.611	89.62
419.834	91.62
420.057	80.62
420.28	81.62
420.503	110.62
420.726	92.62
420.948	92.62
421.171	82.62
421.394	95.62
421.617	89.62
421.839	91.62
422.062	107.62
422.285	109.62
422.507	191.62
422.73	337.62
422.953	305.62
423.175	143.62
423.398	111.62
423.621	87.62
423.843	101.62
424.066	91.62
424.288	93.62
424.511	111.62
424.733	108.62
424.956	105.62
425.178	93.62
425.401	96.62
425.623	104.62
425.846	96.62
426.068	97.62
426.291	101.62
426.513	83.62
426.735	103.62
426.958	91.62
427.18	97.62
427.402	95.62
427.625	102.62
427.847	98.62
428.069	95.62
428.292	109.62
428.514	119.62
428.736	106.62
428.958	93.62
429.181	96.62
429.403	102.62
429.625	97.62
429.847	98.62
430.069	96.62
430.292	115.62
430.514	121.62
430.736	115.62
430.958	98.62
431.18	105.62
431.402	82.62
431.624	93.62
431.846	87.62
432.068	90.62
432.29	87.62
432.512	88.62
432.734	94.62
432.956	106.62
433.178	107.62
433.4	90.62
433.622	90.62
433.844	90.62
434.066	89.62
434.287	88.62
434.509	86.62
434.731	92.62
434.953	85.62
435.175	105.62
435.397	107.62
435.618	91.62
435.84	89.62
436.062	93.62
436.284	96.62
436.505	102.62
436.727	99.62
436.949	103.62
437.17	76.62
437.392	99.62
437.614	94.62
437.835	92.62
438.057	106.62
438.278	91.62
438.5	98.62
438.721	97.62
438.943	97.62
439.165	91.62
439.386	98.62
439.608	96.62
439.829	80.62
440.05	85.62
440.272	102.62
440.493	103.62
440.715	103.62
440.936	96.62
441.158	95.62
441.379	91.62
441.6	107.62
441.822	93.62
442.043	119.62
442.264	90.62
442.486	95.62
442.707	105.62
442.928	99.62
443.149	82.62
443.371	104.62
443.592	113.62
443.813	115.62
444.034	91.62
444.255	89.62
444.476	96.62
444.698	101.62
444.919	102.62
445.14	155.62
445.361	118.62
445.582	120.62
445.803	119.62
446.024	96.62
446.245	91.62
446.466	93.62
446.687	103.62
446.908	99.62
447.129	114.62
447.35	100.62
447.571	84.62
447.792	97.62
448.013	85.62
448.234	88.62
448.455	90.62
448.675	93.62
448.896	86.62
449.117	106.62
449.338	94.62
449.559	87.62
449.779	107.62
450	96.62
450.221	90.62
450.442	93.62
450.662	95.62
450.883	102.62
451.104	100.62
451.324	104.62
451.545	93.62
451.766	94.62
451.986	83.62
452.207	88.62
452.428	101.62
452.648	81.62
452.869	96.62
453.089	88.62
453.31	96.62
453.53	99.62
453.751	93.62
453.971	92.62
454.192	92.62
454.412	95.62
454.633	93.62
454.853	89.62
455.073	91.62
455.294	99.62
455.514	99.62
455.734	97.62
455.955	90.62
456.175	79.62
456.395	93.62
456.616	94.62
456.836	107.62
457.056	89.62
457.276	102.62
457.497	104.62
457.717	91.62
457.937	96.62
458.157	106.62
458.377	86.62
458.598	104.62
458.818	82.62
459.038	108.62
459.258	91.62
459.478	95.62
459.698	93.62
459.918	95.62
460.138	81.62
460.358	98.62
460.578	110.62
460.798	85.62
461.018	92.62
461.238	102.62
461.458	89.62
461.678	97.62
461.898	89.62
462.118	97.62
462.338	97.62
462.558	92.62
462.777	101.62
462.997	98.62
463.217	98.62
463.437	99.62
463.657	97.62
463.876	89.62
464.096	92.62
464.316	109.62
464.536	88.62
464.755	94.62
464.975	96.62
465.195	90.62
465.414	109.62
465.634	98.62
465.854	85.62
466.073	103.62
466.293	101.62
466.512	103.62
466.732	110.62
466.951	101.62
467.171	94.62
467.391	94.62
467.61	93.62
467.829	103.62
468.049	107.62
468.268	112.62
468.488	102.62
468.707	86.62
468.927	87.62
469.146	102.62
469.365	95.62
469.585	103.62
469.804	100.62
470.023	93.62
470.243	80.62
470.462	93.62
470.681	93.62
470.901	87.62
471.12	110.62
471.339	97.62
471.558	98.62
471.777	99.62
471.997	98.62
472.216	76.62
472.435	86.62
472.654	94.62
472.873	90.62
473.092	80.62
473.311	104.62
473.53	102.62
473.749	95.62
473.968	87.62
474.187	98.62
474.406	94.62
474.625	89.62
474.844	89.62
475.063	99.62
475.282	106.62
475.501	92.62
475.72	97.62
475.939	108.62
476.158	89.62
476.377	94.62
476.596	104.62
476.814	109.62
477.033	97.62
477.252	103.62
477.471	99.62
477.69	96.62
477.908	102.62
478.127	98.62
478.346	97.62
478.564	103.62
478.783	89.62
479.002	91.62
479.22	94.62
479.439	106.62
479.658	101.62
479.876	100.62
480.095	109.62
480.313	110.62
480.532	105.62
480.751	103.62
480.969	91.62
481.188	99.62
481.406	98.62
481.624	98.62
481.843	95.62
482.061	86.62
482.28	96.62
482.498	105.62
482.717	107.62
482.935	104.62
483.153	117.62
483.372	98.62
483.59	98.62
483.808	95.62
484.027	113.62
484.245	101.62
484.463	107.62
484.681	114.62
484.9	96.62
485.118	102.62
485.336	113.62
485.554	105.62
485.772	94.62
485.99	101.62
486.209	93.62
486.427	107.62
486.645	105.62
486.863	101.62
487.081	118.62
487.299	107.62
487.517	100.62
487.735	109.62
487.953	106.62
488.171	111.62
488.389	103.62
488.607	113.62
488.825	99.62
489.043	101.62
489.261	105.62
489.479	113.62
489.696	102.62
489.914	106.62
490.132	105.62
490.35	113.62
490.568	101.62
490.786	105.62
491.003	108.62
491.221	107.62
491.439	110.62
491.657	94.62
491.874	115.62
492.092	101.62
492.31	122.62
492.527	118.62
492.745	112.62
492.963	104.62
493.18	91.62
493.398	114.62
493.615	106.62
493.833	102.62
494.05	109.62
494.268	110.62
494.485	116.62
494.703	111.62
494.92	103.62
495.138	118.62
495.355	115.62
495.573	98.62
495.79	105.62
496.008	114.62
496.225	104.62
496.442	109.62
496.66	124.62
496.877	125.62
497.094	102.62
497.312	107.62
497.529	104.62
497.746	123.62
497.963	111.62
498.181	115.62
498.398	124.62
498.615	104.62
498.832	95.62
499.049	105.62
499.267	126.62
499.484	129.62
499.701	101.62
499.918	115.62
500.135	109.62
500.352	113.62
500.569	91.62
500.786	97.62
501.003	117.62
501.22	99.62
501.437	98.62
501.654	106.62
501.871	108.62
502.088	114.62
502.305	107.62
502.522	98.62
502.739	106.62
502.956	113.62
503.172	107.62
503.389	110.62
503.606	82.62
503.823	105.62
504.04	121.62
504.256	114.62
504.473	111.62
504.69	94.62
504.907	107.62
505.123	111.62
505.34	109.62
505.557	95.62
505.773	97.62
505.99	110.62
506.207	109.62
506.423	94.62
506.64	111.62
506.856	98.62
507.073	111.62
507.289	115.62
507.506	102.62
507.722	89.62
507.939	96.62
508.155	104.62
508.372	103.62
508.588	84.62
508.805	100.62
509.021	107.62
509.238	105.62
509.454	99.62
509.67	103.62
509.887	100.62
510.103	126.62
510.319	119.62
510.536	105.62
510.752	114.62
510.968	117.62
511.184	112.62
511.401	118.62
511.617	109.62
511.833	113.62
512.049	110.62
512.265	112.62
512.481	111.62
512.698	111.62
512.914	104.62
513.13	106.62
513.346	84.62
513.562	98.62
513.778	106.62
513.994	103.62
514.21	90.62
514.426	93.62
514.642	96.62
514.858	101.62
515.074	101.62
515.29	103.62
515.506	103.62
515.721	109.62
515.937	108.62
516.153	89.62
516.369	92.62
516.585	97.62
516.801	98.62
517.016	87.62
517.232	95.62
517.448	93.62
517.664	111.62
517.879	95.62
518.095	114.62
518.311	93.62
518.527	98.62
518.742	85.62
518.958	111.62
519.173	91.62
519.389	98.62
519.605	116.62
519.82	105.62
520.036	107.62
520.251	99.62
520.467	94.62
520.682	93.62
520.898	98.62
521.113	98.62
521.329	88.62
521.544	107.62
521.76	94.62
521.975	109.62
522.19	98.62
522.406	95.62
522.621	95.62
522.836	88.62
523.052	98.62
523.267	84.62
523.482	100.62
523.698	92.62
523.913	101.62
524.128	85.62
524.343	109.62
524.559	98.62
524.774	99.62
524.989	96.62
525.204	98.62
525.419	83.62
525.634	85.62
525.849	87.62
526.064	78.62
526.28	107.62
526.495	121.62
526.71	104.62
526.925	110.62
527.14	119.62
527.355	111.62
527.57	111.62
527.785	107.62
527.999	103.62
528.214	109.62
528.429	96.62
528.644	105.62
528.859	97.62
529.074	87.62
529.289	102.62
529.503	101.62
529.718	89.62
529.933	96.62
530.148	99.62
530.363	108.62
530.577	101.62
530.792	114.62
531.007	105.62
531.221	107.62
531.436	90.62
531.651	119.62
531.865	101.62
532.08	102.62
532.295	129.62
532.509	105.62
532.724	114.62
532.938	113.62
533.153	111.62
533.367	125.62
533.582	128.62
533.796	123.62
534.011	127.62
534.225	136.62
534.44	147.62
534.654	143.62
534.868	129.62
535.083	143.62
535.297	145.62
535.511	128.62
535.726	131.62
535.94	139.62
536.154	128.62
536.369	134.62
536.583	128.62
536.797	117.62
537.011	129.62
537.225	125.62
537.44	114.62
537.654	111.62
537.868	107.62
538.082	121.62
538.296	103.62
538.51	106.62
538.724	107.62
538.938	101.62
539.153	105.62
539.367	121.62
539.581	102.62
539.795	95.62
540.009	87.62
540.222	91.62
540.436	94.62
540.65	89.62
540.864	99.62
541.078	102.62
541.292	107.62
541.506	88.62
541.72	101.62
541.934	95.62
542.147	99.62
542.361	89.62
542.575	90.62
542.789	109.62
543.002	89.62
543.216	103.62
543.43	101.62
543.644	94.62
543.857	86.62
544.071	82.62
544.285	88.62
544.498	88.62
544.712	98.62
544.925	103.62
545.139	101.62
545.352	83.62
545.566	90.62
545.779	95.62
545.993	93.62
546.206	97.62
546.42	86.62
546.633	81.62
546.847	103.62
547.06	98.62
547.274	94.62
547.487	103.62
547.7	101.62
547.914	98.62
548.127	98.62
548.34	85.62
548.554	82.62
548.767	90.62
548.98	93.62
549.193	93.62
549.407	91.62
549.62	93.62
549.833	90.62
550.046	98.62
550.259	96.62
550.473	94.62
550.686	95.62
550.899	114.62
551.112	93.62
551.325	97.62
551.538	96.62
551.751	103.62
551.964	92.62
552.177	93.62
552.39	102.62
552.603	94.62
552.816	96.62
553.029	90.62
553.242	106.62
553.455	98.62
553.667	101.62
553.88	101.62
554.093	94.62
554.306	109.62
554.519	96.62
554.732	97.62
554.944	105.62
555.157	110.62
555.37	78.62
555.583	103.62
555.795	113.62
556.008	102.62
556.221	98.62
556.433	101.62
556.646	93.62
556.859	93.62
557.071	95.62
557.284	101.62
557.496	93.62
557.709	86.62
557.921	86.62
558.134	92.62
558.346	93.62
558.559	91.62
558.771	106.62
558.984	113.62
559.196	139.62
559.409	107.62
559.621	122.62
559.833	116.62
560.046	101.62
560.258	111.62
560.47	97.62
560.683	87.62
560.895	106.62
561.107	99.62
561.32	101.62
561.532	90.62
561.744	83.62
561.956	96.62
562.168	85.62
562.381	96.62
562.593	94.62
562.805	99.62
563.017	99.62
563.229	88.62
563.441	104.62
563.653	93.62
563.865	98.62
564.077	97.62
564.289	96.62
564.501	106.62
564.713	98.62
564.925	89.62
565.137	103.62
565.349	86.62
565.561	92.62
565.773	95.62
565.985	97.62
566.197	112.62
566.408	101.62
566.62	111.62
566.832	105.62
567.044	94.62
567.255	107.62
567.467	117.62
567.679	116.62
567.891	109.62
568.102	103.62
568.314	119.62
568.526	125.62
568.737	128.62
568.949	146.62
569.161	152.62
569.372	150.62
569.584	159.62
569.795	135.62
570.007	139.62
570.218	118.62
570.43	130.62
570.641	114.62
570.853	116.62
571.064	105.62
571.276	106.62
571.487	101.62
571.698	95.62
571.91	107.62
572.121	105.62
572.333	108.62
572.544	99.62
572.755	101.62
572.966	91.62
573.178	103.62
573.389	96.62
573.6	94.62
573.811	93.62
574.023	81.62
574.234	92.62
574.445	103.62
574.656	99.62
574.867	113.62
575.078	85.62
575.289	105.62
575.501	86.62
575.712	91.62
575.923	102.62
576.134	94.62
576.345	103.62
576.556	101.62
576.767	113.62
576.978	94.62
577.188	106.62
577.399	113.62
577.61	110.62
577.821	104.62
578.032	103.62
578.243	110.62
578.454	143.62
578.665	154.62
578.875	154.62
579.086	141.62
579.297	123.62
579.508	116.62
579.718	127.62
579.929	126.62
580.14	121.62
580.35	167.62
580.561	196.62
580.772	209.62
580.982	173.62
581.193	167.62
581.403	132.62
581.614	144.62
581.825	148.62
582.035	135.62
582.246	117.62
582.456	109.62
582.667	109.62
582.877	110.62
583.087	115.62
583.298	123.62
583.508	165.62
583.719	161.62
583.929	147.62
584.139	137.62
584.35	118.62
584.56	111.62
584.77	123.62
584.981	121.62
585.191	139.62
585.401	117.62
585.611	120.62
585.821	117.62
586.032	129.62
586.242	127.62
586.452	110.62
586.662	112.62
586.872	115.62
587.082	130.62
587.292	129.62
587.502	157.62
587.713	174.62
587.923	195.62
588.133	234.62
588.343	256.62
588.553	367.62
588.762	601.62
588.972	1224.62
589.182	1696.62
589.392	1678.62
589.602	1375.62
589.812	1603.62
590.022	1240.62
590.232	559.62
590.441	355.62
590.651	259.62
590.861	215.62
591.071	160.62
591.281	160.62
591.49	132.62
591.7	137.62
591.91	118.62
592.119	115.62
592.329	115.62
592.539	114.62
592.748	110.62
592.958	120.62
593.167	94.62
593.377	106.62
593.587	107.62
593.796	108.62
594.006	106.62
594.215	97.62
594.424	109.62
594.634	102.62
594.843	96.62
595.053	114.62
595.262	103.62
595.472	106.62
595.681	98.62
595.89	97.62
596.1	95.62
596.309	92.62
596.518	97.62
596.727	104.62
596.937	97.62
597.146	109.62
597.355	100.62
597.564	96.62
597.774	88.62
597.983	102.62
598.192	89.62
598.401	109.62
598.61	101.62
598.819	110.62
599.028	98.62
599.237	103.62
599.446	115.62
599.655	90.62
599.864	100.62
600.073	97.62
600.282	91.62
600.491	110.62
600.7	90.62
600.909	87.62
601.118	102.62
601.327	97.62
601.536	90.62
601.745	84.62
601.953	87.62
602.162	94.62
602.371	84.62
602.58	84.62
602.789	90.62
602.997	91.62
603.206	78.62
603.415	92.62
603.623	104.62
603.832	91.62
604.041	103.62
604.249	101.62
604.458	86.62
604.666	101.62
604.875	83.62
605.084	95.62
605.292	90.62
605.501	92.62
605.709	95.62
605.918	83.62
606.126	105.62
606.334	111.62
606.543	103.62
606.751	94.62
606.96	81.62
607.168	80.62
607.376	104.62
607.585	104.62
607.793	105.62
608.001	92.62
608.21	99.62
608.418	103.62
608.626	108.62
608.834	85.62
609.043	86.62
609.251	88.62
609.459	86.62
609.667	99.62
609.875	86.62
610.083	96.62
610.291	96.62
610.499	112.62
610.707	93.62
610.916	101.62
611.124	98.62
611.332	84.62
611.54	95.62
611.748	97.62
611.955	106.62
612.163	87.62
612.371	111.62
612.579	121.62
612.787	91.62
612.995	105.62
613.203	89.62
613.411	92.62
613.618	94.62
613.826	93.62
614.034	103.62
614.242	96.62
614.449	94.62
614.657	101.62
614.865	110.62
615.072	109.62
615.28	101.62
615.488	111.62
615.695	98.62
615.903	111.62
616.111	119.62
616.318	145.62
616.526	147.62
616.733	110.62
616.941	102.62
617.148	97.62
617.356	101.62
617.563	96.62
617.771	111.62
617.978	103.62
618.185	94.62
618.393	111.62
618.6	104.62
618.807	89.62
619.015	93.62
619.222	91.62
619.429	92.62
619.637	83.62
619.844	92.62
620.051	103.62
620.258	95.62
620.466	83.62
620.673	81.62
620.88	77.62
621.087	93.62
621.294	90.62
621.501	83.62
621.708	73.62
621.915	95.62
622.122	103.62
622.329	97.62
622.536	102.62
622.743	87.62
622.95	107.62
623.157	97.62
623.364	77.62
623.571	95.62
623.778	88.62
623.985	99.62
624.192	94.62
624.399	93.62
624.606	83.62
624.812	88.62
625.019	91.62
625.226	97.62
625.433	93.62
625.639	98.62
625.846	97.62
626.053	99.62
626.259	82.62
626.466	95.62
626.673	102.62
626.879	107.62
627.086	93.62
627.293	97.62
627.499	98.62
627.706	101.62
627.912	90.62
628.119	82.62
628.325	101.62
628.532	108.62
628.738	86.62
628.945	81.62
629.151	81.62
629.357	90.62
629.564	85.62
629.77	77.62
629.976	78.62
630.183	84.62
630.389	84.62
630.595	90.62
630.802	97.62
631.008	90.62
631.214	75.62
631.42	95.62
631.627	96.62
631.833	89.62
632.039	89.62
632.245	87.62
632.451	92.62
632.657	94.62
632.863	81.62
633.069	80.62
633.275	103.62
633.481	79.62
633.688	92.62
633.893	81.62
634.099	70.62
634.305	94.62
634.511	96.62
634.717	98.62
634.923	85.62
635.129	97.62
635.335	88.62
635.541	87.62
635.747	101.62
635.952	92.62
636.158	90.62
636.364	97.62
636.57	78.62
636.775	84.62
636.981	78.62
637.187	97.62
637.392	85.62
637.598	109.62
637.804	92.62
638.009	78.62
638.215	94.62
638.421	85.62
638.626	87.62
638.832	82.62
639.037	92.62
639.243	85.62
639.448	86.62
639.654	85.62
639.859	105.62
640.065	98.62
640.27	89.62
640.475	80.62
640.681	97.62
640.886	87.62
641.091	82.62
641.297	96.62
641.502	107.62
641.707	76.62
641.913	111.62
642.118	89.62
642.323	82.62
642.528	91.62
642.733	93.62
642.939	97.62
643.144	93.62
643.349	79.62
643.554	85.62
643.759	94.62
643.964	103.62
644.169	110.62
644.374	97.62
644.579	97.62
644.784	90.62
644.989	87.62
645.194	85.62
645.399	87.62
645.604	98.62
645.809	91.62
646.014	81.62
646.219	82.62
646.423	104.62
646.628	90.62
646.833	81.62
647.038	81.62
647.243	90.62
647.447	90.62
647.652	85.62
647.857	89.62
648.062	93.62
648.266	80.62
648.471	91.62
648.676	79.62
648.88	75.62
649.085	93.62
649.289	85.62
649.494	95.62
649.698	86.62
649.903	93.62
650.107	103.62
650.312	73.62
650.516	77.62
650.721	80.62
650.925	87.62
651.13	85.62
651.334	67.62
651.539	64.62
651.743	85.62
651.947	83.62
652.152	90.62
652.356	96.62
652.56	87.62
652.764	90.62
652.969	87.62
653.173	86.62
653.377	89.62
653.581	80.62
653.785	71.62
653.99	75.62
654.194	83.62
654.398	88.62
654.602	71.62
654.806	80.62
655.01	96.62
655.214	76.62
655.418	95.62
655.622	82.62
655.826	86.62
656.03	76.62
656.234	88.62
656.438	80.62
656.642	74.62
656.846	89.62
657.049	89.62
657.253	90.62
657.457	88.62
657.661	87.62
657.865	90.62
658.068	78.62
658.272	70.62
658.476	86.62
658.68	89.62
658.883	75.62
659.087	89.62
659.291	88.62
659.494	89.62
659.698	83.62
659.901	91.62
660.105	75.62
660.309	81.62
660.512	87.62
660.716	86.62
660.919	76.62
661.123	76.62
661.326	73.62
661.53	72.62
661.733	76.62
661.936	81.62
662.14	84.62
662.343	73.62
662.546	87.62
662.75	80.62
662.953	91.62
663.156	87.62
663.36	92.62
663.563	87.62
663.766	77.62
663.969	79.62
664.173	77.62
664.376	79.62
664.579	71.62
664.782	78.62
664.985	75.62
665.188	79.62
665.391	74.62
665.594	72.62
665.797	74.62
666	74.62
666.203	74.62
666.406	87.62
666.609	75.62
666.812	70.62
667.015	77.62
667.218	87.62
667.421	88.62
667.624	81.62
667.827	79.62
668.03	79.62
668.232	88.62
668.435	96.62
668.638	68.62
668.841	74.62
669.043	75.62
669.246	84.62
669.449	75.62
669.651	85.62
669.854	82.62
670.057	66.62
670.259	76.62
670.462	74.62
670.665	89.62
670.867	78.62
671.07	64.62
671.272	72.62
671.475	83.62
671.677	78.62
671.88	85.62
672.082	80.62
672.284	88.62
672.487	62.62
672.689	71.62
672.892	95.62
