Data from Sand_1_HRD10591_00015.txt Node
Date: Mon Jan 19 13:31:48 EST 2026
User: Yrep
Spectrometer: HR+D1059
Trigger mode: 1
Integration Time (sec): 1.000000E-1
Scans to average: 1
Electric dark correction enabled: true
Nonlinearity correction enabled: false
Boxcar width: 0
XAxis mode: Wavelengths
Number of Pixels in Spectrum: 2048
>>>>>Begin Spectral Data<<<<<
223.165	-15.12
223.4	-15.12
223.635	-15.12
223.869	-5.12
224.104	-20.12
224.338	-2.12
224.573	-16.12
224.808	-20.12
225.042	-12.12
225.277	4.88
225.511	-8.12
225.746	3.88
225.98	13.88
226.215	8.88
226.449	15.88
226.683	10.88
226.918	20.88
227.152	19.88
227.387	19.88
227.621	40.88
227.856	39.88
228.09	56.88
228.324	49.88
228.559	60.88
228.793	59.88
229.027	66.88
229.262	51.88
229.496	79.88
229.73	55.88
229.964	60.88
230.199	59.88
230.433	94.88
230.667	90.88
230.901	86.88
231.136	68.88
231.37	81.88
231.604	69.88
231.838	93.88
232.072	71.88
232.306	70.88
232.541	80.88
232.775	72.88
233.009	79.88
233.243	69.88
233.477	83.88
233.711	70.88
233.945	87.88
234.179	89.88
234.413	84.88
234.647	81.88
234.881	73.88
235.115	83.88
235.349	80.88
235.583	71.88
235.817	84.88
236.051	75.88
236.285	68.88
236.519	74.88
236.753	77.88
236.987	81.88
237.221	73.88
237.455	78.88
237.689	81.88
237.922	89.88
238.156	72.88
238.39	78.88
238.624	68.88
238.858	72.88
239.091	90.88
239.325	82.88
239.559	76.88
239.793	80.88
240.027	73.88
240.26	80.88
240.494	84.88
240.728	74.88
240.961	89.88
241.195	70.88
241.429	81.88
241.662	68.88
241.896	76.88
242.13	77.88
242.363	64.88
242.597	67.88
242.83	75.88
243.064	48.88
243.298	73.88
243.531	75.88
243.765	83.88
243.998	73.88
244.232	82.88
244.465	75.88
244.699	74.88
244.932	71.88
245.166	80.88
245.399	77.88
245.633	74.88
245.866	75.88
246.099	73.88
246.333	69.88
246.566	82.88
246.8	72.88
247.033	84.88
247.266	79.88
247.5	75.88
247.733	74.88
247.966	73.88
248.2	70.88
248.433	80.88
248.666	80.88
248.899	83.88
249.133	76.88
249.366	77.88
249.599	84.88
249.832	69.88
250.066	70.88
250.299	71.88
250.532	77.88
250.765	70.88
250.998	75.88
251.231	65.88
251.465	73.88
251.698	69.88
251.931	89.88
252.164	85.88
252.397	68.88
252.63	79.88
252.863	84.88
253.096	66.88
253.329	88.88
253.562	89.88
253.795	73.88
254.028	75.88
254.261	72.88
254.494	83.88
254.727	68.88
254.96	68.88
255.193	85.88
255.426	78.88
255.659	70.88
255.892	96.88
256.124	81.88
256.357	77.88
256.59	78.88
256.823	82.88
257.056	86.88
257.289	74.88
257.521	73.88
257.754	75.88
257.987	72.88
258.22	75.88
258.452	62.88
258.685	69.88
258.918	86.88
259.151	73.88
259.383	81.88
259.616	67.88
259.849	65.88
260.081	75.88
260.314	66.88
260.547	92.88
260.779	91.88
261.012	85.88
261.244	88.88
261.477	91.88
261.71	79.88
261.942	66.88
262.175	85.88
262.407	81.88
262.64	76.88
262.872	95.88
263.105	81.88
263.337	77.88
263.57	89.88
263.802	84.88
264.035	87.88
264.267	92.88
264.499	90.88
264.732	106.88
264.964	83.88
265.197	87.88
265.429	75.88
265.661	77.88
265.894	80.88
266.126	69.88
266.358	85.88
266.591	72.88
266.823	83.88
267.055	94.88
267.287	71.88
267.52	83.88
267.752	81.88
267.984	83.88
268.216	84.88
268.448	83.88
268.681	89.88
268.913	83.88
269.145	63.88
269.377	73.88
269.609	101.88
269.841	85.88
270.073	65.88
270.306	94.88
270.538	82.88
270.77	71.88
271.002	84.88
271.234	89.88
271.466	79.88
271.698	76.88
271.93	85.88
272.162	71.88
272.394	75.88
272.626	76.88
272.858	68.88
273.09	77.88
273.322	89.88
273.553	89.88
273.785	79.88
274.017	79.88
274.249	87.88
274.481	86.88
274.713	93.88
274.945	69.88
275.176	79.88
275.408	80.88
275.64	72.88
275.872	80.88
276.104	80.88
276.335	57.88
276.567	85.88
276.799	79.88
277.031	79.88
277.262	88.88
277.494	92.88
277.726	83.88
277.957	82.88
278.189	79.88
278.421	72.88
278.652	84.88
278.884	68.88
279.115	70.88
279.347	84.88
279.579	84.88
279.81	80.88
280.042	79.88
280.273	75.88
280.505	84.88
280.736	77.88
280.968	75.88
281.199	76.88
281.431	89.88
281.662	81.88
281.894	84.88
282.125	91.88
282.356	81.88
282.588	91.88
282.819	101.88
283.051	77.88
283.282	82.88
283.513	87.88
283.745	81.88
283.976	76.88
284.207	86.88
284.439	87.88
284.67	83.88
284.901	77.88
285.132	85.88
285.364	94.88
285.595	86.88
285.826	83.88
286.057	89.88
286.288	80.88
286.52	86.88
286.751	81.88
286.982	69.88
287.213	93.88
287.444	98.88
287.675	91.88
287.906	92.88
288.138	81.88
288.369	92.88
288.6	78.88
288.831	86.88
289.062	81.88
289.293	79.88
289.524	97.88
289.755	91.88
289.986	80.88
290.217	91.88
290.448	91.88
290.679	78.88
290.91	70.88
291.141	76.88
291.371	80.88
291.602	81.88
291.833	99.88
292.064	73.88
292.295	74.88
292.526	83.88
292.757	80.88
292.987	82.88
293.218	80.88
293.449	80.88
293.68	89.88
293.91	84.88
294.141	85.88
294.372	71.88
294.603	95.88
294.833	89.88
295.064	79.88
295.295	83.88
295.525	83.88
295.756	87.88
295.987	83.88
296.217	77.88
296.448	97.88
296.679	77.88
296.909	80.88
297.14	77.88
297.37	81.88
297.601	67.88
297.831	80.88
298.062	87.88
298.292	94.88
298.523	104.88
298.753	84.88
298.984	81.88
299.214	92.88
299.445	78.88
299.675	79.88
299.905	88.88
300.136	91.88
300.366	82.88
300.597	100.88
300.827	100.88
301.057	86.88
301.288	67.88
301.518	80.88
301.748	76.88
301.979	110.88
302.209	87.88
302.439	90.88
302.669	79.88
302.9	82.88
303.13	90.88
303.36	86.88
303.59	87.88
303.82	84.88
304.051	89.88
304.281	78.88
304.511	90.88
304.741	76.88
304.971	74.88
305.201	78.88
305.431	80.88
305.661	88.88
305.891	79.88
306.121	84.88
306.352	97.88
306.582	79.88
306.812	85.88
307.042	79.88
307.272	82.88
307.502	90.88
307.731	84.88
307.961	90.88
308.191	87.88
308.421	94.88
308.651	106.88
308.881	95.88
309.111	109.88
309.341	107.88
309.571	95.88
309.8	83.88
310.03	89.88
310.26	83.88
310.49	87.88
310.72	76.88
310.949	74.88
311.179	78.88
311.409	77.88
311.639	84.88
311.868	97.88
312.098	83.88
312.328	86.88
312.557	80.88
312.787	84.88
313.017	91.88
313.246	82.88
313.476	68.88
313.706	86.88
313.935	81.88
314.165	82.88
314.394	73.88
314.624	87.88
314.853	96.88
315.083	79.88
315.312	78.88
315.542	91.88
315.771	88.88
316.001	78.88
316.23	83.88
316.46	77.88
316.689	82.88
316.919	90.88
317.148	80.88
317.377	84.88
317.607	85.88
317.836	82.88
318.065	81.88
318.295	83.88
318.524	80.88
318.753	79.88
318.983	67.88
319.212	75.88
319.441	91.88
319.67	73.88
319.9	70.88
320.129	79.88
320.358	83.88
320.587	75.88
320.816	80.88
321.046	82.88
321.275	84.88
321.504	72.88
321.733	90.88
321.962	91.88
322.191	85.88
322.42	76.88
322.649	68.88
322.878	81.88
323.108	87.88
323.337	83.88
323.566	81.88
323.795	78.88
324.024	81.88
324.253	81.88
324.482	81.88
324.71	72.88
324.939	91.88
325.168	85.88
325.397	80.88
325.626	78.88
325.855	70.88
326.084	87.88
326.313	81.88
326.542	83.88
326.77	75.88
326.999	97.88
327.228	81.88
327.457	89.88
327.686	76.88
327.914	81.88
328.143	88.88
328.372	79.88
328.6	84.88
328.829	76.88
329.058	75.88
329.287	70.88
329.515	78.88
329.744	82.88
329.972	94.88
330.201	92.88
330.43	101.88
330.658	76.88
330.887	82.88
331.115	87.88
331.344	85.88
331.572	86.88
331.801	75.88
332.03	88.88
332.258	87.88
332.486	88.88
332.715	77.88
332.943	74.88
333.172	96.88
333.4	86.88
333.629	86.88
333.857	82.88
334.085	74.88
334.314	80.88
334.542	82.88
334.771	83.88
334.999	109.88
335.227	84.88
335.455	76.88
335.684	76.88
335.912	87.88
336.14	99.88
336.369	64.88
336.597	73.88
336.825	76.88
337.053	73.88
337.281	95.88
337.51	79.88
337.738	75.88
337.966	84.88
338.194	78.88
338.422	85.88
338.65	79.88
338.878	82.88
339.106	78.88
339.334	96.88
339.562	80.88
339.79	84.88
340.018	89.88
340.246	88.88
340.474	76.88
340.702	80.88
340.93	80.88
341.158	83.88
341.386	90.88
341.614	74.88
341.842	75.88
342.07	89.88
342.298	83.88
342.526	93.88
342.754	80.88
342.981	77.88
343.209	74.88
343.437	85.88
343.665	87.88
343.893	91.88
344.12	93.88
344.348	94.88
344.576	87.88
344.804	88.88
345.031	80.88
345.259	79.88
345.487	94.88
345.714	87.88
345.942	91.88
346.17	84.88
346.397	69.88
346.625	77.88
346.853	84.88
347.08	75.88
347.308	90.88
347.535	79.88
347.763	80.88
347.99	91.88
348.218	96.88
348.445	97.88
348.673	83.88
348.9	70.88
349.128	79.88
349.355	80.88
349.583	76.88
349.81	74.88
350.037	88.88
350.265	88.88
350.492	89.88
350.72	84.88
350.947	72.88
351.174	74.88
351.402	93.88
351.629	80.88
351.856	78.88
352.083	86.88
352.311	82.88
352.538	68.88
352.765	83.88
352.992	80.88
353.22	86.88
353.447	72.88
353.674	82.88
353.901	88.88
354.128	81.88
354.355	82.88
354.583	80.88
354.81	90.88
355.037	83.88
355.264	87.88
355.491	85.88
355.718	79.88
355.945	92.88
356.172	83.88
356.399	77.88
356.626	92.88
356.853	84.88
357.08	95.88
357.307	83.88
357.534	81.88
357.761	79.88
357.988	92.88
358.215	103.88
358.441	72.88
358.668	85.88
358.895	73.88
359.122	87.88
359.349	87.88
359.576	95.88
359.802	89.88
360.029	79.88
360.256	85.88
360.483	85.88
360.709	76.88
360.936	95.88
361.163	75.88
361.39	76.88
361.616	81.88
361.843	76.88
362.07	86.88
362.296	78.88
362.523	90.88
362.749	81.88
362.976	93.88
363.203	94.88
363.429	88.88
363.656	83.88
363.882	87.88
364.109	77.88
364.335	91.88
364.562	79.88
364.788	83.88
365.015	93.88
365.241	76.88
365.468	82.88
365.694	70.88
365.92	87.88
366.147	80.88
366.373	80.88
366.599	74.88
366.826	68.88
367.052	82.88
367.278	85.88
367.505	74.88
367.731	81.88
367.957	95.88
368.184	76.88
368.41	81.88
368.636	83.88
368.862	88.88
369.089	81.88
369.315	75.88
369.541	83.88
369.767	90.88
369.993	67.88
370.219	85.88
370.445	87.88
370.672	80.88
370.898	82.88
371.124	94.88
371.35	94.88
371.576	77.88
371.802	70.88
372.028	82.88
372.254	83.88
372.48	90.88
372.706	94.88
372.932	79.88
373.158	76.88
373.384	74.88
373.61	95.88
373.835	89.88
374.061	80.88
374.287	92.88
374.513	98.88
374.739	89.88
374.965	88.88
375.191	90.88
375.416	84.88
375.642	84.88
375.868	75.88
376.094	89.88
376.319	77.88
376.545	80.88
376.771	88.88
376.997	101.88
377.222	90.88
377.448	83.88
377.674	74.88
377.899	78.88
378.125	97.88
378.35	73.88
378.576	80.88
378.802	81.88
379.027	84.88
379.253	73.88
379.478	75.88
379.704	91.88
379.929	88.88
380.155	65.88
380.38	84.88
380.606	88.88
380.831	80.88
381.057	97.88
381.282	77.88
381.507	80.88
381.733	84.88
381.958	92.88
382.184	82.88
382.409	80.88
382.634	99.88
382.86	97.88
383.085	79.88
383.31	83.88
383.535	77.88
383.761	77.88
383.986	80.88
384.211	89.88
384.436	87.88
384.662	80.88
384.887	87.88
385.112	81.88
385.337	77.88
385.562	84.88
385.787	86.88
386.013	91.88
386.238	83.88
386.463	93.88
386.688	91.88
386.913	77.88
387.138	69.88
387.363	81.88
387.588	111.88
387.813	84.88
388.038	84.88
388.263	88.88
388.488	81.88
388.713	80.88
388.938	80.88
389.163	92.88
389.387	69.88
389.612	79.88
389.837	69.88
390.062	91.88
390.287	76.88
390.512	88.88
390.736	113.88
390.961	83.88
391.186	83.88
391.411	79.88
391.636	101.88
391.86	77.88
392.085	80.88
392.31	77.88
392.534	74.88
392.759	88.88
392.984	90.88
393.208	99.88
393.433	126.88
393.658	111.88
393.882	91.88
394.107	107.88
394.331	132.88
394.556	160.88
394.78	118.88
395.005	88.88
395.229	101.88
395.454	96.88
395.678	88.88
395.903	106.88
396.127	153.88
396.352	170.88
396.576	116.88
396.801	95.88
397.025	109.88
397.249	77.88
397.474	93.88
397.698	96.88
397.922	79.88
398.147	79.88
398.371	79.88
398.595	79.88
398.82	92.88
399.044	77.88
399.268	70.88
399.492	79.88
399.717	91.88
399.941	77.88
400.165	79.88
400.389	73.88
400.613	90.88
400.837	76.88
401.062	69.88
401.286	77.88
401.51	72.88
401.734	76.88
401.958	81.88
402.182	73.88
402.406	77.88
402.63	87.88
402.854	76.88
403.078	91.88
403.302	93.88
403.526	85.88
403.75	81.88
403.974	97.88
404.198	122.88
404.422	179.88
404.645	219.88
404.869	163.88
405.093	117.88
405.317	91.88
405.541	94.88
405.765	91.88
405.988	79.88
406.212	76.88
406.436	75.88
406.66	81.88
406.883	96.88
407.107	79.88
407.331	79.88
407.555	87.88
407.778	93.88
408.002	80.88
408.226	70.88
408.449	83.88
408.673	73.88
408.896	80.88
409.12	72.88
409.344	87.88
409.567	91.88
409.791	70.88
410.014	89.88
410.238	76.88
410.461	64.88
410.685	66.88
410.908	91.88
411.132	75.88
411.355	74.88
411.578	75.88
411.802	73.88
412.025	91.88
412.249	76.88
412.472	73.88
412.695	83.88
412.919	67.88
413.142	82.88
413.365	85.88
413.589	86.88
413.812	87.88
414.035	82.88
414.258	77.88
414.482	75.88
414.705	70.88
414.928	78.88
415.151	82.88
415.374	74.88
415.597	84.88
415.821	73.88
416.044	83.88
416.267	84.88
416.49	69.88
416.713	83.88
416.936	89.88
417.159	90.88
417.382	81.88
417.605	79.88
417.828	76.88
418.051	87.88
418.274	77.88
418.497	84.88
418.72	89.88
418.943	88.88
419.166	95.88
419.389	80.88
419.611	85.88
419.834	83.88
420.057	86.88
420.28	84.88
420.503	74.88
420.726	84.88
420.948	95.88
421.171	83.88
421.394	97.88
421.617	73.88
421.839	91.88
422.062	80.88
422.285	88.88
422.507	108.88
422.73	145.88
422.953	139.88
423.175	94.88
423.398	92.88
423.621	79.88
423.843	81.88
424.066	76.88
424.288	81.88
424.511	75.88
424.733	77.88
424.956	68.88
425.178	86.88
425.401	99.88
425.623	87.88
425.846	86.88
426.068	81.88
426.291	79.88
426.513	93.88
426.735	89.88
426.958	89.88
427.18	96.88
427.402	79.88
427.625	84.88
427.847	79.88
428.069	79.88
428.292	84.88
428.514	81.88
428.736	81.88
428.958	100.88
429.181	87.88
429.403	81.88
429.625	91.88
429.847	95.88
430.069	92.88
430.292	83.88
430.514	77.88
430.736	92.88
430.958	79.88
431.18	76.88
431.402	92.88
431.624	77.88
431.846	85.88
432.068	78.88
432.29	80.88
432.512	73.88
432.734	76.88
432.956	68.88
433.178	84.88
433.4	84.88
433.622	76.88
433.844	101.88
434.066	84.88
434.287	81.88
434.509	77.88
434.731	92.88
434.953	78.88
435.175	86.88
435.397	93.88
435.618	72.88
435.84	82.88
436.062	90.88
436.284	84.88
436.505	80.88
436.727	75.88
436.949	87.88
437.17	89.88
437.392	69.88
437.614	77.88
437.835	69.88
438.057	89.88
438.278	80.88
438.5	77.88
438.721	81.88
438.943	91.88
439.165	87.88
439.386	88.88
439.608	88.88
439.829	94.88
440.05	84.88
440.272	99.88
440.493	85.88
440.715	76.88
440.936	87.88
441.158	83.88
441.379	89.88
441.6	77.88
441.822	77.88
442.043	77.88
442.264	83.88
442.486	88.88
442.707	80.88
442.928	81.88
443.149	78.88
443.371	107.88
443.592	73.88
443.813	96.88
444.034	83.88
444.255	87.88
444.476	70.88
444.698	75.88
444.919	68.88
445.14	135.88
445.361	111.88
445.582	83.88
445.803	87.88
446.024	94.88
446.245	77.88
446.466	82.88
446.687	73.88
446.908	80.88
447.129	93.88
447.35	98.88
447.571	90.88
447.792	75.88
448.013	83.88
448.234	75.88
448.455	78.88
448.675	77.88
448.896	79.88
449.117	76.88
449.338	74.88
449.559	93.88
449.779	96.88
450	79.88
450.221	71.88
450.442	82.88
450.662	67.88
450.883	85.88
451.104	77.88
451.324	80.88
451.545	98.88
451.766	80.88
451.986	96.88
452.207	80.88
452.428	67.88
452.648	91.88
452.869	81.88
453.089	92.88
453.31	87.88
453.53	95.88
453.751	74.88
453.971	81.88
454.192	82.88
454.412	78.88
454.633	84.88
454.853	79.88
455.073	93.88
455.294	72.88
455.514	89.88
455.734	77.88
455.955	79.88
456.175	72.88
456.395	60.88
456.616	80.88
456.836	80.88
457.056	82.88
457.276	81.88
457.497	86.88
457.717	76.88
457.937	78.88
458.157	74.88
458.377	72.88
458.598	83.88
458.818	86.88
459.038	79.88
459.258	88.88
459.478	105.88
459.698	87.88
459.918	87.88
460.138	75.88
460.358	83.88
460.578	78.88
460.798	85.88
461.018	89.88
461.238	95.88
461.458	106.88
461.678	82.88
461.898	99.88
462.118	92.88
462.338	78.88
462.558	89.88
462.777	81.88
462.997	69.88
463.217	72.88
463.437	69.88
463.657	85.88
463.876	75.88
464.096	75.88
464.316	80.88
464.536	83.88
464.755	87.88
464.975	83.88
465.195	79.88
465.414	80.88
465.634	79.88
465.854	82.88
466.073	83.88
466.293	93.88
466.512	87.88
466.732	105.88
466.951	96.88
467.171	82.88
467.391	93.88
467.61	96.88
467.829	96.88
468.049	67.88
468.268	77.88
468.488	91.88
468.707	79.88
468.927	90.88
469.146	77.88
469.365	69.88
469.585	100.88
469.804	86.88
470.023	85.88
470.243	72.88
470.462	78.88
470.681	92.88
470.901	90.88
471.12	80.88
471.339	81.88
471.558	74.88
471.777	80.88
471.997	74.88
472.216	87.88
472.435	82.88
472.654	91.88
472.873	87.88
473.092	72.88
473.311	65.88
473.53	94.88
473.749	80.88
473.968	95.88
474.187	74.88
474.406	79.88
474.625	93.88
474.844	76.88
475.063	75.88
475.282	80.88
475.501	68.88
475.72	96.88
475.939	93.88
476.158	84.88
476.377	87.88
476.596	84.88
476.814	89.88
477.033	79.88
477.252	79.88
477.471	80.88
477.69	79.88
477.908	93.88
478.127	89.88
478.346	93.88
478.564	76.88
478.783	80.88
479.002	81.88
479.22	92.88
479.439	81.88
479.658	86.88
479.876	76.88
480.095	89.88
480.313	64.88
480.532	83.88
480.751	72.88
480.969	90.88
481.188	81.88
481.406	66.88
481.624	87.88
481.843	77.88
482.061	73.88
482.28	66.88
482.498	50.88
482.717	76.88
482.935	80.88
483.153	90.88
483.372	94.88
483.59	102.88
483.808	79.88
484.027	83.88
484.245	78.88
484.463	92.88
484.681	88.88
484.9	85.88
485.118	103.88
485.336	80.88
485.554	84.88
485.772	99.88
485.99	91.88
486.209	91.88
486.427	73.88
486.645	83.88
486.863	91.88
487.081	83.88
487.299	93.88
487.517	85.88
487.735	84.88
487.953	95.88
488.171	89.88
488.389	82.88
488.607	85.88
488.825	79.88
489.043	93.88
489.261	89.88
489.479	99.88
489.696	93.88
489.914	73.88
490.132	87.88
490.35	69.88
490.568	80.88
490.786	90.88
491.003	92.88
491.221	92.88
491.439	81.88
491.657	95.88
491.874	92.88
492.092	83.88
492.31	87.88
492.527	82.88
492.745	88.88
492.963	101.88
493.18	90.88
493.398	69.88
493.615	96.88
493.833	100.88
494.05	87.88
494.268	70.88
494.485	84.88
494.703	88.88
494.92	83.88
495.138	73.88
495.355	86.88
495.573	91.88
495.79	94.88
496.008	88.88
496.225	85.88
496.442	81.88
496.66	89.88
496.877	106.88
497.094	87.88
497.312	103.88
497.529	91.88
497.746	84.88
497.963	81.88
498.181	76.88
498.398	91.88
498.615	87.88
498.832	82.88
499.049	91.88
499.267	103.88
499.484	73.88
499.701	79.88
499.918	81.88
500.135	91.88
500.352	79.88
500.569	79.88
500.786	99.88
501.003	75.88
501.22	82.88
501.437	79.88
501.654	95.88
501.871	89.88
502.088	80.88
502.305	75.88
502.522	85.88
502.739	79.88
502.956	84.88
503.172	85.88
503.389	89.88
503.606	91.88
503.823	97.88
504.04	78.88
504.256	96.88
504.473	92.88
504.69	86.88
504.907	95.88
505.123	86.88
505.34	76.88
505.557	80.88
505.773	77.88
505.99	73.88
506.207	88.88
506.423	87.88
506.64	91.88
506.856	82.88
507.073	83.88
507.289	96.88
507.506	81.88
507.722	86.88
507.939	85.88
508.155	91.88
508.372	89.88
508.588	97.88
508.805	83.88
509.021	65.88
509.238	91.88
509.454	85.88
509.67	76.88
509.887	82.88
510.103	100.88
510.319	86.88
510.536	71.88
510.752	84.88
510.968	90.88
511.184	83.88
511.401	84.88
511.617	85.88
511.833	91.88
512.049	94.88
512.265	81.88
512.481	87.88
512.698	92.88
512.914	107.88
513.13	66.88
513.346	82.88
513.562	92.88
513.778	89.88
513.994	77.88
514.21	88.88
514.426	79.88
514.642	74.88
514.858	75.88
515.074	93.88
515.29	98.88
515.506	103.88
515.721	87.88
515.937	89.88
516.153	93.88
516.369	88.88
516.585	89.88
516.801	73.88
517.016	87.88
517.232	82.88
517.448	96.88
517.664	97.88
517.879	87.88
518.095	89.88
518.311	69.88
518.527	81.88
518.742	73.88
518.958	91.88
519.173	80.88
519.389	94.88
519.605	81.88
519.82	89.88
520.036	92.88
520.251	95.88
520.467	96.88
520.682	81.88
520.898	88.88
521.113	81.88
521.329	75.88
521.544	75.88
521.76	87.88
521.975	86.88
522.19	80.88
522.406	92.88
522.621	84.88
522.836	80.88
523.052	80.88
523.267	86.88
523.482	83.88
523.698	83.88
523.913	77.88
524.128	85.88
524.343	105.88
524.559	105.88
524.774	103.88
524.989	102.88
525.204	92.88
525.419	85.88
525.634	70.88
525.849	80.88
526.064	95.88
526.28	73.88
526.495	95.88
526.71	83.88
526.925	81.88
527.14	100.88
527.355	90.88
527.57	73.88
527.785	85.88
527.999	98.88
528.214	77.88
528.429	69.88
528.644	83.88
528.859	91.88
529.074	77.88
529.289	77.88
529.503	74.88
529.718	79.88
529.933	74.88
530.148	79.88
530.363	90.88
530.577	81.88
530.792	81.88
531.007	89.88
531.221	85.88
531.436	86.88
531.651	92.88
531.865	66.88
532.08	93.88
532.295	99.88
532.509	84.88
532.724	92.88
532.938	79.88
533.153	82.88
533.367	89.88
533.582	81.88
533.796	87.88
534.011	93.88
534.225	94.88
534.44	83.88
534.654	103.88
534.868	89.88
535.083	92.88
535.297	86.88
535.511	93.88
535.726	111.88
535.94	85.88
536.154	88.88
536.369	101.88
536.583	97.88
536.797	81.88
537.011	86.88
537.225	83.88
537.44	67.88
537.654	87.88
537.868	81.88
538.082	85.88
538.296	87.88
538.51	75.88
538.724	86.88
538.938	88.88
539.153	86.88
539.367	81.88
539.581	85.88
539.795	75.88
540.009	82.88
540.222	75.88
540.436	91.88
540.65	86.88
540.864	91.88
541.078	77.88
541.292	88.88
541.506	76.88
541.72	95.88
541.934	79.88
542.147	76.88
542.361	85.88
542.575	79.88
542.789	82.88
543.002	81.88
543.216	74.88
543.43	85.88
543.644	94.88
543.857	85.88
544.071	85.88
544.285	103.88
544.498	82.88
544.712	92.88
544.925	85.88
545.139	72.88
545.352	77.88
545.566	82.88
545.779	96.88
545.993	79.88
546.206	86.88
546.42	90.88
546.633	89.88
546.847	98.88
547.06	79.88
547.274	87.88
547.487	79.88
547.7	81.88
547.914	103.88
548.127	78.88
548.34	81.88
548.554	79.88
548.767	88.88
548.98	76.88
549.193	87.88
549.407	89.88
549.62	97.88
549.833	81.88
550.046	76.88
550.259	91.88
550.473	87.88
550.686	89.88
550.899	97.88
551.112	88.88
551.325	89.88
551.538	80.88
551.751	80.88
551.964	73.88
552.177	87.88
552.39	81.88
552.603	88.88
552.816	91.88
553.029	86.88
553.242	80.88
553.455	90.88
553.667	85.88
553.88	68.88
554.093	85.88
554.306	93.88
554.519	93.88
554.732	97.88
554.944	85.88
555.157	83.88
555.37	81.88
555.583	86.88
555.795	79.88
556.008	88.88
556.221	86.88
556.433	85.88
556.646	87.88
556.859	78.88
557.071	67.88
557.284	81.88
557.496	100.88
557.709	89.88
557.921	78.88
558.134	79.88
558.346	99.88
558.559	75.88
558.771	77.88
558.984	81.88
559.196	94.88
559.409	77.88
559.621	95.88
559.833	84.88
560.046	85.88
560.258	90.88
560.47	76.88
560.683	97.88
560.895	93.88
561.107	79.88
561.32	81.88
561.532	75.88
561.744	91.88
561.956	81.88
562.168	93.88
562.381	68.88
562.593	76.88
562.805	75.88
563.017	91.88
563.229	84.88
563.441	90.88
563.653	93.88
563.865	93.88
564.077	80.88
564.289	92.88
564.501	79.88
564.713	83.88
564.925	91.88
565.137	81.88
565.349	80.88
565.561	85.88
565.773	88.88
565.985	65.88
566.197	76.88
566.408	91.88
566.62	92.88
566.832	88.88
567.044	99.88
567.255	88.88
567.467	92.88
567.679	87.88
567.891	89.88
568.102	99.88
568.314	105.88
568.526	115.88
568.737	112.88
568.949	101.88
569.161	136.88
569.372	117.88
569.584	89.88
569.795	105.88
570.007	88.88
570.218	98.88
570.43	80.88
570.641	93.88
570.853	98.88
571.064	88.88
571.276	79.88
571.487	82.88
571.698	77.88
571.91	78.88
572.121	97.88
572.333	92.88
572.544	78.88
572.755	90.88
572.966	92.88
573.178	91.88
573.389	78.88
573.6	83.88
573.811	81.88
574.023	74.88
574.234	83.88
574.445	93.88
574.656	91.88
574.867	83.88
575.078	81.88
575.289	79.88
575.501	88.88
575.712	74.88
575.923	95.88
576.134	86.88
576.345	83.88
576.556	91.88
576.767	90.88
576.978	86.88
577.188	79.88
577.399	82.88
577.61	93.88
577.821	96.88
578.032	78.88
578.243	93.88
578.454	97.88
578.665	90.88
578.875	94.88
579.086	85.88
579.297	94.88
579.508	87.88
579.718	84.88
579.929	86.88
580.14	92.88
580.35	104.88
580.561	114.88
580.772	117.88
580.982	89.88
581.193	95.88
581.403	107.88
581.614	91.88
581.825	97.88
582.035	93.88
582.246	84.88
582.456	83.88
582.667	89.88
582.877	93.88
583.087	96.88
583.298	98.88
583.508	93.88
583.719	92.88
583.929	89.88
584.139	96.88
584.35	83.88
584.56	93.88
584.77	93.88
584.981	92.88
585.191	90.88
585.401	93.88
585.611	89.88
585.821	81.88
586.032	66.88
586.242	109.88
586.452	97.88
586.662	81.88
586.872	91.88
587.082	91.88
587.292	91.88
587.502	102.88
587.713	107.88
587.923	114.88
588.133	119.88
588.343	125.88
588.553	182.88
588.762	259.88
588.972	537.88
589.182	1163.88
589.392	881.88
589.602	624.88
589.812	1015.88
590.022	554.88
590.232	240.88
590.441	163.88
590.651	125.88
590.861	100.88
591.071	111.88
591.281	95.88
591.49	103.88
591.7	100.88
591.91	98.88
592.119	97.88
592.329	89.88
592.539	87.88
592.748	77.88
592.958	73.88
593.167	93.88
593.377	86.88
593.587	91.88
593.796	94.88
594.006	91.88
594.215	99.88
594.424	100.88
594.634	77.88
594.843	83.88
595.053	86.88
595.262	88.88
595.472	87.88
595.681	80.88
595.89	93.88
596.1	69.88
596.309	62.88
596.518	80.88
596.727	87.88
596.937	97.88
597.146	77.88
597.355	91.88
597.564	83.88
597.774	87.88
597.983	89.88
598.192	88.88
598.401	84.88
598.61	90.88
598.819	89.88
599.028	82.88
599.237	70.88
599.446	85.88
599.655	71.88
599.864	80.88
600.073	95.88
600.282	96.88
600.491	91.88
600.7	70.88
600.909	84.88
601.118	87.88
601.327	87.88
601.536	84.88
601.745	95.88
601.953	86.88
602.162	87.88
602.371	94.88
602.58	79.88
602.789	80.88
602.997	82.88
603.206	83.88
603.415	87.88
603.623	84.88
603.832	79.88
604.041	95.88
604.249	81.88
604.458	83.88
604.666	75.88
604.875	78.88
605.084	68.88
605.292	85.88
605.501	89.88
605.709	106.88
605.918	87.88
606.126	85.88
606.334	66.88
606.543	89.88
606.751	97.88
606.96	79.88
607.168	103.88
607.376	99.88
607.585	82.88
607.793	74.88
608.001	77.88
608.21	88.88
608.418	77.88
608.626	79.88
608.834	87.88
609.043	79.88
609.251	75.88
609.459	87.88
609.667	93.88
609.875	76.88
610.083	83.88
610.291	92.88
610.499	90.88
610.707	99.88
610.916	92.88
611.124	95.88
611.332	85.88
611.54	91.88
611.748	79.88
611.955	78.88
612.163	87.88
612.371	76.88
612.579	94.88
612.787	88.88
612.995	97.88
613.203	91.88
613.411	81.88
613.618	82.88
613.826	89.88
614.034	84.88
614.242	82.88
614.449	66.88
614.657	73.88
614.865	90.88
615.072	85.88
615.28	84.88
615.488	91.88
615.695	94.88
615.903	87.88
616.111	87.88
616.318	95.88
616.526	108.88
616.733	103.88
616.941	87.88
617.148	87.88
617.356	91.88
617.563	90.88
617.771	86.88
617.978	84.88
618.185	87.88
618.393	85.88
618.6	79.88
618.807	90.88
619.015	87.88
619.222	76.88
619.429	85.88
619.637	77.88
619.844	87.88
620.051	99.88
620.258	73.88
620.466	88.88
620.673	90.88
620.88	72.88
621.087	83.88
621.294	71.88
621.501	87.88
621.708	84.88
621.915	79.88
622.122	79.88
622.329	99.88
622.536	74.88
622.743	89.88
622.95	81.88
623.157	78.88
623.364	87.88
623.571	96.88
623.778	98.88
623.985	89.88
624.192	98.88
624.399	74.88
624.606	94.88
624.812	79.88
625.019	59.88
625.226	64.88
625.433	91.88
625.639	79.88
625.846	79.88
626.053	76.88
626.259	76.88
626.466	87.88
626.673	89.88
626.879	84.88
627.086	94.88
627.293	91.88
627.499	83.88
627.706	85.88
627.912	81.88
628.119	92.88
628.325	94.88
628.532	80.88
628.738	74.88
628.945	85.88
629.151	86.88
629.357	83.88
629.564	87.88
629.77	75.88
629.976	86.88
630.183	84.88
630.389	91.88
630.595	87.88
630.802	87.88
631.008	92.88
631.214	89.88
631.42	87.88
631.627	90.88
631.833	94.88
632.039	80.88
632.245	77.88
632.451	73.88
632.657	81.88
632.863	71.88
633.069	79.88
633.275	85.88
633.481	73.88
633.688	84.88
633.893	89.88
634.099	77.88
634.305	89.88
634.511	76.88
634.717	80.88
634.923	80.88
635.129	82.88
635.335	85.88
635.541	96.88
635.747	87.88
635.952	94.88
636.158	76.88
636.364	79.88
636.57	97.88
636.775	96.88
636.981	80.88
637.187	97.88
637.392	86.88
637.598	98.88
637.804	90.88
638.009	105.88
638.215	83.88
638.421	85.88
638.626	75.88
638.832	84.88
639.037	62.88
639.243	75.88
639.448	82.88
639.654	96.88
639.859	84.88
640.065	64.88
640.27	87.88
640.475	66.88
640.681	81.88
640.886	89.88
641.091	93.88
641.297	101.88
641.502	82.88
641.707	79.88
641.913	83.88
642.118	69.88
642.323	94.88
642.528	96.88
642.733	76.88
642.939	86.88
643.144	68.88
643.349	78.88
643.554	81.88
643.759	80.88
643.964	96.88
644.169	91.88
644.374	88.88
644.579	90.88
644.784	91.88
644.989	81.88
645.194	98.88
645.399	81.88
645.604	69.88
645.809	83.88
646.014	78.88
646.219	78.88
646.423	90.88
646.628	81.88
646.833	78.88
647.038	87.88
647.243	84.88
647.447	75.88
647.652	87.88
647.857	76.88
648.062	87.88
648.266	89.88
648.471	76.88
648.676	75.88
648.88	80.88
649.085	70.88
649.289	90.88
649.494	76.88
649.698	85.88
649.903	73.88
650.107	85.88
650.312	79.88
650.516	72.88
650.721	85.88
650.925	75.88
651.13	94.88
651.334	93.88
651.539	83.88
651.743	96.88
651.947	82.88
652.152	71.88
652.356	91.88
652.56	82.88
652.764	89.88
652.969	88.88
653.173	81.88
653.377	85.88
653.581	80.88
653.785	80.88
653.99	91.88
654.194	94.88
654.398	73.88
654.602	74.88
654.806	81.88
655.01	71.88
655.214	77.88
655.418	85.88
655.622	92.88
655.826	79.88
656.03	82.88
656.234	91.88
656.438	71.88
656.642	83.88
656.846	75.88
657.049	73.88
657.253	98.88
657.457	76.88
657.661	82.88
657.865	91.88
658.068	83.88
658.272	77.88
658.476	98.88
658.68	75.88
658.883	86.88
659.087	87.88
659.291	74.88
659.494	65.88
659.698	83.88
659.901	96.88
660.105	72.88
660.309	88.88
660.512	80.88
660.716	75.88
660.919	89.88
661.123	97.88
661.326	79.88
661.53	80.88
661.733	91.88
661.936	72.88
662.14	81.88
662.343	81.88
662.546	73.88
662.75	90.88
662.953	100.88
663.156	92.88
663.36	82.88
663.563	93.88
663.766	75.88
663.969	87.88
664.173	78.88
664.376	65.88
664.579	72.88
664.782	79.88
664.985	78.88
665.188	70.88
665.391	83.88
665.594	70.88
665.797	85.88
666	73.88
666.203	70.88
666.406	79.88
666.609	89.88
666.812	69.88
667.015	89.88
667.218	80.88
667.421	70.88
667.624	79.88
667.827	76.88
668.03	84.88
668.232	75.88
668.435	79.88
668.638	78.88
668.841	78.88
669.043	76.88
669.246	83.88
669.449	87.88
669.651	81.88
669.854	79.88
670.057	81.88
670.259	80.88
670.462	85.88
670.665	85.88
670.867	94.88
671.07	82.88
671.272	74.88
671.475	91.88
671.677	66.88
671.88	79.88
672.082	79.88
672.284	83.88
672.487	76.88
672.689	84.88
672.892	92.88
