Data from Sand_1_HRD10591_00012.txt Node
Date: Mon Jan 19 13:31:46 EST 2026
User: Yrep
Spectrometer: HR+D1059
Trigger mode: 1
Integration Time (sec): 1.000000E-1
Scans to average: 1
Electric dark correction enabled: true
Nonlinearity correction enabled: false
Boxcar width: 0
XAxis mode: Wavelengths
Number of Pixels in Spectrum: 2048
>>>>>Begin Spectral Data<<<<<
223.165	-24.06
223.4	-24.06
223.635	-24.06
223.869	-28.06
224.104	-27.06
224.338	-12.06
224.573	-21.06
224.808	-6.06
225.042	-14.06
225.277	-8.06
225.511	-7.06
225.746	3.94
225.98	20.94
226.215	9.94
226.449	25.94
226.683	15.94
226.918	26.94
227.152	43.94
227.387	38.94
227.621	56.94
227.856	54.94
228.09	45.94
228.324	44.94
228.559	66.94
228.793	63.94
229.027	73.94
229.262	67.94
229.496	84.94
229.73	66.94
229.964	85.94
230.199	64.94
230.433	84.94
230.667	83.94
230.901	77.94
231.136	81.94
231.37	73.94
231.604	97.94
231.838	77.94
232.072	89.94
232.306	80.94
232.541	78.94
232.775	79.94
233.009	73.94
233.243	82.94
233.477	66.94
233.711	86.94
233.945	91.94
234.179	89.94
234.413	82.94
234.647	88.94
234.881	88.94
235.115	92.94
235.349	81.94
235.583	89.94
235.817	97.94
236.051	96.94
236.285	83.94
236.519	81.94
236.753	88.94
236.987	69.94
237.221	68.94
237.455	80.94
237.689	82.94
237.922	73.94
238.156	76.94
238.39	71.94
238.624	77.94
238.858	91.94
239.091	77.94
239.325	92.94
239.559	73.94
239.793	83.94
240.027	81.94
240.26	65.94
240.494	69.94
240.728	81.94
240.961	72.94
241.195	79.94
241.429	77.94
241.662	78.94
241.896	68.94
242.13	88.94
242.363	84.94
242.597	74.94
242.83	70.94
243.064	70.94
243.298	89.94
243.531	86.94
243.765	74.94
243.998	77.94
244.232	73.94
244.465	73.94
244.699	79.94
244.932	73.94
245.166	71.94
245.399	71.94
245.633	79.94
245.866	78.94
246.099	85.94
246.333	69.94
246.566	73.94
246.8	77.94
247.033	69.94
247.266	73.94
247.5	90.94
247.733	81.94
247.966	87.94
248.2	70.94
248.433	85.94
248.666	75.94
248.899	92.94
249.133	73.94
249.366	86.94
249.599	83.94
249.832	83.94
250.066	99.94
250.299	86.94
250.532	73.94
250.765	77.94
250.998	87.94
251.231	79.94
251.465	84.94
251.698	87.94
251.931	100.94
252.164	95.94
252.397	91.94
252.63	82.94
252.863	93.94
253.096	87.94
253.329	80.94
253.562	69.94
253.795	76.94
254.028	86.94
254.261	78.94
254.494	89.94
254.727	72.94
254.96	72.94
255.193	77.94
255.426	83.94
255.659	79.94
255.892	82.94
256.124	89.94
256.357	88.94
256.59	90.94
256.823	91.94
257.056	87.94
257.289	97.94
257.521	95.94
257.754	85.94
257.987	76.94
258.22	91.94
258.452	69.94
258.685	79.94
258.918	80.94
259.151	78.94
259.383	88.94
259.616	81.94
259.849	100.94
260.081	73.94
260.314	77.94
260.547	82.94
260.779	71.94
261.012	83.94
261.244	88.94
261.477	103.94
261.71	81.94
261.942	83.94
262.175	82.94
262.407	77.94
262.64	85.94
262.872	92.94
263.105	79.94
263.337	89.94
263.57	92.94
263.802	100.94
264.035	93.94
264.267	83.94
264.499	96.94
264.732	92.94
264.964	86.94
265.197	88.94
265.429	86.94
265.661	87.94
265.894	66.94
266.126	76.94
266.358	93.94
266.591	75.94
266.823	84.94
267.055	88.94
267.287	87.94
267.52	83.94
267.752	91.94
267.984	82.94
268.216	85.94
268.448	87.94
268.681	91.94
268.913	79.94
269.145	91.94
269.377	104.94
269.609	95.94
269.841	92.94
270.073	83.94
270.306	93.94
270.538	91.94
270.77	78.94
271.002	80.94
271.234	100.94
271.466	88.94
271.698	83.94
271.93	81.94
272.162	73.94
272.394	73.94
272.626	81.94
272.858	86.94
273.09	89.94
273.322	83.94
273.553	96.94
273.785	86.94
274.017	86.94
274.249	81.94
274.481	88.94
274.713	81.94
274.945	80.94
275.176	85.94
275.408	88.94
275.64	71.94
275.872	87.94
276.104	96.94
276.335	89.94
276.567	79.94
276.799	81.94
277.031	82.94
277.262	96.94
277.494	75.94
277.726	88.94
277.957	98.94
278.189	88.94
278.421	80.94
278.652	84.94
278.884	83.94
279.115	87.94
279.347	87.94
279.579	99.94
279.81	87.94
280.042	89.94
280.273	73.94
280.505	78.94
280.736	97.94
280.968	95.94
281.199	73.94
281.431	85.94
281.662	74.94
281.894	79.94
282.125	87.94
282.356	91.94
282.588	84.94
282.819	88.94
283.051	83.94
283.282	91.94
283.513	88.94
283.745	101.94
283.976	91.94
284.207	95.94
284.439	84.94
284.67	90.94
284.901	100.94
285.132	86.94
285.364	93.94
285.595	93.94
285.826	96.94
286.057	93.94
286.288	87.94
286.52	92.94
286.751	91.94
286.982	96.94
287.213	86.94
287.444	86.94
287.675	83.94
287.906	97.94
288.138	99.94
288.369	105.94
288.6	87.94
288.831	81.94
289.062	98.94
289.293	85.94
289.524	92.94
289.755	83.94
289.986	95.94
290.217	108.94
290.448	79.94
290.679	85.94
290.91	75.94
291.141	85.94
291.371	85.94
291.602	88.94
291.833	94.94
292.064	97.94
292.295	79.94
292.526	89.94
292.757	92.94
292.987	91.94
293.218	68.94
293.449	85.94
293.68	100.94
293.91	101.94
294.141	83.94
294.372	85.94
294.603	102.94
294.833	84.94
295.064	80.94
295.295	97.94
295.525	85.94
295.756	85.94
295.987	89.94
296.217	94.94
296.448	78.94
296.679	80.94
296.909	102.94
297.14	97.94
297.37	91.94
297.601	88.94
297.831	78.94
298.062	100.94
298.292	102.94
298.523	107.94
298.753	91.94
298.984	100.94
299.214	84.94
299.445	95.94
299.675	92.94
299.905	92.94
300.136	95.94
300.366	89.94
300.597	85.94
300.827	95.94
301.057	90.94
301.288	96.94
301.518	90.94
301.748	86.94
301.979	98.94
302.209	94.94
302.439	86.94
302.669	85.94
302.9	87.94
303.13	102.94
303.36	93.94
303.59	84.94
303.82	95.94
304.051	89.94
304.281	98.94
304.511	87.94
304.741	97.94
304.971	100.94
305.201	92.94
305.431	83.94
305.661	83.94
305.891	102.94
306.121	84.94
306.352	93.94
306.582	91.94
306.812	85.94
307.042	97.94
307.272	90.94
307.502	87.94
307.731	108.94
307.961	105.94
308.191	99.94
308.421	100.94
308.651	112.94
308.881	95.94
309.111	101.94
309.341	124.94
309.571	133.94
309.8	100.94
310.03	80.94
310.26	87.94
310.49	86.94
310.72	91.94
310.949	96.94
311.179	84.94
311.409	94.94
311.639	92.94
311.868	90.94
312.098	91.94
312.328	89.94
312.557	85.94
312.787	87.94
313.017	97.94
313.246	86.94
313.476	84.94
313.706	88.94
313.935	73.94
314.165	86.94
314.394	104.94
314.624	96.94
314.853	94.94
315.083	78.94
315.312	81.94
315.542	88.94
315.771	87.94
316.001	107.94
316.23	88.94
316.46	96.94
316.689	100.94
316.919	91.94
317.148	89.94
317.377	87.94
317.607	84.94
317.836	87.94
318.065	95.94
318.295	93.94
318.524	84.94
318.753	86.94
318.983	87.94
319.212	82.94
319.441	93.94
319.67	92.94
319.9	101.94
320.129	107.94
320.358	98.94
320.587	93.94
320.816	84.94
321.046	97.94
321.275	98.94
321.504	99.94
321.733	85.94
321.962	94.94
322.191	98.94
322.42	97.94
322.649	86.94
322.878	87.94
323.108	90.94
323.337	99.94
323.566	86.94
323.795	79.94
324.024	87.94
324.253	90.94
324.482	101.94
324.71	96.94
324.939	95.94
325.168	92.94
325.397	83.94
325.626	89.94
325.855	79.94
326.084	93.94
326.313	89.94
326.542	97.94
326.77	97.94
326.999	82.94
327.228	84.94
327.457	104.94
327.686	89.94
327.914	94.94
328.143	83.94
328.372	87.94
328.6	98.94
328.829	99.94
329.058	96.94
329.287	97.94
329.515	83.94
329.744	101.94
329.972	116.94
330.201	141.94
330.43	142.94
330.658	100.94
330.887	88.94
331.115	101.94
331.344	79.94
331.572	82.94
331.801	92.94
332.03	93.94
332.258	95.94
332.486	96.94
332.715	84.94
332.943	95.94
333.172	93.94
333.4	84.94
333.629	79.94
333.857	84.94
334.085	94.94
334.314	98.94
334.542	74.94
334.771	87.94
334.999	89.94
335.227	82.94
335.455	76.94
335.684	94.94
335.912	73.94
336.14	85.94
336.369	92.94
336.597	81.94
336.825	98.94
337.053	74.94
337.281	95.94
337.51	85.94
337.738	85.94
337.966	104.94
338.194	84.94
338.422	109.94
338.65	93.94
338.878	105.94
339.106	83.94
339.334	97.94
339.562	101.94
339.79	84.94
340.018	96.94
340.246	86.94
340.474	103.94
340.702	93.94
340.93	93.94
341.158	91.94
341.386	89.94
341.614	101.94
341.842	93.94
342.07	90.94
342.298	87.94
342.526	97.94
342.754	92.94
342.981	96.94
343.209	89.94
343.437	97.94
343.665	83.94
343.893	84.94
344.12	104.94
344.348	102.94
344.576	107.94
344.804	131.94
345.031	101.94
345.259	104.94
345.487	89.94
345.714	71.94
345.942	94.94
346.17	96.94
346.397	86.94
346.625	83.94
346.853	95.94
347.08	86.94
347.308	99.94
347.535	95.94
347.763	80.94
347.99	81.94
348.218	90.94
348.445	93.94
348.673	92.94
348.9	82.94
349.128	93.94
349.355	100.94
349.583	92.94
349.81	80.94
350.037	92.94
350.265	97.94
350.492	99.94
350.72	89.94
350.947	83.94
351.174	95.94
351.402	87.94
351.629	90.94
351.856	85.94
352.083	101.94
352.311	88.94
352.538	93.94
352.765	84.94
352.992	97.94
353.22	99.94
353.447	99.94
353.674	95.94
353.901	89.94
354.128	92.94
354.355	102.94
354.583	92.94
354.81	89.94
355.037	97.94
355.264	87.94
355.491	103.94
355.718	90.94
355.945	97.94
356.172	100.94
356.399	98.94
356.626	95.94
356.853	93.94
357.08	88.94
357.307	95.94
357.534	91.94
357.761	87.94
357.988	91.94
358.215	103.94
358.441	87.94
358.668	82.94
358.895	83.94
359.122	95.94
359.349	80.94
359.576	87.94
359.802	93.94
360.029	86.94
360.256	95.94
360.483	97.94
360.709	82.94
360.936	98.94
361.163	107.94
361.39	97.94
361.616	93.94
361.843	108.94
362.07	88.94
362.296	91.94
362.523	79.94
362.749	84.94
362.976	93.94
363.203	89.94
363.429	95.94
363.656	83.94
363.882	91.94
364.109	102.94
364.335	95.94
364.562	89.94
364.788	71.94
365.015	102.94
365.241	95.94
365.468	88.94
365.694	86.94
365.92	85.94
366.147	87.94
366.373	99.94
366.599	95.94
366.826	101.94
367.052	89.94
367.278	90.94
367.505	104.94
367.731	79.94
367.957	97.94
368.184	80.94
368.41	80.94
368.636	88.94
368.862	82.94
369.089	86.94
369.315	102.94
369.541	95.94
369.767	101.94
369.993	87.94
370.219	92.94
370.445	98.94
370.672	97.94
370.898	91.94
371.124	92.94
371.35	101.94
371.576	95.94
371.802	100.94
372.028	94.94
372.254	92.94
372.48	96.94
372.706	108.94
372.932	99.94
373.158	103.94
373.384	116.94
373.61	99.94
373.835	96.94
374.061	98.94
374.287	93.94
374.513	98.94
374.739	91.94
374.965	91.94
375.191	100.94
375.416	87.94
375.642	101.94
375.868	96.94
376.094	90.94
376.319	87.94
376.545	86.94
376.771	93.94
376.997	93.94
377.222	92.94
377.448	96.94
377.674	91.94
377.899	80.94
378.125	101.94
378.35	95.94
378.576	90.94
378.802	94.94
379.027	91.94
379.253	89.94
379.478	97.94
379.704	94.94
379.929	98.94
380.155	97.94
380.38	75.94
380.606	91.94
380.831	98.94
381.057	98.94
381.282	96.94
381.507	96.94
381.733	91.94
381.958	95.94
382.184	95.94
382.409	91.94
382.634	88.94
382.86	102.94
383.085	95.94
383.31	86.94
383.535	92.94
383.761	116.94
383.986	108.94
384.211	89.94
384.436	81.94
384.662	101.94
384.887	94.94
385.112	87.94
385.337	98.94
385.562	103.94
385.787	100.94
386.013	98.94
386.238	98.94
386.463	83.94
386.688	105.94
386.913	82.94
387.138	97.94
387.363	85.94
387.588	94.94
387.813	97.94
388.038	91.94
388.263	102.94
388.488	94.94
388.713	102.94
388.938	113.94
389.163	100.94
389.387	87.94
389.612	95.94
389.837	100.94
390.062	105.94
390.287	96.94
390.512	102.94
390.736	90.94
390.961	96.94
391.186	117.94
391.411	92.94
391.636	98.94
391.86	89.94
392.085	85.94
392.31	81.94
392.534	95.94
392.759	91.94
392.984	96.94
393.208	134.94
393.433	169.94
393.658	149.94
393.882	115.94
394.107	124.94
394.331	188.94
394.556	198.94
394.78	145.94
395.005	103.94
395.229	94.94
395.454	96.94
395.678	102.94
395.903	142.94
396.127	219.94
396.352	269.94
396.576	143.94
396.801	129.94
397.025	129.94
397.249	105.94
397.474	103.94
397.698	100.94
397.922	99.94
398.147	84.94
398.371	91.94
398.595	115.94
398.82	87.94
399.044	97.94
399.268	97.94
399.492	83.94
399.717	95.94
399.941	98.94
400.165	100.94
400.389	100.94
400.613	94.94
400.837	85.94
401.062	72.94
401.286	86.94
401.51	100.94
401.734	80.94
401.958	112.94
402.182	87.94
402.406	74.94
402.63	101.94
402.854	95.94
403.078	94.94
403.302	108.94
403.526	107.94
403.75	100.94
403.974	139.94
404.198	215.94
404.422	402.94
404.645	521.94
404.869	393.94
405.093	222.94
405.317	139.94
405.541	99.94
405.765	90.94
405.988	104.94
406.212	103.94
406.436	74.94
406.66	95.94
406.883	93.94
407.107	91.94
407.331	87.94
407.555	89.94
407.778	89.94
408.002	79.94
408.226	90.94
408.449	91.94
408.673	97.94
408.896	102.94
409.12	82.94
409.344	83.94
409.567	94.94
409.791	84.94
410.014	80.94
410.238	92.94
410.461	86.94
410.685	83.94
410.908	85.94
411.132	86.94
411.355	101.94
411.578	100.94
411.802	94.94
412.025	82.94
412.249	91.94
412.472	103.94
412.695	108.94
412.919	104.94
413.142	85.94
413.365	93.94
413.589	100.94
413.812	85.94
414.035	111.94
414.258	88.94
414.482	97.94
414.705	98.94
414.928	101.94
415.151	90.94
415.374	94.94
415.597	92.94
415.821	96.94
416.044	103.94
416.267	98.94
416.49	96.94
416.713	92.94
416.936	95.94
417.159	89.94
417.382	94.94
417.605	88.94
417.828	94.94
418.051	98.94
418.274	94.94
418.497	93.94
418.72	95.94
418.943	101.94
419.166	111.94
419.389	99.94
419.611	87.94
419.834	85.94
420.057	110.94
420.28	93.94
420.503	79.94
420.726	94.94
420.948	87.94
421.171	71.94
421.394	77.94
421.617	99.94
421.839	84.94
422.062	84.94
422.285	112.94
422.507	161.94
422.73	248.94
422.953	219.94
423.175	119.94
423.398	103.94
423.621	85.94
423.843	97.94
424.066	118.94
424.288	81.94
424.511	96.94
424.733	102.94
424.956	83.94
425.178	97.94
425.401	97.94
425.623	80.94
425.846	92.94
426.068	108.94
426.291	97.94
426.513	83.94
426.735	92.94
426.958	100.94
427.18	80.94
427.402	100.94
427.625	109.94
427.847	89.94
428.069	103.94
428.292	94.94
428.514	102.94
428.736	100.94
428.958	110.94
429.181	93.94
429.403	85.94
429.625	93.94
429.847	87.94
430.069	112.94
430.292	105.94
430.514	128.94
430.736	111.94
430.958	104.94
431.18	83.94
431.402	86.94
431.624	105.94
431.846	88.94
432.068	95.94
432.29	108.94
432.512	104.94
432.734	104.94
432.956	95.94
433.178	89.94
433.4	89.94
433.622	93.94
433.844	87.94
434.066	89.94
434.287	95.94
434.509	97.94
434.731	97.94
434.953	98.94
435.175	100.94
435.397	87.94
435.618	96.94
435.84	97.94
436.062	86.94
436.284	100.94
436.505	103.94
436.727	113.94
436.949	101.94
437.17	75.94
437.392	83.94
437.614	85.94
437.835	88.94
438.057	96.94
438.278	77.94
438.5	103.94
438.721	95.94
438.943	92.94
439.165	94.94
439.386	102.94
439.608	81.94
439.829	99.94
440.05	89.94
440.272	95.94
440.493	87.94
440.715	91.94
440.936	81.94
441.158	93.94
441.379	89.94
441.6	86.94
441.822	98.94
442.043	110.94
442.264	99.94
442.486	93.94
442.707	105.94
442.928	104.94
443.149	104.94
443.371	103.94
443.592	101.94
443.813	111.94
444.034	81.94
444.255	102.94
444.476	85.94
444.698	97.94
444.919	93.94
445.14	141.94
445.361	119.94
445.582	115.94
445.803	97.94
446.024	94.94
446.245	88.94
446.466	93.94
446.687	91.94
446.908	99.94
447.129	95.94
447.35	80.94
447.571	92.94
447.792	88.94
448.013	85.94
448.234	91.94
448.455	85.94
448.675	102.94
448.896	105.94
449.117	95.94
449.338	89.94
449.559	94.94
449.779	86.94
450	73.94
450.221	85.94
450.442	86.94
450.662	98.94
450.883	91.94
451.104	101.94
451.324	102.94
451.545	95.94
451.766	85.94
451.986	95.94
452.207	94.94
452.428	92.94
452.648	102.94
452.869	96.94
453.089	89.94
453.31	87.94
453.53	92.94
453.751	93.94
453.971	95.94
454.192	101.94
454.412	89.94
454.633	101.94
454.853	95.94
455.073	101.94
455.294	77.94
455.514	91.94
455.734	98.94
455.955	84.94
456.175	97.94
456.395	103.94
456.616	87.94
456.836	96.94
457.056	100.94
457.276	95.94
457.497	86.94
457.717	86.94
457.937	87.94
458.157	98.94
458.377	97.94
458.598	105.94
458.818	100.94
459.038	101.94
459.258	95.94
459.478	77.94
459.698	85.94
459.918	89.94
460.138	98.94
460.358	86.94
460.578	99.94
460.798	101.94
461.018	114.94
461.238	82.94
461.458	94.94
461.678	107.94
461.898	95.94
462.118	91.94
462.338	96.94
462.558	98.94
462.777	95.94
462.997	102.94
463.217	93.94
463.437	99.94
463.657	97.94
463.876	86.94
464.096	94.94
464.316	103.94
464.536	98.94
464.755	101.94
464.975	99.94
465.195	82.94
465.414	92.94
465.634	84.94
465.854	97.94
466.073	88.94
466.293	113.94
466.512	99.94
466.732	97.94
466.951	87.94
467.171	93.94
467.391	85.94
467.61	93.94
467.829	93.94
468.049	97.94
468.268	106.94
468.488	78.94
468.707	102.94
468.927	81.94
469.146	100.94
469.365	98.94
469.585	96.94
469.804	116.94
470.023	88.94
470.243	90.94
470.462	109.94
470.681	104.94
470.901	103.94
471.12	80.94
471.339	85.94
471.558	92.94
471.777	95.94
471.997	88.94
472.216	91.94
472.435	88.94
472.654	91.94
472.873	91.94
473.092	93.94
473.311	100.94
473.53	110.94
473.749	79.94
473.968	101.94
474.187	99.94
474.406	103.94
474.625	88.94
474.844	99.94
475.063	98.94
475.282	93.94
475.501	95.94
475.72	93.94
475.939	97.94
476.158	95.94
476.377	93.94
476.596	81.94
476.814	94.94
477.033	102.94
477.252	103.94
477.471	95.94
477.69	92.94
477.908	98.94
478.127	102.94
478.346	89.94
478.564	91.94
478.783	89.94
479.002	83.94
479.22	83.94
479.439	99.94
479.658	103.94
479.876	96.94
480.095	107.94
480.313	101.94
480.532	83.94
480.751	91.94
480.969	93.94
481.188	100.94
481.406	102.94
481.624	104.94
481.843	111.94
482.061	104.94
482.28	103.94
482.498	93.94
482.717	95.94
482.935	94.94
483.153	109.94
483.372	101.94
483.59	87.94
483.808	87.94
484.027	101.94
484.245	98.94
484.463	93.94
484.681	94.94
484.9	96.94
485.118	87.94
485.336	99.94
485.554	94.94
485.772	101.94
485.99	96.94
486.209	96.94
486.427	100.94
486.645	90.94
486.863	108.94
487.081	107.94
487.299	100.94
487.517	91.94
487.735	103.94
487.953	107.94
488.171	103.94
488.389	97.94
488.607	93.94
488.825	104.94
489.043	83.94
489.261	113.94
489.479	89.94
489.696	111.94
489.914	113.94
490.132	99.94
490.35	102.94
490.568	104.94
490.786	96.94
491.003	88.94
491.221	87.94
491.439	101.94
491.657	105.94
491.874	105.94
492.092	116.94
492.31	103.94
492.527	102.94
492.745	107.94
492.963	111.94
493.18	105.94
493.398	97.94
493.615	97.94
493.833	114.94
494.05	96.94
494.268	113.94
494.485	122.94
494.703	101.94
494.92	99.94
495.138	96.94
495.355	107.94
495.573	97.94
495.79	102.94
496.008	102.94
496.225	114.94
496.442	103.94
496.66	113.94
496.877	111.94
497.094	110.94
497.312	101.94
497.529	112.94
497.746	103.94
497.963	109.94
498.181	119.94
498.398	98.94
498.615	91.94
498.832	104.94
499.049	123.94
499.267	111.94
499.484	109.94
499.701	115.94
499.918	103.94
500.135	101.94
500.352	91.94
500.569	100.94
500.786	95.94
501.003	111.94
501.22	95.94
501.437	81.94
501.654	95.94
501.871	86.94
502.088	105.94
502.305	99.94
502.522	90.94
502.739	96.94
502.956	85.94
503.172	108.94
503.389	105.94
503.606	91.94
503.823	92.94
504.04	101.94
504.256	111.94
504.473	97.94
504.69	92.94
504.907	109.94
505.123	104.94
505.34	96.94
505.557	88.94
505.773	109.94
505.99	93.94
506.207	103.94
506.423	105.94
506.64	87.94
506.856	89.94
507.073	97.94
507.289	109.94
507.506	103.94
507.722	93.94
507.939	98.94
508.155	98.94
508.372	105.94
508.588	101.94
508.805	107.94
509.021	103.94
509.238	98.94
509.454	109.94
509.67	97.94
509.887	115.94
510.103	95.94
510.319	99.94
510.536	102.94
510.752	95.94
510.968	97.94
511.184	94.94
511.401	98.94
511.617	99.94
511.833	108.94
512.049	92.94
512.265	104.94
512.481	98.94
512.698	98.94
512.914	101.94
513.13	104.94
513.346	91.94
513.562	91.94
513.778	103.94
513.994	100.94
514.21	89.94
514.426	107.94
514.642	92.94
514.858	96.94
515.074	99.94
515.29	104.94
515.506	103.94
515.721	92.94
515.937	102.94
516.153	94.94
516.369	71.94
516.585	84.94
516.801	92.94
517.016	93.94
517.232	83.94
517.448	104.94
517.664	102.94
517.879	92.94
518.095	98.94
518.311	88.94
518.527	92.94
518.742	91.94
518.958	86.94
519.173	102.94
519.389	99.94
519.605	88.94
519.82	95.94
520.036	84.94
520.251	91.94
520.467	98.94
520.682	105.94
520.898	112.94
521.113	91.94
521.329	111.94
521.544	97.94
521.76	96.94
521.975	85.94
522.19	91.94
522.406	89.94
522.621	84.94
522.836	91.94
523.052	83.94
523.267	91.94
523.482	82.94
523.698	87.94
523.913	100.94
524.128	97.94
524.343	104.94
524.559	81.94
524.774	91.94
524.989	83.94
525.204	102.94
525.419	89.94
525.634	90.94
525.849	92.94
526.064	92.94
526.28	103.94
526.495	95.94
526.71	110.94
526.925	95.94
527.14	99.94
527.355	112.94
527.57	107.94
527.785	89.94
527.999	102.94
528.214	90.94
528.429	108.94
528.644	91.94
528.859	104.94
529.074	100.94
529.289	94.94
529.503	98.94
529.718	92.94
529.933	90.94
530.148	115.94
530.363	93.94
530.577	88.94
530.792	99.94
531.007	93.94
531.221	109.94
531.436	91.94
531.651	99.94
531.865	97.94
532.08	95.94
532.295	89.94
532.509	93.94
532.724	128.94
532.938	116.94
533.153	127.94
533.367	116.94
533.582	109.94
533.796	95.94
534.011	113.94
534.225	125.94
534.44	129.94
534.654	127.94
534.868	130.94
535.083	116.94
535.297	124.94
535.511	119.94
535.726	125.94
535.94	112.94
536.154	123.94
536.369	144.94
536.583	127.94
536.797	117.94
537.011	115.94
537.225	100.94
537.44	115.94
537.654	87.94
537.868	99.94
538.082	84.94
538.296	110.94
538.51	115.94
538.724	104.94
538.938	111.94
539.153	98.94
539.367	109.94
539.581	99.94
539.795	88.94
540.009	83.94
540.222	98.94
540.436	89.94
540.65	89.94
540.864	100.94
541.078	94.94
541.292	84.94
541.506	67.94
541.72	103.94
541.934	110.94
542.147	95.94
542.361	95.94
542.575	112.94
542.789	95.94
543.002	99.94
543.216	100.94
543.43	96.94
543.644	103.94
543.857	100.94
544.071	84.94
544.285	97.94
544.498	92.94
544.712	97.94
544.925	86.94
545.139	96.94
545.352	92.94
545.566	83.94
545.779	98.94
545.993	97.94
546.206	89.94
546.42	93.94
546.633	95.94
546.847	122.94
547.06	95.94
547.274	84.94
547.487	93.94
547.7	77.94
547.914	97.94
548.127	103.94
548.34	99.94
548.554	101.94
548.767	103.94
548.98	92.94
549.193	102.94
549.407	91.94
549.62	94.94
549.833	95.94
550.046	91.94
550.259	100.94
550.473	99.94
550.686	87.94
550.899	91.94
551.112	98.94
551.325	88.94
551.538	81.94
551.751	93.94
551.964	93.94
552.177	101.94
552.39	92.94
552.603	87.94
552.816	91.94
553.029	111.94
553.242	104.94
553.455	95.94
553.667	92.94
553.88	89.94
554.093	86.94
554.306	110.94
554.519	93.94
554.732	104.94
554.944	96.94
555.157	94.94
555.37	92.94
555.583	99.94
555.795	110.94
556.008	93.94
556.221	91.94
556.433	102.94
556.646	95.94
556.859	92.94
557.071	82.94
557.284	92.94
557.496	107.94
557.709	92.94
557.921	96.94
558.134	99.94
558.346	107.94
558.559	86.94
558.771	100.94
558.984	94.94
559.196	115.94
559.409	99.94
559.621	107.94
559.833	91.94
560.046	94.94
560.258	87.94
560.47	107.94
560.683	95.94
560.895	97.94
561.107	85.94
561.32	86.94
561.532	97.94
561.744	93.94
561.956	112.94
562.168	91.94
562.381	89.94
562.593	97.94
562.805	89.94
563.017	93.94
563.229	97.94
563.441	81.94
563.653	83.94
563.865	91.94
564.077	88.94
564.289	85.94
564.501	79.94
564.713	103.94
564.925	96.94
565.137	107.94
565.349	89.94
565.561	102.94
565.773	103.94
565.985	111.94
566.197	99.94
566.408	101.94
566.62	93.94
566.832	87.94
567.044	109.94
567.255	99.94
567.467	99.94
567.679	113.94
567.891	112.94
568.102	103.94
568.314	117.94
568.526	131.94
568.737	136.94
568.949	161.94
569.161	176.94
569.372	169.94
569.584	146.94
569.795	135.94
570.007	127.94
570.218	100.94
570.43	116.94
570.641	104.94
570.853	105.94
571.064	93.94
571.276	102.94
571.487	103.94
571.698	92.94
571.91	85.94
572.121	95.94
572.333	96.94
572.544	95.94
572.755	96.94
572.966	105.94
573.178	93.94
573.389	87.94
573.6	105.94
573.811	87.94
574.023	92.94
574.234	97.94
574.445	100.94
574.656	88.94
574.867	85.94
575.078	95.94
575.289	99.94
575.501	105.94
575.712	91.94
575.923	102.94
576.134	93.94
576.345	106.94
576.556	110.94
576.767	97.94
576.978	100.94
577.188	109.94
577.399	95.94
577.61	110.94
577.821	91.94
578.032	107.94
578.243	107.94
578.454	124.94
578.665	139.94
578.875	129.94
579.086	110.94
579.297	112.94
579.508	116.94
579.718	110.94
579.929	113.94
580.14	129.94
580.35	161.94
580.561	192.94
580.772	176.94
580.982	153.94
581.193	131.94
581.403	134.94
581.614	135.94
581.825	111.94
582.035	113.94
582.246	105.94
582.456	99.94
582.667	97.94
582.877	104.94
583.087	114.94
583.298	130.94
583.508	147.94
583.719	138.94
583.929	135.94
584.139	114.94
584.35	104.94
584.56	123.94
584.77	105.94
584.981	117.94
585.191	117.94
585.401	106.94
585.611	101.94
585.821	118.94
586.032	116.94
586.242	94.94
586.452	99.94
586.662	119.94
586.872	116.94
587.082	117.94
587.292	130.94
587.502	125.94
587.713	137.94
587.923	166.94
588.133	193.94
588.343	240.94
588.553	323.94
588.762	564.94
588.972	1224.94
589.182	2152.94
589.392	1823.94
589.602	1387.94
589.812	1947.94
590.022	1215.94
590.232	519.94
590.441	312.94
590.651	224.94
590.861	198.94
591.071	164.94
591.281	143.94
591.49	137.94
591.7	134.94
591.91	127.94
592.119	115.94
592.329	112.94
592.539	111.94
592.748	109.94
592.958	115.94
593.167	106.94
593.377	108.94
593.587	118.94
593.796	101.94
594.006	113.94
594.215	95.94
594.424	97.94
594.634	109.94
594.843	100.94
595.053	87.94
595.262	100.94
595.472	101.94
595.681	86.94
595.89	92.94
596.1	103.94
596.309	92.94
596.518	95.94
596.727	96.94
596.937	94.94
597.146	94.94
597.355	102.94
597.564	92.94
597.774	109.94
597.983	92.94
598.192	87.94
598.401	86.94
598.61	93.94
598.819	91.94
599.028	97.94
599.237	99.94
599.446	92.94
599.655	97.94
599.864	95.94
600.073	101.94
600.282	108.94
600.491	95.94
600.7	87.94
600.909	87.94
601.118	97.94
601.327	85.94
601.536	95.94
601.745	101.94
601.953	98.94
602.162	102.94
602.371	104.94
602.58	99.94
602.789	113.94
602.997	86.94
603.206	96.94
603.415	75.94
603.623	96.94
603.832	110.94
604.041	109.94
604.249	100.94
604.458	93.94
604.666	97.94
604.875	85.94
605.084	97.94
605.292	86.94
605.501	93.94
605.709	93.94
605.918	84.94
606.126	94.94
606.334	99.94
606.543	106.94
606.751	96.94
606.96	90.94
607.168	82.94
607.376	77.94
607.585	89.94
607.793	87.94
608.001	86.94
608.21	98.94
608.418	108.94
608.626	105.94
608.834	88.94
609.043	97.94
609.251	95.94
609.459	83.94
609.667	102.94
609.875	92.94
610.083	99.94
610.291	91.94
610.499	97.94
610.707	88.94
610.916	93.94
611.124	99.94
611.332	87.94
611.54	84.94
611.748	103.94
611.955	103.94
612.163	94.94
612.371	100.94
612.579	106.94
612.787	92.94
612.995	97.94
613.203	111.94
613.411	84.94
613.618	104.94
613.826	93.94
614.034	89.94
614.242	95.94
614.449	83.94
614.657	99.94
614.865	92.94
615.072	88.94
615.28	83.94
615.488	99.94
615.695	108.94
615.903	103.94
616.111	101.94
616.318	122.94
616.526	120.94
616.733	108.94
616.941	88.94
617.148	101.94
617.356	89.94
617.563	100.94
617.771	98.94
617.978	91.94
618.185	87.94
618.393	92.94
618.6	96.94
618.807	86.94
619.015	85.94
619.222	93.94
619.429	99.94
619.637	88.94
619.844	94.94
620.051	108.94
620.258	108.94
620.466	96.94
620.673	88.94
620.88	96.94
621.087	87.94
621.294	98.94
621.501	93.94
621.708	91.94
621.915	84.94
622.122	84.94
622.329	99.94
622.536	97.94
622.743	95.94
622.95	96.94
623.157	80.94
623.364	97.94
623.571	97.94
623.778	94.94
623.985	101.94
624.192	112.94
624.399	91.94
624.606	100.94
624.812	94.94
625.019	83.94
625.226	95.94
625.433	79.94
625.639	95.94
625.846	87.94
626.053	84.94
626.259	97.94
626.466	100.94
626.673	87.94
626.879	93.94
627.086	95.94
627.293	103.94
627.499	113.94
627.706	99.94
627.912	92.94
628.119	92.94
628.325	92.94
628.532	102.94
628.738	93.94
628.945	105.94
629.151	88.94
629.357	93.94
629.564	98.94
629.77	102.94
629.976	89.94
630.183	97.94
630.389	87.94
630.595	96.94
630.802	101.94
631.008	106.94
631.214	91.94
631.42	91.94
631.627	89.94
631.833	95.94
632.039	99.94
632.245	91.94
632.451	99.94
632.657	96.94
632.863	89.94
633.069	79.94
633.275	93.94
633.481	90.94
633.688	105.94
633.893	98.94
634.099	89.94
634.305	83.94
634.511	104.94
634.717	94.94
634.923	91.94
635.129	80.94
635.335	83.94
635.541	95.94
635.747	86.94
635.952	91.94
636.158	78.94
636.364	96.94
636.57	84.94
636.775	75.94
636.981	99.94
637.187	77.94
637.392	84.94
637.598	91.94
637.804	103.94
638.009	88.94
638.215	94.94
638.421	81.94
638.626	85.94
638.832	86.94
639.037	79.94
639.243	82.94
639.448	83.94
639.654	90.94
639.859	88.94
640.065	85.94
640.27	91.94
640.475	103.94
640.681	87.94
640.886	92.94
641.091	94.94
641.297	103.94
641.502	80.94
641.707	102.94
641.913	91.94
642.118	96.94
642.323	103.94
642.528	101.94
642.733	88.94
642.939	81.94
643.144	104.94
643.349	101.94
643.554	88.94
643.759	100.94
643.964	93.94
644.169	91.94
644.374	92.94
644.579	78.94
644.784	87.94
644.989	98.94
645.194	85.94
645.399	83.94
645.604	100.94
645.809	88.94
646.014	97.94
646.219	95.94
646.423	99.94
646.628	92.94
646.833	78.94
647.038	85.94
647.243	86.94
647.447	94.94
647.652	86.94
647.857	92.94
648.062	79.94
648.266	80.94
648.471	80.94
648.676	92.94
648.88	84.94
649.085	102.94
649.289	88.94
649.494	78.94
649.698	100.94
649.903	89.94
650.107	89.94
650.312	91.94
650.516	84.94
650.721	87.94
650.925	83.94
651.13	99.94
651.334	83.94
651.539	86.94
651.743	83.94
651.947	96.94
652.152	85.94
652.356	87.94
652.56	87.94
652.764	95.94
652.969	87.94
653.173	96.94
653.377	83.94
653.581	85.94
653.785	90.94
653.99	86.94
654.194	91.94
654.398	85.94
654.602	93.94
654.806	93.94
655.01	100.94
655.214	89.94
655.418	94.94
655.622	91.94
655.826	89.94
656.03	73.94
656.234	77.94
656.438	93.94
656.642	85.94
656.846	90.94
657.049	92.94
657.253	84.94
657.457	73.94
657.661	86.94
657.865	87.94
658.068	73.94
658.272	82.94
658.476	81.94
658.68	76.94
658.883	85.94
659.087	83.94
659.291	91.94
659.494	87.94
659.698	84.94
659.901	86.94
660.105	85.94
660.309	93.94
660.512	89.94
660.716	91.94
660.919	93.94
661.123	79.94
661.326	95.94
661.53	91.94
661.733	82.94
661.936	95.94
662.14	92.94
662.343	80.94
662.546	83.94
662.75	86.94
662.953	82.94
663.156	80.94
663.36	77.94
663.563	82.94
663.766	84.94
663.969	88.94
664.173	82.94
664.376	80.94
664.579	77.94
664.782	84.94
664.985	86.94
665.188	92.94
665.391	92.94
665.594	89.94
665.797	87.94
666	85.94
666.203	88.94
666.406	76.94
666.609	100.94
666.812	75.94
667.015	88.94
667.218	81.94
667.421	86.94
667.624	89.94
667.827	93.94
668.03	81.94
668.232	84.94
668.435	73.94
668.638	81.94
668.841	81.94
669.043	84.94
669.246	91.94
669.449	87.94
669.651	71.94
669.854	87.94
670.057	88.94
670.259	88.94
670.462	93.94
670.665	90.94
670.867	76.94
671.07	85.94
671.272	93.94
671.475	89.94
671.677	87.94
671.88	84.94
672.082	92.94
672.284	95.94
672.487	77.94
672.689	76.94
672.892	80.94
