Data from TenMicroDelayPb_HRD10591_00006.txt Node
Date: Mon Nov 24 14:56:57 EST 2025
User: Yrep
Spectrometer: HR+D1059
Trigger mode: 5
Integration Time (sec): 3.000000E-2
Scans to average: 1
Electric dark correction enabled: true
Nonlinearity correction enabled: false
Boxcar width: 0
XAxis mode: Wavelengths
Number of Pixels in Spectrum: 2048
>>>>>Begin Spectral Data<<<<<
223.165	-33.5
223.4	-33.5
223.635	-33.5
223.869	-23.5
224.104	-19.5
224.338	-20.5
224.573	-18.5
224.808	-5.5
225.042	-0.5
225.277	12.5
225.511	3.5
225.746	5.5
225.98	12.5
226.215	6.5
226.449	24.5
226.683	12.5
226.918	17.5
227.152	26.5
227.387	23.5
227.621	31.5
227.856	47.5
228.09	43.5
228.324	53.5
228.559	64.5
228.793	60.5
229.027	67.5
229.262	60.5
229.496	82.5
229.73	78.5
229.964	80.5
230.199	56.5
230.433	62.5
230.667	95.5
230.901	85.5
231.136	63.5
231.37	87.5
231.604	93.5
231.838	81.5
232.072	74.5
232.306	90.5
232.541	80.5
232.775	95.5
233.009	89.5
233.243	72.5
233.477	93.5
233.711	87.5
233.945	90.5
234.179	106.5
234.413	80.5
234.647	70.5
234.881	84.5
235.115	84.5
235.349	103.5
235.583	96.5
235.817	76.5
236.051	86.5
236.285	75.5
236.519	88.5
236.753	86.5
236.987	83.5
237.221	71.5
237.455	78.5
237.689	85.5
237.922	91.5
238.156	93.5
238.39	72.5
238.624	73.5
238.858	91.5
239.091	87.5
239.325	77.5
239.559	89.5
239.793	97.5
240.027	101.5
240.26	81.5
240.494	98.5
240.728	80.5
240.961	84.5
241.195	93.5
241.429	99.5
241.662	100.5
241.896	89.5
242.13	82.5
242.363	89.5
242.597	79.5
242.83	87.5
243.064	89.5
243.298	82.5
243.531	92.5
243.765	85.5
243.998	77.5
244.232	102.5
244.465	105.5
244.699	93.5
244.932	86.5
245.166	107.5
245.399	97.5
245.633	88.5
245.866	93.5
246.099	94.5
246.333	89.5
246.566	70.5
246.8	86.5
247.033	75.5
247.266	76.5
247.5	88.5
247.733	103.5
247.966	99.5
248.2	102.5
248.433	88.5
248.666	76.5
248.899	109.5
249.133	94.5
249.366	113.5
249.599	85.5
249.832	84.5
250.066	102.5
250.299	108.5
250.532	101.5
250.765	102.5
250.998	96.5
251.231	94.5
251.465	92.5
251.698	81.5
251.931	90.5
252.164	95.5
252.397	92.5
252.63	112.5
252.863	105.5
253.096	92.5
253.329	90.5
253.562	91.5
253.795	101.5
254.028	104.5
254.261	106.5
254.494	102.5
254.727	127.5
254.96	108.5
255.193	122.5
255.426	95.5
255.659	101.5
255.892	96.5
256.124	95.5
256.357	100.5
256.59	118.5
256.823	100.5
257.056	96.5
257.289	105.5
257.521	104.5
257.754	98.5
257.987	110.5
258.22	125.5
258.452	103.5
258.685	102.5
258.918	101.5
259.151	99.5
259.383	104.5
259.616	102.5
259.849	91.5
260.081	106.5
260.314	98.5
260.547	106.5
260.779	106.5
261.012	129.5
261.244	128.5
261.477	161.5
261.71	133.5
261.942	136.5
262.175	111.5
262.407	118.5
262.64	116.5
262.872	107.5
263.105	111.5
263.337	131.5
263.57	113.5
263.802	96.5
264.035	120.5
264.267	121.5
264.499	117.5
264.732	126.5
264.964	125.5
265.197	120.5
265.429	110.5
265.661	102.5
265.894	121.5
266.126	119.5
266.358	133.5
266.591	138.5
266.823	115.5
267.055	94.5
267.287	103.5
267.52	105.5
267.752	110.5
267.984	118.5
268.216	107.5
268.448	130.5
268.681	120.5
268.913	113.5
269.145	101.5
269.377	101.5
269.609	106.5
269.841	117.5
270.073	105.5
270.306	107.5
270.538	120.5
270.77	115.5
271.002	123.5
271.234	109.5
271.466	120.5
271.698	101.5
271.93	108.5
272.162	123.5
272.394	123.5
272.626	104.5
272.858	113.5
273.09	111.5
273.322	112.5
273.553	120.5
273.785	118.5
274.017	130.5
274.249	105.5
274.481	112.5
274.713	98.5
274.945	108.5
275.176	94.5
275.408	126.5
275.64	84.5
275.872	109.5
276.104	116.5
276.335	102.5
276.567	99.5
276.799	106.5
277.031	105.5
277.262	77.5
277.494	115.5
277.726	128.5
277.957	106.5
278.189	109.5
278.421	106.5
278.652	112.5
278.884	125.5
279.115	127.5
279.347	131.5
279.579	137.5
279.81	162.5
280.042	176.5
280.273	189.5
280.505	180.5
280.736	141.5
280.968	143.5
281.199	129.5
281.431	134.5
281.662	135.5
281.894	124.5
282.125	138.5
282.356	128.5
282.588	137.5
282.819	142.5
283.051	151.5
283.282	148.5
283.513	192.5
283.745	173.5
283.976	132.5
284.207	130.5
284.439	104.5
284.67	142.5
284.901	119.5
285.132	143.5
285.364	113.5
285.595	133.5
285.826	138.5
286.057	125.5
286.288	124.5
286.52	118.5
286.751	117.5
286.982	145.5
287.213	141.5
287.444	151.5
287.675	145.5
287.906	137.5
288.138	129.5
288.369	115.5
288.6	121.5
288.831	120.5
289.062	119.5
289.293	128.5
289.524	120.5
289.755	103.5
289.986	122.5
290.217	112.5
290.448	97.5
290.679	117.5
290.91	136.5
291.141	106.5
291.371	118.5
291.602	121.5
291.833	110.5
292.064	123.5
292.295	112.5
292.526	101.5
292.757	112.5
292.987	116.5
293.218	106.5
293.449	114.5
293.68	119.5
293.91	112.5
294.141	126.5
294.372	122.5
294.603	115.5
294.833	104.5
295.064	101.5
295.295	97.5
295.525	113.5
295.756	130.5
295.987	109.5
296.217	121.5
296.448	122.5
296.679	101.5
296.909	121.5
297.14	116.5
297.37	124.5
297.601	117.5
297.831	110.5
298.062	129.5
298.292	112.5
298.523	115.5
298.753	109.5
298.984	106.5
299.214	117.5
299.445	101.5
299.675	129.5
299.905	116.5
300.136	124.5
300.366	119.5
300.597	130.5
300.827	129.5
301.057	120.5
301.288	123.5
301.518	113.5
301.748	129.5
301.979	178.5
302.209	119.5
302.439	117.5
302.669	119.5
302.9	112.5
303.13	123.5
303.36	121.5
303.59	115.5
303.82	128.5
304.051	129.5
304.281	124.5
304.511	121.5
304.741	116.5
304.971	114.5
305.201	135.5
305.431	135.5
305.661	121.5
305.891	128.5
306.121	124.5
306.352	134.5
306.582	110.5
306.812	112.5
307.042	105.5
307.272	110.5
307.502	103.5
307.731	122.5
307.961	118.5
308.191	111.5
308.421	123.5
308.651	122.5
308.881	123.5
309.111	129.5
309.341	103.5
309.571	121.5
309.8	125.5
310.03	114.5
310.26	127.5
310.49	123.5
310.72	109.5
310.949	123.5
311.179	127.5
311.409	125.5
311.639	120.5
311.868	125.5
312.098	137.5
312.328	130.5
312.557	132.5
312.787	132.5
313.017	122.5
313.246	131.5
313.476	136.5
313.706	122.5
313.935	128.5
314.165	123.5
314.394	141.5
314.624	135.5
314.853	149.5
315.083	137.5
315.312	135.5
315.542	133.5
315.771	129.5
316.001	129.5
316.23	126.5
316.46	139.5
316.689	141.5
316.919	136.5
317.148	128.5
317.377	146.5
317.607	131.5
317.836	132.5
318.065	109.5
318.295	136.5
318.524	121.5
318.753	143.5
318.983	127.5
319.212	129.5
319.441	124.5
319.67	136.5
319.9	133.5
320.129	114.5
320.358	116.5
320.587	128.5
320.816	110.5
321.046	129.5
321.275	129.5
321.504	131.5
321.733	134.5
321.962	128.5
322.191	120.5
322.42	126.5
322.649	138.5
322.878	120.5
323.108	121.5
323.337	136.5
323.566	127.5
323.795	136.5
324.024	130.5
324.253	129.5
324.482	113.5
324.71	133.5
324.939	145.5
325.168	140.5
325.397	128.5
325.626	121.5
325.855	123.5
326.084	123.5
326.313	121.5
326.542	122.5
326.77	121.5
326.999	137.5
327.228	122.5
327.457	115.5
327.686	138.5
327.914	116.5
328.143	144.5
328.372	121.5
328.6	130.5
328.829	114.5
329.058	104.5
329.287	126.5
329.515	146.5
329.744	130.5
329.972	127.5
330.201	127.5
330.43	148.5
330.658	134.5
330.887	131.5
331.115	121.5
331.344	122.5
331.572	124.5
331.801	134.5
332.03	116.5
332.258	129.5
332.486	129.5
332.715	120.5
332.943	124.5
333.172	140.5
333.4	123.5
333.629	144.5
333.857	126.5
334.085	121.5
334.314	145.5
334.542	131.5
334.771	118.5
334.999	128.5
335.227	132.5
335.455	140.5
335.684	128.5
335.912	130.5
336.14	120.5
336.369	125.5
336.597	128.5
336.825	135.5
337.053	124.5
337.281	122.5
337.51	117.5
337.738	134.5
337.966	114.5
338.194	126.5
338.422	116.5
338.65	128.5
338.878	136.5
339.106	125.5
339.334	140.5
339.562	132.5
339.79	121.5
340.018	137.5
340.246	122.5
340.474	126.5
340.702	149.5
340.93	133.5
341.158	135.5
341.386	120.5
341.614	124.5
341.842	139.5
342.07	107.5
342.298	133.5
342.526	117.5
342.754	126.5
342.981	128.5
343.209	135.5
343.437	174.5
343.665	123.5
343.893	143.5
344.12	137.5
344.348	134.5
344.576	123.5
344.804	129.5
345.031	133.5
345.259	135.5
345.487	126.5
345.714	140.5
345.942	122.5
346.17	138.5
346.397	130.5
346.625	130.5
346.853	129.5
347.08	117.5
347.308	130.5
347.535	139.5
347.763	127.5
347.99	137.5
348.218	139.5
348.445	123.5
348.673	135.5
348.9	128.5
349.128	130.5
349.355	136.5
349.583	134.5
349.81	116.5
350.037	132.5
350.265	149.5
350.492	137.5
350.72	125.5
350.947	149.5
351.174	137.5
351.402	112.5
351.629	123.5
351.856	130.5
352.083	129.5
352.311	139.5
352.538	124.5
352.765	137.5
352.992	149.5
353.22	118.5
353.447	121.5
353.674	132.5
353.901	132.5
354.128	147.5
354.355	124.5
354.583	107.5
354.81	126.5
355.037	136.5
355.264	140.5
355.491	137.5
355.718	126.5
355.945	136.5
356.172	136.5
356.399	126.5
356.626	145.5
356.853	137.5
357.08	202.5
357.307	253.5
357.534	232.5
357.761	198.5
357.988	176.5
358.215	161.5
358.441	146.5
358.668	142.5
358.895	136.5
359.122	140.5
359.349	138.5
359.576	145.5
359.802	127.5
360.029	135.5
360.256	130.5
360.483	137.5
360.709	120.5
360.936	152.5
361.163	144.5
361.39	128.5
361.616	141.5
361.843	126.5
362.07	139.5
362.296	146.5
362.523	128.5
362.749	145.5
362.976	134.5
363.203	170.5
363.429	160.5
363.656	199.5
363.882	236.5
364.109	286.5
364.335	239.5
364.562	186.5
364.788	156.5
365.015	159.5
365.241	150.5
365.468	153.5
365.694	143.5
365.92	150.5
366.147	139.5
366.373	138.5
366.599	146.5
366.826	165.5
367.052	172.5
367.278	195.5
367.505	194.5
367.731	202.5
367.957	196.5
368.184	280.5
368.41	336.5
368.636	311.5
368.862	232.5
369.089	192.5
369.315	169.5
369.541	178.5
369.767	170.5
369.993	153.5
370.219	145.5
370.445	138.5
370.672	145.5
370.898	127.5
371.124	128.5
371.35	133.5
371.576	130.5
371.802	130.5
372.028	123.5
372.254	153.5
372.48	148.5
372.706	147.5
372.932	140.5
373.158	145.5
373.384	168.5
373.61	186.5
373.835	225.5
374.061	245.5
374.287	246.5
374.513	180.5
374.739	153.5
374.965	152.5
375.191	150.5
375.416	151.5
375.642	151.5
375.868	137.5
376.094	134.5
376.319	137.5
376.545	138.5
376.771	144.5
376.997	145.5
377.222	142.5
377.448	131.5
377.674	123.5
377.899	149.5
378.125	134.5
378.35	121.5
378.576	126.5
378.802	155.5
379.027	151.5
379.253	149.5
379.478	128.5
379.704	124.5
379.929	122.5
380.155	117.5
380.38	140.5
380.606	144.5
380.831	134.5
381.057	164.5
381.282	136.5
381.507	146.5
381.733	137.5
381.958	133.5
382.184	142.5
382.409	119.5
382.634	146.5
382.86	131.5
383.085	147.5
383.31	141.5
383.535	135.5
383.761	134.5
383.986	147.5
384.211	146.5
384.436	128.5
384.662	130.5
384.887	139.5
385.112	146.5
385.337	142.5
385.562	135.5
385.787	137.5
386.013	150.5
386.238	160.5
386.463	124.5
386.688	199.5
386.913	142.5
387.138	134.5
387.363	139.5
387.588	157.5
387.813	156.5
388.038	152.5
388.263	136.5
388.488	121.5
388.713	142.5
388.938	138.5
389.163	149.5
389.387	135.5
389.612	125.5
389.837	139.5
390.062	136.5
390.287	141.5
390.512	118.5
390.736	148.5
390.961	143.5
391.186	158.5
391.411	126.5
391.636	136.5
391.86	134.5
392.085	133.5
392.31	126.5
392.534	137.5
392.759	148.5
392.984	140.5
393.208	146.5
393.433	138.5
393.658	148.5
393.882	157.5
394.107	136.5
394.331	132.5
394.556	120.5
394.78	139.5
395.005	127.5
395.229	132.5
395.454	153.5
395.678	140.5
395.903	149.5
396.127	145.5
396.352	140.5
396.576	137.5
396.801	142.5
397.025	137.5
397.249	147.5
397.474	170.5
397.698	154.5
397.922	150.5
398.147	124.5
398.371	142.5
398.595	142.5
398.82	150.5
399.044	161.5
399.268	159.5
399.492	152.5
399.717	173.5
399.941	150.5
400.165	148.5
400.389	156.5
400.613	153.5
400.837	160.5
401.062	176.5
401.286	154.5
401.51	149.5
401.734	154.5
401.958	182.5
402.182	178.5
402.406	167.5
402.63	135.5
402.854	166.5
403.078	160.5
403.302	157.5
403.526	166.5
403.75	155.5
403.974	170.5
404.198	160.5
404.422	173.5
404.645	169.5
404.869	201.5
405.093	199.5
405.317	244.5
405.541	326.5
405.765	456.5
405.988	502.5
406.212	384.5
406.436	298.5
406.66	263.5
406.883	215.5
407.107	206.5
407.331	188.5
407.555	172.5
407.778	177.5
408.002	180.5
408.226	183.5
408.449	184.5
408.673	165.5
408.896	170.5
409.12	176.5
409.344	173.5
409.567	164.5
409.791	161.5
410.014	164.5
410.238	158.5
410.461	164.5
410.685	164.5
410.908	153.5
411.132	152.5
411.355	155.5
411.578	157.5
411.802	150.5
412.025	151.5
412.249	153.5
412.472	151.5
412.695	176.5
412.919	160.5
413.142	159.5
413.365	161.5
413.589	149.5
413.812	150.5
414.035	164.5
414.258	155.5
414.482	156.5
414.705	164.5
414.928	178.5
415.151	151.5
415.374	171.5
415.597	161.5
415.821	151.5
416.044	151.5
416.267	157.5
416.49	161.5
416.713	160.5
416.936	157.5
417.159	144.5
417.382	172.5
417.605	146.5
417.828	166.5
418.051	147.5
418.274	157.5
418.497	161.5
418.72	137.5
418.943	151.5
419.166	166.5
419.389	176.5
419.611	173.5
419.834	155.5
420.057	180.5
420.28	146.5
420.503	161.5
420.726	165.5
420.948	169.5
421.171	160.5
421.394	168.5
421.617	160.5
421.839	164.5
422.062	160.5
422.285	158.5
422.507	182.5
422.73	156.5
422.953	153.5
423.175	164.5
423.398	154.5
423.621	171.5
423.843	180.5
424.066	178.5
424.288	203.5
424.511	223.5
424.733	245.5
424.956	235.5
425.178	200.5
425.401	199.5
425.623	186.5
425.846	187.5
426.068	188.5
426.291	170.5
426.513	179.5
426.735	175.5
426.958	172.5
427.18	168.5
427.402	179.5
427.625	156.5
427.847	178.5
428.069	178.5
428.292	161.5
428.514	189.5
428.736	167.5
428.958	169.5
429.181	181.5
429.403	160.5
429.625	158.5
429.847	166.5
430.069	169.5
430.292	169.5
430.514	152.5
430.736	158.5
430.958	152.5
431.18	151.5
431.402	161.5
431.624	161.5
431.846	153.5
432.068	159.5
432.29	166.5
432.512	180.5
432.734	169.5
432.956	178.5
433.178	184.5
433.4	157.5
433.622	164.5
433.844	188.5
434.066	161.5
434.287	140.5
434.509	131.5
434.731	133.5
434.953	166.5
435.175	171.5
435.397	152.5
435.618	169.5
435.84	170.5
436.062	152.5
436.284	176.5
436.505	172.5
436.727	156.5
436.949	182.5
437.17	178.5
437.392	170.5
437.614	168.5
437.835	172.5
438.057	181.5
438.278	174.5
438.5	187.5
438.721	219.5
438.943	250.5
439.165	242.5
439.386	221.5
439.608	212.5
439.829	224.5
440.05	207.5
440.272	197.5
440.493	180.5
440.715	201.5
440.936	233.5
441.158	213.5
441.379	188.5
441.6	196.5
441.822	209.5
442.043	189.5
442.264	184.5
442.486	195.5
442.707	174.5
442.928	178.5
443.149	205.5
443.371	188.5
443.592	189.5
443.813	184.5
444.034	176.5
444.255	191.5
444.476	172.5
444.698	184.5
444.919	194.5
445.14	549.5
445.361	353.5
445.582	182.5
445.803	178.5
446.024	170.5
446.245	189.5
446.466	203.5
446.687	186.5
446.908	190.5
447.129	178.5
447.35	184.5
447.571	192.5
447.792	180.5
448.013	177.5
448.234	152.5
448.455	180.5
448.675	180.5
448.896	183.5
449.117	159.5
449.338	151.5
449.559	182.5
449.779	177.5
450	166.5
450.221	160.5
450.442	161.5
450.662	152.5
450.883	162.5
451.104	180.5
451.324	174.5
451.545	148.5
451.766	161.5
451.986	151.5
452.207	169.5
452.428	155.5
452.648	154.5
452.869	153.5
453.089	152.5
453.31	136.5
453.53	143.5
453.751	138.5
453.971	141.5
454.192	143.5
454.412	132.5
454.633	149.5
454.853	152.5
455.073	146.5
455.294	151.5
455.514	153.5
455.734	160.5
455.955	161.5
456.175	150.5
456.395	155.5
456.616	138.5
456.836	142.5
457.056	145.5
457.276	145.5
457.497	125.5
457.717	152.5
457.937	148.5
458.157	149.5
458.377	146.5
458.598	133.5
458.818	149.5
459.038	131.5
459.258	138.5
459.478	141.5
459.698	145.5
459.918	155.5
460.138	142.5
460.358	147.5
460.578	155.5
460.798	152.5
461.018	158.5
461.238	154.5
461.458	148.5
461.678	154.5
461.898	150.5
462.118	164.5
462.338	141.5
462.558	154.5
462.777	151.5
462.997	149.5
463.217	160.5
463.437	160.5
463.657	132.5
463.876	146.5
464.096	137.5
464.316	130.5
464.536	143.5
464.755	181.5
464.975	156.5
465.195	157.5
465.414	151.5
465.634	145.5
465.854	157.5
466.073	165.5
466.293	144.5
466.512	146.5
466.732	150.5
466.951	150.5
467.171	159.5
467.391	146.5
467.61	159.5
467.829	158.5
468.049	146.5
468.268	159.5
468.488	147.5
468.707	162.5
468.927	153.5
469.146	146.5
469.365	164.5
469.585	177.5
469.804	184.5
470.023	167.5
470.243	155.5
470.462	170.5
470.681	156.5
470.901	157.5
471.12	171.5
471.339	194.5
471.558	161.5
471.777	156.5
471.997	144.5
472.216	154.5
472.435	137.5
472.654	153.5
472.873	158.5
473.092	161.5
473.311	142.5
473.53	136.5
473.749	158.5
473.968	165.5
474.187	145.5
474.406	166.5
474.625	159.5
474.844	161.5
475.063	152.5
475.282	157.5
475.501	143.5
475.72	169.5
475.939	168.5
476.158	144.5
476.377	145.5
476.596	148.5
476.814	150.5
477.033	149.5
477.252	158.5
477.471	165.5
477.69	171.5
477.908	157.5
478.127	178.5
478.346	174.5
478.564	182.5
478.783	166.5
479.002	185.5
479.22	175.5
479.439	180.5
479.658	152.5
479.876	153.5
480.095	155.5
480.313	172.5
480.532	178.5
480.751	171.5
480.969	153.5
481.188	158.5
481.406	180.5
481.624	154.5
481.843	138.5
482.061	138.5
482.28	176.5
482.498	157.5
482.717	156.5
482.935	157.5
483.153	169.5
483.372	176.5
483.59	167.5
483.808	145.5
484.027	185.5
484.245	172.5
484.463	166.5
484.681	188.5
484.9	142.5
485.118	164.5
485.336	144.5
485.554	162.5
485.772	171.5
485.99	158.5
486.209	154.5
486.427	150.5
486.645	160.5
486.863	181.5
487.081	160.5
487.299	178.5
487.517	186.5
487.735	175.5
487.953	196.5
488.171	204.5
488.389	194.5
488.607	180.5
488.825	156.5
489.043	158.5
489.261	164.5
489.479	189.5
489.696	190.5
489.914	168.5
490.132	155.5
490.35	193.5
490.568	182.5
490.786	185.5
491.003	173.5
491.221	190.5
491.439	211.5
491.657	196.5
491.874	208.5
492.092	202.5
492.31	212.5
492.527	214.5
492.745	204.5
492.963	212.5
493.18	191.5
493.398	193.5
493.615	186.5
493.833	193.5
494.05	209.5
494.268	205.5
494.485	171.5
494.703	205.5
494.92	203.5
495.138	207.5
495.355	204.5
495.573	211.5
495.79	205.5
496.008	206.5
496.225	200.5
496.442	192.5
496.66	205.5
496.877	185.5
497.094	195.5
497.312	192.5
497.529	202.5
497.746	184.5
497.963	185.5
498.181	192.5
498.398	179.5
498.615	173.5
498.832	174.5
499.049	183.5
499.267	187.5
499.484	184.5
499.701	191.5
499.918	212.5
500.135	211.5
500.352	214.5
500.569	224.5
500.786	292.5
501.003	238.5
501.22	216.5
501.437	213.5
501.654	199.5
501.871	172.5
502.088	184.5
502.305	220.5
502.522	185.5
502.739	194.5
502.956	175.5
503.172	180.5
503.389	176.5
503.606	202.5
503.823	184.5
504.04	197.5
504.256	192.5
504.473	196.5
504.69	184.5
504.907	213.5
505.123	182.5
505.34	172.5
505.557	189.5
505.773	180.5
505.99	172.5
506.207	179.5
506.423	177.5
506.64	175.5
506.856	184.5
507.073	174.5
507.289	170.5
507.506	191.5
507.722	169.5
507.939	171.5
508.155	183.5
508.372	172.5
508.588	164.5
508.805	150.5
509.021	175.5
509.238	159.5
509.454	161.5
509.67	169.5
509.887	152.5
510.103	148.5
510.319	151.5
510.536	186.5
510.752	150.5
510.968	155.5
511.184	136.5
511.401	173.5
511.617	150.5
511.833	162.5
512.049	166.5
512.265	159.5
512.481	155.5
512.698	148.5
512.914	149.5
513.13	160.5
513.346	154.5
513.562	164.5
513.778	157.5
513.994	144.5
514.21	170.5
514.426	166.5
514.642	153.5
514.858	156.5
515.074	154.5
515.29	175.5
515.506	159.5
515.721	146.5
515.937	161.5
516.153	159.5
516.369	141.5
516.585	146.5
516.801	145.5
517.016	164.5
517.232	166.5
517.448	166.5
517.664	158.5
517.879	156.5
518.095	143.5
518.311	152.5
518.527	154.5
518.742	162.5
518.958	141.5
519.173	144.5
519.389	155.5
519.605	150.5
519.82	164.5
520.036	158.5
520.251	148.5
520.467	159.5
520.682	154.5
520.898	151.5
521.113	168.5
521.329	157.5
521.544	144.5
521.76	166.5
521.975	145.5
522.19	155.5
522.406	145.5
522.621	149.5
522.836	170.5
523.052	159.5
523.267	175.5
523.482	157.5
523.698	147.5
523.913	152.5
524.128	145.5
524.343	157.5
524.559	163.5
524.774	145.5
524.989	170.5
525.204	149.5
525.419	158.5
525.634	152.5
525.849	160.5
526.064	129.5
526.28	150.5
526.495	151.5
526.71	140.5
526.925	149.5
527.14	144.5
527.355	142.5
527.57	146.5
527.785	153.5
527.999	154.5
528.214	152.5
528.429	150.5
528.644	133.5
528.859	153.5
529.074	156.5
529.289	175.5
529.503	149.5
529.718	158.5
529.933	141.5
530.148	148.5
530.363	164.5
530.577	151.5
530.792	141.5
531.007	151.5
531.221	148.5
531.436	136.5
531.651	151.5
531.865	153.5
532.08	142.5
532.295	136.5
532.509	134.5
532.724	148.5
532.938	152.5
533.153	159.5
533.367	157.5
533.582	160.5
533.796	137.5
534.011	149.5
534.225	147.5
534.44	146.5
534.654	145.5
534.868	154.5
535.083	154.5
535.297	166.5
535.511	172.5
535.726	145.5
535.94	146.5
536.154	134.5
536.369	143.5
536.583	136.5
536.797	161.5
537.011	165.5
537.225	165.5
537.44	193.5
537.654	191.5
537.868	168.5
538.082	172.5
538.296	168.5
538.51	173.5
538.724	177.5
538.938	155.5
539.153	163.5
539.367	172.5
539.581	163.5
539.795	154.5
540.009	173.5
540.222	166.5
540.436	148.5
540.65	146.5
540.864	146.5
541.078	152.5
541.292	148.5
541.506	164.5
541.72	156.5
541.934	150.5
542.147	141.5
542.361	136.5
542.575	145.5
542.789	148.5
543.002	151.5
543.216	151.5
543.43	146.5
543.644	154.5
543.857	156.5
544.071	138.5
544.285	158.5
544.498	163.5
544.712	144.5
544.925	145.5
545.139	141.5
545.352	146.5
545.566	152.5
545.779	150.5
545.993	150.5
546.206	155.5
546.42	141.5
546.633	142.5
546.847	164.5
547.06	147.5
547.274	149.5
547.487	148.5
547.7	140.5
547.914	157.5
548.127	140.5
548.34	145.5
548.554	131.5
548.767	148.5
548.98	148.5
549.193	159.5
549.407	151.5
549.62	127.5
549.833	157.5
550.046	152.5
550.259	155.5
550.473	130.5
550.686	162.5
550.899	158.5
551.112	154.5
551.325	137.5
551.538	133.5
551.751	129.5
551.964	131.5
552.177	157.5
552.39	131.5
552.603	153.5
552.816	149.5
553.029	142.5
553.242	149.5
553.455	139.5
553.667	177.5
553.88	143.5
554.093	153.5
554.306	155.5
554.519	168.5
554.732	159.5
554.944	171.5
555.157	154.5
555.37	145.5
555.583	149.5
555.795	159.5
556.008	155.5
556.221	137.5
556.433	148.5
556.646	153.5
556.859	146.5
557.071	149.5
557.284	162.5
557.496	151.5
557.709	141.5
557.921	164.5
558.134	164.5
558.346	159.5
558.559	152.5
558.771	154.5
558.984	153.5
559.196	164.5
559.409	149.5
559.621	161.5
559.833	168.5
560.046	172.5
560.258	174.5
560.47	201.5
560.683	229.5
560.895	240.5
561.107	275.5
561.32	220.5
561.532	193.5
561.744	186.5
561.956	173.5
562.168	166.5
562.381	164.5
562.593	150.5
562.805	148.5
563.017	155.5
563.229	153.5
563.441	166.5
563.653	133.5
563.865	151.5
564.077	141.5
564.289	134.5
564.501	148.5
564.713	153.5
564.925	127.5
565.137	153.5
565.349	140.5
565.561	137.5
565.773	152.5
565.985	137.5
566.197	137.5
566.408	136.5
566.62	140.5
566.832	131.5
567.044	143.5
567.255	147.5
567.467	140.5
567.679	136.5
567.891	142.5
568.102	137.5
568.314	128.5
568.526	122.5
568.737	144.5
568.949	140.5
569.161	138.5
569.372	118.5
569.584	131.5
569.795	139.5
570.007	124.5
570.218	121.5
570.43	117.5
570.641	116.5
570.853	114.5
571.064	142.5
571.276	135.5
571.487	128.5
571.698	118.5
571.91	122.5
572.121	130.5
572.333	109.5
572.544	120.5
572.755	113.5
572.966	119.5
573.178	119.5
573.389	143.5
573.6	116.5
573.811	120.5
574.023	125.5
574.234	110.5
574.445	120.5
574.656	134.5
574.867	137.5
575.078	127.5
575.289	130.5
575.501	123.5
575.712	126.5
575.923	102.5
576.134	104.5
576.345	121.5
576.556	127.5
576.767	144.5
576.978	120.5
577.188	98.5
577.399	117.5
577.61	119.5
577.821	122.5
578.032	107.5
578.243	109.5
578.454	109.5
578.665	126.5
578.875	119.5
579.086	105.5
579.297	110.5
579.508	130.5
579.718	119.5
579.929	120.5
580.14	121.5
580.35	111.5
580.561	121.5
580.772	128.5
580.982	107.5
581.193	106.5
581.403	114.5
581.614	113.5
581.825	115.5
582.035	116.5
582.246	127.5
582.456	114.5
582.667	119.5
582.877	108.5
583.087	96.5
583.298	113.5
583.508	113.5
583.719	124.5
583.929	130.5
584.139	102.5
584.35	105.5
584.56	116.5
584.77	113.5
584.981	110.5
585.191	108.5
585.401	101.5
585.611	104.5
585.821	115.5
586.032	112.5
586.242	122.5
586.452	110.5
586.662	120.5
586.872	97.5
587.082	108.5
587.292	115.5
587.502	104.5
587.713	115.5
587.923	105.5
588.133	108.5
588.343	119.5
588.553	106.5
588.762	123.5
588.972	124.5
589.182	112.5
589.392	126.5
589.602	122.5
589.812	121.5
590.022	128.5
590.232	100.5
590.441	109.5
590.651	89.5
590.861	110.5
591.071	113.5
591.281	122.5
591.49	100.5
591.7	121.5
591.91	115.5
592.119	121.5
592.329	120.5
592.539	125.5
592.748	108.5
592.958	112.5
593.167	101.5
593.377	122.5
593.587	137.5
593.796	111.5
594.006	112.5
594.215	101.5
594.424	104.5
594.634	111.5
594.843	110.5
595.053	120.5
595.262	113.5
595.472	117.5
595.681	127.5
595.89	109.5
596.1	108.5
596.309	127.5
596.518	111.5
596.727	116.5
596.937	104.5
597.146	90.5
597.355	133.5
597.564	101.5
597.774	101.5
597.983	108.5
598.192	108.5
598.401	106.5
598.61	94.5
598.819	106.5
599.028	108.5
599.237	105.5
599.446	114.5
599.655	113.5
599.864	111.5
600.073	97.5
600.282	116.5
600.491	116.5
600.7	112.5
600.909	118.5
601.118	117.5
601.327	98.5
601.536	113.5
601.745	113.5
601.953	104.5
602.162	113.5
602.371	102.5
602.58	111.5
602.789	116.5
602.997	107.5
603.206	117.5
603.415	108.5
603.623	116.5
603.832	97.5
604.041	122.5
604.249	109.5
604.458	109.5
604.666	101.5
604.875	112.5
605.084	98.5
605.292	108.5
605.501	112.5
605.709	117.5
605.918	124.5
606.126	101.5
606.334	106.5
606.543	113.5
606.751	127.5
606.96	104.5
607.168	106.5
607.376	111.5
607.585	124.5
607.793	106.5
608.001	103.5
608.21	102.5
608.418	110.5
608.626	118.5
608.834	107.5
609.043	112.5
609.251	102.5
609.459	106.5
609.667	123.5
609.875	89.5
610.083	84.5
610.291	97.5
610.499	109.5
610.707	93.5
610.916	112.5
611.124	122.5
611.332	97.5
611.54	95.5
611.748	102.5
611.955	118.5
612.163	114.5
612.371	111.5
612.579	98.5
612.787	114.5
612.995	123.5
613.203	120.5
613.411	104.5
613.618	88.5
613.826	99.5
614.034	114.5
614.242	96.5
614.449	104.5
614.657	101.5
614.865	108.5
615.072	113.5
615.28	102.5
615.488	112.5
615.695	113.5
615.903	107.5
616.111	114.5
616.318	123.5
616.526	95.5
616.733	105.5
616.941	119.5
617.148	100.5
617.356	92.5
617.563	102.5
617.771	108.5
617.978	99.5
618.185	110.5
618.393	95.5
618.6	109.5
618.807	95.5
619.015	80.5
619.222	96.5
619.429	100.5
619.637	113.5
619.844	104.5
620.051	92.5
620.258	105.5
620.466	102.5
620.673	94.5
620.88	86.5
621.087	107.5
621.294	106.5
621.501	81.5
621.708	108.5
621.915	106.5
622.122	111.5
622.329	104.5
622.536	100.5
622.743	106.5
622.95	112.5
623.157	92.5
623.364	104.5
623.571	103.5
623.778	102.5
623.985	113.5
624.192	101.5
624.399	108.5
624.606	112.5
624.812	101.5
625.019	112.5
625.226	113.5
625.433	114.5
625.639	104.5
625.846	106.5
626.053	93.5
626.259	100.5
626.466	98.5
626.673	102.5
626.879	107.5
627.086	105.5
627.293	101.5
627.499	103.5
627.706	96.5
627.912	83.5
628.119	97.5
628.325	103.5
628.532	96.5
628.738	95.5
628.945	111.5
629.151	93.5
629.357	96.5
629.564	91.5
629.77	99.5
629.976	88.5
630.183	78.5
630.389	90.5
630.595	96.5
630.802	78.5
631.008	102.5
631.214	94.5
631.42	108.5
631.627	114.5
631.833	93.5
632.039	92.5
632.245	100.5
632.451	96.5
632.657	106.5
632.863	102.5
633.069	101.5
633.275	113.5
633.481	107.5
633.688	100.5
633.893	111.5
634.099	102.5
634.305	89.5
634.511	88.5
634.717	111.5
634.923	102.5
635.129	83.5
635.335	93.5
635.541	105.5
635.747	94.5
635.952	87.5
636.158	105.5
636.364	98.5
636.57	100.5
636.775	109.5
636.981	106.5
637.187	96.5
637.392	90.5
637.598	92.5
637.804	90.5
638.009	106.5
638.215	103.5
638.421	81.5
638.626	95.5
638.832	104.5
639.037	86.5
639.243	90.5
639.448	92.5
639.654	96.5
639.859	107.5
640.065	102.5
640.27	126.5
640.475	105.5
640.681	98.5
640.886	93.5
641.091	86.5
641.297	103.5
641.502	88.5
641.707	110.5
641.913	89.5
642.118	92.5
642.323	104.5
642.528	116.5
642.733	113.5
642.939	117.5
643.144	104.5
643.349	104.5
643.554	95.5
643.759	109.5
643.964	92.5
644.169	88.5
644.374	92.5
644.579	96.5
644.784	98.5
644.989	96.5
645.194	94.5
645.399	95.5
645.604	96.5
645.809	106.5
646.014	94.5
646.219	97.5
646.423	88.5
646.628	97.5
646.833	92.5
647.038	118.5
647.243	100.5
647.447	79.5
647.652	113.5
647.857	88.5
648.062	92.5
648.266	102.5
648.471	85.5
648.676	108.5
648.88	91.5
649.085	97.5
649.289	87.5
649.494	88.5
649.698	104.5
649.903	94.5
650.107	109.5
650.312	122.5
650.516	101.5
650.721	102.5
650.925	102.5
651.13	97.5
651.334	87.5
651.539	108.5
651.743	99.5
651.947	93.5
652.152	94.5
652.356	95.5
652.56	104.5
652.764	90.5
652.969	89.5
653.173	73.5
653.377	96.5
653.581	77.5
653.785	95.5
653.99	88.5
654.194	80.5
654.398	105.5
654.602	93.5
654.806	75.5
655.01	88.5
655.214	85.5
655.418	88.5
655.622	78.5
655.826	86.5
656.03	82.5
656.234	96.5
656.438	75.5
656.642	84.5
656.846	82.5
657.049	78.5
657.253	95.5
657.457	87.5
657.661	92.5
657.865	90.5
658.068	96.5
658.272	83.5
658.476	79.5
658.68	85.5
658.883	92.5
659.087	73.5
659.291	89.5
659.494	98.5
659.698	72.5
659.901	99.5
660.105	84.5
660.309	84.5
660.512	88.5
660.716	90.5
660.919	82.5
661.123	97.5
661.326	92.5
661.53	91.5
661.733	83.5
661.936	102.5
662.14	100.5
662.343	84.5
662.546	90.5
662.75	95.5
662.953	92.5
663.156	125.5
663.36	88.5
663.563	84.5
663.766	85.5
663.969	91.5
664.173	75.5
664.376	92.5
664.579	80.5
664.782	91.5
664.985	90.5
665.188	77.5
665.391	80.5
665.594	92.5
665.797	90.5
666	89.5
666.203	84.5
666.406	77.5
666.609	85.5
666.812	93.5
667.015	75.5
667.218	110.5
667.421	83.5
667.624	88.5
667.827	93.5
668.03	80.5
668.232	66.5
668.435	87.5
668.638	87.5
668.841	95.5
669.043	104.5
669.246	93.5
669.449	94.5
669.651	81.5
669.854	83.5
670.057	83.5
670.259	69.5
670.462	95.5
670.665	81.5
670.867	86.5
671.07	92.5
671.272	96.5
671.475	100.5
671.677	106.5
671.88	84.5
672.082	76.5
672.284	86.5
672.487	92.5
672.689	72.5
672.892	88.5
