Data from TenMicroDelayPb_HRD10591_00005.txt Node
Date: Mon Nov 24 14:56:57 EST 2025
User: Yrep
Spectrometer: HR+D1059
Trigger mode: 5
Integration Time (sec): 3.000000E-2
Scans to average: 1
Electric dark correction enabled: true
Nonlinearity correction enabled: false
Boxcar width: 0
XAxis mode: Wavelengths
Number of Pixels in Spectrum: 2048
>>>>>Begin Spectral Data<<<<<
223.165	-34.56
223.4	-34.56
223.635	-34.56
223.869	-24.56
224.104	-45.56
224.338	-17.56
224.573	-8.56
224.808	-9.56
225.042	0.44
225.277	-9.56
225.511	-3.56
225.746	14.44
225.98	1.44
226.215	30.44
226.449	26.44
226.683	16.44
226.918	22.44
227.152	41.44
227.387	31.44
227.621	58.44
227.856	54.44
228.09	47.44
228.324	36.44
228.559	78.44
228.793	58.44
229.027	58.44
229.262	62.44
229.496	69.44
229.73	78.44
229.964	85.44
230.199	81.44
230.433	86.44
230.667	88.44
230.901	83.44
231.136	82.44
231.37	79.44
231.604	72.44
231.838	99.44
232.072	76.44
232.306	89.44
232.541	81.44
232.775	103.44
233.009	90.44
233.243	93.44
233.477	97.44
233.711	94.44
233.945	86.44
234.179	89.44
234.413	89.44
234.647	90.44
234.881	86.44
235.115	83.44
235.349	89.44
235.583	96.44
235.817	88.44
236.051	91.44
236.285	96.44
236.519	89.44
236.753	90.44
236.987	84.44
237.221	87.44
237.455	94.44
237.689	80.44
237.922	88.44
238.156	76.44
238.39	91.44
238.624	75.44
238.858	90.44
239.091	88.44
239.325	94.44
239.559	99.44
239.793	99.44
240.027	93.44
240.26	98.44
240.494	87.44
240.728	86.44
240.961	78.44
241.195	89.44
241.429	99.44
241.662	79.44
241.896	92.44
242.13	72.44
242.363	67.44
242.597	80.44
242.83	86.44
243.064	92.44
243.298	95.44
243.531	83.44
243.765	94.44
243.998	95.44
244.232	91.44
244.465	90.44
244.699	82.44
244.932	98.44
245.166	88.44
245.399	94.44
245.633	89.44
245.866	82.44
246.099	92.44
246.333	93.44
246.566	92.44
246.8	87.44
247.033	87.44
247.266	84.44
247.5	96.44
247.733	96.44
247.966	95.44
248.2	117.44
248.433	90.44
248.666	83.44
248.899	104.44
249.133	107.44
249.366	92.44
249.599	90.44
249.832	92.44
250.066	112.44
250.299	93.44
250.532	95.44
250.765	86.44
250.998	101.44
251.231	89.44
251.465	87.44
251.698	90.44
251.931	98.44
252.164	98.44
252.397	96.44
252.63	113.44
252.863	86.44
253.096	101.44
253.329	111.44
253.562	101.44
253.795	111.44
254.028	110.44
254.261	110.44
254.494	116.44
254.727	119.44
254.96	94.44
255.193	102.44
255.426	84.44
255.659	97.44
255.892	119.44
256.124	93.44
256.357	94.44
256.59	94.44
256.823	108.44
257.056	102.44
257.289	102.44
257.521	124.44
257.754	120.44
257.987	119.44
258.22	129.44
258.452	104.44
258.685	114.44
258.918	90.44
259.151	110.44
259.383	98.44
259.616	109.44
259.849	98.44
260.081	123.44
260.314	123.44
260.547	124.44
260.779	112.44
261.012	127.44
261.244	142.44
261.477	166.44
261.71	150.44
261.942	139.44
262.175	122.44
262.407	123.44
262.64	107.44
262.872	114.44
263.105	119.44
263.337	117.44
263.57	100.44
263.802	115.44
264.035	105.44
264.267	119.44
264.499	109.44
264.732	119.44
264.964	122.44
265.197	135.44
265.429	125.44
265.661	121.44
265.894	112.44
266.126	126.44
266.358	129.44
266.591	136.44
266.823	132.44
267.055	91.44
267.287	109.44
267.52	110.44
267.752	115.44
267.984	99.44
268.216	84.44
268.448	131.44
268.681	110.44
268.913	110.44
269.145	110.44
269.377	115.44
269.609	107.44
269.841	103.44
270.073	107.44
270.306	106.44
270.538	111.44
270.77	112.44
271.002	107.44
271.234	110.44
271.466	119.44
271.698	99.44
271.93	100.44
272.162	110.44
272.394	131.44
272.626	119.44
272.858	107.44
273.09	108.44
273.322	98.44
273.553	114.44
273.785	120.44
274.017	116.44
274.249	108.44
274.481	118.44
274.713	102.44
274.945	115.44
275.176	115.44
275.408	119.44
275.64	113.44
275.872	119.44
276.104	121.44
276.335	107.44
276.567	104.44
276.799	110.44
277.031	95.44
277.262	112.44
277.494	125.44
277.726	120.44
277.957	118.44
278.189	113.44
278.421	130.44
278.652	123.44
278.884	121.44
279.115	135.44
279.347	138.44
279.579	150.44
279.81	149.44
280.042	188.44
280.273	188.44
280.505	194.44
280.736	154.44
280.968	134.44
281.199	130.44
281.431	126.44
281.662	123.44
281.894	148.44
282.125	138.44
282.356	146.44
282.588	163.44
282.819	140.44
283.051	161.44
283.282	175.44
283.513	186.44
283.745	168.44
283.976	134.44
284.207	130.44
284.439	137.44
284.67	129.44
284.901	112.44
285.132	121.44
285.364	131.44
285.595	126.44
285.826	112.44
286.057	132.44
286.288	113.44
286.52	134.44
286.751	134.44
286.982	133.44
287.213	154.44
287.444	162.44
287.675	142.44
287.906	133.44
288.138	116.44
288.369	131.44
288.6	123.44
288.831	132.44
289.062	123.44
289.293	110.44
289.524	112.44
289.755	115.44
289.986	111.44
290.217	127.44
290.448	99.44
290.679	122.44
290.91	134.44
291.141	118.44
291.371	135.44
291.602	106.44
291.833	111.44
292.064	129.44
292.295	123.44
292.526	113.44
292.757	123.44
292.987	125.44
293.218	117.44
293.449	126.44
293.68	118.44
293.91	124.44
294.141	136.44
294.372	114.44
294.603	131.44
294.833	112.44
295.064	113.44
295.295	116.44
295.525	125.44
295.756	121.44
295.987	119.44
296.217	114.44
296.448	122.44
296.679	123.44
296.909	124.44
297.14	134.44
297.37	122.44
297.601	123.44
297.831	120.44
298.062	123.44
298.292	148.44
298.523	129.44
298.753	134.44
298.984	126.44
299.214	113.44
299.445	106.44
299.675	122.44
299.905	114.44
300.136	111.44
300.366	106.44
300.597	107.44
300.827	127.44
301.057	129.44
301.288	134.44
301.518	125.44
301.748	110.44
301.979	186.44
302.209	127.44
302.439	136.44
302.669	130.44
302.9	133.44
303.13	118.44
303.36	125.44
303.59	116.44
303.82	128.44
304.051	120.44
304.281	132.44
304.511	136.44
304.741	134.44
304.971	125.44
305.201	125.44
305.431	110.44
305.661	124.44
305.891	114.44
306.121	122.44
306.352	124.44
306.582	129.44
306.812	132.44
307.042	120.44
307.272	135.44
307.502	125.44
307.731	121.44
307.961	114.44
308.191	126.44
308.421	131.44
308.651	122.44
308.881	127.44
309.111	120.44
309.341	116.44
309.571	106.44
309.8	109.44
310.03	121.44
310.26	124.44
310.49	102.44
310.72	110.44
310.949	122.44
311.179	116.44
311.409	126.44
311.639	109.44
311.868	122.44
312.098	134.44
312.328	120.44
312.557	127.44
312.787	108.44
313.017	148.44
313.246	128.44
313.476	119.44
313.706	109.44
313.935	118.44
314.165	131.44
314.394	141.44
314.624	139.44
314.853	136.44
315.083	137.44
315.312	139.44
315.542	130.44
315.771	148.44
316.001	149.44
316.23	135.44
316.46	123.44
316.689	128.44
316.919	122.44
317.148	152.44
317.377	158.44
317.607	147.44
317.836	136.44
318.065	133.44
318.295	127.44
318.524	116.44
318.753	118.44
318.983	124.44
319.212	139.44
319.441	124.44
319.67	130.44
319.9	138.44
320.129	117.44
320.358	133.44
320.587	127.44
320.816	113.44
321.046	109.44
321.275	127.44
321.504	120.44
321.733	139.44
321.962	132.44
322.191	133.44
322.42	137.44
322.649	140.44
322.878	146.44
323.108	122.44
323.337	120.44
323.566	136.44
323.795	129.44
324.024	130.44
324.253	115.44
324.482	128.44
324.71	123.44
324.939	132.44
325.168	115.44
325.397	127.44
325.626	143.44
325.855	141.44
326.084	138.44
326.313	143.44
326.542	124.44
326.77	134.44
326.999	134.44
327.228	134.44
327.457	124.44
327.686	137.44
327.914	132.44
328.143	143.44
328.372	139.44
328.6	131.44
328.829	134.44
329.058	131.44
329.287	136.44
329.515	122.44
329.744	120.44
329.972	127.44
330.201	115.44
330.43	124.44
330.658	126.44
330.887	127.44
331.115	129.44
331.344	124.44
331.572	137.44
331.801	129.44
332.03	128.44
332.258	141.44
332.486	105.44
332.715	124.44
332.943	131.44
333.172	119.44
333.4	115.44
333.629	126.44
333.857	127.44
334.085	132.44
334.314	136.44
334.542	124.44
334.771	115.44
334.999	127.44
335.227	138.44
335.455	129.44
335.684	142.44
335.912	136.44
336.14	147.44
336.369	139.44
336.597	136.44
336.825	125.44
337.053	126.44
337.281	142.44
337.51	123.44
337.738	136.44
337.966	132.44
338.194	126.44
338.422	126.44
338.65	126.44
338.878	142.44
339.106	137.44
339.334	130.44
339.562	124.44
339.79	124.44
340.018	116.44
340.246	129.44
340.474	138.44
340.702	130.44
340.93	151.44
341.158	129.44
341.386	129.44
341.614	128.44
341.842	134.44
342.07	134.44
342.298	127.44
342.526	122.44
342.754	135.44
342.981	132.44
343.209	125.44
343.437	177.44
343.665	134.44
343.893	138.44
344.12	141.44
344.348	150.44
344.576	120.44
344.804	143.44
345.031	131.44
345.259	139.44
345.487	126.44
345.714	123.44
345.942	143.44
346.17	113.44
346.397	119.44
346.625	133.44
346.853	148.44
347.08	124.44
347.308	128.44
347.535	112.44
347.763	123.44
347.99	134.44
348.218	122.44
348.445	133.44
348.673	131.44
348.9	129.44
349.128	135.44
349.355	116.44
349.583	108.44
349.81	132.44
350.037	127.44
350.265	138.44
350.492	124.44
350.72	119.44
350.947	131.44
351.174	138.44
351.402	129.44
351.629	120.44
351.856	112.44
352.083	126.44
352.311	122.44
352.538	112.44
352.765	122.44
352.992	154.44
353.22	139.44
353.447	126.44
353.674	136.44
353.901	137.44
354.128	137.44
354.355	133.44
354.583	127.44
354.81	145.44
355.037	123.44
355.264	136.44
355.491	140.44
355.718	131.44
355.945	128.44
356.172	131.44
356.399	136.44
356.626	155.44
356.853	168.44
357.08	210.44
357.307	254.44
357.534	246.44
357.761	206.44
357.988	157.44
358.215	169.44
358.441	161.44
358.668	157.44
358.895	160.44
359.122	152.44
359.349	148.44
359.576	129.44
359.802	144.44
360.029	149.44
360.256	132.44
360.483	122.44
360.709	129.44
360.936	167.44
361.163	147.44
361.39	127.44
361.616	127.44
361.843	135.44
362.07	139.44
362.296	138.44
362.523	134.44
362.749	147.44
362.976	143.44
363.203	153.44
363.429	160.44
363.656	208.44
363.882	257.44
364.109	292.44
364.335	236.44
364.562	182.44
364.788	176.44
365.015	153.44
365.241	161.44
365.468	158.44
365.694	136.44
365.92	132.44
366.147	137.44
366.373	137.44
366.599	150.44
366.826	162.44
367.052	175.44
367.278	201.44
367.505	174.44
367.731	222.44
367.957	227.44
368.184	282.44
368.41	343.44
368.636	310.44
368.862	234.44
369.089	204.44
369.315	168.44
369.541	172.44
369.767	159.44
369.993	154.44
370.219	153.44
370.445	142.44
370.672	137.44
370.898	140.44
371.124	156.44
371.35	137.44
371.576	129.44
371.802	128.44
372.028	132.44
372.254	141.44
372.48	132.44
372.706	151.44
372.932	131.44
373.158	156.44
373.384	162.44
373.61	187.44
373.835	234.44
374.061	287.44
374.287	230.44
374.513	202.44
374.739	174.44
374.965	155.44
375.191	161.44
375.416	148.44
375.642	157.44
375.868	154.44
376.094	138.44
376.319	140.44
376.545	160.44
376.771	131.44
376.997	140.44
377.222	131.44
377.448	146.44
377.674	132.44
377.899	138.44
378.125	144.44
378.35	151.44
378.576	129.44
378.802	132.44
379.027	136.44
379.253	137.44
379.478	134.44
379.704	132.44
379.929	133.44
380.155	140.44
380.38	141.44
380.606	134.44
380.831	138.44
381.057	159.44
381.282	134.44
381.507	136.44
381.733	142.44
381.958	146.44
382.184	126.44
382.409	130.44
382.634	146.44
382.86	149.44
383.085	134.44
383.31	131.44
383.535	143.44
383.761	137.44
383.986	152.44
384.211	132.44
384.436	135.44
384.662	130.44
384.887	124.44
385.112	119.44
385.337	123.44
385.562	131.44
385.787	141.44
386.013	138.44
386.238	136.44
386.463	143.44
386.688	185.44
386.913	144.44
387.138	124.44
387.363	138.44
387.588	143.44
387.813	148.44
388.038	143.44
388.263	129.44
388.488	121.44
388.713	140.44
388.938	141.44
389.163	138.44
389.387	127.44
389.612	138.44
389.837	139.44
390.062	147.44
390.287	140.44
390.512	138.44
390.736	127.44
390.961	141.44
391.186	129.44
391.411	142.44
391.636	146.44
391.86	136.44
392.085	145.44
392.31	138.44
392.534	125.44
392.759	145.44
392.984	143.44
393.208	146.44
393.433	159.44
393.658	157.44
393.882	159.44
394.107	149.44
394.331	145.44
394.556	148.44
394.78	161.44
395.005	143.44
395.229	143.44
395.454	159.44
395.678	133.44
395.903	146.44
396.127	131.44
396.352	151.44
396.576	140.44
396.801	157.44
397.025	142.44
397.249	163.44
397.474	172.44
397.698	163.44
397.922	150.44
398.147	146.44
398.371	139.44
398.595	145.44
398.82	151.44
399.044	134.44
399.268	160.44
399.492	157.44
399.717	170.44
399.941	154.44
400.165	168.44
400.389	161.44
400.613	146.44
400.837	149.44
401.062	159.44
401.286	152.44
401.51	155.44
401.734	167.44
401.958	194.44
402.182	168.44
402.406	160.44
402.63	166.44
402.854	165.44
403.078	156.44
403.302	161.44
403.526	163.44
403.75	157.44
403.974	151.44
404.198	184.44
404.422	175.44
404.645	182.44
404.869	184.44
405.093	201.44
405.317	255.44
405.541	354.44
405.765	456.44
405.988	499.44
406.212	403.44
406.436	291.44
406.66	253.44
406.883	217.44
407.107	195.44
407.331	213.44
407.555	202.44
407.778	179.44
408.002	171.44
408.226	187.44
408.449	185.44
408.673	161.44
408.896	163.44
409.12	174.44
409.344	184.44
409.567	154.44
409.791	176.44
410.014	190.44
410.238	156.44
410.461	166.44
410.685	166.44
410.908	159.44
411.132	174.44
411.355	166.44
411.578	173.44
411.802	151.44
412.025	154.44
412.249	147.44
412.472	143.44
412.695	152.44
412.919	163.44
413.142	157.44
413.365	153.44
413.589	161.44
413.812	144.44
414.035	167.44
414.258	160.44
414.482	155.44
414.705	148.44
414.928	150.44
415.151	163.44
415.374	151.44
415.597	167.44
415.821	164.44
416.044	160.44
416.267	161.44
416.49	143.44
416.713	157.44
416.936	172.44
417.159	166.44
417.382	142.44
417.605	155.44
417.828	166.44
418.051	142.44
418.274	151.44
418.497	158.44
418.72	149.44
418.943	166.44
419.166	159.44
419.389	162.44
419.611	161.44
419.834	158.44
420.057	161.44
420.28	173.44
420.503	159.44
420.726	151.44
420.948	157.44
421.171	172.44
421.394	154.44
421.617	165.44
421.839	160.44
422.062	144.44
422.285	152.44
422.507	166.44
422.73	154.44
422.953	155.44
423.175	177.44
423.398	184.44
423.621	197.44
423.843	187.44
424.066	185.44
424.288	219.44
424.511	222.44
424.733	250.44
424.956	224.44
425.178	225.44
425.401	207.44
425.623	207.44
425.846	177.44
426.068	188.44
426.291	178.44
426.513	182.44
426.735	184.44
426.958	188.44
427.18	192.44
427.402	170.44
427.625	172.44
427.847	165.44
428.069	173.44
428.292	162.44
428.514	160.44
428.736	157.44
428.958	170.44
429.181	170.44
429.403	170.44
429.625	167.44
429.847	152.44
430.069	138.44
430.292	175.44
430.514	151.44
430.736	166.44
430.958	157.44
431.18	151.44
431.402	167.44
431.624	168.44
431.846	158.44
432.068	154.44
432.29	167.44
432.512	171.44
432.734	164.44
432.956	184.44
433.178	192.44
433.4	183.44
433.622	178.44
433.844	174.44
434.066	171.44
434.287	155.44
434.509	166.44
434.731	167.44
434.953	155.44
435.175	170.44
435.397	154.44
435.618	171.44
435.84	165.44
436.062	162.44
436.284	171.44
436.505	203.44
436.727	181.44
436.949	175.44
437.17	185.44
437.392	156.44
437.614	166.44
437.835	173.44
438.057	159.44
438.278	202.44
438.5	190.44
438.721	228.44
438.943	255.44
439.165	227.44
439.386	209.44
439.608	230.44
439.829	225.44
440.05	209.44
440.272	221.44
440.493	207.44
440.715	200.44
440.936	218.44
441.158	228.44
441.379	195.44
441.6	207.44
441.822	183.44
442.043	215.44
442.264	194.44
442.486	199.44
442.707	187.44
442.928	187.44
443.149	183.44
443.371	193.44
443.592	184.44
443.813	180.44
444.034	182.44
444.255	192.44
444.476	193.44
444.698	191.44
444.919	190.44
445.14	582.44
445.361	368.44
445.582	200.44
445.803	182.44
446.024	183.44
446.245	213.44
446.466	176.44
446.687	166.44
446.908	196.44
447.129	187.44
447.35	184.44
447.571	171.44
447.792	205.44
448.013	177.44
448.234	173.44
448.455	187.44
448.675	170.44
448.896	178.44
449.117	180.44
449.338	160.44
449.559	164.44
449.779	162.44
450	175.44
450.221	161.44
450.442	160.44
450.662	145.44
450.883	160.44
451.104	188.44
451.324	163.44
451.545	166.44
451.766	166.44
451.986	171.44
452.207	153.44
452.428	177.44
452.648	168.44
452.869	159.44
453.089	136.44
453.31	142.44
453.53	146.44
453.751	141.44
453.971	140.44
454.192	141.44
454.412	144.44
454.633	148.44
454.853	166.44
455.073	177.44
455.294	162.44
455.514	162.44
455.734	152.44
455.955	166.44
456.175	156.44
456.395	144.44
456.616	154.44
456.836	159.44
457.056	154.44
457.276	148.44
457.497	143.44
457.717	144.44
457.937	144.44
458.157	145.44
458.377	139.44
458.598	150.44
458.818	141.44
459.038	128.44
459.258	149.44
459.478	153.44
459.698	158.44
459.918	144.44
460.138	146.44
460.358	148.44
460.578	163.44
460.798	159.44
461.018	142.44
461.238	167.44
461.458	155.44
461.678	159.44
461.898	164.44
462.118	168.44
462.338	158.44
462.558	173.44
462.777	157.44
462.997	148.44
463.217	160.44
463.437	162.44
463.657	146.44
463.876	166.44
464.096	155.44
464.316	152.44
464.536	156.44
464.755	164.44
464.975	168.44
465.195	157.44
465.414	154.44
465.634	159.44
465.854	140.44
466.073	140.44
466.293	171.44
466.512	151.44
466.732	163.44
466.951	152.44
467.171	163.44
467.391	161.44
467.61	155.44
467.829	171.44
468.049	151.44
468.268	154.44
468.488	163.44
468.707	154.44
468.927	149.44
469.146	147.44
469.365	140.44
469.585	151.44
469.804	181.44
470.023	164.44
470.243	175.44
470.462	166.44
470.681	179.44
470.901	176.44
471.12	158.44
471.339	158.44
471.558	150.44
471.777	182.44
471.997	151.44
472.216	153.44
472.435	150.44
472.654	144.44
472.873	155.44
473.092	157.44
473.311	149.44
473.53	164.44
473.749	153.44
473.968	173.44
474.187	163.44
474.406	156.44
474.625	166.44
474.844	166.44
475.063	164.44
475.282	173.44
475.501	161.44
475.72	183.44
475.939	174.44
476.158	171.44
476.377	160.44
476.596	146.44
476.814	162.44
477.033	151.44
477.252	182.44
477.471	172.44
477.69	153.44
477.908	156.44
478.127	188.44
478.346	175.44
478.564	171.44
478.783	161.44
479.002	175.44
479.22	172.44
479.439	180.44
479.658	163.44
479.876	158.44
480.095	144.44
480.313	171.44
480.532	171.44
480.751	157.44
480.969	163.44
481.188	153.44
481.406	164.44
481.624	153.44
481.843	155.44
482.061	157.44
482.28	161.44
482.498	182.44
482.717	156.44
482.935	162.44
483.153	165.44
483.372	175.44
483.59	193.44
483.808	163.44
484.027	168.44
484.245	168.44
484.463	157.44
484.681	188.44
484.9	170.44
485.118	183.44
485.336	156.44
485.554	171.44
485.772	155.44
485.99	162.44
486.209	161.44
486.427	167.44
486.645	161.44
486.863	175.44
487.081	160.44
487.299	175.44
487.517	176.44
487.735	195.44
487.953	194.44
488.171	187.44
488.389	185.44
488.607	171.44
488.825	182.44
489.043	161.44
489.261	190.44
489.479	186.44
489.696	182.44
489.914	174.44
490.132	177.44
490.35	181.44
490.568	177.44
490.786	179.44
491.003	216.44
491.221	192.44
491.439	205.44
491.657	209.44
491.874	202.44
492.092	212.44
492.31	225.44
492.527	208.44
492.745	194.44
492.963	205.44
493.18	212.44
493.398	189.44
493.615	195.44
493.833	185.44
494.05	209.44
494.268	198.44
494.485	204.44
494.703	202.44
494.92	202.44
495.138	194.44
495.355	211.44
495.573	211.44
495.79	184.44
496.008	206.44
496.225	195.44
496.442	213.44
496.66	218.44
496.877	216.44
497.094	202.44
497.312	207.44
497.529	213.44
497.746	187.44
497.963	185.44
498.181	167.44
498.398	178.44
498.615	168.44
498.832	178.44
499.049	196.44
499.267	195.44
499.484	201.44
499.701	221.44
499.918	209.44
500.135	217.44
500.352	246.44
500.569	237.44
500.786	283.44
501.003	253.44
501.22	216.44
501.437	222.44
501.654	211.44
501.871	206.44
502.088	207.44
502.305	207.44
502.522	193.44
502.739	187.44
502.956	198.44
503.172	200.44
503.389	197.44
503.606	179.44
503.823	214.44
504.04	195.44
504.256	186.44
504.473	179.44
504.69	192.44
504.907	222.44
505.123	200.44
505.34	186.44
505.557	196.44
505.773	198.44
505.99	187.44
506.207	172.44
506.423	198.44
506.64	176.44
506.856	183.44
507.073	178.44
507.289	186.44
507.506	177.44
507.722	177.44
507.939	168.44
508.155	178.44
508.372	172.44
508.588	178.44
508.805	183.44
509.021	187.44
509.238	166.44
509.454	158.44
509.67	168.44
509.887	151.44
510.103	154.44
510.319	159.44
510.536	174.44
510.752	139.44
510.968	149.44
511.184	151.44
511.401	154.44
511.617	182.44
511.833	154.44
512.049	146.44
512.265	147.44
512.481	170.44
512.698	161.44
512.914	158.44
513.13	187.44
513.346	150.44
513.562	156.44
513.778	164.44
513.994	159.44
514.21	163.44
514.426	153.44
514.642	151.44
514.858	142.44
515.074	156.44
515.29	181.44
515.506	164.44
515.721	160.44
515.937	171.44
516.153	183.44
516.369	176.44
516.585	170.44
516.801	170.44
517.016	168.44
517.232	168.44
517.448	177.44
517.664	159.44
517.879	175.44
518.095	146.44
518.311	159.44
518.527	171.44
518.742	154.44
518.958	166.44
519.173	146.44
519.389	162.44
519.605	156.44
519.82	151.44
520.036	162.44
520.251	159.44
520.467	163.44
520.682	157.44
520.898	146.44
521.113	157.44
521.329	166.44
521.544	155.44
521.76	145.44
521.975	158.44
522.19	170.44
522.406	170.44
522.621	179.44
522.836	172.44
523.052	188.44
523.267	164.44
523.482	168.44
523.698	155.44
523.913	164.44
524.128	170.44
524.343	169.44
524.559	166.44
524.774	150.44
524.989	160.44
525.204	171.44
525.419	170.44
525.634	121.44
525.849	141.44
526.064	156.44
526.28	170.44
526.495	140.44
526.71	146.44
526.925	136.44
527.14	136.44
527.355	151.44
527.57	151.44
527.785	146.44
527.999	129.44
528.214	140.44
528.429	151.44
528.644	165.44
528.859	150.44
529.074	165.44
529.289	168.44
529.503	147.44
529.718	153.44
529.933	156.44
530.148	148.44
530.363	177.44
530.577	163.44
530.792	142.44
531.007	138.44
531.221	156.44
531.436	151.44
531.651	144.44
531.865	153.44
532.08	157.44
532.295	153.44
532.509	140.44
532.724	141.44
532.938	159.44
533.153	145.44
533.367	144.44
533.582	156.44
533.796	144.44
534.011	147.44
534.225	147.44
534.44	142.44
534.654	158.44
534.868	160.44
535.083	152.44
535.297	163.44
535.511	170.44
535.726	166.44
535.94	154.44
536.154	162.44
536.369	148.44
536.583	146.44
536.797	191.44
537.011	176.44
537.225	176.44
537.44	195.44
537.654	191.44
537.868	168.44
538.082	183.44
538.296	163.44
538.51	181.44
538.724	174.44
538.938	169.44
539.153	167.44
539.367	166.44
539.581	163.44
539.795	142.44
540.009	159.44
540.222	148.44
540.436	159.44
540.65	139.44
540.864	156.44
541.078	159.44
541.292	154.44
541.506	162.44
541.72	160.44
541.934	164.44
542.147	155.44
542.361	155.44
542.575	140.44
542.789	161.44
543.002	153.44
543.216	145.44
543.43	136.44
543.644	159.44
543.857	169.44
544.071	150.44
544.285	162.44
544.498	143.44
544.712	158.44
544.925	149.44
545.139	142.44
545.352	147.44
545.566	153.44
545.779	156.44
545.993	168.44
546.206	139.44
546.42	152.44
546.633	143.44
546.847	172.44
547.06	159.44
547.274	168.44
547.487	158.44
547.7	153.44
547.914	138.44
548.127	136.44
548.34	149.44
548.554	166.44
548.767	147.44
548.98	169.44
549.193	142.44
549.407	157.44
549.62	173.44
549.833	156.44
550.046	154.44
550.259	161.44
550.473	134.44
550.686	161.44
550.899	156.44
551.112	152.44
551.325	144.44
551.538	126.44
551.751	152.44
551.964	146.44
552.177	154.44
552.39	155.44
552.603	152.44
552.816	151.44
553.029	150.44
553.242	156.44
553.455	140.44
553.667	163.44
553.88	138.44
554.093	162.44
554.306	161.44
554.519	169.44
554.732	167.44
554.944	171.44
555.157	155.44
555.37	152.44
555.583	156.44
555.795	177.44
556.008	144.44
556.221	151.44
556.433	148.44
556.646	169.44
556.859	161.44
557.071	169.44
557.284	144.44
557.496	154.44
557.709	160.44
557.921	155.44
558.134	157.44
558.346	154.44
558.559	160.44
558.771	162.44
558.984	162.44
559.196	158.44
559.409	140.44
559.621	186.44
559.833	189.44
560.046	178.44
560.258	178.44
560.47	216.44
560.683	227.44
560.895	258.44
561.107	299.44
561.32	234.44
561.532	204.44
561.744	199.44
561.956	192.44
562.168	158.44
562.381	184.44
562.593	168.44
562.805	169.44
563.017	161.44
563.229	162.44
563.441	158.44
563.653	156.44
563.865	132.44
564.077	150.44
564.289	136.44
564.501	142.44
564.713	134.44
564.925	143.44
565.137	136.44
565.349	131.44
565.561	140.44
565.773	151.44
565.985	151.44
566.197	143.44
566.408	154.44
566.62	138.44
566.832	155.44
567.044	158.44
567.255	139.44
567.467	139.44
567.679	148.44
567.891	138.44
568.102	142.44
568.314	134.44
568.526	143.44
568.737	144.44
568.949	138.44
569.161	141.44
569.372	118.44
569.584	139.44
569.795	150.44
570.007	134.44
570.218	150.44
570.43	139.44
570.641	131.44
570.853	136.44
571.064	134.44
571.276	132.44
571.487	144.44
571.698	135.44
571.91	127.44
572.121	120.44
572.333	123.44
572.544	107.44
572.755	120.44
572.966	127.44
573.178	118.44
573.389	130.44
573.6	122.44
573.811	132.44
574.023	122.44
574.234	140.44
574.445	138.44
574.656	115.44
574.867	119.44
575.078	121.44
575.289	120.44
575.501	127.44
575.712	112.44
575.923	111.44
576.134	128.44
576.345	130.44
576.556	142.44
576.767	148.44
576.978	118.44
577.188	131.44
577.399	132.44
577.61	106.44
577.821	124.44
578.032	129.44
578.243	124.44
578.454	123.44
578.665	120.44
578.875	121.44
579.086	121.44
579.297	113.44
579.508	126.44
579.718	134.44
579.929	120.44
580.14	118.44
580.35	120.44
580.561	112.44
580.772	116.44
580.982	133.44
581.193	112.44
581.403	130.44
581.614	118.44
581.825	120.44
582.035	98.44
582.246	128.44
582.456	127.44
582.667	122.44
582.877	133.44
583.087	121.44
583.298	107.44
583.508	112.44
583.719	117.44
583.929	139.44
584.139	115.44
584.35	106.44
584.56	128.44
584.77	106.44
584.981	105.44
585.191	104.44
585.401	116.44
585.611	113.44
585.821	116.44
586.032	122.44
586.242	110.44
586.452	119.44
586.662	126.44
586.872	106.44
587.082	110.44
587.292	99.44
587.502	107.44
587.713	121.44
587.923	123.44
588.133	130.44
588.343	119.44
588.553	127.44
588.762	137.44
588.972	130.44
589.182	104.44
589.392	118.44
589.602	92.44
589.812	109.44
590.022	127.44
590.232	112.44
590.441	121.44
590.651	111.44
590.861	106.44
591.071	128.44
591.281	120.44
591.49	117.44
591.7	111.44
591.91	112.44
592.119	101.44
592.329	101.44
592.539	108.44
592.748	131.44
592.958	128.44
593.167	111.44
593.377	117.44
593.587	136.44
593.796	109.44
594.006	108.44
594.215	115.44
594.424	135.44
594.634	111.44
594.843	123.44
595.053	111.44
595.262	123.44
595.472	111.44
595.681	115.44
595.89	120.44
596.1	118.44
596.309	125.44
596.518	119.44
596.727	113.44
596.937	115.44
597.146	106.44
597.355	116.44
597.564	116.44
597.774	98.44
597.983	111.44
598.192	108.44
598.401	88.44
598.61	114.44
598.819	125.44
599.028	116.44
599.237	100.44
599.446	102.44
599.655	113.44
599.864	111.44
600.073	107.44
600.282	114.44
600.491	99.44
600.7	103.44
600.909	120.44
601.118	120.44
601.327	122.44
601.536	110.44
601.745	122.44
601.953	115.44
602.162	106.44
602.371	107.44
602.58	107.44
602.789	122.44
602.997	111.44
603.206	123.44
603.415	104.44
603.623	103.44
603.832	102.44
604.041	124.44
604.249	108.44
604.458	113.44
604.666	110.44
604.875	112.44
605.084	115.44
605.292	96.44
605.501	106.44
605.709	106.44
605.918	115.44
606.126	106.44
606.334	118.44
606.543	122.44
606.751	126.44
606.96	87.44
607.168	94.44
607.376	105.44
607.585	126.44
607.793	107.44
608.001	114.44
608.21	97.44
608.418	108.44
608.626	88.44
608.834	126.44
609.043	101.44
609.251	119.44
609.459	113.44
609.667	115.44
609.875	106.44
610.083	108.44
610.291	113.44
610.499	111.44
610.707	105.44
610.916	106.44
611.124	106.44
611.332	105.44
611.54	94.44
611.748	116.44
611.955	112.44
612.163	103.44
612.371	111.44
612.579	118.44
612.787	104.44
612.995	108.44
613.203	125.44
613.411	100.44
613.618	116.44
613.826	108.44
614.034	113.44
614.242	115.44
614.449	107.44
614.657	89.44
614.865	101.44
615.072	100.44
615.28	100.44
615.488	102.44
615.695	112.44
615.903	113.44
616.111	122.44
616.318	109.44
616.526	102.44
616.733	120.44
616.941	107.44
617.148	107.44
617.356	109.44
617.563	104.44
617.771	120.44
617.978	86.44
618.185	90.44
618.393	109.44
618.6	112.44
618.807	98.44
619.015	104.44
619.222	105.44
619.429	96.44
619.637	113.44
619.844	107.44
620.051	113.44
620.258	100.44
620.466	108.44
620.673	99.44
620.88	92.44
621.087	109.44
621.294	108.44
621.501	108.44
621.708	99.44
621.915	100.44
622.122	99.44
622.329	107.44
622.536	96.44
622.743	92.44
622.95	103.44
623.157	92.44
623.364	96.44
623.571	106.44
623.778	102.44
623.985	115.44
624.192	102.44
624.399	97.44
624.606	122.44
624.812	109.44
625.019	106.44
625.226	107.44
625.433	92.44
625.639	111.44
625.846	98.44
626.053	90.44
626.259	89.44
626.466	116.44
626.673	92.44
626.879	108.44
627.086	108.44
627.293	105.44
627.499	98.44
627.706	95.44
627.912	106.44
628.119	100.44
628.325	118.44
628.532	100.44
628.738	92.44
628.945	102.44
629.151	102.44
629.357	114.44
629.564	98.44
629.77	106.44
629.976	104.44
630.183	96.44
630.389	110.44
630.595	102.44
630.802	95.44
631.008	83.44
631.214	114.44
631.42	107.44
631.627	120.44
631.833	95.44
632.039	93.44
632.245	111.44
632.451	108.44
632.657	99.44
632.863	98.44
633.069	99.44
633.275	99.44
633.481	103.44
633.688	86.44
633.893	102.44
634.099	98.44
634.305	88.44
634.511	91.44
634.717	106.44
634.923	94.44
635.129	88.44
635.335	95.44
635.541	103.44
635.747	111.44
635.952	108.44
636.158	96.44
636.364	99.44
636.57	108.44
636.775	103.44
636.981	91.44
637.187	103.44
637.392	95.44
637.598	88.44
637.804	102.44
638.009	117.44
638.215	104.44
638.421	88.44
638.626	98.44
638.832	105.44
639.037	102.44
639.243	93.44
639.448	98.44
639.654	110.44
639.859	96.44
640.065	92.44
640.27	124.44
640.475	105.44
640.681	87.44
640.886	89.44
641.091	83.44
641.297	92.44
641.502	104.44
641.707	103.44
641.913	106.44
642.118	90.44
642.323	115.44
642.528	112.44
642.733	109.44
642.939	110.44
643.144	91.44
643.349	99.44
643.554	105.44
643.759	98.44
643.964	98.44
644.169	114.44
644.374	96.44
644.579	106.44
644.784	84.44
644.989	94.44
645.194	104.44
645.399	100.44
645.604	82.44
645.809	98.44
646.014	91.44
646.219	109.44
646.423	94.44
646.628	104.44
646.833	108.44
647.038	103.44
647.243	92.44
647.447	104.44
647.652	91.44
647.857	99.44
648.062	99.44
648.266	91.44
648.471	80.44
648.676	95.44
648.88	94.44
649.085	82.44
649.289	102.44
649.494	92.44
649.698	95.44
649.903	90.44
650.107	109.44
650.312	107.44
650.516	92.44
650.721	99.44
650.925	107.44
651.13	89.44
651.334	87.44
651.539	94.44
651.743	88.44
651.947	89.44
652.152	94.44
652.356	108.44
652.56	107.44
652.764	100.44
652.969	91.44
653.173	99.44
653.377	75.44
653.581	86.44
653.785	90.44
653.99	86.44
654.194	87.44
654.398	87.44
654.602	95.44
654.806	91.44
655.01	82.44
655.214	93.44
655.418	75.44
655.622	94.44
655.826	95.44
656.03	98.44
656.234	90.44
656.438	99.44
656.642	89.44
656.846	76.44
657.049	89.44
657.253	90.44
657.457	102.44
657.661	84.44
657.865	88.44
658.068	95.44
658.272	92.44
658.476	94.44
658.68	91.44
658.883	79.44
659.087	92.44
659.291	82.44
659.494	95.44
659.698	78.44
659.901	87.44
660.105	91.44
660.309	89.44
660.512	79.44
660.716	90.44
660.919	97.44
661.123	98.44
661.326	91.44
661.53	88.44
661.733	93.44
661.936	82.44
662.14	84.44
662.343	78.44
662.546	99.44
662.75	72.44
662.953	104.44
663.156	119.44
663.36	90.44
663.563	88.44
663.766	86.44
663.969	86.44
664.173	75.44
664.376	90.44
664.579	71.44
664.782	81.44
664.985	82.44
665.188	85.44
665.391	76.44
665.594	83.44
665.797	81.44
666	89.44
666.203	80.44
666.406	76.44
666.609	67.44
666.812	90.44
667.015	98.44
667.218	114.44
667.421	96.44
667.624	85.44
667.827	80.44
668.03	83.44
668.232	93.44
668.435	75.44
668.638	87.44
668.841	106.44
669.043	82.44
669.246	80.44
669.449	93.44
669.651	74.44
669.854	96.44
670.057	84.44
670.259	67.44
670.462	97.44
670.665	93.44
670.867	90.44
671.07	103.44
671.272	86.44
671.475	102.44
671.677	81.44
671.88	108.44
672.082	85.44
672.284	86.44
672.487	103.44
672.689	76.44
672.892	68.44
