Data from Uncirc_1988_H10_HRD10591_00091.txt Node
Date: Wed Jan 03 12:04:22 EST 2024
User: Yrep
Spectrometer: HR+D1059
Trigger mode: 1
Integration Time (sec): 1.000000E-1
Scans to average: 1
Electric dark correction enabled: true
Nonlinearity correction enabled: false
Boxcar width: 0
XAxis mode: Wavelengths
Number of Pixels in Spectrum: 2048
>>>>>Begin Spectral Data<<<<<
223.165	-15.94
223.4	-15.94
223.635	-15.94
223.869	-11.94
224.104	-7.94
224.338	-21.94
224.573	-16.94
224.808	-7.94
225.042	-0.94
225.277	-5.94
225.511	-6.94
225.746	3.06
225.98	14.06
226.215	1.06
226.449	17.06
226.683	9.06
226.918	26.06
227.152	26.06
227.387	53.06
227.621	41.06
227.856	29.06
228.09	38.06
228.324	47.06
228.559	50.06
228.793	55.06
229.027	63.06
229.262	82.06
229.496	76.06
229.73	77.06
229.964	84.06
230.199	76.06
230.433	73.06
230.667	81.06
230.901	66.06
231.136	75.06
231.37	92.06
231.604	86.06
231.838	82.06
232.072	69.06
232.306	66.06
232.541	70.06
232.775	78.06
233.009	81.06
233.243	83.06
233.477	84.06
233.711	70.06
233.945	78.06
234.179	73.06
234.413	76.06
234.647	78.06
234.881	71.06
235.115	71.06
235.349	77.06
235.583	75.06
235.817	81.06
236.051	90.06
236.285	70.06
236.519	59.06
236.753	68.06
236.987	78.06
237.221	73.06
237.455	96.06
237.689	86.06
237.922	74.06
238.156	61.06
238.39	75.06
238.624	77.06
238.858	68.06
239.091	91.06
239.325	87.06
239.559	86.06
239.793	92.06
240.027	83.06
240.26	64.06
240.494	69.06
240.728	71.06
240.961	69.06
241.195	64.06
241.429	65.06
241.662	65.06
241.896	63.06
242.13	58.06
242.363	64.06
242.597	72.06
242.83	77.06
243.064	82.06
243.298	66.06
243.531	83.06
243.765	78.06
243.998	87.06
244.232	77.06
244.465	85.06
244.699	84.06
244.932	74.06
245.166	69.06
245.399	81.06
245.633	77.06
245.866	63.06
246.099	79.06
246.333	67.06
246.566	68.06
246.8	69.06
247.033	76.06
247.266	70.06
247.5	67.06
247.733	69.06
247.966	78.06
248.2	68.06
248.433	85.06
248.666	75.06
248.899	86.06
249.133	65.06
249.366	106.06
249.599	93.06
249.832	78.06
250.066	79.06
250.299	71.06
250.532	83.06
250.765	70.06
250.998	82.06
251.231	80.06
251.465	77.06
251.698	71.06
251.931	79.06
252.164	86.06
252.397	64.06
252.63	78.06
252.863	90.06
253.096	77.06
253.329	85.06
253.562	71.06
253.795	84.06
254.028	75.06
254.261	81.06
254.494	84.06
254.727	75.06
254.96	84.06
255.193	88.06
255.426	82.06
255.659	74.06
255.892	76.06
256.124	78.06
256.357	69.06
256.59	87.06
256.823	69.06
257.056	79.06
257.289	87.06
257.521	84.06
257.754	73.06
257.987	96.06
258.22	85.06
258.452	77.06
258.685	75.06
258.918	69.06
259.151	68.06
259.383	95.06
259.616	80.06
259.849	86.06
260.081	74.06
260.314	83.06
260.547	73.06
260.779	77.06
261.012	74.06
261.244	80.06
261.477	82.06
261.71	92.06
261.942	132.06
262.175	121.06
262.407	86.06
262.64	77.06
262.872	79.06
263.105	80.06
263.337	74.06
263.57	84.06
263.802	92.06
264.035	80.06
264.267	80.06
264.499	74.06
264.732	78.06
264.964	66.06
265.197	65.06
265.429	86.06
265.661	79.06
265.894	78.06
266.126	70.06
266.358	68.06
266.591	80.06
266.823	75.06
267.055	74.06
267.287	74.06
267.52	79.06
267.752	87.06
267.984	80.06
268.216	91.06
268.448	97.06
268.681	93.06
268.913	76.06
269.145	87.06
269.377	90.06
269.609	81.06
269.841	94.06
270.073	87.06
270.306	91.06
270.538	69.06
270.77	94.06
271.002	85.06
271.234	70.06
271.466	89.06
271.698	79.06
271.93	89.06
272.162	91.06
272.394	87.06
272.626	92.06
272.858	92.06
273.09	78.06
273.322	90.06
273.553	72.06
273.785	89.06
274.017	95.06
274.249	81.06
274.481	84.06
274.713	85.06
274.945	90.06
275.176	85.06
275.408	87.06
275.64	91.06
275.872	76.06
276.104	83.06
276.335	77.06
276.567	99.06
276.799	105.06
277.031	102.06
277.262	97.06
277.494	65.06
277.726	74.06
277.957	79.06
278.189	89.06
278.421	69.06
278.652	89.06
278.884	70.06
279.115	87.06
279.347	93.06
279.579	84.06
279.81	74.06
280.042	79.06
280.273	91.06
280.505	75.06
280.736	81.06
280.968	82.06
281.199	65.06
281.431	91.06
281.662	87.06
281.894	91.06
282.125	109.06
282.356	127.06
282.588	137.06
282.819	132.06
283.051	104.06
283.282	93.06
283.513	82.06
283.745	94.06
283.976	85.06
284.207	90.06
284.439	104.06
284.67	80.06
284.901	92.06
285.132	101.06
285.364	83.06
285.595	88.06
285.826	84.06
286.057	84.06
286.288	90.06
286.52	89.06
286.751	97.06
286.982	96.06
287.213	69.06
287.444	85.06
287.675	82.06
287.906	99.06
288.138	95.06
288.369	103.06
288.6	94.06
288.831	84.06
289.062	71.06
289.293	98.06
289.524	87.06
289.755	98.06
289.986	83.06
290.217	83.06
290.448	72.06
290.679	86.06
290.91	98.06
291.141	84.06
291.371	91.06
291.602	74.06
291.833	81.06
292.064	64.06
292.295	77.06
292.526	70.06
292.757	75.06
292.987	89.06
293.218	78.06
293.449	77.06
293.68	85.06
293.91	82.06
294.141	85.06
294.372	85.06
294.603	102.06
294.833	77.06
295.064	83.06
295.295	87.06
295.525	90.06
295.756	77.06
295.987	113.06
296.217	139.06
296.448	135.06
296.679	94.06
296.909	84.06
297.14	82.06
297.37	76.06
297.601	86.06
297.831	91.06
298.062	89.06
298.292	80.06
298.523	84.06
298.753	95.06
298.984	93.06
299.214	78.06
299.445	85.06
299.675	92.06
299.905	81.06
300.136	85.06
300.366	93.06
300.597	78.06
300.827	86.06
301.057	106.06
301.288	104.06
301.518	89.06
301.748	84.06
301.979	96.06
302.209	97.06
302.439	108.06
302.669	86.06
302.9	89.06
303.13	86.06
303.36	99.06
303.59	88.06
303.82	110.06
304.051	83.06
304.281	94.06
304.511	98.06
304.741	85.06
304.971	100.06
305.201	107.06
305.431	87.06
305.661	88.06
305.891	87.06
306.121	94.06
306.352	103.06
306.582	96.06
306.812	97.06
307.042	73.06
307.272	89.06
307.502	97.06
307.731	91.06
307.961	99.06
308.191	84.06
308.421	80.06
308.651	77.06
308.881	95.06
309.111	96.06
309.341	101.06
309.571	82.06
309.8	86.06
310.03	93.06
310.26	87.06
310.49	91.06
310.72	94.06
310.949	94.06
311.179	94.06
311.409	76.06
311.639	87.06
311.868	93.06
312.098	95.06
312.328	91.06
312.557	97.06
312.787	109.06
313.017	113.06
313.246	89.06
313.476	100.06
313.706	84.06
313.935	99.06
314.165	93.06
314.394	97.06
314.624	97.06
314.853	102.06
315.083	80.06
315.312	90.06
315.542	94.06
315.771	81.06
316.001	71.06
316.23	91.06
316.46	90.06
316.689	85.06
316.919	94.06
317.148	103.06
317.377	103.06
317.607	94.06
317.836	73.06
318.065	75.06
318.295	93.06
318.524	104.06
318.753	79.06
318.983	104.06
319.212	96.06
319.441	99.06
319.67	110.06
319.9	99.06
320.129	94.06
320.358	89.06
320.587	110.06
320.816	105.06
321.046	98.06
321.275	100.06
321.504	82.06
321.733	84.06
321.962	86.06
322.191	102.06
322.42	91.06
322.649	112.06
322.878	111.06
323.108	124.06
323.337	128.06
323.566	132.06
323.795	172.06
324.024	221.06
324.253	440.06
324.482	981.06
324.71	1993.06
324.939	2714.06
325.168	952.06
325.397	271.06
325.626	143.06
325.855	135.06
326.084	131.06
326.313	127.06
326.542	158.06
326.77	241.06
326.999	497.06
327.228	1067.06
327.457	2036.06
327.686	1614.06
327.914	402.06
328.143	213.06
328.372	174.06
328.6	126.06
328.829	109.06
329.058	124.06
329.287	133.06
329.515	117.06
329.744	117.06
329.972	102.06
330.201	129.06
330.43	157.06
330.658	153.06
330.887	165.06
331.115	121.06
331.344	110.06
331.572	105.06
331.801	102.06
332.03	106.06
332.258	107.06
332.486	84.06
332.715	98.06
332.943	95.06
333.172	91.06
333.4	98.06
333.629	104.06
333.857	110.06
334.085	116.06
334.314	133.06
334.542	154.06
334.771	149.06
334.999	105.06
335.227	102.06
335.455	82.06
335.684	99.06
335.912	109.06
336.14	75.06
336.369	93.06
336.597	94.06
336.825	100.06
337.053	88.06
337.281	84.06
337.51	80.06
337.738	94.06
337.966	99.06
338.194	101.06
338.422	87.06
338.65	99.06
338.878	102.06
339.106	84.06
339.334	95.06
339.562	79.06
339.79	94.06
340.018	86.06
340.246	74.06
340.474	97.06
340.702	96.06
340.93	86.06
341.158	87.06
341.386	94.06
341.614	90.06
341.842	91.06
342.07	93.06
342.298	75.06
342.526	89.06
342.754	73.06
342.981	90.06
343.209	84.06
343.437	95.06
343.665	84.06
343.893	102.06
344.12	87.06
344.348	83.06
344.576	85.06
344.804	82.06
345.031	86.06
345.259	106.06
345.487	85.06
345.714	83.06
345.942	79.06
346.17	89.06
346.397	86.06
346.625	100.06
346.853	95.06
347.08	85.06
347.308	91.06
347.535	92.06
347.763	86.06
347.99	97.06
348.218	93.06
348.445	86.06
348.673	90.06
348.9	110.06
349.128	89.06
349.355	88.06
349.583	95.06
349.81	90.06
350.037	74.06
350.265	82.06
350.492	106.06
350.72	93.06
350.947	101.06
351.174	104.06
351.402	107.06
351.629	107.06
351.856	104.06
352.083	95.06
352.311	116.06
352.538	114.06
352.765	113.06
352.992	107.06
353.22	116.06
353.447	83.06
353.674	95.06
353.901	100.06
354.128	97.06
354.355	96.06
354.583	93.06
354.81	90.06
355.037	98.06
355.264	87.06
355.491	84.06
355.718	101.06
355.945	94.06
356.172	87.06
356.399	93.06
356.626	93.06
356.853	87.06
357.08	84.06
357.307	91.06
357.534	85.06
357.761	71.06
357.988	99.06
358.215	91.06
358.441	85.06
358.668	92.06
358.895	93.06
359.122	79.06
359.349	84.06
359.576	89.06
359.802	101.06
360.029	118.06
360.256	116.06
360.483	98.06
360.709	83.06
360.936	84.06
361.163	87.06
361.39	94.06
361.616	87.06
361.843	94.06
362.07	94.06
362.296	74.06
362.523	75.06
362.749	90.06
362.976	88.06
363.203	96.06
363.429	95.06
363.656	90.06
363.882	99.06
364.109	98.06
364.335	80.06
364.562	77.06
364.788	94.06
365.015	94.06
365.241	87.06
365.468	121.06
365.694	105.06
365.92	92.06
366.147	89.06
366.373	86.06
366.599	96.06
366.826	68.06
367.052	89.06
367.278	101.06
367.505	99.06
367.731	91.06
367.957	83.06
368.184	101.06
368.41	92.06
368.636	126.06
368.862	129.06
369.089	92.06
369.315	85.06
369.541	83.06
369.767	88.06
369.993	91.06
370.219	86.06
370.445	81.06
370.672	94.06
370.898	83.06
371.124	90.06
371.35	91.06
371.576	106.06
371.802	73.06
372.028	93.06
372.254	88.06
372.48	85.06
372.706	85.06
372.932	94.06
373.158	88.06
373.384	101.06
373.61	103.06
373.835	98.06
374.061	93.06
374.287	98.06
374.513	98.06
374.739	95.06
374.965	74.06
375.191	83.06
375.416	87.06
375.642	89.06
375.868	91.06
376.094	83.06
376.319	93.06
376.545	92.06
376.771	92.06
376.997	78.06
377.222	97.06
377.448	81.06
377.674	92.06
377.899	102.06
378.125	86.06
378.35	77.06
378.576	86.06
378.802	82.06
379.027	84.06
379.253	105.06
379.478	85.06
379.704	79.06
379.929	92.06
380.155	83.06
380.38	90.06
380.606	89.06
380.831	94.06
381.057	92.06
381.282	92.06
381.507	90.06
381.733	90.06
381.958	95.06
382.184	85.06
382.409	97.06
382.634	94.06
382.86	97.06
383.085	107.06
383.31	91.06
383.535	88.06
383.761	92.06
383.986	101.06
384.211	92.06
384.436	87.06
384.662	90.06
384.887	106.06
385.112	94.06
385.337	82.06
385.562	87.06
385.787	99.06
386.013	100.06
386.238	107.06
386.463	97.06
386.688	98.06
386.913	96.06
387.138	105.06
387.363	100.06
387.588	96.06
387.813	85.06
388.038	106.06
388.263	103.06
388.488	92.06
388.713	83.06
388.938	92.06
389.163	95.06
389.387	89.06
389.612	92.06
389.837	87.06
390.062	86.06
390.287	94.06
390.512	84.06
390.736	87.06
390.961	89.06
391.186	81.06
391.411	88.06
391.636	82.06
391.86	67.06
392.085	94.06
392.31	92.06
392.534	84.06
392.759	83.06
392.984	83.06
393.208	81.06
393.433	85.06
393.658	81.06
393.882	72.06
394.107	88.06
394.331	73.06
394.556	81.06
394.78	104.06
395.005	73.06
395.229	77.06
395.454	88.06
395.678	78.06
395.903	75.06
396.127	96.06
396.352	84.06
396.576	90.06
396.801	84.06
397.025	87.06
397.249	89.06
397.474	81.06
397.698	81.06
397.922	77.06
398.147	87.06
398.371	100.06
398.595	78.06
398.82	90.06
399.044	84.06
399.268	86.06
399.492	81.06
399.717	92.06
399.941	77.06
400.165	89.06
400.389	79.06
400.613	82.06
400.837	83.06
401.062	83.06
401.286	79.06
401.51	90.06
401.734	97.06
401.958	105.06
402.182	125.06
402.406	172.06
402.63	117.06
402.854	87.06
403.078	91.06
403.302	92.06
403.526	83.06
403.75	80.06
403.974	73.06
404.198	88.06
404.422	85.06
404.645	79.06
404.869	80.06
405.093	93.06
405.317	95.06
405.541	106.06
405.765	94.06
405.988	113.06
406.212	187.06
406.436	236.06
406.66	159.06
406.883	90.06
407.107	88.06
407.331	92.06
407.555	97.06
407.778	102.06
408.002	86.06
408.226	102.06
408.449	87.06
408.673	99.06
408.896	79.06
409.12	80.06
409.344	77.06
409.567	89.06
409.791	91.06
410.014	87.06
410.238	74.06
410.461	83.06
410.685	95.06
410.908	102.06
411.132	105.06
411.355	99.06
411.578	98.06
411.802	74.06
412.025	84.06
412.249	100.06
412.472	104.06
412.695	95.06
412.919	82.06
413.142	78.06
413.365	95.06
413.589	71.06
413.812	79.06
414.035	101.06
414.258	74.06
414.482	85.06
414.705	94.06
414.928	77.06
415.151	95.06
415.374	86.06
415.597	74.06
415.821	80.06
416.044	99.06
416.267	98.06
416.49	80.06
416.713	75.06
416.936	90.06
417.159	92.06
417.382	83.06
417.605	91.06
417.828	91.06
418.051	91.06
418.274	91.06
418.497	86.06
418.72	85.06
418.943	76.06
419.166	75.06
419.389	81.06
419.611	71.06
419.834	73.06
420.057	86.06
420.28	94.06
420.503	87.06
420.726	105.06
420.948	90.06
421.171	99.06
421.394	98.06
421.617	82.06
421.839	73.06
422.062	97.06
422.285	100.06
422.507	87.06
422.73	105.06
422.953	77.06
423.175	82.06
423.398	80.06
423.621	90.06
423.843	79.06
424.066	81.06
424.288	82.06
424.511	88.06
424.733	111.06
424.956	111.06
425.178	97.06
425.401	107.06
425.623	101.06
425.846	86.06
426.068	91.06
426.291	98.06
426.513	83.06
426.735	83.06
426.958	91.06
427.18	96.06
427.402	149.06
427.625	180.06
427.847	146.06
428.069	131.06
428.292	96.06
428.514	98.06
428.736	87.06
428.958	67.06
429.181	69.06
429.403	88.06
429.625	90.06
429.847	73.06
430.069	101.06
430.292	104.06
430.514	83.06
430.736	85.06
430.958	89.06
431.18	81.06
431.402	85.06
431.624	86.06
431.846	69.06
432.068	81.06
432.29	100.06
432.512	94.06
432.734	89.06
432.956	93.06
433.178	91.06
433.4	108.06
433.622	93.06
433.844	89.06
434.066	87.06
434.287	89.06
434.509	83.06
434.731	76.06
434.953	76.06
435.175	79.06
435.397	84.06
435.618	81.06
435.84	92.06
436.062	123.06
436.284	123.06
436.505	97.06
436.727	112.06
436.949	89.06
437.17	87.06
437.392	84.06
437.614	93.06
437.835	107.06
438.057	122.06
438.278	119.06
438.5	111.06
438.721	118.06
438.943	87.06
439.165	86.06
439.386	87.06
439.608	93.06
439.829	95.06
440.05	125.06
440.272	159.06
440.493	86.06
440.715	90.06
440.936	91.06
441.158	98.06
441.379	77.06
441.6	78.06
441.822	102.06
442.043	98.06
442.264	99.06
442.486	91.06
442.707	86.06
442.928	105.06
443.149	122.06
443.371	127.06
443.592	112.06
443.813	102.06
444.034	105.06
444.255	106.06
444.476	93.06
444.698	91.06
444.919	81.06
445.14	102.06
445.361	132.06
445.582	123.06
445.803	149.06
446.024	163.06
446.245	140.06
446.466	116.06
446.687	98.06
446.908	88.06
447.129	88.06
447.35	89.06
447.571	87.06
447.792	87.06
448.013	98.06
448.234	122.06
448.455	97.06
448.675	109.06
448.896	122.06
449.117	102.06
449.338	96.06
449.559	131.06
449.779	134.06
450	101.06
450.221	90.06
450.442	98.06
450.662	75.06
450.883	95.06
451.104	111.06
451.324	93.06
451.545	77.06
451.766	85.06
451.986	85.06
452.207	90.06
452.428	86.06
452.648	99.06
452.869	109.06
453.089	108.06
453.31	114.06
453.53	95.06
453.751	73.06
453.971	108.06
454.192	104.06
454.412	99.06
454.633	82.06
454.853	91.06
455.073	86.06
455.294	97.06
455.514	101.06
455.734	106.06
455.955	95.06
456.175	83.06
456.395	85.06
456.616	76.06
456.836	89.06
457.056	76.06
457.276	78.06
457.497	71.06
457.717	87.06
457.937	98.06
458.157	87.06
458.377	93.06
458.598	111.06
458.818	165.06
459.038	171.06
459.258	138.06
459.478	94.06
459.698	93.06
459.918	65.06
460.138	69.06
460.358	87.06
460.578	73.06
460.798	99.06
461.018	98.06
461.238	84.06
461.458	87.06
461.678	87.06
461.898	83.06
462.118	89.06
462.338	65.06
462.558	75.06
462.777	76.06
462.997	82.06
463.217	92.06
463.437	86.06
463.657	80.06
463.876	95.06
464.096	77.06
464.316	79.06
464.536	84.06
464.755	87.06
464.975	111.06
465.195	185.06
465.414	169.06
465.634	86.06
465.854	77.06
466.073	82.06
466.293	87.06
466.512	84.06
466.732	79.06
466.951	85.06
467.171	100.06
467.391	99.06
467.61	109.06
467.829	97.06
468.049	104.06
468.268	110.06
468.488	93.06
468.707	89.06
468.927	90.06
469.146	80.06
469.365	79.06
469.585	84.06
469.804	95.06
470.023	95.06
470.243	93.06
470.462	102.06
470.681	110.06
470.901	85.06
471.12	89.06
471.339	76.06
471.558	87.06
471.777	86.06
471.997	85.06
472.216	112.06
472.435	168.06
472.654	101.06
472.873	92.06
473.092	89.06
473.311	91.06
473.53	78.06
473.749	79.06
473.968	93.06
474.187	95.06
474.406	108.06
474.625	85.06
474.844	70.06
475.063	66.06
475.282	77.06
475.501	85.06
475.72	81.06
475.939	71.06
476.158	81.06
476.377	105.06
476.596	97.06
476.814	85.06
477.033	93.06
477.252	82.06
477.471	93.06
477.69	90.06
477.908	100.06
478.127	77.06
478.346	79.06
478.564	96.06
478.783	95.06
479.002	98.06
479.22	97.06
479.439	107.06
479.658	125.06
479.876	86.06
480.095	89.06
480.313	94.06
480.532	92.06
480.751	99.06
480.969	133.06
481.188	259.06
481.406	189.06
481.624	90.06
481.843	89.06
482.061	67.06
482.28	77.06
482.498	95.06
482.717	82.06
482.935	86.06
483.153	80.06
483.372	74.06
483.59	85.06
483.808	91.06
484.027	81.06
484.245	73.06
484.463	88.06
484.681	90.06
484.9	93.06
485.118	93.06
485.336	89.06
485.554	70.06
485.772	81.06
485.99	89.06
486.209	99.06
486.427	110.06
486.645	101.06
486.863	109.06
487.081	96.06
487.299	103.06
487.517	85.06
487.735	78.06
487.953	92.06
488.171	90.06
488.389	109.06
488.607	105.06
488.825	107.06
489.043	93.06
489.261	108.06
489.479	93.06
489.696	88.06
489.914	86.06
490.132	70.06
490.35	75.06
490.568	99.06
490.786	87.06
491.003	87.06
491.221	86.06
491.439	94.06
491.657	90.06
491.874	83.06
492.092	89.06
492.31	105.06
492.527	93.06
492.745	88.06
492.963	77.06
493.18	76.06
493.398	91.06
493.615	94.06
493.833	103.06
494.05	96.06
494.268	90.06
494.485	91.06
494.703	90.06
494.92	99.06
495.138	94.06
495.355	93.06
495.573	81.06
495.79	90.06
496.008	64.06
496.225	89.06
496.442	87.06
496.66	90.06
496.877	79.06
497.094	80.06
497.312	74.06
497.529	86.06
497.746	107.06
497.963	107.06
498.181	98.06
498.398	92.06
498.615	107.06
498.832	89.06
499.049	85.06
499.267	97.06
499.484	95.06
499.701	79.06
499.918	93.06
500.135	83.06
500.352	94.06
500.569	90.06
500.786	82.06
501.003	80.06
501.22	90.06
501.437	93.06
501.654	91.06
501.871	111.06
502.088	94.06
502.305	91.06
502.522	84.06
502.739	83.06
502.956	81.06
503.172	100.06
503.389	98.06
503.606	100.06
503.823	95.06
504.04	92.06
504.256	86.06
504.473	83.06
504.69	89.06
504.907	84.06
505.123	73.06
505.34	84.06
505.557	79.06
505.773	92.06
505.99	99.06
506.207	94.06
506.423	96.06
506.64	96.06
506.856	87.06
507.073	80.06
507.289	68.06
507.506	93.06
507.722	123.06
507.939	114.06
508.155	96.06
508.372	85.06
508.588	86.06
508.805	97.06
509.021	91.06
509.238	96.06
509.454	106.06
509.67	97.06
509.887	114.06
510.103	123.06
510.319	217.06
510.536	870.06
510.752	2701.06
510.968	709.06
511.184	160.06
511.401	108.06
511.617	98.06
511.833	95.06
512.049	76.06
512.265	85.06
512.481	100.06
512.698	90.06
512.914	89.06
513.13	90.06
513.346	97.06
513.562	84.06
513.778	83.06
513.994	90.06
514.21	92.06
514.426	124.06
514.642	142.06
514.858	122.06
515.074	189.06
515.29	535.06
515.506	1796.06
515.721	615.06
515.937	160.06
516.153	102.06
516.369	107.06
516.585	92.06
516.801	90.06
517.016	94.06
517.232	101.06
517.448	84.06
517.664	96.06
517.879	85.06
518.095	79.06
518.311	93.06
518.527	99.06
518.742	84.06
518.958	93.06
519.173	77.06
519.389	106.06
519.605	84.06
519.82	105.06
520.036	101.06
520.251	128.06
520.467	99.06
520.682	106.06
520.898	111.06
521.113	111.06
521.329	138.06
521.544	230.06
521.76	707.06
521.975	3007.06
522.19	1759.06
522.406	346.06
522.621	130.06
522.836	96.06
523.052	98.06
523.267	98.06
523.482	90.06
523.698	106.06
523.913	119.06
524.128	104.06
524.343	88.06
524.559	89.06
524.774	88.06
524.989	105.06
525.204	103.06
525.419	108.06
525.634	85.06
525.849	96.06
526.064	89.06
526.28	77.06
526.495	79.06
526.71	101.06
526.925	71.06
527.14	75.06
527.355	79.06
527.57	96.06
527.785	91.06
527.999	71.06
528.214	100.06
528.429	103.06
528.644	95.06
528.859	75.06
529.074	91.06
529.289	137.06
529.503	195.06
529.718	107.06
529.933	86.06
530.148	79.06
530.363	89.06
530.577	85.06
530.792	85.06
531.007	83.06
531.221	70.06
531.436	83.06
531.651	90.06
531.865	90.06
532.08	92.06
532.295	93.06
532.509	86.06
532.724	83.06
532.938	79.06
533.153	94.06
533.367	94.06
533.582	95.06
533.796	91.06
534.011	97.06
534.225	89.06
534.44	91.06
534.654	84.06
534.868	100.06
535.083	90.06
535.297	88.06
535.511	99.06
535.726	109.06
535.94	109.06
536.154	96.06
536.369	89.06
536.583	81.06
536.797	86.06
537.011	86.06
537.225	80.06
537.44	84.06
537.654	86.06
537.868	84.06
538.082	93.06
538.296	86.06
538.51	99.06
538.724	88.06
538.938	84.06
539.153	88.06
539.367	99.06
539.581	89.06
539.795	86.06
540.009	87.06
540.222	88.06
540.436	81.06
540.65	94.06
540.864	78.06
541.078	86.06
541.292	91.06
541.506	83.06
541.72	86.06
541.934	93.06
542.147	88.06
542.361	90.06
542.575	77.06
542.789	85.06
543.002	83.06
543.216	100.06
543.43	87.06
543.644	97.06
543.857	102.06
544.071	91.06
544.285	93.06
544.498	93.06
544.712	89.06
544.925	96.06
545.139	99.06
545.352	73.06
545.566	89.06
545.779	86.06
545.993	83.06
546.206	82.06
546.42	82.06
546.633	86.06
546.847	82.06
547.06	86.06
547.274	89.06
547.487	78.06
547.7	80.06
547.914	86.06
548.127	85.06
548.34	92.06
548.554	86.06
548.767	80.06
548.98	85.06
549.193	69.06
549.407	85.06
549.62	87.06
549.833	92.06
550.046	87.06
550.259	86.06
550.473	79.06
550.686	79.06
550.899	92.06
551.112	99.06
551.325	82.06
551.538	93.06
551.751	87.06
551.964	85.06
552.177	91.06
552.39	86.06
552.603	79.06
552.816	95.06
553.029	102.06
553.242	97.06
553.455	94.06
553.667	116.06
553.88	109.06
554.093	84.06
554.306	107.06
554.519	94.06
554.732	68.06
554.944	90.06
555.157	81.06
555.37	87.06
555.583	79.06
555.795	77.06
556.008	92.06
556.221	89.06
556.433	95.06
556.646	97.06
556.859	89.06
557.071	81.06
557.284	85.06
557.496	94.06
557.709	98.06
557.921	92.06
558.134	97.06
558.346	97.06
558.559	91.06
558.771	95.06
558.984	82.06
559.196	93.06
559.409	87.06
559.621	81.06
559.833	83.06
560.046	84.06
560.258	81.06
560.47	79.06
560.683	86.06
560.895	87.06
561.107	68.06
561.32	84.06
561.532	79.06
561.744	82.06
561.956	77.06
562.168	81.06
562.381	92.06
562.593	86.06
562.805	77.06
563.017	87.06
563.229	92.06
563.441	74.06
563.653	78.06
563.865	83.06
564.077	93.06
564.289	73.06
564.501	82.06
564.713	95.06
564.925	74.06
565.137	95.06
565.349	105.06
565.561	87.06
565.773	101.06
565.985	82.06
566.197	71.06
566.408	84.06
566.62	87.06
566.832	91.06
567.044	83.06
567.255	91.06
567.467	93.06
567.679	93.06
567.891	103.06
568.102	95.06
568.314	99.06
568.526	90.06
568.737	94.06
568.949	79.06
569.161	73.06
569.372	88.06
569.584	93.06
569.795	99.06
570.007	116.06
570.218	266.06
570.43	125.06
570.641	94.06
570.853	86.06
571.064	77.06
571.276	82.06
571.487	81.06
571.698	90.06
571.91	87.06
572.121	84.06
572.333	68.06
572.544	84.06
572.755	81.06
572.966	87.06
573.178	81.06
573.389	83.06
573.6	82.06
573.811	70.06
574.023	81.06
574.234	78.06
574.445	87.06
574.656	80.06
574.867	93.06
575.078	87.06
575.289	88.06
575.501	93.06
575.712	94.06
575.923	65.06
576.134	107.06
576.345	93.06
576.556	90.06
576.767	92.06
576.978	75.06
577.188	107.06
577.399	78.06
577.61	78.06
577.821	92.06
578.032	111.06
578.243	292.06
578.454	861.06
578.665	235.06
578.875	122.06
579.086	102.06
579.297	76.06
579.508	68.06
579.718	103.06
579.929	77.06
580.14	76.06
580.35	82.06
580.561	83.06
580.772	91.06
580.982	81.06
581.193	85.06
581.403	91.06
581.614	99.06
581.825	92.06
582.035	85.06
582.246	92.06
582.456	89.06
582.667	84.06
582.877	92.06
583.087	75.06
583.298	80.06
583.508	79.06
583.719	83.06
583.929	86.06
584.139	81.06
584.35	79.06
584.56	103.06
584.77	92.06
584.981	85.06
585.191	96.06
585.401	79.06
585.611	84.06
585.821	82.06
586.032	91.06
586.242	75.06
586.452	92.06
586.662	82.06
586.872	77.06
587.082	71.06
587.292	73.06
587.502	84.06
587.713	78.06
587.923	84.06
588.133	80.06
588.343	80.06
588.553	90.06
588.762	87.06
588.972	85.06
589.182	93.06
589.392	107.06
589.602	81.06
589.812	88.06
590.022	81.06
590.232	92.06
590.441	79.06
590.651	79.06
590.861	78.06
591.071	90.06
591.281	95.06
591.49	77.06
591.7	86.06
591.91	98.06
592.119	83.06
592.329	93.06
592.539	91.06
592.748	97.06
592.958	64.06
593.167	77.06
593.377	81.06
593.587	101.06
593.796	85.06
594.006	84.06
594.215	65.06
594.424	81.06
594.634	87.06
594.843	75.06
595.053	74.06
595.262	70.06
595.472	84.06
595.681	77.06
595.89	93.06
596.1	85.06
596.309	89.06
596.518	81.06
596.727	76.06
596.937	91.06
597.146	95.06
597.355	77.06
597.564	78.06
597.774	81.06
597.983	86.06
598.192	82.06
598.401	85.06
598.61	85.06
598.819	78.06
599.028	68.06
599.237	67.06
599.446	83.06
599.655	93.06
599.864	94.06
600.073	84.06
600.282	86.06
600.491	87.06
600.7	67.06
600.909	81.06
601.118	89.06
601.327	91.06
601.536	90.06
601.745	77.06
601.953	80.06
602.162	70.06
602.371	97.06
602.58	78.06
602.789	94.06
602.997	81.06
603.206	78.06
603.415	87.06
603.623	77.06
603.832	86.06
604.041	88.06
604.249	84.06
604.458	81.06
604.666	79.06
604.875	80.06
605.084	87.06
605.292	86.06
605.501	70.06
605.709	85.06
605.918	79.06
606.126	93.06
606.334	75.06
606.543	85.06
606.751	87.06
606.96	86.06
607.168	80.06
607.376	93.06
607.585	89.06
607.793	89.06
608.001	81.06
608.21	89.06
608.418	86.06
608.626	70.06
608.834	91.06
609.043	80.06
609.251	89.06
609.459	85.06
609.667	88.06
609.875	90.06
610.083	83.06
610.291	79.06
610.499	74.06
610.707	77.06
610.916	79.06
611.124	73.06
611.332	86.06
611.54	61.06
611.748	81.06
611.955	79.06
612.163	79.06
612.371	84.06
612.579	83.06
612.787	85.06
612.995	69.06
613.203	84.06
613.411	92.06
613.618	99.06
613.826	89.06
614.034	86.06
614.242	90.06
614.449	79.06
614.657	73.06
614.865	70.06
615.072	87.06
615.28	88.06
615.488	89.06
615.695	94.06
615.903	107.06
616.111	102.06
616.318	98.06
616.526	92.06
616.733	81.06
616.941	82.06
617.148	100.06
617.356	87.06
617.563	82.06
617.771	75.06
617.978	87.06
618.185	83.06
618.393	57.06
618.6	85.06
618.807	67.06
619.015	78.06
619.222	67.06
619.429	83.06
619.637	78.06
619.844	68.06
620.051	83.06
620.258	87.06
620.466	90.06
620.673	91.06
620.88	75.06
621.087	84.06
621.294	80.06
621.501	94.06
621.708	82.06
621.915	77.06
622.122	67.06
622.329	83.06
622.536	97.06
622.743	77.06
622.95	74.06
623.157	89.06
623.364	77.06
623.571	82.06
623.778	85.06
623.985	73.06
624.192	90.06
624.399	82.06
624.606	95.06
624.812	93.06
625.019	85.06
625.226	82.06
625.433	91.06
625.639	85.06
625.846	74.06
626.053	82.06
626.259	71.06
626.466	88.06
626.673	95.06
626.879	83.06
627.086	89.06
627.293	90.06
627.499	84.06
627.706	100.06
627.912	83.06
628.119	89.06
628.325	80.06
628.532	79.06
628.738	84.06
628.945	80.06
629.151	91.06
629.357	86.06
629.564	79.06
629.77	78.06
629.976	90.06
630.183	89.06
630.389	83.06
630.595	85.06
630.802	83.06
631.008	80.06
631.214	87.06
631.42	84.06
631.627	100.06
631.833	97.06
632.039	95.06
632.245	85.06
632.451	59.06
632.657	79.06
632.863	81.06
633.069	87.06
633.275	76.06
633.481	82.06
633.688	91.06
633.893	73.06
634.099	73.06
634.305	87.06
634.511	74.06
634.717	83.06
634.923	85.06
635.129	74.06
635.335	77.06
635.541	79.06
635.747	82.06
635.952	78.06
636.158	86.06
636.364	93.06
636.57	91.06
636.775	81.06
636.981	85.06
637.187	89.06
637.392	89.06
637.598	77.06
637.804	82.06
638.009	77.06
638.215	83.06
638.421	73.06
638.626	88.06
638.832	77.06
639.037	71.06
639.243	78.06
639.448	89.06
639.654	80.06
639.859	82.06
640.065	74.06
640.27	92.06
640.475	85.06
640.681	65.06
640.886	75.06
641.091	82.06
641.297	84.06
641.502	98.06
641.707	62.06
641.913	68.06
642.118	77.06
642.323	90.06
642.528	88.06
642.733	80.06
642.939	84.06
643.144	93.06
643.349	76.06
643.554	90.06
643.759	91.06
643.964	78.06
644.169	77.06
644.374	94.06
644.579	87.06
644.784	83.06
644.989	88.06
645.194	75.06
645.399	84.06
645.604	82.06
645.809	68.06
646.014	92.06
646.219	87.06
646.423	78.06
646.628	93.06
646.833	90.06
647.038	91.06
647.243	83.06
647.447	75.06
647.652	98.06
647.857	83.06
648.062	97.06
648.266	90.06
648.471	97.06
648.676	97.06
648.88	86.06
649.085	93.06
649.289	75.06
649.494	89.06
649.698	143.06
649.903	110.06
650.107	89.06
650.312	84.06
650.516	81.06
650.721	85.06
650.925	76.06
651.13	81.06
651.334	85.06
651.539	81.06
651.743	84.06
651.947	75.06
652.152	79.06
652.356	82.06
652.56	73.06
652.764	69.06
652.969	82.06
653.173	88.06
653.377	64.06
653.581	79.06
653.785	86.06
653.99	91.06
654.194	69.06
654.398	89.06
654.602	67.06
654.806	74.06
655.01	105.06
655.214	87.06
655.418	81.06
655.622	76.06
655.826	80.06
656.03	78.06
656.234	75.06
656.438	80.06
656.642	98.06
656.846	87.06
657.049	82.06
657.253	84.06
657.457	68.06
657.661	76.06
657.865	76.06
658.068	82.06
658.272	87.06
658.476	75.06
658.68	70.06
658.883	77.06
659.087	72.06
659.291	81.06
659.494	75.06
659.698	77.06
659.901	72.06
660.105	70.06
660.309	93.06
660.512	79.06
660.716	65.06
660.919	80.06
661.123	73.06
661.326	82.06
661.53	65.06
661.733	62.06
661.936	73.06
662.14	77.06
662.343	68.06
662.546	89.06
662.75	76.06
662.953	73.06
663.156	68.06
663.36	88.06
663.563	87.06
663.766	70.06
663.969	78.06
664.173	78.06
664.376	73.06
664.579	70.06
664.782	76.06
664.985	75.06
665.188	70.06
665.391	86.06
665.594	92.06
665.797	68.06
666	82.06
666.203	76.06
666.406	83.06
666.609	94.06
666.812	79.06
667.015	44.06
667.218	76.06
667.421	85.06
667.624	71.06
667.827	92.06
668.03	73.06
668.232	82.06
668.435	86.06
668.638	89.06
668.841	83.06
669.043	79.06
669.246	85.06
669.449	78.06
669.651	82.06
669.854	71.06
670.057	84.06
670.259	62.06
670.462	93.06
670.665	75.06
670.867	88.06
671.07	70.06
671.272	95.06
671.475	89.06
671.677	66.06
671.88	88.06
672.082	82.06
672.284	81.06
672.487	78.06
672.689	79.06
672.892	80.06
