Data from Uncirc_1988_H10_HRD10591_00054.txt Node
Date: Wed Jan 03 12:04:15 EST 2024
User: Yrep
Spectrometer: HR+D1059
Trigger mode: 1
Integration Time (sec): 1.000000E-1
Scans to average: 1
Electric dark correction enabled: true
Nonlinearity correction enabled: false
Boxcar width: 0
XAxis mode: Wavelengths
Number of Pixels in Spectrum: 2048
>>>>>Begin Spectral Data<<<<<
223.165	-17.44
223.4	-17.44
223.635	-17.44
223.869	-13.44
224.104	-30.44
224.338	-20.44
224.573	-8.44
224.808	-10.44
225.042	-17.44
225.277	3.56
225.511	-1.44
225.746	4.56
225.98	0.56
226.215	0.56
226.449	21.56
226.683	26.56
226.918	17.56
227.152	44.56
227.387	22.56
227.621	49.56
227.856	39.56
228.09	34.56
228.324	50.56
228.559	53.56
228.793	48.56
229.027	70.56
229.262	70.56
229.496	71.56
229.73	93.56
229.964	70.56
230.199	73.56
230.433	62.56
230.667	75.56
230.901	88.56
231.136	76.56
231.37	76.56
231.604	79.56
231.838	84.56
232.072	76.56
232.306	83.56
232.541	71.56
232.775	86.56
233.009	82.56
233.243	90.56
233.477	72.56
233.711	82.56
233.945	70.56
234.179	74.56
234.413	73.56
234.647	75.56
234.881	78.56
235.115	76.56
235.349	81.56
235.583	65.56
235.817	59.56
236.051	76.56
236.285	79.56
236.519	73.56
236.753	69.56
236.987	74.56
237.221	80.56
237.455	92.56
237.689	80.56
237.922	85.56
238.156	80.56
238.39	83.56
238.624	81.56
238.858	83.56
239.091	76.56
239.325	62.56
239.559	77.56
239.793	74.56
240.027	80.56
240.26	77.56
240.494	76.56
240.728	86.56
240.961	78.56
241.195	87.56
241.429	57.56
241.662	83.56
241.896	71.56
242.13	73.56
242.363	97.56
242.597	83.56
242.83	73.56
243.064	68.56
243.298	73.56
243.531	82.56
243.765	84.56
243.998	73.56
244.232	86.56
244.465	85.56
244.699	70.56
244.932	62.56
245.166	85.56
245.399	78.56
245.633	73.56
245.866	78.56
246.099	81.56
246.333	64.56
246.566	92.56
246.8	75.56
247.033	79.56
247.266	77.56
247.5	79.56
247.733	82.56
247.966	86.56
248.2	80.56
248.433	81.56
248.666	83.56
248.899	85.56
249.133	63.56
249.366	101.56
249.599	97.56
249.832	80.56
250.066	91.56
250.299	88.56
250.532	84.56
250.765	65.56
250.998	74.56
251.231	60.56
251.465	89.56
251.698	84.56
251.931	63.56
252.164	60.56
252.397	76.56
252.63	66.56
252.863	80.56
253.096	85.56
253.329	73.56
253.562	83.56
253.795	81.56
254.028	66.56
254.261	63.56
254.494	73.56
254.727	88.56
254.96	73.56
255.193	78.56
255.426	96.56
255.659	86.56
255.892	97.56
256.124	83.56
256.357	87.56
256.59	96.56
256.823	88.56
257.056	82.56
257.289	80.56
257.521	85.56
257.754	79.56
257.987	82.56
258.22	92.56
258.452	86.56
258.685	74.56
258.918	73.56
259.151	86.56
259.383	80.56
259.616	74.56
259.849	90.56
260.081	85.56
260.314	85.56
260.547	74.56
260.779	84.56
261.012	81.56
261.244	83.56
261.477	99.56
261.71	95.56
261.942	95.56
262.175	109.56
262.407	83.56
262.64	98.56
262.872	92.56
263.105	79.56
263.337	78.56
263.57	67.56
263.802	87.56
264.035	89.56
264.267	90.56
264.499	80.56
264.732	72.56
264.964	85.56
265.197	78.56
265.429	76.56
265.661	83.56
265.894	101.56
266.126	86.56
266.358	76.56
266.591	80.56
266.823	68.56
267.055	77.56
267.287	82.56
267.52	63.56
267.752	78.56
267.984	100.56
268.216	89.56
268.448	92.56
268.681	93.56
268.913	74.56
269.145	92.56
269.377	90.56
269.609	79.56
269.841	72.56
270.073	91.56
270.306	80.56
270.538	82.56
270.77	85.56
271.002	85.56
271.234	84.56
271.466	94.56
271.698	86.56
271.93	95.56
272.162	78.56
272.394	86.56
272.626	92.56
272.858	81.56
273.09	88.56
273.322	95.56
273.553	86.56
273.785	74.56
274.017	91.56
274.249	72.56
274.481	84.56
274.713	80.56
274.945	84.56
275.176	81.56
275.408	80.56
275.64	82.56
275.872	92.56
276.104	82.56
276.335	99.56
276.567	92.56
276.799	93.56
277.031	87.56
277.262	102.56
277.494	89.56
277.726	86.56
277.957	82.56
278.189	82.56
278.421	77.56
278.652	92.56
278.884	73.56
279.115	83.56
279.347	90.56
279.579	82.56
279.81	89.56
280.042	87.56
280.273	70.56
280.505	82.56
280.736	92.56
280.968	96.56
281.199	84.56
281.431	89.56
281.662	84.56
281.894	76.56
282.125	99.56
282.356	111.56
282.588	137.56
282.819	121.56
283.051	88.56
283.282	90.56
283.513	90.56
283.745	85.56
283.976	79.56
284.207	101.56
284.439	88.56
284.67	95.56
284.901	90.56
285.132	85.56
285.364	84.56
285.595	88.56
285.826	83.56
286.057	98.56
286.288	78.56
286.52	88.56
286.751	79.56
286.982	98.56
287.213	85.56
287.444	84.56
287.675	84.56
287.906	93.56
288.138	99.56
288.369	93.56
288.6	94.56
288.831	86.56
289.062	105.56
289.293	82.56
289.524	84.56
289.755	92.56
289.986	78.56
290.217	87.56
290.448	88.56
290.679	87.56
290.91	85.56
291.141	95.56
291.371	98.56
291.602	79.56
291.833	73.56
292.064	72.56
292.295	94.56
292.526	81.56
292.757	84.56
292.987	100.56
293.218	86.56
293.449	86.56
293.68	100.56
293.91	78.56
294.141	81.56
294.372	87.56
294.603	85.56
294.833	86.56
295.064	78.56
295.295	100.56
295.525	93.56
295.756	74.56
295.987	114.56
296.217	142.56
296.448	121.56
296.679	87.56
296.909	94.56
297.14	98.56
297.37	93.56
297.601	97.56
297.831	78.56
298.062	85.56
298.292	90.56
298.523	87.56
298.753	101.56
298.984	101.56
299.214	75.56
299.445	97.56
299.675	96.56
299.905	87.56
300.136	80.56
300.366	88.56
300.597	102.56
300.827	101.56
301.057	101.56
301.288	111.56
301.518	90.56
301.748	93.56
301.979	94.56
302.209	85.56
302.439	86.56
302.669	96.56
302.9	92.56
303.13	88.56
303.36	90.56
303.59	92.56
303.82	105.56
304.051	83.56
304.281	94.56
304.511	90.56
304.741	95.56
304.971	89.56
305.201	93.56
305.431	77.56
305.661	95.56
305.891	88.56
306.121	110.56
306.352	106.56
306.582	99.56
306.812	87.56
307.042	82.56
307.272	99.56
307.502	80.56
307.731	102.56
307.961	99.56
308.191	80.56
308.421	87.56
308.651	84.56
308.881	89.56
309.111	84.56
309.341	109.56
309.571	98.56
309.8	104.56
310.03	89.56
310.26	82.56
310.49	101.56
310.72	100.56
310.949	108.56
311.179	96.56
311.409	89.56
311.639	98.56
311.868	103.56
312.098	100.56
312.328	89.56
312.557	104.56
312.787	97.56
313.017	99.56
313.246	101.56
313.476	89.56
313.706	87.56
313.935	88.56
314.165	105.56
314.394	88.56
314.624	95.56
314.853	95.56
315.083	88.56
315.312	76.56
315.542	89.56
315.771	109.56
316.001	90.56
316.23	90.56
316.46	107.56
316.689	95.56
316.919	88.56
317.148	82.56
317.377	79.56
317.607	95.56
317.836	92.56
318.065	96.56
318.295	99.56
318.524	84.56
318.753	100.56
318.983	87.56
319.212	99.56
319.441	108.56
319.67	104.56
319.9	111.56
320.129	89.56
320.358	91.56
320.587	104.56
320.816	91.56
321.046	106.56
321.275	108.56
321.504	92.56
321.733	105.56
321.962	96.56
322.191	94.56
322.42	96.56
322.649	110.56
322.878	110.56
323.108	103.56
323.337	136.56
323.566	119.56
323.795	140.56
324.024	194.56
324.253	390.56
324.482	833.56
324.71	1678.56
324.939	2233.56
325.168	804.56
325.397	244.56
325.626	127.56
325.855	119.56
326.084	124.56
326.313	122.56
326.542	142.56
326.77	212.56
326.999	444.56
327.228	959.56
327.457	1712.56
327.686	1341.56
327.914	357.56
328.143	191.56
328.372	159.56
328.6	124.56
328.829	115.56
329.058	121.56
329.287	133.56
329.515	126.56
329.744	104.56
329.972	96.56
330.201	126.56
330.43	105.56
330.658	120.56
330.887	129.56
331.115	123.56
331.344	93.56
331.572	93.56
331.801	106.56
332.03	102.56
332.258	90.56
332.486	88.56
332.715	92.56
332.943	98.56
333.172	94.56
333.4	89.56
333.629	110.56
333.857	96.56
334.085	115.56
334.314	108.56
334.542	100.56
334.771	95.56
334.999	84.56
335.227	95.56
335.455	97.56
335.684	102.56
335.912	98.56
336.14	93.56
336.369	85.56
336.597	92.56
336.825	93.56
337.053	91.56
337.281	87.56
337.51	93.56
337.738	103.56
337.966	81.56
338.194	101.56
338.422	88.56
338.65	99.56
338.878	91.56
339.106	94.56
339.334	100.56
339.562	105.56
339.79	94.56
340.018	84.56
340.246	79.56
340.474	77.56
340.702	85.56
340.93	86.56
341.158	96.56
341.386	83.56
341.614	88.56
341.842	82.56
342.07	85.56
342.298	90.56
342.526	92.56
342.754	88.56
342.981	95.56
343.209	90.56
343.437	106.56
343.665	100.56
343.893	109.56
344.12	80.56
344.348	86.56
344.576	90.56
344.804	100.56
345.031	92.56
345.259	99.56
345.487	80.56
345.714	94.56
345.942	102.56
346.17	97.56
346.397	96.56
346.625	79.56
346.853	94.56
347.08	88.56
347.308	89.56
347.535	104.56
347.763	103.56
347.99	97.56
348.218	105.56
348.445	98.56
348.673	73.56
348.9	100.56
349.128	88.56
349.355	90.56
349.583	95.56
349.81	80.56
350.037	93.56
350.265	88.56
350.492	88.56
350.72	80.56
350.947	94.56
351.174	106.56
351.402	103.56
351.629	105.56
351.856	111.56
352.083	104.56
352.311	116.56
352.538	100.56
352.765	101.56
352.992	125.56
353.22	104.56
353.447	94.56
353.674	105.56
353.901	96.56
354.128	94.56
354.355	101.56
354.583	100.56
354.81	81.56
355.037	97.56
355.264	96.56
355.491	101.56
355.718	106.56
355.945	106.56
356.172	97.56
356.399	96.56
356.626	88.56
356.853	87.56
357.08	80.56
357.307	96.56
357.534	84.56
357.761	101.56
357.988	101.56
358.215	82.56
358.441	91.56
358.668	89.56
358.895	84.56
359.122	79.56
359.349	87.56
359.576	101.56
359.802	74.56
360.029	98.56
360.256	112.56
360.483	101.56
360.709	90.56
360.936	95.56
361.163	100.56
361.39	97.56
361.616	89.56
361.843	90.56
362.07	83.56
362.296	84.56
362.523	82.56
362.749	80.56
362.976	81.56
363.203	89.56
363.429	100.56
363.656	77.56
363.882	92.56
364.109	88.56
364.335	92.56
364.562	84.56
364.788	84.56
365.015	92.56
365.241	93.56
365.468	111.56
365.694	105.56
365.92	95.56
366.147	98.56
366.373	88.56
366.599	89.56
366.826	72.56
367.052	86.56
367.278	90.56
367.505	90.56
367.731	88.56
367.957	112.56
368.184	93.56
368.41	88.56
368.636	108.56
368.862	114.56
369.089	111.56
369.315	87.56
369.541	83.56
369.767	96.56
369.993	86.56
370.219	84.56
370.445	102.56
370.672	83.56
370.898	88.56
371.124	86.56
371.35	95.56
371.576	86.56
371.802	82.56
372.028	72.56
372.254	82.56
372.48	77.56
372.706	95.56
372.932	84.56
373.158	94.56
373.384	96.56
373.61	95.56
373.835	92.56
374.061	92.56
374.287	106.56
374.513	87.56
374.739	81.56
374.965	92.56
375.191	84.56
375.416	81.56
375.642	95.56
375.868	104.56
376.094	85.56
376.319	87.56
376.545	89.56
376.771	101.56
376.997	92.56
377.222	104.56
377.448	96.56
377.674	83.56
377.899	91.56
378.125	83.56
378.35	100.56
378.576	86.56
378.802	78.56
379.027	95.56
379.253	99.56
379.478	92.56
379.704	81.56
379.929	89.56
380.155	88.56
380.38	98.56
380.606	94.56
380.831	85.56
381.057	92.56
381.282	88.56
381.507	94.56
381.733	84.56
381.958	92.56
382.184	96.56
382.409	115.56
382.634	113.56
382.86	88.56
383.085	103.56
383.31	94.56
383.535	104.56
383.761	88.56
383.986	76.56
384.211	88.56
384.436	100.56
384.662	99.56
384.887	102.56
385.112	100.56
385.337	91.56
385.562	96.56
385.787	85.56
386.013	111.56
386.238	94.56
386.463	99.56
386.688	113.56
386.913	104.56
387.138	90.56
387.363	90.56
387.588	91.56
387.813	91.56
388.038	107.56
388.263	106.56
388.488	100.56
388.713	107.56
388.938	113.56
389.163	96.56
389.387	86.56
389.612	96.56
389.837	92.56
390.062	65.56
390.287	90.56
390.512	96.56
390.736	86.56
390.961	85.56
391.186	90.56
391.411	103.56
391.636	92.56
391.86	100.56
392.085	69.56
392.31	86.56
392.534	93.56
392.759	83.56
392.984	80.56
393.208	90.56
393.433	88.56
393.658	85.56
393.882	76.56
394.107	94.56
394.331	84.56
394.556	96.56
394.78	80.56
395.005	93.56
395.229	84.56
395.454	80.56
395.678	72.56
395.903	93.56
396.127	86.56
396.352	89.56
396.576	92.56
396.801	77.56
397.025	71.56
397.249	100.56
397.474	81.56
397.698	84.56
397.922	80.56
398.147	74.56
398.371	86.56
398.595	92.56
398.82	81.56
399.044	78.56
399.268	104.56
399.492	87.56
399.717	85.56
399.941	82.56
400.165	89.56
400.389	106.56
400.613	84.56
400.837	90.56
401.062	95.56
401.286	83.56
401.51	86.56
401.734	98.56
401.958	101.56
402.182	121.56
402.406	154.56
402.63	120.56
402.854	86.56
403.078	89.56
403.302	91.56
403.526	85.56
403.75	84.56
403.974	94.56
404.198	80.56
404.422	86.56
404.645	86.56
404.869	84.56
405.093	90.56
405.317	97.56
405.541	102.56
405.765	103.56
405.988	125.56
406.212	164.56
406.436	209.56
406.66	136.56
406.883	103.56
407.107	102.56
407.331	76.56
407.555	90.56
407.778	101.56
408.002	85.56
408.226	99.56
408.449	86.56
408.673	93.56
408.896	82.56
409.12	107.56
409.344	94.56
409.567	89.56
409.791	94.56
410.014	98.56
410.238	97.56
410.461	94.56
410.685	90.56
410.908	101.56
411.132	106.56
411.355	95.56
411.578	83.56
411.802	80.56
412.025	75.56
412.249	97.56
412.472	92.56
412.695	103.56
412.919	97.56
413.142	104.56
413.365	87.56
413.589	88.56
413.812	89.56
414.035	94.56
414.258	84.56
414.482	95.56
414.705	88.56
414.928	102.56
415.151	92.56
415.374	94.56
415.597	87.56
415.821	87.56
416.044	79.56
416.267	87.56
416.49	90.56
416.713	87.56
416.936	95.56
417.159	82.56
417.382	87.56
417.605	96.56
417.828	103.56
418.051	90.56
418.274	85.56
418.497	90.56
418.72	81.56
418.943	87.56
419.166	101.56
419.389	83.56
419.611	90.56
419.834	64.56
420.057	89.56
420.28	87.56
420.503	89.56
420.726	81.56
420.948	79.56
421.171	82.56
421.394	87.56
421.617	84.56
421.839	85.56
422.062	87.56
422.285	94.56
422.507	88.56
422.73	94.56
422.953	92.56
423.175	98.56
423.398	91.56
423.621	94.56
423.843	85.56
424.066	100.56
424.288	85.56
424.511	94.56
424.733	95.56
424.956	104.56
425.178	104.56
425.401	110.56
425.623	98.56
425.846	78.56
426.068	98.56
426.291	87.56
426.513	84.56
426.735	79.56
426.958	88.56
427.18	104.56
427.402	130.56
427.625	176.56
427.847	122.56
428.069	103.56
428.292	84.56
428.514	87.56
428.736	94.56
428.958	85.56
429.181	93.56
429.403	94.56
429.625	91.56
429.847	85.56
430.069	91.56
430.292	99.56
430.514	77.56
430.736	85.56
430.958	88.56
431.18	87.56
431.402	90.56
431.624	84.56
431.846	85.56
432.068	89.56
432.29	88.56
432.512	84.56
432.734	82.56
432.956	88.56
433.178	105.56
433.4	90.56
433.622	83.56
433.844	96.56
434.066	81.56
434.287	92.56
434.509	76.56
434.731	82.56
434.953	91.56
435.175	83.56
435.397	90.56
435.618	99.56
435.84	107.56
436.062	112.56
436.284	124.56
436.505	101.56
436.727	105.56
436.949	100.56
437.17	86.56
437.392	86.56
437.614	94.56
437.835	97.56
438.057	113.56
438.278	110.56
438.5	101.56
438.721	112.56
438.943	94.56
439.165	87.56
439.386	94.56
439.608	98.56
439.829	97.56
440.05	121.56
440.272	130.56
440.493	109.56
440.715	96.56
440.936	89.56
441.158	82.56
441.379	96.56
441.6	91.56
441.822	87.56
442.043	105.56
442.264	105.56
442.486	102.56
442.707	108.56
442.928	97.56
443.149	138.56
443.371	126.56
443.592	104.56
443.813	101.56
444.034	99.56
444.255	90.56
444.476	72.56
444.698	92.56
444.919	92.56
445.14	138.56
445.361	127.56
445.582	130.56
445.803	129.56
446.024	120.56
446.245	135.56
446.466	106.56
446.687	83.56
446.908	84.56
447.129	101.56
447.35	80.56
447.571	84.56
447.792	106.56
448.013	101.56
448.234	115.56
448.455	95.56
448.675	118.56
448.896	123.56
449.117	90.56
449.338	105.56
449.559	140.56
449.779	145.56
450	99.56
450.221	90.56
450.442	95.56
450.662	98.56
450.883	119.56
451.104	104.56
451.324	91.56
451.545	93.56
451.766	88.56
451.986	83.56
452.207	100.56
452.428	83.56
452.648	84.56
452.869	116.56
453.089	106.56
453.31	99.56
453.53	97.56
453.751	81.56
453.971	94.56
454.192	102.56
454.412	87.56
454.633	72.56
454.853	99.56
455.073	91.56
455.294	88.56
455.514	106.56
455.734	95.56
455.955	78.56
456.175	70.56
456.395	90.56
456.616	83.56
456.836	88.56
457.056	96.56
457.276	80.56
457.497	76.56
457.717	96.56
457.937	95.56
458.157	96.56
458.377	90.56
458.598	96.56
458.818	145.56
459.038	165.56
459.258	116.56
459.478	86.56
459.698	94.56
459.918	93.56
460.138	87.56
460.358	88.56
460.578	85.56
460.798	78.56
461.018	88.56
461.238	91.56
461.458	69.56
461.678	80.56
461.898	89.56
462.118	70.56
462.338	92.56
462.558	87.56
462.777	82.56
462.997	88.56
463.217	84.56
463.437	79.56
463.657	90.56
463.876	88.56
464.096	87.56
464.316	95.56
464.536	91.56
464.755	98.56
464.975	110.56
465.195	167.56
465.414	152.56
465.634	99.56
465.854	104.56
466.073	82.56
466.293	74.56
466.512	92.56
466.732	88.56
466.951	96.56
467.171	97.56
467.391	96.56
467.61	118.56
467.829	96.56
468.049	80.56
468.268	105.56
468.488	87.56
468.707	95.56
468.927	93.56
469.146	97.56
469.365	89.56
469.585	69.56
469.804	94.56
470.023	92.56
470.243	87.56
470.462	102.56
470.681	110.56
470.901	84.56
471.12	77.56
471.339	90.56
471.558	80.56
471.777	86.56
471.997	82.56
472.216	108.56
472.435	116.56
472.654	93.56
472.873	70.56
473.092	89.56
473.311	87.56
473.53	77.56
473.749	73.56
473.968	79.56
474.187	98.56
474.406	94.56
474.625	89.56
474.844	88.56
475.063	82.56
475.282	90.56
475.501	84.56
475.72	95.56
475.939	86.56
476.158	88.56
476.377	86.56
476.596	86.56
476.814	97.56
477.033	86.56
477.252	82.56
477.471	74.56
477.69	82.56
477.908	72.56
478.127	92.56
478.346	86.56
478.564	86.56
478.783	97.56
479.002	89.56
479.22	89.56
479.439	110.56
479.658	94.56
479.876	97.56
480.095	97.56
480.313	80.56
480.532	93.56
480.751	96.56
480.969	116.56
481.188	144.56
481.406	118.56
481.624	94.56
481.843	88.56
482.061	102.56
482.28	77.56
482.498	83.56
482.717	77.56
482.935	87.56
483.153	101.56
483.372	99.56
483.59	111.56
483.808	90.56
484.027	84.56
484.245	98.56
484.463	89.56
484.681	99.56
484.9	87.56
485.118	82.56
485.336	86.56
485.554	104.56
485.772	105.56
485.99	102.56
486.209	95.56
486.427	112.56
486.645	114.56
486.863	120.56
487.081	106.56
487.299	103.56
487.517	85.56
487.735	105.56
487.953	97.56
488.171	100.56
488.389	93.56
488.607	95.56
488.825	94.56
489.043	97.56
489.261	81.56
489.479	83.56
489.696	86.56
489.914	100.56
490.132	94.56
490.35	83.56
490.568	88.56
490.786	96.56
491.003	96.56
491.221	87.56
491.439	91.56
491.657	99.56
491.874	98.56
492.092	100.56
492.31	90.56
492.527	84.56
492.745	88.56
492.963	85.56
493.18	88.56
493.398	91.56
493.615	103.56
493.833	96.56
494.05	96.56
494.268	96.56
494.485	94.56
494.703	89.56
494.92	97.56
495.138	88.56
495.355	79.56
495.573	82.56
495.79	84.56
496.008	89.56
496.225	92.56
496.442	86.56
496.66	91.56
496.877	86.56
497.094	86.56
497.312	80.56
497.529	89.56
497.746	89.56
497.963	92.56
498.181	96.56
498.398	110.56
498.615	120.56
498.832	101.56
499.049	83.56
499.267	83.56
499.484	85.56
499.701	94.56
499.918	73.56
500.135	97.56
500.352	88.56
500.569	84.56
500.786	80.56
501.003	99.56
501.22	95.56
501.437	86.56
501.654	88.56
501.871	88.56
502.088	102.56
502.305	80.56
502.522	74.56
502.739	80.56
502.956	89.56
503.172	94.56
503.389	81.56
503.606	111.56
503.823	88.56
504.04	104.56
504.256	88.56
504.473	89.56
504.69	96.56
504.907	94.56
505.123	92.56
505.34	86.56
505.557	88.56
505.773	97.56
505.99	96.56
506.207	94.56
506.423	76.56
506.64	78.56
506.856	92.56
507.073	87.56
507.289	104.56
507.506	92.56
507.722	100.56
507.939	114.56
508.155	85.56
508.372	92.56
508.588	106.56
508.805	90.56
509.021	106.56
509.238	102.56
509.454	100.56
509.67	100.56
509.887	113.56
510.103	120.56
510.319	221.56
510.536	735.56
510.752	2251.56
510.968	614.56
511.184	144.56
511.401	126.56
511.617	105.56
511.833	108.56
512.049	100.56
512.265	103.56
512.481	99.56
512.698	88.56
512.914	99.56
513.13	95.56
513.346	94.56
513.562	103.56
513.778	84.56
513.994	100.56
514.21	109.56
514.426	106.56
514.642	136.56
514.858	125.56
515.074	164.56
515.29	448.56
515.506	1402.56
515.721	487.56
515.937	143.56
516.153	109.56
516.369	94.56
516.585	107.56
516.801	84.56
517.016	107.56
517.232	109.56
517.448	95.56
517.664	100.56
517.879	94.56
518.095	86.56
518.311	91.56
518.527	117.56
518.742	88.56
518.958	94.56
519.173	99.56
519.389	83.56
519.605	82.56
519.82	97.56
520.036	105.56
520.251	104.56
520.467	103.56
520.682	105.56
520.898	102.56
521.113	106.56
521.329	122.56
521.544	196.56
521.76	548.56
521.975	2304.56
522.19	1355.56
522.406	270.56
522.621	120.56
522.836	100.56
523.052	95.56
523.267	88.56
523.482	89.56
523.698	101.56
523.913	110.56
524.128	92.56
524.343	91.56
524.559	101.56
524.774	94.56
524.989	99.56
525.204	96.56
525.419	92.56
525.634	82.56
525.849	84.56
526.064	101.56
526.28	81.56
526.495	84.56
526.71	90.56
526.925	88.56
527.14	92.56
527.355	94.56
527.57	82.56
527.785	82.56
527.999	103.56
528.214	82.56
528.429	96.56
528.644	86.56
528.859	99.56
529.074	86.56
529.289	120.56
529.503	174.56
529.718	94.56
529.933	92.56
530.148	94.56
530.363	96.56
530.577	93.56
530.792	92.56
531.007	86.56
531.221	93.56
531.436	101.56
531.651	87.56
531.865	92.56
532.08	90.56
532.295	95.56
532.509	104.56
532.724	100.56
532.938	85.56
533.153	108.56
533.367	87.56
533.582	103.56
533.796	92.56
534.011	87.56
534.225	92.56
534.44	91.56
534.654	106.56
534.868	99.56
535.083	85.56
535.297	101.56
535.511	109.56
535.726	96.56
535.94	104.56
536.154	104.56
536.369	93.56
536.583	93.56
536.797	98.56
537.011	83.56
537.225	100.56
537.44	90.56
537.654	83.56
537.868	88.56
538.082	91.56
538.296	85.56
538.51	99.56
538.724	92.56
538.938	71.56
539.153	79.56
539.367	108.56
539.581	106.56
539.795	94.56
540.009	84.56
540.222	89.56
540.436	85.56
540.65	89.56
540.864	104.56
541.078	104.56
541.292	91.56
541.506	99.56
541.72	100.56
541.934	88.56
542.147	95.56
542.361	92.56
542.575	85.56
542.789	95.56
543.002	80.56
543.216	104.56
543.43	76.56
543.644	86.56
543.857	85.56
544.071	81.56
544.285	97.56
544.498	90.56
544.712	84.56
544.925	93.56
545.139	90.56
545.352	85.56
545.566	69.56
545.779	91.56
545.993	84.56
546.206	89.56
546.42	83.56
546.633	100.56
546.847	105.56
547.06	89.56
547.274	86.56
547.487	95.56
547.7	94.56
547.914	81.56
548.127	88.56
548.34	92.56
548.554	82.56
548.767	85.56
548.98	97.56
549.193	96.56
549.407	87.56
549.62	97.56
549.833	84.56
550.046	86.56
550.259	94.56
550.473	92.56
550.686	96.56
550.899	94.56
551.112	99.56
551.325	83.56
551.538	86.56
551.751	80.56
551.964	92.56
552.177	73.56
552.39	98.56
552.603	88.56
552.816	97.56
553.029	90.56
553.242	101.56
553.455	82.56
553.667	104.56
553.88	102.56
554.093	97.56
554.306	90.56
554.519	98.56
554.732	93.56
554.944	93.56
555.157	87.56
555.37	93.56
555.583	78.56
555.795	93.56
556.008	76.56
556.221	89.56
556.433	80.56
556.646	87.56
556.859	94.56
557.071	100.56
557.284	94.56
557.496	89.56
557.709	80.56
557.921	91.56
558.134	93.56
558.346	88.56
558.559	93.56
558.771	91.56
558.984	86.56
559.196	101.56
559.409	96.56
559.621	95.56
559.833	107.56
560.046	109.56
560.258	94.56
560.47	86.56
560.683	92.56
560.895	104.56
561.107	96.56
561.32	82.56
561.532	91.56
561.744	94.56
561.956	98.56
562.168	98.56
562.381	101.56
562.593	98.56
562.805	92.56
563.017	93.56
563.229	110.56
563.441	95.56
563.653	90.56
563.865	83.56
564.077	98.56
564.289	91.56
564.501	85.56
564.713	94.56
564.925	76.56
565.137	93.56
565.349	101.56
565.561	76.56
565.773	89.56
565.985	88.56
566.197	92.56
566.408	85.56
566.62	79.56
566.832	68.56
567.044	94.56
567.255	86.56
567.467	96.56
567.679	93.56
567.891	73.56
568.102	91.56
568.314	96.56
568.526	85.56
568.737	80.56
568.949	94.56
569.161	90.56
569.372	94.56
569.584	78.56
569.795	77.56
570.007	113.56
570.218	225.56
570.43	131.56
570.641	87.56
570.853	74.56
571.064	92.56
571.276	87.56
571.487	79.56
571.698	83.56
571.91	89.56
572.121	84.56
572.333	86.56
572.544	96.56
572.755	85.56
572.966	90.56
573.178	91.56
573.389	97.56
573.6	92.56
573.811	83.56
574.023	79.56
574.234	83.56
574.445	94.56
574.656	77.56
574.867	94.56
575.078	89.56
575.289	73.56
575.501	95.56
575.712	96.56
575.923	88.56
576.134	100.56
576.345	91.56
576.556	81.56
576.767	93.56
576.978	100.56
577.188	91.56
577.399	91.56
577.61	86.56
577.821	111.56
578.032	117.56
578.243	269.56
578.454	712.56
578.665	218.56
578.875	106.56
579.086	85.56
579.297	84.56
579.508	93.56
579.718	82.56
579.929	91.56
580.14	99.56
580.35	88.56
580.561	88.56
580.772	84.56
580.982	84.56
581.193	82.56
581.403	81.56
581.614	93.56
581.825	83.56
582.035	82.56
582.246	80.56
582.456	80.56
582.667	98.56
582.877	83.56
583.087	100.56
583.298	96.56
583.508	80.56
583.719	91.56
583.929	95.56
584.139	88.56
584.35	84.56
584.56	90.56
584.77	94.56
584.981	80.56
585.191	96.56
585.401	74.56
585.611	92.56
585.821	85.56
586.032	74.56
586.242	76.56
586.452	99.56
586.662	83.56
586.872	92.56
587.082	76.56
587.292	83.56
587.502	92.56
587.713	81.56
587.923	81.56
588.133	81.56
588.343	79.56
588.553	88.56
588.762	95.56
588.972	100.56
589.182	77.56
589.392	78.56
589.602	88.56
589.812	86.56
590.022	98.56
590.232	88.56
590.441	94.56
590.651	71.56
590.861	84.56
591.071	72.56
591.281	90.56
591.49	82.56
591.7	90.56
591.91	86.56
592.119	91.56
592.329	86.56
592.539	105.56
592.748	92.56
592.958	86.56
593.167	90.56
593.377	89.56
593.587	97.56
593.796	92.56
594.006	78.56
594.215	82.56
594.424	81.56
594.634	69.56
594.843	80.56
595.053	71.56
595.262	82.56
595.472	86.56
595.681	93.56
595.89	102.56
596.1	87.56
596.309	93.56
596.518	90.56
596.727	97.56
596.937	81.56
597.146	80.56
597.355	94.56
597.564	79.56
597.774	80.56
597.983	95.56
598.192	59.56
598.401	72.56
598.61	94.56
598.819	85.56
599.028	96.56
599.237	86.56
599.446	84.56
599.655	87.56
599.864	91.56
600.073	91.56
600.282	87.56
600.491	84.56
600.7	76.56
600.909	84.56
601.118	85.56
601.327	83.56
601.536	77.56
601.745	87.56
601.953	72.56
602.162	74.56
602.371	94.56
602.58	92.56
602.789	80.56
602.997	101.56
603.206	89.56
603.415	89.56
603.623	72.56
603.832	80.56
604.041	91.56
604.249	83.56
604.458	86.56
604.666	90.56
604.875	85.56
605.084	73.56
605.292	87.56
605.501	76.56
605.709	94.56
605.918	77.56
606.126	103.56
606.334	92.56
606.543	81.56
606.751	83.56
606.96	79.56
607.168	75.56
607.376	91.56
607.585	71.56
607.793	91.56
608.001	81.56
608.21	78.56
608.418	78.56
608.626	77.56
608.834	73.56
609.043	96.56
609.251	92.56
609.459	92.56
609.667	86.56
609.875	92.56
610.083	91.56
610.291	74.56
610.499	82.56
610.707	88.56
610.916	65.56
611.124	72.56
611.332	92.56
611.54	88.56
611.748	86.56
611.955	96.56
612.163	90.56
612.371	81.56
612.579	91.56
612.787	88.56
612.995	86.56
613.203	97.56
613.411	95.56
613.618	88.56
613.826	88.56
614.034	98.56
614.242	83.56
614.449	81.56
614.657	78.56
614.865	74.56
615.072	84.56
615.28	94.56
615.488	98.56
615.695	89.56
615.903	94.56
616.111	94.56
616.318	108.56
616.526	89.56
616.733	99.56
616.941	97.56
617.148	87.56
617.356	86.56
617.563	80.56
617.771	87.56
617.978	69.56
618.185	80.56
618.393	86.56
618.6	89.56
618.807	81.56
619.015	85.56
619.222	97.56
619.429	82.56
619.637	71.56
619.844	95.56
620.051	92.56
620.258	84.56
620.466	87.56
620.673	98.56
620.88	84.56
621.087	85.56
621.294	88.56
621.501	90.56
621.708	94.56
621.915	82.56
622.122	93.56
622.329	91.56
622.536	85.56
622.743	68.56
622.95	97.56
623.157	92.56
623.364	95.56
623.571	87.56
623.778	80.56
623.985	91.56
624.192	92.56
624.399	80.56
624.606	84.56
624.812	78.56
625.019	85.56
625.226	78.56
625.433	89.56
625.639	79.56
625.846	68.56
626.053	88.56
626.259	81.56
626.466	80.56
626.673	89.56
626.879	94.56
627.086	96.56
627.293	75.56
627.499	94.56
627.706	84.56
627.912	80.56
628.119	83.56
628.325	92.56
628.532	88.56
628.738	80.56
628.945	100.56
629.151	81.56
629.357	70.56
629.564	85.56
629.77	65.56
629.976	85.56
630.183	87.56
630.389	76.56
630.595	87.56
630.802	99.56
631.008	81.56
631.214	85.56
631.42	93.56
631.627	90.56
631.833	92.56
632.039	84.56
632.245	86.56
632.451	100.56
632.657	88.56
632.863	82.56
633.069	78.56
633.275	85.56
633.481	78.56
633.688	83.56
633.893	88.56
634.099	82.56
634.305	89.56
634.511	83.56
634.717	88.56
634.923	81.56
635.129	84.56
635.335	84.56
635.541	74.56
635.747	69.56
635.952	90.56
636.158	78.56
636.364	93.56
636.57	90.56
636.775	89.56
636.981	72.56
637.187	90.56
637.392	71.56
637.598	101.56
637.804	97.56
638.009	86.56
638.215	76.56
638.421	80.56
638.626	81.56
638.832	94.56
639.037	67.56
639.243	76.56
639.448	89.56
639.654	77.56
639.859	82.56
640.065	88.56
640.27	73.56
640.475	80.56
640.681	82.56
640.886	81.56
641.091	77.56
641.297	81.56
641.502	87.56
641.707	99.56
641.913	80.56
642.118	80.56
642.323	91.56
642.528	111.56
642.733	88.56
642.939	84.56
643.144	85.56
643.349	85.56
643.554	69.56
643.759	82.56
643.964	78.56
644.169	91.56
644.374	93.56
644.579	95.56
644.784	97.56
644.989	86.56
645.194	88.56
645.399	85.56
645.604	84.56
645.809	72.56
646.014	100.56
646.219	78.56
646.423	89.56
646.628	73.56
646.833	88.56
647.038	82.56
647.243	75.56
647.447	82.56
647.652	90.56
647.857	88.56
648.062	72.56
648.266	85.56
648.471	88.56
648.676	86.56
648.88	94.56
649.085	76.56
649.289	102.56
649.494	106.56
649.698	129.56
649.903	94.56
650.107	87.56
650.312	80.56
650.516	91.56
650.721	88.56
650.925	73.56
651.13	94.56
651.334	86.56
651.539	96.56
651.743	86.56
651.947	96.56
652.152	92.56
652.356	82.56
652.56	83.56
652.764	84.56
652.969	84.56
653.173	84.56
653.377	86.56
653.581	83.56
653.785	79.56
653.99	86.56
654.194	86.56
654.398	80.56
654.602	94.56
654.806	92.56
655.01	106.56
655.214	102.56
655.418	81.56
655.622	85.56
655.826	96.56
656.03	93.56
656.234	94.56
656.438	95.56
656.642	82.56
656.846	88.56
657.049	101.56
657.253	86.56
657.457	84.56
657.661	77.56
657.865	93.56
658.068	72.56
658.272	82.56
658.476	90.56
658.68	66.56
658.883	89.56
659.087	86.56
659.291	79.56
659.494	71.56
659.698	77.56
659.901	88.56
660.105	79.56
660.309	80.56
660.512	67.56
660.716	90.56
660.919	80.56
661.123	85.56
661.326	72.56
661.53	92.56
661.733	77.56
661.936	79.56
662.14	73.56
662.343	82.56
662.546	88.56
662.75	88.56
662.953	74.56
663.156	82.56
663.36	78.56
663.563	68.56
663.766	86.56
663.969	87.56
664.173	74.56
664.376	93.56
664.579	72.56
664.782	73.56
664.985	90.56
665.188	90.56
665.391	86.56
665.594	89.56
665.797	84.56
666	81.56
666.203	94.56
666.406	92.56
666.609	70.56
666.812	80.56
667.015	79.56
667.218	87.56
667.421	94.56
667.624	85.56
667.827	94.56
668.03	69.56
668.232	85.56
668.435	80.56
668.638	90.56
668.841	80.56
669.043	85.56
669.246	82.56
669.449	86.56
669.651	72.56
669.854	71.56
670.057	84.56
670.259	77.56
670.462	84.56
670.665	78.56
670.867	70.56
671.07	84.56
671.272	87.56
671.475	86.56
671.677	78.56
671.88	86.56
672.082	69.56
672.284	70.56
672.487	80.56
672.689	78.56
672.892	83.56
