Data from Uncirc_1988_H10_HRD10591_00080.txt Node
Date: Wed Jan 03 12:04:20 EST 2024
User: Yrep
Spectrometer: HR+D1059
Trigger mode: 1
Integration Time (sec): 1.000000E-1
Scans to average: 1
Electric dark correction enabled: true
Nonlinearity correction enabled: false
Boxcar width: 0
XAxis mode: Wavelengths
Number of Pixels in Spectrum: 2048
>>>>>Begin Spectral Data<<<<<
223.165	-22.19
223.4	-22.19
223.635	-22.19
223.869	-13.19
224.104	-11.19
224.338	-19.19
224.573	-22.19
224.808	-12.19
225.042	-17.19
225.277	-16.19
225.511	-4.19
225.746	4.81
225.98	-1.19
226.215	11.81
226.449	29.81
226.683	35.81
226.918	28.81
227.152	27.81
227.387	28.81
227.621	31.81
227.856	53.81
228.09	42.81
228.324	59.81
228.559	49.81
228.793	61.81
229.027	63.81
229.262	70.81
229.496	92.81
229.73	92.81
229.964	100.81
230.199	65.81
230.433	72.81
230.667	75.81
230.901	67.81
231.136	75.81
231.37	93.81
231.604	84.81
231.838	83.81
232.072	75.81
232.306	80.81
232.541	80.81
232.775	80.81
233.009	78.81
233.243	69.81
233.477	77.81
233.711	91.81
233.945	73.81
234.179	81.81
234.413	83.81
234.647	84.81
234.881	88.81
235.115	75.81
235.349	76.81
235.583	77.81
235.817	77.81
236.051	79.81
236.285	77.81
236.519	85.81
236.753	75.81
236.987	79.81
237.221	77.81
237.455	85.81
237.689	76.81
237.922	72.81
238.156	68.81
238.39	70.81
238.624	70.81
238.858	65.81
239.091	63.81
239.325	85.81
239.559	75.81
239.793	71.81
240.027	92.81
240.26	81.81
240.494	77.81
240.728	78.81
240.961	75.81
241.195	85.81
241.429	77.81
241.662	79.81
241.896	78.81
242.13	66.81
242.363	68.81
242.597	77.81
242.83	70.81
243.064	78.81
243.298	83.81
243.531	71.81
243.765	88.81
243.998	75.81
244.232	81.81
244.465	85.81
244.699	95.81
244.932	83.81
245.166	76.81
245.399	77.81
245.633	75.81
245.866	85.81
246.099	82.81
246.333	67.81
246.566	75.81
246.8	84.81
247.033	75.81
247.266	76.81
247.5	88.81
247.733	84.81
247.966	78.81
248.2	84.81
248.433	90.81
248.666	73.81
248.899	71.81
249.133	76.81
249.366	100.81
249.599	111.81
249.832	80.81
250.066	72.81
250.299	85.81
250.532	77.81
250.765	66.81
250.998	80.81
251.231	93.81
251.465	69.81
251.698	80.81
251.931	90.81
252.164	76.81
252.397	81.81
252.63	87.81
252.863	79.81
253.096	67.81
253.329	75.81
253.562	69.81
253.795	78.81
254.028	65.81
254.261	66.81
254.494	75.81
254.727	85.81
254.96	77.81
255.193	76.81
255.426	73.81
255.659	87.81
255.892	79.81
256.124	97.81
256.357	87.81
256.59	88.81
256.823	72.81
257.056	92.81
257.289	80.81
257.521	83.81
257.754	86.81
257.987	75.81
258.22	72.81
258.452	79.81
258.685	101.81
258.918	79.81
259.151	83.81
259.383	81.81
259.616	92.81
259.849	81.81
260.081	74.81
260.314	80.81
260.547	77.81
260.779	75.81
261.012	87.81
261.244	78.81
261.477	81.81
261.71	103.81
261.942	124.81
262.175	126.81
262.407	93.81
262.64	91.81
262.872	81.81
263.105	92.81
263.337	75.81
263.57	77.81
263.802	93.81
264.035	82.81
264.267	92.81
264.499	81.81
264.732	85.81
264.964	92.81
265.197	72.81
265.429	73.81
265.661	75.81
265.894	79.81
266.126	84.81
266.358	87.81
266.591	89.81
266.823	85.81
267.055	78.81
267.287	77.81
267.52	68.81
267.752	81.81
267.984	76.81
268.216	77.81
268.448	84.81
268.681	93.81
268.913	92.81
269.145	81.81
269.377	83.81
269.609	77.81
269.841	79.81
270.073	80.81
270.306	72.81
270.538	81.81
270.77	97.81
271.002	81.81
271.234	96.81
271.466	89.81
271.698	85.81
271.93	79.81
272.162	90.81
272.394	89.81
272.626	96.81
272.858	89.81
273.09	90.81
273.322	78.81
273.553	93.81
273.785	104.81
274.017	75.81
274.249	93.81
274.481	93.81
274.713	76.81
274.945	87.81
275.176	89.81
275.408	93.81
275.64	85.81
275.872	80.81
276.104	75.81
276.335	89.81
276.567	111.81
276.799	116.81
277.031	121.81
277.262	88.81
277.494	85.81
277.726	78.81
277.957	91.81
278.189	87.81
278.421	102.81
278.652	94.81
278.884	82.81
279.115	83.81
279.347	87.81
279.579	75.81
279.81	72.81
280.042	94.81
280.273	81.81
280.505	95.81
280.736	89.81
280.968	81.81
281.199	88.81
281.431	105.81
281.662	93.81
281.894	95.81
282.125	110.81
282.356	128.81
282.588	174.81
282.819	134.81
283.051	87.81
283.282	91.81
283.513	79.81
283.745	107.81
283.976	93.81
284.207	94.81
284.439	93.81
284.67	75.81
284.901	70.81
285.132	89.81
285.364	101.81
285.595	93.81
285.826	93.81
286.057	94.81
286.288	81.81
286.52	86.81
286.751	83.81
286.982	85.81
287.213	85.81
287.444	84.81
287.675	91.81
287.906	83.81
288.138	91.81
288.369	86.81
288.6	103.81
288.831	98.81
289.062	80.81
289.293	93.81
289.524	88.81
289.755	98.81
289.986	79.81
290.217	89.81
290.448	89.81
290.679	91.81
290.91	79.81
291.141	87.81
291.371	91.81
291.602	80.81
291.833	96.81
292.064	92.81
292.295	90.81
292.526	82.81
292.757	78.81
292.987	84.81
293.218	81.81
293.449	93.81
293.68	95.81
293.91	93.81
294.141	89.81
294.372	84.81
294.603	85.81
294.833	84.81
295.064	89.81
295.295	85.81
295.525	87.81
295.756	111.81
295.987	129.81
296.217	152.81
296.448	132.81
296.679	97.81
296.909	93.81
297.14	94.81
297.37	97.81
297.601	92.81
297.831	99.81
298.062	96.81
298.292	86.81
298.523	79.81
298.753	95.81
298.984	73.81
299.214	78.81
299.445	94.81
299.675	90.81
299.905	96.81
300.136	101.81
300.366	105.81
300.597	85.81
300.827	108.81
301.057	104.81
301.288	119.81
301.518	80.81
301.748	93.81
301.979	97.81
302.209	95.81
302.439	91.81
302.669	81.81
302.9	88.81
303.13	85.81
303.36	92.81
303.59	102.81
303.82	117.81
304.051	100.81
304.281	95.81
304.511	95.81
304.741	84.81
304.971	83.81
305.201	99.81
305.431	90.81
305.661	95.81
305.891	100.81
306.121	101.81
306.352	107.81
306.582	108.81
306.812	102.81
307.042	83.81
307.272	94.81
307.502	89.81
307.731	96.81
307.961	104.81
308.191	84.81
308.421	91.81
308.651	94.81
308.881	82.81
309.111	91.81
309.341	89.81
309.571	89.81
309.8	95.81
310.03	99.81
310.26	94.81
310.49	96.81
310.72	95.81
310.949	114.81
311.179	104.81
311.409	111.81
311.639	97.81
311.868	101.81
312.098	93.81
312.328	101.81
312.557	107.81
312.787	99.81
313.017	104.81
313.246	94.81
313.476	93.81
313.706	101.81
313.935	91.81
314.165	104.81
314.394	120.81
314.624	105.81
314.853	110.81
315.083	101.81
315.312	94.81
315.542	89.81
315.771	83.81
316.001	107.81
316.23	83.81
316.46	93.81
316.689	93.81
316.919	100.81
317.148	105.81
317.377	103.81
317.607	104.81
317.836	78.81
318.065	105.81
318.295	95.81
318.524	89.81
318.753	88.81
318.983	103.81
319.212	96.81
319.441	110.81
319.67	110.81
319.9	92.81
320.129	99.81
320.358	87.81
320.587	91.81
320.816	96.81
321.046	99.81
321.275	83.81
321.504	89.81
321.733	104.81
321.962	100.81
322.191	96.81
322.42	117.81
322.649	117.81
322.878	119.81
323.108	122.81
323.337	132.81
323.566	142.81
323.795	168.81
324.024	261.81
324.253	526.81
324.482	1145.81
324.71	2397.81
324.939	3295.81
325.168	1147.81
325.397	317.81
325.626	173.81
325.855	127.81
326.084	126.81
326.313	155.81
326.542	185.81
326.77	295.81
326.999	599.81
327.228	1284.81
327.457	2457.81
327.686	1964.81
327.914	496.81
328.143	240.81
328.372	204.81
328.6	140.81
328.829	128.81
329.058	155.81
329.287	145.81
329.515	125.81
329.744	115.81
329.972	115.81
330.201	132.81
330.43	171.81
330.658	163.81
330.887	189.81
331.115	139.81
331.344	107.81
331.572	101.81
331.801	101.81
332.03	90.81
332.258	99.81
332.486	98.81
332.715	97.81
332.943	98.81
333.172	93.81
333.4	100.81
333.629	124.81
333.857	110.81
334.085	139.81
334.314	156.81
334.542	178.81
334.771	168.81
334.999	125.81
335.227	109.81
335.455	107.81
335.684	104.81
335.912	108.81
336.14	91.81
336.369	97.81
336.597	108.81
336.825	99.81
337.053	97.81
337.281	94.81
337.51	83.81
337.738	97.81
337.966	109.81
338.194	92.81
338.422	94.81
338.65	89.81
338.878	79.81
339.106	87.81
339.334	91.81
339.562	100.81
339.79	86.81
340.018	97.81
340.246	93.81
340.474	106.81
340.702	100.81
340.93	103.81
341.158	98.81
341.386	96.81
341.614	104.81
341.842	95.81
342.07	94.81
342.298	92.81
342.526	101.81
342.754	100.81
342.981	96.81
343.209	95.81
343.437	102.81
343.665	99.81
343.893	99.81
344.12	105.81
344.348	86.81
344.576	91.81
344.804	117.81
345.031	104.81
345.259	94.81
345.487	103.81
345.714	99.81
345.942	96.81
346.17	93.81
346.397	93.81
346.625	92.81
346.853	101.81
347.08	94.81
347.308	99.81
347.535	95.81
347.763	96.81
347.99	108.81
348.218	98.81
348.445	103.81
348.673	108.81
348.9	105.81
349.128	83.81
349.355	96.81
349.583	94.81
349.81	94.81
350.037	99.81
350.265	87.81
350.492	80.81
350.72	97.81
350.947	116.81
351.174	108.81
351.402	112.81
351.629	110.81
351.856	109.81
352.083	115.81
352.311	99.81
352.538	105.81
352.765	101.81
352.992	117.81
353.22	115.81
353.447	108.81
353.674	109.81
353.901	94.81
354.128	102.81
354.355	103.81
354.583	102.81
354.81	102.81
355.037	91.81
355.264	91.81
355.491	93.81
355.718	98.81
355.945	96.81
356.172	113.81
356.399	91.81
356.626	97.81
356.853	94.81
357.08	101.81
357.307	88.81
357.534	84.81
357.761	101.81
357.988	94.81
358.215	91.81
358.441	75.81
358.668	79.81
358.895	88.81
359.122	83.81
359.349	85.81
359.576	109.81
359.802	101.81
360.029	130.81
360.256	133.81
360.483	119.81
360.709	101.81
360.936	95.81
361.163	94.81
361.39	85.81
361.616	100.81
361.843	84.81
362.07	103.81
362.296	100.81
362.523	87.81
362.749	104.81
362.976	91.81
363.203	93.81
363.429	103.81
363.656	88.81
363.882	93.81
364.109	93.81
364.335	84.81
364.562	99.81
364.788	103.81
365.015	96.81
365.241	91.81
365.468	110.81
365.694	111.81
365.92	97.81
366.147	86.81
366.373	87.81
366.599	90.81
366.826	91.81
367.052	92.81
367.278	89.81
367.505	85.81
367.731	89.81
367.957	87.81
368.184	89.81
368.41	107.81
368.636	127.81
368.862	124.81
369.089	119.81
369.315	92.81
369.541	95.81
369.767	110.81
369.993	91.81
370.219	102.81
370.445	89.81
370.672	87.81
370.898	75.81
371.124	77.81
371.35	94.81
371.576	91.81
371.802	94.81
372.028	76.81
372.254	92.81
372.48	85.81
372.706	80.81
372.932	96.81
373.158	88.81
373.384	101.81
373.61	95.81
373.835	101.81
374.061	85.81
374.287	83.81
374.513	86.81
374.739	64.81
374.965	79.81
375.191	81.81
375.416	103.81
375.642	95.81
375.868	87.81
376.094	80.81
376.319	100.81
376.545	83.81
376.771	86.81
376.997	83.81
377.222	76.81
377.448	91.81
377.674	74.81
377.899	91.81
378.125	100.81
378.35	85.81
378.576	90.81
378.802	87.81
379.027	94.81
379.253	100.81
379.478	102.81
379.704	93.81
379.929	83.81
380.155	101.81
380.38	92.81
380.606	88.81
380.831	87.81
381.057	83.81
381.282	96.81
381.507	91.81
381.733	98.81
381.958	85.81
382.184	105.81
382.409	92.81
382.634	92.81
382.86	96.81
383.085	102.81
383.31	90.81
383.535	101.81
383.761	92.81
383.986	111.81
384.211	89.81
384.436	104.81
384.662	99.81
384.887	100.81
385.112	96.81
385.337	97.81
385.562	124.81
385.787	102.81
386.013	109.81
386.238	107.81
386.463	101.81
386.688	96.81
386.913	106.81
387.138	108.81
387.363	109.81
387.588	105.81
387.813	97.81
388.038	91.81
388.263	97.81
388.488	109.81
388.713	95.81
388.938	95.81
389.163	102.81
389.387	110.81
389.612	108.81
389.837	87.81
390.062	93.81
390.287	91.81
390.512	88.81
390.736	99.81
390.961	92.81
391.186	91.81
391.411	85.81
391.636	97.81
391.86	89.81
392.085	73.81
392.31	88.81
392.534	78.81
392.759	91.81
392.984	82.81
393.208	82.81
393.433	82.81
393.658	94.81
393.882	73.81
394.107	81.81
394.331	80.81
394.556	80.81
394.78	79.81
395.005	79.81
395.229	90.81
395.454	92.81
395.678	96.81
395.903	89.81
396.127	93.81
396.352	85.81
396.576	82.81
396.801	80.81
397.025	83.81
397.249	84.81
397.474	91.81
397.698	91.81
397.922	78.81
398.147	80.81
398.371	86.81
398.595	95.81
398.82	73.81
399.044	83.81
399.268	87.81
399.492	84.81
399.717	98.81
399.941	85.81
400.165	98.81
400.389	104.81
400.613	91.81
400.837	87.81
401.062	85.81
401.286	90.81
401.51	79.81
401.734	103.81
401.958	111.81
402.182	130.81
402.406	200.81
402.63	130.81
402.854	102.81
403.078	88.81
403.302	79.81
403.526	70.81
403.75	93.81
403.974	94.81
404.198	91.81
404.422	86.81
404.645	86.81
404.869	85.81
405.093	109.81
405.317	107.81
405.541	120.81
405.765	107.81
405.988	111.81
406.212	220.81
406.436	295.81
406.66	181.81
406.883	108.81
407.107	95.81
407.331	118.81
407.555	102.81
407.778	93.81
408.002	93.81
408.226	92.81
408.449	103.81
408.673	96.81
408.896	109.81
409.12	101.81
409.344	91.81
409.567	82.81
409.791	76.81
410.014	88.81
410.238	88.81
410.461	89.81
410.685	94.81
410.908	87.81
411.132	91.81
411.355	106.81
411.578	93.81
411.802	88.81
412.025	87.81
412.249	100.81
412.472	96.81
412.695	108.81
412.919	96.81
413.142	80.81
413.365	84.81
413.589	84.81
413.812	93.81
414.035	85.81
414.258	80.81
414.482	83.81
414.705	106.81
414.928	84.81
415.151	77.81
415.374	96.81
415.597	64.81
415.821	71.81
416.044	103.81
416.267	79.81
416.49	94.81
416.713	81.81
416.936	83.81
417.159	92.81
417.382	95.81
417.605	95.81
417.828	95.81
418.051	92.81
418.274	77.81
418.497	70.81
418.72	91.81
418.943	80.81
419.166	97.81
419.389	104.81
419.611	87.81
419.834	95.81
420.057	80.81
420.28	93.81
420.503	89.81
420.726	83.81
420.948	89.81
421.171	94.81
421.394	92.81
421.617	87.81
421.839	75.81
422.062	92.81
422.285	92.81
422.507	96.81
422.73	133.81
422.953	99.81
423.175	95.81
423.398	93.81
423.621	79.81
423.843	91.81
424.066	82.81
424.288	80.81
424.511	85.81
424.733	101.81
424.956	132.81
425.178	124.81
425.401	113.81
425.623	97.81
425.846	89.81
426.068	93.81
426.291	101.81
426.513	107.81
426.735	99.81
426.958	88.81
427.18	109.81
427.402	172.81
427.625	217.81
427.847	155.81
428.069	125.81
428.292	90.81
428.514	95.81
428.736	84.81
428.958	83.81
429.181	87.81
429.403	89.81
429.625	85.81
429.847	81.81
430.069	106.81
430.292	97.81
430.514	76.81
430.736	77.81
430.958	106.81
431.18	103.81
431.402	89.81
431.624	95.81
431.846	85.81
432.068	83.81
432.29	96.81
432.512	109.81
432.734	91.81
432.956	101.81
433.178	99.81
433.4	104.81
433.622	99.81
433.844	89.81
434.066	83.81
434.287	102.81
434.509	98.81
434.731	85.81
434.953	90.81
435.175	98.81
435.397	76.81
435.618	92.81
435.84	110.81
436.062	152.81
436.284	139.81
436.505	103.81
436.727	105.81
436.949	97.81
437.17	98.81
437.392	94.81
437.614	85.81
437.835	107.81
438.057	147.81
438.278	126.81
438.5	106.81
438.721	141.81
438.943	116.81
439.165	100.81
439.386	77.81
439.608	94.81
439.829	104.81
440.05	141.81
440.272	181.81
440.493	100.81
440.715	77.81
440.936	81.81
441.158	87.81
441.379	83.81
441.6	92.81
441.822	103.81
442.043	110.81
442.264	118.81
442.486	112.81
442.707	90.81
442.928	123.81
443.149	153.81
443.371	159.81
443.592	130.81
443.813	135.81
444.034	120.81
444.255	99.81
444.476	86.81
444.698	95.81
444.919	97.81
445.14	137.81
445.361	130.81
445.582	131.81
445.803	169.81
446.024	164.81
446.245	168.81
446.466	143.81
446.687	97.81
446.908	93.81
447.129	86.81
447.35	93.81
447.571	95.81
447.792	103.81
448.013	106.81
448.234	106.81
448.455	102.81
448.675	134.81
448.896	140.81
449.117	103.81
449.338	95.81
449.559	155.81
449.779	148.81
450	90.81
450.221	90.81
450.442	98.81
450.662	87.81
450.883	128.81
451.104	109.81
451.324	88.81
451.545	83.81
451.766	73.81
451.986	101.81
452.207	91.81
452.428	107.81
452.648	126.81
452.869	121.81
453.089	124.81
453.31	137.81
453.53	110.81
453.751	92.81
453.971	116.81
454.192	122.81
454.412	94.81
454.633	88.81
454.853	81.81
455.073	82.81
455.294	87.81
455.514	121.81
455.734	102.81
455.955	86.81
456.175	84.81
456.395	88.81
456.616	91.81
456.836	81.81
457.056	88.81
457.276	70.81
457.497	79.81
457.717	89.81
457.937	90.81
458.157	81.81
458.377	94.81
458.598	98.81
458.818	186.81
459.038	208.81
459.258	127.81
459.478	100.81
459.698	104.81
459.918	107.81
460.138	91.81
460.358	99.81
460.578	85.81
460.798	93.81
461.018	92.81
461.238	96.81
461.458	87.81
461.678	100.81
461.898	97.81
462.118	84.81
462.338	76.81
462.558	89.81
462.777	83.81
462.997	86.81
463.217	81.81
463.437	79.81
463.657	69.81
463.876	87.81
464.096	91.81
464.316	101.81
464.536	104.81
464.755	87.81
464.975	113.81
465.195	196.81
465.414	197.81
465.634	92.81
465.854	86.81
466.073	80.81
466.293	88.81
466.512	88.81
466.732	54.81
466.951	82.81
467.171	80.81
467.391	85.81
467.61	111.81
467.829	101.81
468.049	106.81
468.268	120.81
468.488	97.81
468.707	91.81
468.927	81.81
469.146	83.81
469.365	91.81
469.585	87.81
469.804	105.81
470.023	108.81
470.243	89.81
470.462	104.81
470.681	125.81
470.901	88.81
471.12	75.81
471.339	79.81
471.558	89.81
471.777	87.81
471.997	99.81
472.216	130.81
472.435	193.81
472.654	100.81
472.873	96.81
473.092	101.81
473.311	91.81
473.53	86.81
473.749	91.81
473.968	110.81
474.187	118.81
474.406	102.81
474.625	110.81
474.844	95.81
475.063	97.81
475.282	96.81
475.501	83.81
475.72	99.81
475.939	85.81
476.158	73.81
476.377	83.81
476.596	88.81
476.814	87.81
477.033	112.81
477.252	82.81
477.471	94.81
477.69	111.81
477.908	98.81
478.127	87.81
478.346	95.81
478.564	100.81
478.783	93.81
479.002	109.81
479.22	101.81
479.439	103.81
479.658	117.81
479.876	95.81
480.095	82.81
480.313	78.81
480.532	88.81
480.751	93.81
480.969	131.81
481.188	284.81
481.406	197.81
481.624	104.81
481.843	77.81
482.061	91.81
482.28	88.81
482.498	91.81
482.717	94.81
482.935	100.81
483.153	92.81
483.372	98.81
483.59	91.81
483.808	96.81
484.027	75.81
484.245	93.81
484.463	82.81
484.681	102.81
484.9	83.81
485.118	99.81
485.336	88.81
485.554	90.81
485.772	105.81
485.99	117.81
486.209	108.81
486.427	104.81
486.645	112.81
486.863	118.81
487.081	108.81
487.299	93.81
487.517	91.81
487.735	100.81
487.953	85.81
488.171	88.81
488.389	110.81
488.607	88.81
488.825	82.81
489.043	96.81
489.261	81.81
489.479	91.81
489.696	82.81
489.914	83.81
490.132	93.81
490.35	85.81
490.568	86.81
490.786	93.81
491.003	85.81
491.221	87.81
491.439	99.81
491.657	91.81
491.874	97.81
492.092	94.81
492.31	105.81
492.527	90.81
492.745	91.81
492.963	92.81
493.18	86.81
493.398	98.81
493.615	94.81
493.833	101.81
494.05	90.81
494.268	87.81
494.485	86.81
494.703	85.81
494.92	91.81
495.138	96.81
495.355	101.81
495.573	78.81
495.79	95.81
496.008	78.81
496.225	110.81
496.442	105.81
496.66	104.81
496.877	80.81
497.094	79.81
497.312	87.81
497.529	84.81
497.746	87.81
497.963	100.81
498.181	87.81
498.398	107.81
498.615	128.81
498.832	112.81
499.049	87.81
499.267	97.81
499.484	96.81
499.701	80.81
499.918	86.81
500.135	98.81
500.352	87.81
500.569	103.81
500.786	101.81
501.003	84.81
501.22	78.81
501.437	85.81
501.654	86.81
501.871	128.81
502.088	92.81
502.305	80.81
502.522	84.81
502.739	92.81
502.956	95.81
503.172	102.81
503.389	87.81
503.606	110.81
503.823	112.81
504.04	89.81
504.256	83.81
504.473	89.81
504.69	73.81
504.907	82.81
505.123	84.81
505.34	101.81
505.557	84.81
505.773	83.81
505.99	85.81
506.207	79.81
506.423	85.81
506.64	77.81
506.856	87.81
507.073	101.81
507.289	102.81
507.506	119.81
507.722	130.81
507.939	121.81
508.155	99.81
508.372	102.81
508.588	110.81
508.805	97.81
509.021	104.81
509.238	97.81
509.454	95.81
509.67	99.81
509.887	117.81
510.103	146.81
510.319	248.81
510.536	988.81
510.752	3255.81
510.968	837.81
511.184	187.81
511.401	119.81
511.617	99.81
511.833	89.81
512.049	97.81
512.265	93.81
512.481	84.81
512.698	91.81
512.914	98.81
513.13	95.81
513.346	96.81
513.562	111.81
513.778	88.81
513.994	105.81
514.21	102.81
514.426	130.81
514.642	156.81
514.858	154.81
515.074	206.81
515.29	622.81
515.506	2239.81
515.721	759.81
515.937	182.81
516.153	115.81
516.369	92.81
516.585	106.81
516.801	86.81
517.016	101.81
517.232	100.81
517.448	97.81
517.664	96.81
517.879	102.81
518.095	97.81
518.311	92.81
518.527	92.81
518.742	93.81
518.958	95.81
519.173	98.81
519.389	97.81
519.605	96.81
519.82	97.81
520.036	105.81
520.251	133.81
520.467	125.81
520.682	119.81
520.898	120.81
521.113	141.81
521.329	168.81
521.544	276.81
521.76	803.81
521.975	3777.81
522.19	2157.81
522.406	435.81
522.621	144.81
522.836	117.81
523.052	118.81
523.267	119.81
523.482	103.81
523.698	107.81
523.913	133.81
524.128	118.81
524.343	80.81
524.559	107.81
524.774	88.81
524.989	108.81
525.204	116.81
525.419	100.81
525.634	99.81
525.849	84.81
526.064	97.81
526.28	98.81
526.495	75.81
526.71	84.81
526.925	87.81
527.14	97.81
527.355	83.81
527.57	88.81
527.785	85.81
527.999	85.81
528.214	109.81
528.429	102.81
528.644	85.81
528.859	92.81
529.074	101.81
529.289	138.81
529.503	232.81
529.718	107.81
529.933	90.81
530.148	101.81
530.363	92.81
530.577	97.81
530.792	103.81
531.007	93.81
531.221	88.81
531.436	87.81
531.651	92.81
531.865	90.81
532.08	83.81
532.295	105.81
532.509	92.81
532.724	76.81
532.938	84.81
533.153	96.81
533.367	92.81
533.582	87.81
533.796	95.81
534.011	90.81
534.225	101.81
534.44	89.81
534.654	82.81
534.868	89.81
535.083	88.81
535.297	81.81
535.511	98.81
535.726	111.81
535.94	97.81
536.154	100.81
536.369	105.81
536.583	85.81
536.797	103.81
537.011	87.81
537.225	84.81
537.44	83.81
537.654	103.81
537.868	78.81
538.082	74.81
538.296	90.81
538.51	85.81
538.724	98.81
538.938	85.81
539.153	100.81
539.367	109.81
539.581	107.81
539.795	89.81
540.009	91.81
540.222	85.81
540.436	99.81
540.65	85.81
540.864	96.81
541.078	86.81
541.292	84.81
541.506	100.81
541.72	93.81
541.934	92.81
542.147	111.81
542.361	83.81
542.575	84.81
542.789	92.81
543.002	89.81
543.216	98.81
543.43	95.81
543.644	96.81
543.857	97.81
544.071	94.81
544.285	82.81
544.498	99.81
544.712	104.81
544.925	95.81
545.139	79.81
545.352	88.81
545.566	79.81
545.779	81.81
545.993	101.81
546.206	87.81
546.42	69.81
546.633	89.81
546.847	72.81
547.06	80.81
547.274	95.81
547.487	90.81
547.7	77.81
547.914	85.81
548.127	85.81
548.34	95.81
548.554	93.81
548.767	95.81
548.98	95.81
549.193	87.81
549.407	96.81
549.62	97.81
549.833	93.81
550.046	95.81
550.259	80.81
550.473	91.81
550.686	96.81
550.899	82.81
551.112	100.81
551.325	103.81
551.538	101.81
551.751	89.81
551.964	70.81
552.177	75.81
552.39	83.81
552.603	83.81
552.816	87.81
553.029	85.81
553.242	102.81
553.455	112.81
553.667	101.81
553.88	122.81
554.093	86.81
554.306	95.81
554.519	99.81
554.732	101.81
554.944	89.81
555.157	92.81
555.37	89.81
555.583	105.81
555.795	111.81
556.008	77.81
556.221	101.81
556.433	92.81
556.646	105.81
556.859	102.81
557.071	95.81
557.284	85.81
557.496	93.81
557.709	99.81
557.921	95.81
558.134	102.81
558.346	83.81
558.559	97.81
558.771	81.81
558.984	85.81
559.196	94.81
559.409	94.81
559.621	103.81
559.833	94.81
560.046	89.81
560.258	103.81
560.47	85.81
560.683	82.81
560.895	98.81
561.107	86.81
561.32	82.81
561.532	109.81
561.744	89.81
561.956	87.81
562.168	84.81
562.381	103.81
562.593	91.81
562.805	94.81
563.017	87.81
563.229	89.81
563.441	91.81
563.653	83.81
563.865	89.81
564.077	78.81
564.289	79.81
564.501	87.81
564.713	87.81
564.925	104.81
565.137	109.81
565.349	105.81
565.561	98.81
565.773	98.81
565.985	71.81
566.197	85.81
566.408	95.81
566.62	103.81
566.832	95.81
567.044	79.81
567.255	87.81
567.467	92.81
567.679	85.81
567.891	94.81
568.102	77.81
568.314	95.81
568.526	85.81
568.737	86.81
568.949	86.81
569.161	105.81
569.372	78.81
569.584	79.81
569.795	102.81
570.007	141.81
570.218	305.81
570.43	152.81
570.641	92.81
570.853	95.81
571.064	83.81
571.276	91.81
571.487	81.81
571.698	85.81
571.91	88.81
572.121	83.81
572.333	88.81
572.544	88.81
572.755	87.81
572.966	99.81
573.178	99.81
573.389	101.81
573.6	101.81
573.811	95.81
574.023	92.81
574.234	85.81
574.445	86.81
574.656	87.81
574.867	91.81
575.078	81.81
575.289	85.81
575.501	83.81
575.712	97.81
575.923	99.81
576.134	93.81
576.345	99.81
576.556	96.81
576.767	86.81
576.978	88.81
577.188	100.81
577.399	97.81
577.61	97.81
577.821	108.81
578.032	137.81
578.243	352.81
578.454	1028.81
578.665	261.81
578.875	113.81
579.086	101.81
579.297	87.81
579.508	112.81
579.718	92.81
579.929	92.81
580.14	93.81
580.35	96.81
580.561	76.81
580.772	83.81
580.982	70.81
581.193	89.81
581.403	94.81
581.614	94.81
581.825	97.81
582.035	78.81
582.246	87.81
582.456	89.81
582.667	86.81
582.877	93.81
583.087	91.81
583.298	89.81
583.508	87.81
583.719	92.81
583.929	83.81
584.139	91.81
584.35	86.81
584.56	91.81
584.77	92.81
584.981	105.81
585.191	86.81
585.401	100.81
585.611	80.81
585.821	106.81
586.032	87.81
586.242	79.81
586.452	86.81
586.662	99.81
586.872	79.81
587.082	80.81
587.292	74.81
587.502	83.81
587.713	93.81
587.923	80.81
588.133	84.81
588.343	84.81
588.553	98.81
588.762	103.81
588.972	97.81
589.182	105.81
589.392	82.81
589.602	94.81
589.812	97.81
590.022	87.81
590.232	95.81
590.441	88.81
590.651	101.81
590.861	81.81
591.071	93.81
591.281	95.81
591.49	101.81
591.7	95.81
591.91	92.81
592.119	86.81
592.329	92.81
592.539	99.81
592.748	86.81
592.958	90.81
593.167	83.81
593.377	81.81
593.587	102.81
593.796	96.81
594.006	90.81
594.215	92.81
594.424	84.81
594.634	80.81
594.843	79.81
595.053	85.81
595.262	90.81
595.472	77.81
595.681	88.81
595.89	81.81
596.1	93.81
596.309	74.81
596.518	87.81
596.727	78.81
596.937	79.81
597.146	92.81
597.355	80.81
597.564	84.81
597.774	74.81
597.983	90.81
598.192	93.81
598.401	72.81
598.61	82.81
598.819	75.81
599.028	93.81
599.237	80.81
599.446	96.81
599.655	93.81
599.864	85.81
600.073	89.81
600.282	92.81
600.491	102.81
600.7	95.81
600.909	81.81
601.118	94.81
601.327	88.81
601.536	81.81
601.745	91.81
601.953	86.81
602.162	87.81
602.371	94.81
602.58	94.81
602.789	97.81
602.997	75.81
603.206	93.81
603.415	77.81
603.623	81.81
603.832	94.81
604.041	75.81
604.249	75.81
604.458	87.81
604.666	71.81
604.875	90.81
605.084	91.81
605.292	86.81
605.501	106.81
605.709	87.81
605.918	76.81
606.126	89.81
606.334	83.81
606.543	91.81
606.751	80.81
606.96	89.81
607.168	97.81
607.376	91.81
607.585	83.81
607.793	87.81
608.001	85.81
608.21	75.81
608.418	81.81
608.626	85.81
608.834	89.81
609.043	89.81
609.251	80.81
609.459	92.81
609.667	88.81
609.875	93.81
610.083	71.81
610.291	86.81
610.499	88.81
610.707	82.81
610.916	82.81
611.124	89.81
611.332	79.81
611.54	92.81
611.748	91.81
611.955	77.81
612.163	95.81
612.371	89.81
612.579	86.81
612.787	84.81
612.995	94.81
613.203	81.81
613.411	82.81
613.618	92.81
613.826	81.81
614.034	91.81
614.242	86.81
614.449	84.81
614.657	86.81
614.865	86.81
615.072	103.81
615.28	102.81
615.488	78.81
615.695	80.81
615.903	95.81
616.111	116.81
616.318	103.81
616.526	79.81
616.733	81.81
616.941	99.81
617.148	92.81
617.356	96.81
617.563	88.81
617.771	90.81
617.978	84.81
618.185	88.81
618.393	83.81
618.6	77.81
618.807	98.81
619.015	88.81
619.222	75.81
619.429	83.81
619.637	75.81
619.844	95.81
620.051	85.81
620.258	80.81
620.466	78.81
620.673	86.81
620.88	87.81
621.087	96.81
621.294	93.81
621.501	86.81
621.708	91.81
621.915	95.81
622.122	91.81
622.329	75.81
622.536	96.81
622.743	76.81
622.95	77.81
623.157	75.81
623.364	86.81
623.571	71.81
623.778	80.81
623.985	93.81
624.192	95.81
624.399	84.81
624.606	91.81
624.812	73.81
625.019	84.81
625.226	77.81
625.433	75.81
625.639	90.81
625.846	91.81
626.053	84.81
626.259	76.81
626.466	86.81
626.673	75.81
626.879	99.81
627.086	76.81
627.293	89.81
627.499	76.81
627.706	86.81
627.912	83.81
628.119	79.81
628.325	94.81
628.532	81.81
628.738	92.81
628.945	95.81
629.151	89.81
629.357	71.81
629.564	95.81
629.77	83.81
629.976	91.81
630.183	88.81
630.389	95.81
630.595	99.81
630.802	83.81
631.008	83.81
631.214	81.81
631.42	78.81
631.627	84.81
631.833	78.81
632.039	79.81
632.245	70.81
632.451	75.81
632.657	81.81
632.863	92.81
633.069	81.81
633.275	81.81
633.481	77.81
633.688	68.81
633.893	83.81
634.099	82.81
634.305	92.81
634.511	87.81
634.717	71.81
634.923	88.81
635.129	77.81
635.335	87.81
635.541	69.81
635.747	86.81
635.952	79.81
636.158	91.81
636.364	105.81
636.57	97.81
636.775	95.81
636.981	86.81
637.187	84.81
637.392	76.81
637.598	103.81
637.804	77.81
638.009	78.81
638.215	86.81
638.421	81.81
638.626	77.81
638.832	73.81
639.037	89.81
639.243	93.81
639.448	89.81
639.654	84.81
639.859	86.81
640.065	72.81
640.27	83.81
640.475	86.81
640.681	80.81
640.886	81.81
641.091	80.81
641.297	96.81
641.502	79.81
641.707	84.81
641.913	87.81
642.118	75.81
642.323	57.81
642.528	90.81
642.733	81.81
642.939	83.81
643.144	91.81
643.349	79.81
643.554	87.81
643.759	78.81
643.964	101.81
644.169	83.81
644.374	76.81
644.579	87.81
644.784	80.81
644.989	103.81
645.194	87.81
645.399	97.81
645.604	89.81
645.809	85.81
646.014	88.81
646.219	90.81
646.423	77.81
646.628	79.81
646.833	87.81
647.038	99.81
647.243	67.81
647.447	78.81
647.652	94.81
647.857	74.81
648.062	82.81
648.266	79.81
648.471	100.81
648.676	102.81
648.88	91.81
649.085	91.81
649.289	93.81
649.494	98.81
649.698	139.81
649.903	112.81
650.107	89.81
650.312	94.81
650.516	83.81
650.721	86.81
650.925	86.81
651.13	85.81
651.334	76.81
651.539	74.81
651.743	78.81
651.947	89.81
652.152	67.81
652.356	71.81
652.56	86.81
652.764	84.81
652.969	87.81
653.173	81.81
653.377	86.81
653.581	83.81
653.785	85.81
653.99	86.81
654.194	97.81
654.398	95.81
654.602	69.81
654.806	90.81
655.01	107.81
655.214	95.81
655.418	93.81
655.622	86.81
655.826	66.81
656.03	81.81
656.234	98.81
656.438	88.81
656.642	91.81
656.846	85.81
657.049	89.81
657.253	80.81
657.457	84.81
657.661	81.81
657.865	85.81
658.068	83.81
658.272	68.81
658.476	82.81
658.68	96.81
658.883	85.81
659.087	83.81
659.291	78.81
659.494	92.81
659.698	69.81
659.901	80.81
660.105	78.81
660.309	87.81
660.512	80.81
660.716	83.81
660.919	81.81
661.123	85.81
661.326	88.81
661.53	91.81
661.733	75.81
661.936	91.81
662.14	82.81
662.343	80.81
662.546	73.81
662.75	73.81
662.953	87.81
663.156	69.81
663.36	79.81
663.563	72.81
663.766	87.81
663.969	79.81
664.173	63.81
664.376	86.81
664.579	76.81
664.782	73.81
664.985	97.81
665.188	84.81
665.391	65.81
665.594	92.81
665.797	71.81
666	68.81
666.203	72.81
666.406	75.81
666.609	81.81
666.812	78.81
667.015	75.81
667.218	88.81
667.421	85.81
667.624	79.81
667.827	76.81
668.03	81.81
668.232	73.81
668.435	87.81
668.638	72.81
668.841	66.81
669.043	78.81
669.246	85.81
669.449	71.81
669.651	76.81
669.854	77.81
670.057	73.81
670.259	90.81
670.462	96.81
670.665	84.81
670.867	83.81
671.07	80.81
671.272	71.81
671.475	71.81
671.677	75.81
671.88	83.81
672.082	66.81
672.284	84.81
672.487	71.81
672.689	97.81
672.892	85.81
