Data from Uncirc_1988_H10_HRD10591_00005.txt Node
Date: Wed Jan 03 12:04:05 EST 2024
User: Yrep
Spectrometer: HR+D1059
Trigger mode: 1
Integration Time (sec): 1.000000E-1
Scans to average: 1
Electric dark correction enabled: true
Nonlinearity correction enabled: false
Boxcar width: 0
XAxis mode: Wavelengths
Number of Pixels in Spectrum: 2048
>>>>>Begin Spectral Data<<<<<
223.165	-13.69
223.4	-13.69
223.635	-13.69
223.869	-15.69
224.104	-10.69
224.338	-7.69
224.573	-9.69
224.808	-8.69
225.042	-8.69
225.277	-3.69
225.511	2.31
225.746	-9.69
225.98	2.31
226.215	5.31
226.449	16.31
226.683	18.31
226.918	16.31
227.152	27.31
227.387	41.31
227.621	36.31
227.856	48.31
228.09	49.31
228.324	56.31
228.559	38.31
228.793	55.31
229.027	57.31
229.262	74.31
229.496	82.31
229.73	71.31
229.964	73.31
230.199	74.31
230.433	84.31
230.667	94.31
230.901	83.31
231.136	80.31
231.37	89.31
231.604	80.31
231.838	80.31
232.072	94.31
232.306	74.31
232.541	77.31
232.775	85.31
233.009	76.31
233.243	80.31
233.477	82.31
233.711	81.31
233.945	71.31
234.179	76.31
234.413	78.31
234.647	86.31
234.881	69.31
235.115	93.31
235.349	77.31
235.583	85.31
235.817	70.31
236.051	78.31
236.285	82.31
236.519	71.31
236.753	67.31
236.987	96.31
237.221	95.31
237.455	74.31
237.689	85.31
237.922	81.31
238.156	70.31
238.39	58.31
238.624	71.31
238.858	69.31
239.091	71.31
239.325	67.31
239.559	67.31
239.793	92.31
240.027	76.31
240.26	73.31
240.494	74.31
240.728	70.31
240.961	84.31
241.195	84.31
241.429	73.31
241.662	76.31
241.896	90.31
242.13	85.31
242.363	76.31
242.597	76.31
242.83	81.31
243.064	81.31
243.298	69.31
243.531	85.31
243.765	78.31
243.998	88.31
244.232	79.31
244.465	72.31
244.699	82.31
244.932	75.31
245.166	78.31
245.399	85.31
245.633	59.31
245.866	78.31
246.099	72.31
246.333	89.31
246.566	71.31
246.8	70.31
247.033	71.31
247.266	74.31
247.5	77.31
247.733	88.31
247.966	73.31
248.2	73.31
248.433	76.31
248.666	80.31
248.899	91.31
249.133	94.31
249.366	92.31
249.599	90.31
249.832	76.31
250.066	73.31
250.299	96.31
250.532	96.31
250.765	60.31
250.998	80.31
251.231	88.31
251.465	80.31
251.698	81.31
251.931	80.31
252.164	83.31
252.397	76.31
252.63	78.31
252.863	83.31
253.096	82.31
253.329	94.31
253.562	85.31
253.795	88.31
254.028	71.31
254.261	80.31
254.494	76.31
254.727	90.31
254.96	80.31
255.193	80.31
255.426	72.31
255.659	88.31
255.892	90.31
256.124	84.31
256.357	90.31
256.59	73.31
256.823	93.31
257.056	84.31
257.289	78.31
257.521	80.31
257.754	65.31
257.987	64.31
258.22	80.31
258.452	88.31
258.685	84.31
258.918	79.31
259.151	62.31
259.383	84.31
259.616	82.31
259.849	102.31
260.081	88.31
260.314	90.31
260.547	80.31
260.779	92.31
261.012	73.31
261.244	66.31
261.477	77.31
261.71	94.31
261.942	91.31
262.175	93.31
262.407	88.31
262.64	92.31
262.872	65.31
263.105	73.31
263.337	98.31
263.57	60.31
263.802	85.31
264.035	78.31
264.267	87.31
264.499	80.31
264.732	94.31
264.964	62.31
265.197	85.31
265.429	69.31
265.661	87.31
265.894	77.31
266.126	81.31
266.358	82.31
266.591	85.31
266.823	78.31
267.055	88.31
267.287	75.31
267.52	87.31
267.752	81.31
267.984	82.31
268.216	87.31
268.448	72.31
268.681	73.31
268.913	81.31
269.145	72.31
269.377	90.31
269.609	67.31
269.841	88.31
270.073	85.31
270.306	87.31
270.538	78.31
270.77	80.31
271.002	100.31
271.234	72.31
271.466	82.31
271.698	84.31
271.93	90.31
272.162	80.31
272.394	105.31
272.626	86.31
272.858	101.31
273.09	85.31
273.322	105.31
273.553	88.31
273.785	95.31
274.017	76.31
274.249	90.31
274.481	86.31
274.713	97.31
274.945	89.31
275.176	94.31
275.408	98.31
275.64	78.31
275.872	94.31
276.104	96.31
276.335	90.31
276.567	90.31
276.799	81.31
277.031	92.31
277.262	77.31
277.494	83.31
277.726	80.31
277.957	84.31
278.189	80.31
278.421	80.31
278.652	90.31
278.884	98.31
279.115	93.31
279.347	79.31
279.579	71.31
279.81	87.31
280.042	96.31
280.273	80.31
280.505	85.31
280.736	89.31
280.968	82.31
281.199	88.31
281.431	97.31
281.662	85.31
281.894	85.31
282.125	95.31
282.356	93.31
282.588	124.31
282.819	100.31
283.051	92.31
283.282	90.31
283.513	92.31
283.745	93.31
283.976	78.31
284.207	86.31
284.439	86.31
284.67	79.31
284.901	101.31
285.132	97.31
285.364	70.31
285.595	95.31
285.826	94.31
286.057	83.31
286.288	95.31
286.52	95.31
286.751	98.31
286.982	90.31
287.213	79.31
287.444	88.31
287.675	87.31
287.906	90.31
288.138	88.31
288.369	78.31
288.6	80.31
288.831	74.31
289.062	88.31
289.293	101.31
289.524	84.31
289.755	80.31
289.986	80.31
290.217	92.31
290.448	87.31
290.679	87.31
290.91	89.31
291.141	97.31
291.371	92.31
291.602	104.31
291.833	85.31
292.064	93.31
292.295	96.31
292.526	92.31
292.757	103.31
292.987	88.31
293.218	95.31
293.449	89.31
293.68	93.31
293.91	90.31
294.141	88.31
294.372	87.31
294.603	87.31
294.833	86.31
295.064	89.31
295.295	92.31
295.525	85.31
295.756	98.31
295.987	110.31
296.217	117.31
296.448	114.31
296.679	89.31
296.909	105.31
297.14	90.31
297.37	101.31
297.601	93.31
297.831	85.31
298.062	103.31
298.292	83.31
298.523	94.31
298.753	76.31
298.984	92.31
299.214	87.31
299.445	83.31
299.675	92.31
299.905	85.31
300.136	76.31
300.366	82.31
300.597	87.31
300.827	94.31
301.057	93.31
301.288	110.31
301.518	89.31
301.748	85.31
301.979	102.31
302.209	88.31
302.439	87.31
302.669	90.31
302.9	86.31
303.13	90.31
303.36	85.31
303.59	103.31
303.82	100.31
304.051	98.31
304.281	97.31
304.511	85.31
304.741	82.31
304.971	97.31
305.201	85.31
305.431	100.31
305.661	92.31
305.891	71.31
306.121	87.31
306.352	94.31
306.582	94.31
306.812	79.31
307.042	82.31
307.272	83.31
307.502	104.31
307.731	80.31
307.961	95.31
308.191	97.31
308.421	86.31
308.651	99.31
308.881	101.31
309.111	93.31
309.341	104.31
309.571	94.31
309.8	84.31
310.03	98.31
310.26	103.31
310.49	91.31
310.72	91.31
310.949	119.31
311.179	93.31
311.409	93.31
311.639	90.31
311.868	89.31
312.098	77.31
312.328	97.31
312.557	98.31
312.787	102.31
313.017	104.31
313.246	86.31
313.476	99.31
313.706	93.31
313.935	78.31
314.165	95.31
314.394	92.31
314.624	98.31
314.853	96.31
315.083	103.31
315.312	95.31
315.542	87.31
315.771	101.31
316.001	100.31
316.23	93.31
316.46	92.31
316.689	91.31
316.919	97.31
317.148	110.31
317.377	102.31
317.607	106.31
317.836	84.31
318.065	82.31
318.295	81.31
318.524	94.31
318.753	90.31
318.983	90.31
319.212	88.31
319.441	82.31
319.67	95.31
319.9	89.31
320.129	91.31
320.358	100.31
320.587	90.31
320.816	114.31
321.046	98.31
321.275	93.31
321.504	90.31
321.733	97.31
321.962	87.31
322.191	111.31
322.42	83.31
322.649	106.31
322.878	92.31
323.108	101.31
323.337	116.31
323.566	107.31
323.795	120.31
324.024	174.31
324.253	323.31
324.482	673.31
324.71	1396.31
324.939	1808.31
325.168	660.31
325.397	209.31
325.626	134.31
325.855	128.31
326.084	117.31
326.313	105.31
326.542	141.31
326.77	207.31
326.999	396.31
327.228	784.31
327.457	1445.31
327.686	1138.31
327.914	314.31
328.143	144.31
328.372	136.31
328.6	111.31
328.829	111.31
329.058	114.31
329.287	113.31
329.515	109.31
329.744	101.31
329.972	108.31
330.201	96.31
330.43	92.31
330.658	105.31
330.887	128.31
331.115	108.31
331.344	105.31
331.572	88.31
331.801	98.31
332.03	99.31
332.258	91.31
332.486	91.31
332.715	87.31
332.943	104.31
333.172	105.31
333.4	105.31
333.629	104.31
333.857	88.31
334.085	106.31
334.314	97.31
334.542	101.31
334.771	109.31
334.999	92.31
335.227	90.31
335.455	91.31
335.684	86.31
335.912	105.31
336.14	104.31
336.369	82.31
336.597	95.31
336.825	98.31
337.053	98.31
337.281	94.31
337.51	88.31
337.738	90.31
337.966	89.31
338.194	94.31
338.422	96.31
338.65	80.31
338.878	90.31
339.106	81.31
339.334	92.31
339.562	90.31
339.79	96.31
340.018	91.31
340.246	101.31
340.474	79.31
340.702	90.31
340.93	89.31
341.158	93.31
341.386	81.31
341.614	93.31
341.842	85.31
342.07	101.31
342.298	85.31
342.526	90.31
342.754	96.31
342.981	83.31
343.209	83.31
343.437	104.31
343.665	96.31
343.893	88.31
344.12	117.31
344.348	104.31
344.576	90.31
344.804	81.31
345.031	92.31
345.259	101.31
345.487	103.31
345.714	88.31
345.942	92.31
346.17	110.31
346.397	88.31
346.625	98.31
346.853	91.31
347.08	102.31
347.308	96.31
347.535	84.31
347.763	91.31
347.99	95.31
348.218	103.31
348.445	92.31
348.673	84.31
348.9	98.31
349.128	84.31
349.355	101.31
349.583	87.31
349.81	97.31
350.037	97.31
350.265	85.31
350.492	92.31
350.72	98.31
350.947	109.31
351.174	106.31
351.402	114.31
351.629	92.31
351.856	96.31
352.083	105.31
352.311	104.31
352.538	92.31
352.765	106.31
352.992	110.31
353.22	112.31
353.447	95.31
353.674	104.31
353.901	105.31
354.128	90.31
354.355	92.31
354.583	101.31
354.81	98.31
355.037	98.31
355.264	90.31
355.491	98.31
355.718	90.31
355.945	101.31
356.172	97.31
356.399	97.31
356.626	93.31
356.853	93.31
357.08	95.31
357.307	105.31
357.534	87.31
357.761	102.31
357.988	99.31
358.215	101.31
358.441	88.31
358.668	85.31
358.895	94.31
359.122	86.31
359.349	80.31
359.576	89.31
359.802	98.31
360.029	96.31
360.256	105.31
360.483	82.31
360.709	77.31
360.936	90.31
361.163	96.31
361.39	98.31
361.616	100.31
361.843	85.31
362.07	88.31
362.296	84.31
362.523	85.31
362.749	83.31
362.976	82.31
363.203	87.31
363.429	78.31
363.656	92.31
363.882	89.31
364.109	78.31
364.335	95.31
364.562	72.31
364.788	83.31
365.015	90.31
365.241	103.31
365.468	98.31
365.694	93.31
365.92	96.31
366.147	88.31
366.373	89.31
366.599	94.31
366.826	83.31
367.052	83.31
367.278	106.31
367.505	80.31
367.731	93.31
367.957	93.31
368.184	86.31
368.41	94.31
368.636	98.31
368.862	104.31
369.089	113.31
369.315	102.31
369.541	92.31
369.767	106.31
369.993	92.31
370.219	89.31
370.445	105.31
370.672	93.31
370.898	86.31
371.124	103.31
371.35	88.31
371.576	86.31
371.802	72.31
372.028	87.31
372.254	85.31
372.48	88.31
372.706	88.31
372.932	91.31
373.158	99.31
373.384	76.31
373.61	84.31
373.835	95.31
374.061	90.31
374.287	82.31
374.513	92.31
374.739	87.31
374.965	97.31
375.191	97.31
375.416	93.31
375.642	101.31
375.868	83.31
376.094	94.31
376.319	90.31
376.545	91.31
376.771	99.31
376.997	77.31
377.222	96.31
377.448	92.31
377.674	77.31
377.899	92.31
378.125	101.31
378.35	85.31
378.576	98.31
378.802	86.31
379.027	97.31
379.253	89.31
379.478	100.31
379.704	96.31
379.929	93.31
380.155	95.31
380.38	101.31
380.606	98.31
380.831	84.31
381.057	97.31
381.282	89.31
381.507	95.31
381.733	86.31
381.958	92.31
382.184	90.31
382.409	104.31
382.634	104.31
382.86	97.31
383.085	120.31
383.31	102.31
383.535	101.31
383.761	106.31
383.986	93.31
384.211	94.31
384.436	103.31
384.662	102.31
384.887	101.31
385.112	121.31
385.337	111.31
385.562	115.31
385.787	96.31
386.013	102.31
386.238	107.31
386.463	90.31
386.688	112.31
386.913	111.31
387.138	100.31
387.363	97.31
387.588	104.31
387.813	112.31
388.038	106.31
388.263	108.31
388.488	102.31
388.713	97.31
388.938	105.31
389.163	102.31
389.387	87.31
389.612	88.31
389.837	104.31
390.062	107.31
390.287	83.31
390.512	77.31
390.736	78.31
390.961	78.31
391.186	85.31
391.411	113.31
391.636	101.31
391.86	99.31
392.085	88.31
392.31	88.31
392.534	92.31
392.759	87.31
392.984	92.31
393.208	89.31
393.433	100.31
393.658	103.31
393.882	81.31
394.107	78.31
394.331	93.31
394.556	91.31
394.78	104.31
395.005	82.31
395.229	82.31
395.454	85.31
395.678	81.31
395.903	84.31
396.127	87.31
396.352	78.31
396.576	81.31
396.801	93.31
397.025	89.31
397.249	91.31
397.474	94.31
397.698	92.31
397.922	90.31
398.147	95.31
398.371	79.31
398.595	78.31
398.82	98.31
399.044	91.31
399.268	87.31
399.492	81.31
399.717	85.31
399.941	86.31
400.165	88.31
400.389	101.31
400.613	90.31
400.837	103.31
401.062	93.31
401.286	85.31
401.51	86.31
401.734	89.31
401.958	91.31
402.182	102.31
402.406	126.31
402.63	100.31
402.854	94.31
403.078	99.31
403.302	99.31
403.526	89.31
403.75	97.31
403.974	88.31
404.198	76.31
404.422	93.31
404.645	91.31
404.869	86.31
405.093	97.31
405.317	98.31
405.541	102.31
405.765	103.31
405.988	104.31
406.212	134.31
406.436	171.31
406.66	125.31
406.883	114.31
407.107	98.31
407.331	100.31
407.555	98.31
407.778	93.31
408.002	92.31
408.226	90.31
408.449	94.31
408.673	90.31
408.896	100.31
409.12	90.31
409.344	82.31
409.567	88.31
409.791	90.31
410.014	91.31
410.238	92.31
410.461	79.31
410.685	87.31
410.908	94.31
411.132	105.31
411.355	92.31
411.578	96.31
411.802	87.31
412.025	84.31
412.249	96.31
412.472	96.31
412.695	94.31
412.919	99.31
413.142	94.31
413.365	87.31
413.589	89.31
413.812	88.31
414.035	90.31
414.258	117.31
414.482	105.31
414.705	81.31
414.928	96.31
415.151	90.31
415.374	90.31
415.597	86.31
415.821	77.31
416.044	93.31
416.267	99.31
416.49	86.31
416.713	100.31
416.936	96.31
417.159	84.31
417.382	86.31
417.605	99.31
417.828	101.31
418.051	87.31
418.274	86.31
418.497	76.31
418.72	81.31
418.943	97.31
419.166	96.31
419.389	90.31
419.611	78.31
419.834	83.31
420.057	93.31
420.28	92.31
420.503	92.31
420.726	99.31
420.948	107.31
421.171	93.31
421.394	101.31
421.617	95.31
421.839	88.31
422.062	79.31
422.285	95.31
422.507	109.31
422.73	94.31
422.953	97.31
423.175	73.31
423.398	85.31
423.621	80.31
423.843	93.31
424.066	76.31
424.288	90.31
424.511	93.31
424.733	102.31
424.956	103.31
425.178	94.31
425.401	89.31
425.623	107.31
425.846	89.31
426.068	86.31
426.291	92.31
426.513	91.31
426.735	95.31
426.958	93.31
427.18	101.31
427.402	129.31
427.625	133.31
427.847	109.31
428.069	83.31
428.292	76.31
428.514	81.31
428.736	80.31
428.958	84.31
429.181	93.31
429.403	66.31
429.625	94.31
429.847	83.31
430.069	102.31
430.292	99.31
430.514	97.31
430.736	96.31
430.958	94.31
431.18	91.31
431.402	78.31
431.624	89.31
431.846	89.31
432.068	85.31
432.29	80.31
432.512	93.31
432.734	84.31
432.956	94.31
433.178	93.31
433.4	90.31
433.622	89.31
433.844	80.31
434.066	96.31
434.287	90.31
434.509	92.31
434.731	97.31
434.953	90.31
435.175	89.31
435.397	97.31
435.618	102.31
435.84	94.31
436.062	116.31
436.284	116.31
436.505	95.31
436.727	105.31
436.949	96.31
437.17	93.31
437.392	88.31
437.614	88.31
437.835	87.31
438.057	103.31
438.278	106.31
438.5	110.31
438.721	109.31
438.943	110.31
439.165	98.31
439.386	96.31
439.608	76.31
439.829	101.31
440.05	98.31
440.272	116.31
440.493	110.31
440.715	95.31
440.936	86.31
441.158	95.31
441.379	78.31
441.6	91.31
441.822	90.31
442.043	106.31
442.264	103.31
442.486	102.31
442.707	91.31
442.928	93.31
443.149	104.31
443.371	116.31
443.592	110.31
443.813	121.31
444.034	95.31
444.255	95.31
444.476	94.31
444.698	86.31
444.919	92.31
445.14	149.31
445.361	123.31
445.582	117.31
445.803	121.31
446.024	129.31
446.245	132.31
446.466	103.31
446.687	97.31
446.908	80.31
447.129	76.31
447.35	90.31
447.571	90.31
447.792	82.31
448.013	89.31
448.234	88.31
448.455	98.31
448.675	105.31
448.896	95.31
449.117	89.31
449.338	97.31
449.559	132.31
449.779	129.31
450	87.31
450.221	93.31
450.442	99.31
450.662	90.31
450.883	103.31
451.104	114.31
451.324	96.31
451.545	82.31
451.766	85.31
451.986	92.31
452.207	89.31
452.428	86.31
452.648	91.31
452.869	107.31
453.089	104.31
453.31	101.31
453.53	84.31
453.751	90.31
453.971	96.31
454.192	113.31
454.412	100.31
454.633	86.31
454.853	92.31
455.073	99.31
455.294	82.31
455.514	91.31
455.734	93.31
455.955	104.31
456.175	92.31
456.395	82.31
456.616	87.31
456.836	72.31
457.056	87.31
457.276	81.31
457.497	88.31
457.717	85.31
457.937	89.31
458.157	94.31
458.377	99.31
458.598	104.31
458.818	112.31
459.038	122.31
459.258	121.31
459.478	88.31
459.698	81.31
459.918	84.31
460.138	90.31
460.358	83.31
460.578	95.31
460.798	73.31
461.018	92.31
461.238	82.31
461.458	88.31
461.678	94.31
461.898	89.31
462.118	81.31
462.338	90.31
462.558	84.31
462.777	83.31
462.997	88.31
463.217	83.31
463.437	84.31
463.657	80.31
463.876	89.31
464.096	89.31
464.316	88.31
464.536	105.31
464.755	100.31
464.975	92.31
465.195	143.31
465.414	140.31
465.634	88.31
465.854	83.31
466.073	90.31
466.293	94.31
466.512	97.31
466.732	96.31
466.951	92.31
467.171	93.31
467.391	88.31
467.61	105.31
467.829	86.31
468.049	101.31
468.268	86.31
468.488	84.31
468.707	97.31
468.927	74.31
469.146	93.31
469.365	83.31
469.585	78.31
469.804	102.31
470.023	106.31
470.243	76.31
470.462	85.31
470.681	93.31
470.901	91.31
471.12	74.31
471.339	97.31
471.558	92.31
471.777	76.31
471.997	92.31
472.216	96.31
472.435	90.31
472.654	89.31
472.873	81.31
473.092	90.31
473.311	97.31
473.53	89.31
473.749	87.31
473.968	112.31
474.187	97.31
474.406	85.31
474.625	99.31
474.844	85.31
475.063	84.31
475.282	80.31
475.501	93.31
475.72	89.31
475.939	87.31
476.158	92.31
476.377	94.31
476.596	99.31
476.814	84.31
477.033	89.31
477.252	99.31
477.471	89.31
477.69	76.31
477.908	97.31
478.127	81.31
478.346	88.31
478.564	88.31
478.783	91.31
479.002	85.31
479.22	102.31
479.439	87.31
479.658	70.31
479.876	88.31
480.095	96.31
480.313	103.31
480.532	95.31
480.751	97.31
480.969	90.31
481.188	116.31
481.406	74.31
481.624	77.31
481.843	100.31
482.061	88.31
482.28	97.31
482.498	95.31
482.717	81.31
482.935	90.31
483.153	87.31
483.372	95.31
483.59	94.31
483.808	102.31
484.027	97.31
484.245	95.31
484.463	89.31
484.681	95.31
484.9	102.31
485.118	94.31
485.336	109.31
485.554	108.31
485.772	97.31
485.99	128.31
486.209	115.31
486.427	101.31
486.645	100.31
486.863	93.31
487.081	100.31
487.299	113.31
487.517	88.31
487.735	88.31
487.953	98.31
488.171	96.31
488.389	109.31
488.607	99.31
488.825	88.31
489.043	96.31
489.261	115.31
489.479	92.31
489.696	94.31
489.914	102.31
490.132	102.31
490.35	90.31
490.568	77.31
490.786	100.31
491.003	102.31
491.221	100.31
491.439	101.31
491.657	101.31
491.874	102.31
492.092	99.31
492.31	94.31
492.527	100.31
492.745	84.31
492.963	96.31
493.18	104.31
493.398	88.31
493.615	90.31
493.833	101.31
494.05	87.31
494.268	98.31
494.485	101.31
494.703	76.31
494.92	73.31
495.138	90.31
495.355	81.31
495.573	88.31
495.79	103.31
496.008	95.31
496.225	96.31
496.442	86.31
496.66	81.31
496.877	78.31
497.094	97.31
497.312	92.31
497.529	94.31
497.746	95.31
497.963	89.31
498.181	83.31
498.398	89.31
498.615	104.31
498.832	112.31
499.049	84.31
499.267	89.31
499.484	94.31
499.701	99.31
499.918	102.31
500.135	93.31
500.352	104.31
500.569	90.31
500.786	93.31
501.003	84.31
501.22	96.31
501.437	83.31
501.654	97.31
501.871	113.31
502.088	79.31
502.305	88.31
502.522	93.31
502.739	86.31
502.956	83.31
503.172	92.31
503.389	83.31
503.606	109.31
503.823	89.31
504.04	90.31
504.256	82.31
504.473	88.31
504.69	100.31
504.907	85.31
505.123	83.31
505.34	83.31
505.557	95.31
505.773	91.31
505.99	69.31
506.207	78.31
506.423	101.31
506.64	101.31
506.856	80.31
507.073	90.31
507.289	94.31
507.506	100.31
507.722	105.31
507.939	89.31
508.155	82.31
508.372	94.31
508.588	100.31
508.805	106.31
509.021	97.31
509.238	96.31
509.454	92.31
509.67	94.31
509.887	104.31
510.103	121.31
510.319	162.31
510.536	511.31
510.752	1485.31
510.968	430.31
511.184	132.31
511.401	98.31
511.617	96.31
511.833	82.31
512.049	83.31
512.265	88.31
512.481	97.31
512.698	96.31
512.914	97.31
513.13	96.31
513.346	85.31
513.562	99.31
513.778	82.31
513.994	87.31
514.21	94.31
514.426	108.31
514.642	114.31
514.858	121.31
515.074	153.31
515.29	333.31
515.506	939.31
515.721	361.31
515.937	125.31
516.153	92.31
516.369	84.31
516.585	108.31
516.801	106.31
517.016	98.31
517.232	97.31
517.448	97.31
517.664	91.31
517.879	99.31
518.095	77.31
518.311	90.31
518.527	91.31
518.742	96.31
518.958	92.31
519.173	89.31
519.389	104.31
519.605	88.31
519.82	92.31
520.036	93.31
520.251	110.31
520.467	104.31
520.682	94.31
520.898	97.31
521.113	109.31
521.329	122.31
521.544	160.31
521.76	399.31
521.975	1578.31
522.19	920.31
522.406	213.31
522.621	110.31
522.836	103.31
523.052	97.31
523.267	98.31
523.482	85.31
523.698	95.31
523.913	108.31
524.128	92.31
524.343	106.31
524.559	90.31
524.774	105.31
524.989	91.31
525.204	103.31
525.419	88.31
525.634	90.31
525.849	96.31
526.064	104.31
526.28	93.31
526.495	79.31
526.71	91.31
526.925	113.31
527.14	85.31
527.355	101.31
527.57	95.31
527.785	87.31
527.999	84.31
528.214	97.31
528.429	86.31
528.644	90.31
528.859	110.31
529.074	82.31
529.289	121.31
529.503	146.31
529.718	97.31
529.933	76.31
530.148	93.31
530.363	81.31
530.577	94.31
530.792	106.31
531.007	101.31
531.221	95.31
531.436	100.31
531.651	97.31
531.865	107.31
532.08	98.31
532.295	86.31
532.509	87.31
532.724	93.31
532.938	92.31
533.153	98.31
533.367	95.31
533.582	89.31
533.796	102.31
534.011	103.31
534.225	105.31
534.44	86.31
534.654	99.31
534.868	88.31
535.083	115.31
535.297	95.31
535.511	95.31
535.726	98.31
535.94	92.31
536.154	100.31
536.369	85.31
536.583	98.31
536.797	78.31
537.011	90.31
537.225	103.31
537.44	99.31
537.654	96.31
537.868	84.31
538.082	100.31
538.296	86.31
538.51	95.31
538.724	94.31
538.938	101.31
539.153	90.31
539.367	80.31
539.581	90.31
539.795	90.31
540.009	83.31
540.222	90.31
540.436	90.31
540.65	84.31
540.864	87.31
541.078	108.31
541.292	101.31
541.506	101.31
541.72	87.31
541.934	87.31
542.147	88.31
542.361	95.31
542.575	81.31
542.789	91.31
543.002	90.31
543.216	97.31
543.43	96.31
543.644	90.31
543.857	93.31
544.071	95.31
544.285	93.31
544.498	80.31
544.712	93.31
544.925	96.31
545.139	93.31
545.352	92.31
545.566	102.31
545.779	100.31
545.993	82.31
546.206	84.31
546.42	93.31
546.633	88.31
546.847	103.31
547.06	96.31
547.274	90.31
547.487	97.31
547.7	92.31
547.914	94.31
548.127	89.31
548.34	97.31
548.554	89.31
548.767	110.31
548.98	79.31
549.193	98.31
549.407	89.31
549.62	96.31
549.833	82.31
550.046	93.31
550.259	89.31
550.473	82.31
550.686	79.31
550.899	91.31
551.112	97.31
551.325	76.31
551.538	79.31
551.751	89.31
551.964	101.31
552.177	95.31
552.39	89.31
552.603	87.31
552.816	95.31
553.029	97.31
553.242	107.31
553.455	93.31
553.667	92.31
553.88	110.31
554.093	82.31
554.306	84.31
554.519	86.31
554.732	79.31
554.944	96.31
555.157	92.31
555.37	98.31
555.583	90.31
555.795	102.31
556.008	91.31
556.221	84.31
556.433	88.31
556.646	98.31
556.859	99.31
557.071	90.31
557.284	98.31
557.496	93.31
557.709	96.31
557.921	87.31
558.134	85.31
558.346	102.31
558.559	101.31
558.771	94.31
558.984	106.31
559.196	100.31
559.409	89.31
559.621	92.31
559.833	96.31
560.046	102.31
560.258	99.31
560.47	85.31
560.683	93.31
560.895	89.31
561.107	97.31
561.32	93.31
561.532	95.31
561.744	96.31
561.956	91.31
562.168	89.31
562.381	99.31
562.593	85.31
562.805	96.31
563.017	102.31
563.229	101.31
563.441	93.31
563.653	90.31
563.865	93.31
564.077	84.31
564.289	103.31
564.501	97.31
564.713	92.31
564.925	76.31
565.137	95.31
565.349	96.31
565.561	88.31
565.773	81.31
565.985	102.31
566.197	89.31
566.408	92.31
566.62	91.31
566.832	85.31
567.044	99.31
567.255	81.31
567.467	86.31
567.679	88.31
567.891	81.31
568.102	87.31
568.314	93.31
568.526	90.31
568.737	105.31
568.949	96.31
569.161	89.31
569.372	87.31
569.584	90.31
569.795	94.31
570.007	100.31
570.218	188.31
570.43	102.31
570.641	83.31
570.853	90.31
571.064	86.31
571.276	94.31
571.487	95.31
571.698	80.31
571.91	80.31
572.121	88.31
572.333	83.31
572.544	87.31
572.755	94.31
572.966	89.31
573.178	104.31
573.389	100.31
573.6	77.31
573.811	89.31
574.023	88.31
574.234	101.31
574.445	95.31
574.656	98.31
574.867	84.31
575.078	95.31
575.289	91.31
575.501	101.31
575.712	101.31
575.923	95.31
576.134	84.31
576.345	87.31
576.556	91.31
576.767	102.31
576.978	78.31
577.188	86.31
577.399	90.31
577.61	83.31
577.821	95.31
578.032	112.31
578.243	215.31
578.454	524.31
578.665	164.31
578.875	104.31
579.086	94.31
579.297	80.31
579.508	96.31
579.718	102.31
579.929	90.31
580.14	84.31
580.35	84.31
580.561	91.31
580.772	81.31
580.982	84.31
581.193	79.31
581.403	106.31
581.614	98.31
581.825	85.31
582.035	82.31
582.246	106.31
582.456	100.31
582.667	82.31
582.877	85.31
583.087	89.31
583.298	95.31
583.508	88.31
583.719	76.31
583.929	100.31
584.139	103.31
584.35	93.31
584.56	85.31
584.77	84.31
584.981	98.31
585.191	93.31
585.401	85.31
585.611	80.31
585.821	86.31
586.032	95.31
586.242	96.31
586.452	98.31
586.662	97.31
586.872	90.31
587.082	89.31
587.292	95.31
587.502	76.31
587.713	82.31
587.923	105.31
588.133	98.31
588.343	74.31
588.553	84.31
588.762	87.31
588.972	100.31
589.182	104.31
589.392	96.31
589.602	96.31
589.812	91.31
590.022	84.31
590.232	83.31
590.441	96.31
590.651	78.31
590.861	92.31
591.071	91.31
591.281	88.31
591.49	80.31
591.7	82.31
591.91	86.31
592.119	63.31
592.329	84.31
592.539	82.31
592.748	91.31
592.958	96.31
593.167	88.31
593.377	76.31
593.587	108.31
593.796	88.31
594.006	91.31
594.215	97.31
594.424	81.31
594.634	65.31
594.843	92.31
595.053	88.31
595.262	88.31
595.472	84.31
595.681	86.31
595.89	84.31
596.1	96.31
596.309	86.31
596.518	93.31
596.727	87.31
596.937	97.31
597.146	77.31
597.355	84.31
597.564	95.31
597.774	93.31
597.983	87.31
598.192	88.31
598.401	90.31
598.61	90.31
598.819	92.31
599.028	85.31
599.237	93.31
599.446	97.31
599.655	75.31
599.864	76.31
600.073	92.31
600.282	90.31
600.491	89.31
600.7	85.31
600.909	78.31
601.118	96.31
601.327	78.31
601.536	91.31
601.745	90.31
601.953	87.31
602.162	94.31
602.371	86.31
602.58	91.31
602.789	97.31
602.997	103.31
603.206	95.31
603.415	81.31
603.623	92.31
603.832	96.31
604.041	90.31
604.249	97.31
604.458	92.31
604.666	88.31
604.875	86.31
605.084	99.31
605.292	96.31
605.501	90.31
605.709	102.31
605.918	92.31
606.126	78.31
606.334	94.31
606.543	78.31
606.751	94.31
606.96	82.31
607.168	78.31
607.376	81.31
607.585	84.31
607.793	95.31
608.001	78.31
608.21	92.31
608.418	90.31
608.626	87.31
608.834	97.31
609.043	90.31
609.251	82.31
609.459	101.31
609.667	84.31
609.875	87.31
610.083	79.31
610.291	70.31
610.499	95.31
610.707	80.31
610.916	85.31
611.124	82.31
611.332	103.31
611.54	92.31
611.748	86.31
611.955	92.31
612.163	95.31
612.371	85.31
612.579	89.31
612.787	83.31
612.995	88.31
613.203	88.31
613.411	100.31
613.618	83.31
613.826	96.31
614.034	87.31
614.242	86.31
614.449	85.31
614.657	91.31
614.865	90.31
615.072	80.31
615.28	88.31
615.488	78.31
615.695	76.31
615.903	106.31
616.111	105.31
616.318	115.31
616.526	86.31
616.733	108.31
616.941	84.31
617.148	80.31
617.356	93.31
617.563	90.31
617.771	95.31
617.978	89.31
618.185	86.31
618.393	86.31
618.6	83.31
618.807	93.31
619.015	80.31
619.222	74.31
619.429	92.31
619.637	82.31
619.844	75.31
620.051	84.31
620.258	89.31
620.466	84.31
620.673	96.31
620.88	99.31
621.087	85.31
621.294	89.31
621.501	83.31
621.708	83.31
621.915	85.31
622.122	78.31
622.329	93.31
622.536	85.31
622.743	94.31
622.95	93.31
623.157	80.31
623.364	99.31
623.571	81.31
623.778	69.31
623.985	85.31
624.192	80.31
624.399	89.31
624.606	90.31
624.812	82.31
625.019	84.31
625.226	89.31
625.433	97.31
625.639	85.31
625.846	82.31
626.053	96.31
626.259	75.31
626.466	73.31
626.673	84.31
626.879	78.31
627.086	89.31
627.293	80.31
627.499	80.31
627.706	72.31
627.912	76.31
628.119	94.31
628.325	97.31
628.532	96.31
628.738	98.31
628.945	74.31
629.151	87.31
629.357	80.31
629.564	84.31
629.77	77.31
629.976	89.31
630.183	100.31
630.389	86.31
630.595	91.31
630.802	77.31
631.008	79.31
631.214	81.31
631.42	73.31
631.627	100.31
631.833	81.31
632.039	94.31
632.245	94.31
632.451	95.31
632.657	100.31
632.863	86.31
633.069	86.31
633.275	83.31
633.481	97.31
633.688	99.31
633.893	90.31
634.099	86.31
634.305	97.31
634.511	84.31
634.717	95.31
634.923	80.31
635.129	93.31
635.335	86.31
635.541	88.31
635.747	93.31
635.952	82.31
636.158	88.31
636.364	84.31
636.57	94.31
636.775	93.31
636.981	91.31
637.187	76.31
637.392	78.31
637.598	97.31
637.804	95.31
638.009	67.31
638.215	92.31
638.421	79.31
638.626	88.31
638.832	84.31
639.037	91.31
639.243	90.31
639.448	84.31
639.654	84.31
639.859	74.31
640.065	85.31
640.27	96.31
640.475	79.31
640.681	81.31
640.886	88.31
641.091	69.31
641.297	90.31
641.502	86.31
641.707	85.31
641.913	73.31
642.118	80.31
642.323	86.31
642.528	84.31
642.733	93.31
642.939	85.31
643.144	89.31
643.349	71.31
643.554	89.31
643.759	72.31
643.964	73.31
644.169	86.31
644.374	93.31
644.579	99.31
644.784	93.31
644.989	88.31
645.194	90.31
645.399	89.31
645.604	83.31
645.809	92.31
646.014	83.31
646.219	91.31
646.423	90.31
646.628	87.31
646.833	92.31
647.038	89.31
647.243	93.31
647.447	87.31
647.652	84.31
647.857	80.31
648.062	88.31
648.266	91.31
648.471	114.31
648.676	102.31
648.88	97.31
649.085	87.31
649.289	88.31
649.494	103.31
649.698	127.31
649.903	98.31
650.107	90.31
650.312	115.31
650.516	88.31
650.721	90.31
650.925	63.31
651.13	97.31
651.334	87.31
651.539	89.31
651.743	94.31
651.947	96.31
652.152	90.31
652.356	89.31
652.56	88.31
652.764	81.31
652.969	74.31
653.173	88.31
653.377	87.31
653.581	70.31
653.785	80.31
653.99	86.31
654.194	92.31
654.398	81.31
654.602	76.31
654.806	84.31
655.01	93.31
655.214	103.31
655.418	86.31
655.622	87.31
655.826	78.31
656.03	78.31
656.234	85.31
656.438	86.31
656.642	100.31
656.846	98.31
657.049	90.31
657.253	79.31
657.457	81.31
657.661	80.31
657.865	88.31
658.068	91.31
658.272	72.31
658.476	80.31
658.68	82.31
658.883	91.31
659.087	78.31
659.291	73.31
659.494	71.31
659.698	81.31
659.901	78.31
660.105	69.31
660.309	87.31
660.512	69.31
660.716	83.31
660.919	86.31
661.123	65.31
661.326	87.31
661.53	80.31
661.733	83.31
661.936	72.31
662.14	98.31
662.343	82.31
662.546	84.31
662.75	82.31
662.953	92.31
663.156	68.31
663.36	88.31
663.563	81.31
663.766	77.31
663.969	69.31
664.173	79.31
664.376	78.31
664.579	91.31
664.782	81.31
664.985	99.31
665.188	92.31
665.391	87.31
665.594	84.31
665.797	73.31
666	69.31
666.203	78.31
666.406	82.31
666.609	83.31
666.812	90.31
667.015	82.31
667.218	79.31
667.421	85.31
667.624	92.31
667.827	76.31
668.03	89.31
668.232	84.31
668.435	93.31
668.638	90.31
668.841	91.31
669.043	84.31
669.246	78.31
669.449	88.31
669.651	94.31
669.854	72.31
670.057	90.31
670.259	86.31
670.462	87.31
670.665	93.31
670.867	76.31
671.07	78.31
671.272	95.31
671.475	82.31
671.677	78.31
671.88	77.31
672.082	78.31
672.284	62.31
672.487	76.31
672.689	81.31
672.892	93.31
