Data from Uncirc_1988_H10_HRD10591_00065.txt Node
Date: Wed Jan 03 12:04:17 EST 2024
User: Yrep
Spectrometer: HR+D1059
Trigger mode: 1
Integration Time (sec): 1.000000E-1
Scans to average: 1
Electric dark correction enabled: true
Nonlinearity correction enabled: false
Boxcar width: 0
XAxis mode: Wavelengths
Number of Pixels in Spectrum: 2048
>>>>>Begin Spectral Data<<<<<
223.165	-12.69
223.4	-12.69
223.635	-12.69
223.869	-24.69
224.104	-35.69
224.338	-15.69
224.573	-16.69
224.808	-21.69
225.042	-0.69
225.277	-11.69
225.511	0.31
225.746	4.31
225.98	9.31
226.215	20.31
226.449	24.31
226.683	22.31
226.918	26.31
227.152	32.31
227.387	32.31
227.621	41.31
227.856	35.31
228.09	34.31
228.324	43.31
228.559	37.31
228.793	48.31
229.027	49.31
229.262	58.31
229.496	55.31
229.73	76.31
229.964	86.31
230.199	76.31
230.433	74.31
230.667	57.31
230.901	65.31
231.136	63.31
231.37	84.31
231.604	77.31
231.838	83.31
232.072	84.31
232.306	73.31
232.541	86.31
232.775	78.31
233.009	78.31
233.243	73.31
233.477	68.31
233.711	68.31
233.945	78.31
234.179	73.31
234.413	68.31
234.647	73.31
234.881	79.31
235.115	78.31
235.349	77.31
235.583	81.31
235.817	71.31
236.051	54.31
236.285	64.31
236.519	68.31
236.753	67.31
236.987	58.31
237.221	75.31
237.455	102.31
237.689	62.31
237.922	62.31
238.156	79.31
238.39	67.31
238.624	77.31
238.858	77.31
239.091	76.31
239.325	75.31
239.559	83.31
239.793	83.31
240.027	68.31
240.26	64.31
240.494	75.31
240.728	67.31
240.961	68.31
241.195	71.31
241.429	65.31
241.662	75.31
241.896	63.31
242.13	76.31
242.363	79.31
242.597	78.31
242.83	61.31
243.064	66.31
243.298	65.31
243.531	68.31
243.765	86.31
243.998	83.31
244.232	82.31
244.465	76.31
244.699	76.31
244.932	72.31
245.166	80.31
245.399	81.31
245.633	67.31
245.866	75.31
246.099	70.31
246.333	66.31
246.566	63.31
246.8	85.31
247.033	80.31
247.266	75.31
247.5	71.31
247.733	78.31
247.966	74.31
248.2	74.31
248.433	82.31
248.666	72.31
248.899	81.31
249.133	86.31
249.366	86.31
249.599	88.31
249.832	59.31
250.066	84.31
250.299	68.31
250.532	78.31
250.765	77.31
250.998	69.31
251.231	87.31
251.465	71.31
251.698	66.31
251.931	74.31
252.164	64.31
252.397	93.31
252.63	68.31
252.863	79.31
253.096	63.31
253.329	74.31
253.562	76.31
253.795	77.31
254.028	79.31
254.261	67.31
254.494	72.31
254.727	83.31
254.96	79.31
255.193	76.31
255.426	66.31
255.659	83.31
255.892	62.31
256.124	74.31
256.357	72.31
256.59	68.31
256.823	95.31
257.056	74.31
257.289	79.31
257.521	91.31
257.754	82.31
257.987	62.31
258.22	74.31
258.452	87.31
258.685	83.31
258.918	73.31
259.151	75.31
259.383	77.31
259.616	79.31
259.849	59.31
260.081	88.31
260.314	82.31
260.547	78.31
260.779	66.31
261.012	88.31
261.244	72.31
261.477	89.31
261.71	84.31
261.942	99.31
262.175	94.31
262.407	76.31
262.64	73.31
262.872	83.31
263.105	82.31
263.337	92.31
263.57	91.31
263.802	65.31
264.035	79.31
264.267	78.31
264.499	86.31
264.732	82.31
264.964	77.31
265.197	67.31
265.429	86.31
265.661	80.31
265.894	88.31
266.126	76.31
266.358	76.31
266.591	82.31
266.823	85.31
267.055	82.31
267.287	81.31
267.52	82.31
267.752	81.31
267.984	88.31
268.216	70.31
268.448	83.31
268.681	74.31
268.913	91.31
269.145	86.31
269.377	82.31
269.609	78.31
269.841	77.31
270.073	90.31
270.306	69.31
270.538	71.31
270.77	79.31
271.002	83.31
271.234	73.31
271.466	84.31
271.698	85.31
271.93	87.31
272.162	84.31
272.394	82.31
272.626	81.31
272.858	64.31
273.09	74.31
273.322	79.31
273.553	87.31
273.785	78.31
274.017	67.31
274.249	70.31
274.481	87.31
274.713	86.31
274.945	90.31
275.176	71.31
275.408	84.31
275.64	64.31
275.872	76.31
276.104	78.31
276.335	83.31
276.567	88.31
276.799	113.31
277.031	86.31
277.262	97.31
277.494	90.31
277.726	94.31
277.957	78.31
278.189	80.31
278.421	80.31
278.652	83.31
278.884	80.31
279.115	84.31
279.347	86.31
279.579	74.31
279.81	85.31
280.042	78.31
280.273	74.31
280.505	79.31
280.736	90.31
280.968	97.31
281.199	87.31
281.431	87.31
281.662	76.31
281.894	90.31
282.125	97.31
282.356	108.31
282.588	123.31
282.819	112.31
283.051	97.31
283.282	83.31
283.513	89.31
283.745	78.31
283.976	79.31
284.207	78.31
284.439	86.31
284.67	92.31
284.901	82.31
285.132	75.31
285.364	82.31
285.595	94.31
285.826	84.31
286.057	78.31
286.288	73.31
286.52	86.31
286.751	71.31
286.982	94.31
287.213	78.31
287.444	94.31
287.675	92.31
287.906	93.31
288.138	75.31
288.369	82.31
288.6	93.31
288.831	89.31
289.062	82.31
289.293	82.31
289.524	94.31
289.755	75.31
289.986	82.31
290.217	77.31
290.448	76.31
290.679	86.31
290.91	78.31
291.141	83.31
291.371	88.31
291.602	82.31
291.833	82.31
292.064	77.31
292.295	80.31
292.526	95.31
292.757	73.31
292.987	79.31
293.218	71.31
293.449	94.31
293.68	78.31
293.91	81.31
294.141	82.31
294.372	82.31
294.603	78.31
294.833	75.31
295.064	81.31
295.295	89.31
295.525	105.31
295.756	96.31
295.987	95.31
296.217	124.31
296.448	112.31
296.679	87.31
296.909	78.31
297.14	87.31
297.37	72.31
297.601	94.31
297.831	84.31
298.062	79.31
298.292	76.31
298.523	85.31
298.753	95.31
298.984	82.31
299.214	80.31
299.445	99.31
299.675	86.31
299.905	95.31
300.136	91.31
300.366	99.31
300.597	85.31
300.827	82.31
301.057	77.31
301.288	96.31
301.518	88.31
301.748	83.31
301.979	91.31
302.209	86.31
302.439	76.31
302.669	75.31
302.9	87.31
303.13	83.31
303.36	86.31
303.59	98.31
303.82	91.31
304.051	95.31
304.281	67.31
304.511	91.31
304.741	77.31
304.971	78.31
305.201	95.31
305.431	86.31
305.661	82.31
305.891	94.31
306.121	84.31
306.352	96.31
306.582	107.31
306.812	96.31
307.042	93.31
307.272	72.31
307.502	94.31
307.731	87.31
307.961	79.31
308.191	88.31
308.421	89.31
308.651	84.31
308.881	85.31
309.111	74.31
309.341	92.31
309.571	94.31
309.8	83.31
310.03	86.31
310.26	94.31
310.49	92.31
310.72	87.31
310.949	79.31
311.179	88.31
311.409	78.31
311.639	90.31
311.868	81.31
312.098	82.31
312.328	83.31
312.557	90.31
312.787	102.31
313.017	113.31
313.246	93.31
313.476	86.31
313.706	96.31
313.935	88.31
314.165	78.31
314.394	97.31
314.624	75.31
314.853	72.31
315.083	90.31
315.312	89.31
315.542	95.31
315.771	92.31
316.001	87.31
316.23	72.31
316.46	80.31
316.689	84.31
316.919	86.31
317.148	95.31
317.377	75.31
317.607	81.31
317.836	89.31
318.065	91.31
318.295	90.31
318.524	96.31
318.753	77.31
318.983	75.31
319.212	67.31
319.441	107.31
319.67	84.31
319.9	94.31
320.129	81.31
320.358	73.31
320.587	85.31
320.816	95.31
321.046	89.31
321.275	90.31
321.504	99.31
321.733	94.31
321.962	95.31
322.191	96.31
322.42	99.31
322.649	94.31
322.878	101.31
323.108	103.31
323.337	103.31
323.566	120.31
323.795	132.31
324.024	198.31
324.253	394.31
324.482	828.31
324.71	1689.31
324.939	2196.31
325.168	791.31
325.397	243.31
325.626	157.31
325.855	113.31
326.084	121.31
326.313	141.31
326.542	147.31
326.77	224.31
326.999	443.31
327.228	964.31
327.457	1749.31
327.686	1385.31
327.914	348.31
328.143	175.31
328.372	127.31
328.6	113.31
328.829	97.31
329.058	106.31
329.287	117.31
329.515	99.31
329.744	95.31
329.972	80.31
330.201	93.31
330.43	117.31
330.658	113.31
330.887	144.31
331.115	111.31
331.344	97.31
331.572	94.31
331.801	105.31
332.03	111.31
332.258	99.31
332.486	85.31
332.715	92.31
332.943	85.31
333.172	89.31
333.4	100.31
333.629	98.31
333.857	108.31
334.085	88.31
334.314	102.31
334.542	91.31
334.771	87.31
334.999	92.31
335.227	102.31
335.455	84.31
335.684	89.31
335.912	80.31
336.14	98.31
336.369	86.31
336.597	83.31
336.825	88.31
337.053	81.31
337.281	94.31
337.51	75.31
337.738	90.31
337.966	91.31
338.194	82.31
338.422	84.31
338.65	86.31
338.878	90.31
339.106	84.31
339.334	86.31
339.562	92.31
339.79	90.31
340.018	96.31
340.246	91.31
340.474	88.31
340.702	88.31
340.93	91.31
341.158	92.31
341.386	89.31
341.614	83.31
341.842	96.31
342.07	90.31
342.298	87.31
342.526	75.31
342.754	74.31
342.981	87.31
343.209	76.31
343.437	94.31
343.665	81.31
343.893	92.31
344.12	94.31
344.348	79.31
344.576	71.31
344.804	81.31
345.031	99.31
345.259	83.31
345.487	92.31
345.714	94.31
345.942	83.31
346.17	99.31
346.397	83.31
346.625	80.31
346.853	83.31
347.08	88.31
347.308	82.31
347.535	90.31
347.763	100.31
347.99	78.31
348.218	85.31
348.445	93.31
348.673	89.31
348.9	92.31
349.128	100.31
349.355	89.31
349.583	97.31
349.81	88.31
350.037	89.31
350.265	95.31
350.492	78.31
350.72	74.31
350.947	75.31
351.174	94.31
351.402	109.31
351.629	85.31
351.856	108.31
352.083	88.31
352.311	92.31
352.538	84.31
352.765	100.31
352.992	89.31
353.22	106.31
353.447	84.31
353.674	84.31
353.901	96.31
354.128	93.31
354.355	97.31
354.583	93.31
354.81	107.31
355.037	94.31
355.264	82.31
355.491	99.31
355.718	99.31
355.945	89.31
356.172	78.31
356.399	92.31
356.626	104.31
356.853	93.31
357.08	76.31
357.307	97.31
357.534	86.31
357.761	92.31
357.988	78.31
358.215	89.31
358.441	86.31
358.668	80.31
358.895	86.31
359.122	88.31
359.349	83.31
359.576	93.31
359.802	94.31
360.029	106.31
360.256	92.31
360.483	94.31
360.709	80.31
360.936	92.31
361.163	95.31
361.39	93.31
361.616	84.31
361.843	79.31
362.07	84.31
362.296	94.31
362.523	94.31
362.749	91.31
362.976	78.31
363.203	74.31
363.429	72.31
363.656	91.31
363.882	83.31
364.109	98.31
364.335	96.31
364.562	84.31
364.788	81.31
365.015	79.31
365.241	86.31
365.468	104.31
365.694	89.31
365.92	88.31
366.147	89.31
366.373	80.31
366.599	79.31
366.826	82.31
367.052	72.31
367.278	79.31
367.505	68.31
367.731	93.31
367.957	84.31
368.184	77.31
368.41	97.31
368.636	90.31
368.862	113.31
369.089	92.31
369.315	94.31
369.541	83.31
369.767	87.31
369.993	103.31
370.219	76.31
370.445	90.31
370.672	86.31
370.898	88.31
371.124	81.31
371.35	72.31
371.576	70.31
371.802	58.31
372.028	80.31
372.254	83.31
372.48	90.31
372.706	87.31
372.932	79.31
373.158	84.31
373.384	96.31
373.61	93.31
373.835	88.31
374.061	95.31
374.287	78.31
374.513	93.31
374.739	89.31
374.965	80.31
375.191	95.31
375.416	71.31
375.642	78.31
375.868	77.31
376.094	86.31
376.319	90.31
376.545	88.31
376.771	80.31
376.997	84.31
377.222	88.31
377.448	72.31
377.674	98.31
377.899	77.31
378.125	82.31
378.35	92.31
378.576	83.31
378.802	88.31
379.027	87.31
379.253	78.31
379.478	93.31
379.704	79.31
379.929	82.31
380.155	88.31
380.38	79.31
380.606	86.31
380.831	87.31
381.057	91.31
381.282	97.31
381.507	91.31
381.733	91.31
381.958	87.31
382.184	88.31
382.409	89.31
382.634	90.31
382.86	90.31
383.085	92.31
383.31	92.31
383.535	79.31
383.761	77.31
383.986	73.31
384.211	87.31
384.436	81.31
384.662	90.31
384.887	95.31
385.112	90.31
385.337	78.31
385.562	81.31
385.787	101.31
386.013	99.31
386.238	99.31
386.463	94.31
386.688	97.31
386.913	82.31
387.138	93.31
387.363	93.31
387.588	98.31
387.813	90.31
388.038	96.31
388.263	91.31
388.488	97.31
388.713	88.31
388.938	92.31
389.163	87.31
389.387	90.31
389.612	98.31
389.837	87.31
390.062	82.31
390.287	89.31
390.512	82.31
390.736	79.31
390.961	87.31
391.186	80.31
391.411	90.31
391.636	95.31
391.86	78.31
392.085	83.31
392.31	78.31
392.534	86.31
392.759	79.31
392.984	72.31
393.208	68.31
393.433	89.31
393.658	81.31
393.882	88.31
394.107	95.31
394.331	88.31
394.556	82.31
394.78	84.31
395.005	88.31
395.229	88.31
395.454	89.31
395.678	67.31
395.903	83.31
396.127	79.31
396.352	76.31
396.576	84.31
396.801	88.31
397.025	78.31
397.249	70.31
397.474	97.31
397.698	75.31
397.922	87.31
398.147	76.31
398.371	73.31
398.595	76.31
398.82	76.31
399.044	93.31
399.268	82.31
399.492	80.31
399.717	78.31
399.941	83.31
400.165	67.31
400.389	92.31
400.613	93.31
400.837	77.31
401.062	94.31
401.286	80.31
401.51	84.31
401.734	90.31
401.958	90.31
402.182	112.31
402.406	148.31
402.63	100.31
402.854	102.31
403.078	77.31
403.302	81.31
403.526	80.31
403.75	80.31
403.974	76.31
404.198	65.31
404.422	74.31
404.645	78.31
404.869	89.31
405.093	86.31
405.317	89.31
405.541	103.31
405.765	85.31
405.988	102.31
406.212	164.31
406.436	220.31
406.66	131.31
406.883	88.31
407.107	82.31
407.331	92.31
407.555	96.31
407.778	88.31
408.002	89.31
408.226	74.31
408.449	60.31
408.673	90.31
408.896	76.31
409.12	94.31
409.344	86.31
409.567	76.31
409.791	94.31
410.014	84.31
410.238	95.31
410.461	82.31
410.685	78.31
410.908	90.31
411.132	90.31
411.355	92.31
411.578	97.31
411.802	86.31
412.025	83.31
412.249	91.31
412.472	95.31
412.695	87.31
412.919	79.31
413.142	69.31
413.365	90.31
413.589	92.31
413.812	69.31
414.035	67.31
414.258	75.31
414.482	81.31
414.705	91.31
414.928	88.31
415.151	79.31
415.374	97.31
415.597	78.31
415.821	84.31
416.044	87.31
416.267	87.31
416.49	79.31
416.713	67.31
416.936	76.31
417.159	79.31
417.382	89.31
417.605	86.31
417.828	89.31
418.051	87.31
418.274	88.31
418.497	106.31
418.72	87.31
418.943	98.31
419.166	70.31
419.389	86.31
419.611	68.31
419.834	74.31
420.057	94.31
420.28	89.31
420.503	83.31
420.726	87.31
420.948	95.31
421.171	88.31
421.394	84.31
421.617	95.31
421.839	98.31
422.062	79.31
422.285	88.31
422.507	86.31
422.73	104.31
422.953	90.31
423.175	62.31
423.398	76.31
423.621	88.31
423.843	75.31
424.066	75.31
424.288	87.31
424.511	83.31
424.733	88.31
424.956	108.31
425.178	97.31
425.401	95.31
425.623	93.31
425.846	99.31
426.068	92.31
426.291	82.31
426.513	78.31
426.735	80.31
426.958	80.31
427.18	94.31
427.402	120.31
427.625	162.31
427.847	107.31
428.069	94.31
428.292	95.31
428.514	85.31
428.736	95.31
428.958	87.31
429.181	86.31
429.403	73.31
429.625	78.31
429.847	87.31
430.069	98.31
430.292	73.31
430.514	75.31
430.736	81.31
430.958	78.31
431.18	66.31
431.402	80.31
431.624	86.31
431.846	70.31
432.068	77.31
432.29	82.31
432.512	87.31
432.734	87.31
432.956	88.31
433.178	96.31
433.4	96.31
433.622	81.31
433.844	71.31
434.066	76.31
434.287	91.31
434.509	74.31
434.731	92.31
434.953	76.31
435.175	75.31
435.397	81.31
435.618	90.31
435.84	91.31
436.062	107.31
436.284	97.31
436.505	82.31
436.727	86.31
436.949	88.31
437.17	75.31
437.392	75.31
437.614	79.31
437.835	89.31
438.057	113.31
438.278	111.31
438.5	94.31
438.721	118.31
438.943	86.31
439.165	74.31
439.386	58.31
439.608	73.31
439.829	90.31
440.05	105.31
440.272	129.31
440.493	106.31
440.715	74.31
440.936	62.31
441.158	79.31
441.379	68.31
441.6	79.31
441.822	86.31
442.043	92.31
442.264	79.31
442.486	107.31
442.707	96.31
442.928	104.31
443.149	127.31
443.371	123.31
443.592	113.31
443.813	103.31
444.034	112.31
444.255	94.31
444.476	95.31
444.698	99.31
444.919	75.31
445.14	121.31
445.361	120.31
445.582	109.31
445.803	137.31
446.024	140.31
446.245	131.31
446.466	109.31
446.687	99.31
446.908	81.31
447.129	78.31
447.35	86.31
447.571	63.31
447.792	80.31
448.013	101.31
448.234	92.31
448.455	100.31
448.675	116.31
448.896	107.31
449.117	95.31
449.338	92.31
449.559	123.31
449.779	138.31
450	88.31
450.221	80.31
450.442	89.31
450.662	114.31
450.883	103.31
451.104	110.31
451.324	99.31
451.545	83.31
451.766	80.31
451.986	78.31
452.207	88.31
452.428	88.31
452.648	99.31
452.869	88.31
453.089	107.31
453.31	104.31
453.53	77.31
453.751	105.31
453.971	112.31
454.192	103.31
454.412	85.31
454.633	82.31
454.853	76.31
455.073	98.31
455.294	88.31
455.514	100.31
455.734	101.31
455.955	84.31
456.175	67.31
456.395	61.31
456.616	84.31
456.836	74.31
457.056	81.31
457.276	66.31
457.497	82.31
457.717	79.31
457.937	95.31
458.157	94.31
458.377	92.31
458.598	102.31
458.818	141.31
459.038	146.31
459.258	111.31
459.478	79.31
459.698	89.31
459.918	86.31
460.138	86.31
460.358	80.31
460.578	82.31
460.798	86.31
461.018	73.31
461.238	78.31
461.458	93.31
461.678	75.31
461.898	84.31
462.118	77.31
462.338	79.31
462.558	83.31
462.777	87.31
462.997	85.31
463.217	73.31
463.437	92.31
463.657	84.31
463.876	78.31
464.096	86.31
464.316	91.31
464.536	82.31
464.755	89.31
464.975	109.31
465.195	158.31
465.414	144.31
465.634	83.31
465.854	85.31
466.073	81.31
466.293	82.31
466.512	95.31
466.732	86.31
466.951	89.31
467.171	76.31
467.391	80.31
467.61	97.31
467.829	96.31
468.049	82.31
468.268	99.31
468.488	83.31
468.707	74.31
468.927	82.31
469.146	87.31
469.365	84.31
469.585	75.31
469.804	96.31
470.023	86.31
470.243	87.31
470.462	88.31
470.681	107.31
470.901	79.31
471.12	66.31
471.339	95.31
471.558	94.31
471.777	74.31
471.997	88.31
472.216	108.31
472.435	118.31
472.654	95.31
472.873	76.31
473.092	74.31
473.311	92.31
473.53	82.31
473.749	90.31
473.968	90.31
474.187	99.31
474.406	90.31
474.625	81.31
474.844	100.31
475.063	86.31
475.282	84.31
475.501	88.31
475.72	100.31
475.939	87.31
476.158	88.31
476.377	88.31
476.596	73.31
476.814	94.31
477.033	83.31
477.252	74.31
477.471	83.31
477.69	81.31
477.908	88.31
478.127	71.31
478.346	82.31
478.564	83.31
478.783	93.31
479.002	93.31
479.22	87.31
479.439	90.31
479.658	96.31
479.876	85.31
480.095	86.31
480.313	84.31
480.532	78.31
480.751	74.31
480.969	113.31
481.188	155.31
481.406	107.31
481.624	89.31
481.843	83.31
482.061	79.31
482.28	69.31
482.498	71.31
482.717	87.31
482.935	74.31
483.153	88.31
483.372	77.31
483.59	78.31
483.808	74.31
484.027	93.31
484.245	90.31
484.463	80.31
484.681	92.31
484.9	82.31
485.118	85.31
485.336	81.31
485.554	104.31
485.772	92.31
485.99	113.31
486.209	92.31
486.427	98.31
486.645	106.31
486.863	106.31
487.081	110.31
487.299	95.31
487.517	89.31
487.735	91.31
487.953	75.31
488.171	103.31
488.389	95.31
488.607	94.31
488.825	90.31
489.043	88.31
489.261	83.31
489.479	82.31
489.696	87.31
489.914	68.31
490.132	90.31
490.35	90.31
490.568	86.31
490.786	66.31
491.003	79.31
491.221	81.31
491.439	89.31
491.657	80.31
491.874	81.31
492.092	90.31
492.31	87.31
492.527	97.31
492.745	91.31
492.963	81.31
493.18	94.31
493.398	74.31
493.615	90.31
493.833	87.31
494.05	81.31
494.268	96.31
494.485	84.31
494.703	91.31
494.92	78.31
495.138	82.31
495.355	75.31
495.573	72.31
495.79	82.31
496.008	91.31
496.225	91.31
496.442	90.31
496.66	83.31
496.877	88.31
497.094	86.31
497.312	77.31
497.529	84.31
497.746	90.31
497.963	81.31
498.181	98.31
498.398	91.31
498.615	105.31
498.832	103.31
499.049	98.31
499.267	80.31
499.484	92.31
499.701	76.31
499.918	98.31
500.135	81.31
500.352	83.31
500.569	83.31
500.786	83.31
501.003	84.31
501.22	81.31
501.437	81.31
501.654	98.31
501.871	97.31
502.088	77.31
502.305	92.31
502.522	81.31
502.739	95.31
502.956	75.31
503.172	75.31
503.389	85.31
503.606	90.31
503.823	88.31
504.04	91.31
504.256	83.31
504.473	82.31
504.69	65.31
504.907	92.31
505.123	84.31
505.34	90.31
505.557	81.31
505.773	82.31
505.99	77.31
506.207	88.31
506.423	77.31
506.64	76.31
506.856	92.31
507.073	94.31
507.289	90.31
507.506	86.31
507.722	105.31
507.939	104.31
508.155	98.31
508.372	90.31
508.588	85.31
508.805	94.31
509.021	95.31
509.238	108.31
509.454	87.31
509.67	112.31
509.887	92.31
510.103	122.31
510.319	191.31
510.536	754.31
510.752	2246.31
510.968	625.31
511.184	150.31
511.401	90.31
511.617	94.31
511.833	95.31
512.049	90.31
512.265	86.31
512.481	80.31
512.698	84.31
512.914	95.31
513.13	100.31
513.346	89.31
513.562	77.31
513.778	110.31
513.994	97.31
514.21	91.31
514.426	118.31
514.642	119.31
514.858	121.31
515.074	174.31
515.29	435.31
515.506	1418.31
515.721	490.31
515.937	132.31
516.153	99.31
516.369	87.31
516.585	73.31
516.801	83.31
517.016	82.31
517.232	106.31
517.448	89.31
517.664	81.31
517.879	88.31
518.095	92.31
518.311	99.31
518.527	105.31
518.742	92.31
518.958	97.31
519.173	82.31
519.389	88.31
519.605	90.31
519.82	100.31
520.036	97.31
520.251	116.31
520.467	105.31
520.682	92.31
520.898	103.31
521.113	121.31
521.329	134.31
521.544	208.31
521.76	553.31
521.975	2368.31
522.19	1347.31
522.406	308.31
522.621	120.31
522.836	90.31
523.052	99.31
523.267	89.31
523.482	90.31
523.698	94.31
523.913	119.31
524.128	101.31
524.343	83.31
524.559	96.31
524.774	88.31
524.989	90.31
525.204	107.31
525.419	86.31
525.634	90.31
525.849	81.31
526.064	78.31
526.28	78.31
526.495	94.31
526.71	98.31
526.925	88.31
527.14	94.31
527.355	74.31
527.57	79.31
527.785	77.31
527.999	97.31
528.214	94.31
528.429	89.31
528.644	80.31
528.859	97.31
529.074	94.31
529.289	119.31
529.503	153.31
529.718	110.31
529.933	91.31
530.148	95.31
530.363	86.31
530.577	85.31
530.792	92.31
531.007	81.31
531.221	112.31
531.436	76.31
531.651	99.31
531.865	74.31
532.08	89.31
532.295	80.31
532.509	83.31
532.724	87.31
532.938	93.31
533.153	86.31
533.367	96.31
533.582	91.31
533.796	91.31
534.011	82.31
534.225	74.31
534.44	87.31
534.654	86.31
534.868	86.31
535.083	108.31
535.297	83.31
535.511	92.31
535.726	106.31
535.94	96.31
536.154	82.31
536.369	93.31
536.583	80.31
536.797	73.31
537.011	74.31
537.225	84.31
537.44	88.31
537.654	83.31
537.868	75.31
538.082	91.31
538.296	95.31
538.51	90.31
538.724	78.31
538.938	78.31
539.153	80.31
539.367	100.31
539.581	77.31
539.795	91.31
540.009	79.31
540.222	86.31
540.436	94.31
540.65	79.31
540.864	84.31
541.078	97.31
541.292	83.31
541.506	88.31
541.72	90.31
541.934	86.31
542.147	80.31
542.361	85.31
542.575	76.31
542.789	84.31
543.002	77.31
543.216	82.31
543.43	97.31
543.644	92.31
543.857	79.31
544.071	82.31
544.285	92.31
544.498	83.31
544.712	89.31
544.925	71.31
545.139	79.31
545.352	87.31
545.566	81.31
545.779	74.31
545.993	84.31
546.206	90.31
546.42	73.31
546.633	88.31
546.847	89.31
547.06	89.31
547.274	78.31
547.487	86.31
547.7	67.31
547.914	86.31
548.127	85.31
548.34	76.31
548.554	95.31
548.767	88.31
548.98	90.31
549.193	81.31
549.407	90.31
549.62	82.31
549.833	70.31
550.046	95.31
550.259	86.31
550.473	82.31
550.686	71.31
550.899	90.31
551.112	90.31
551.325	83.31
551.538	76.31
551.751	79.31
551.964	85.31
552.177	84.31
552.39	98.31
552.603	91.31
552.816	90.31
553.029	79.31
553.242	86.31
553.455	93.31
553.667	112.31
553.88	95.31
554.093	82.31
554.306	92.31
554.519	80.31
554.732	73.31
554.944	89.31
555.157	83.31
555.37	84.31
555.583	88.31
555.795	92.31
556.008	86.31
556.221	93.31
556.433	89.31
556.646	105.31
556.859	79.31
557.071	85.31
557.284	84.31
557.496	89.31
557.709	82.31
557.921	87.31
558.134	90.31
558.346	86.31
558.559	89.31
558.771	75.31
558.984	80.31
559.196	92.31
559.409	92.31
559.621	84.31
559.833	75.31
560.046	77.31
560.258	75.31
560.47	77.31
560.683	81.31
560.895	89.31
561.107	86.31
561.32	87.31
561.532	94.31
561.744	80.31
561.956	100.31
562.168	84.31
562.381	100.31
562.593	83.31
562.805	102.31
563.017	84.31
563.229	79.31
563.441	86.31
563.653	78.31
563.865	78.31
564.077	81.31
564.289	82.31
564.501	91.31
564.713	88.31
564.925	81.31
565.137	94.31
565.349	82.31
565.561	79.31
565.773	85.31
565.985	78.31
566.197	91.31
566.408	86.31
566.62	76.31
566.832	81.31
567.044	90.31
567.255	73.31
567.467	80.31
567.679	70.31
567.891	83.31
568.102	86.31
568.314	94.31
568.526	78.31
568.737	75.31
568.949	68.31
569.161	72.31
569.372	62.31
569.584	87.31
569.795	77.31
570.007	107.31
570.218	217.31
570.43	121.31
570.641	88.31
570.853	71.31
571.064	79.31
571.276	91.31
571.487	66.31
571.698	78.31
571.91	71.31
572.121	79.31
572.333	78.31
572.544	81.31
572.755	76.31
572.966	84.31
573.178	86.31
573.389	71.31
573.6	83.31
573.811	95.31
574.023	80.31
574.234	80.31
574.445	90.31
574.656	80.31
574.867	80.31
575.078	75.31
575.289	80.31
575.501	73.31
575.712	100.31
575.923	64.31
576.134	72.31
576.345	77.31
576.556	80.31
576.767	76.31
576.978	88.31
577.188	84.31
577.399	77.31
577.61	87.31
577.821	91.31
578.032	107.31
578.243	251.31
578.454	725.31
578.665	203.31
578.875	97.31
579.086	76.31
579.297	87.31
579.508	88.31
579.718	75.31
579.929	75.31
580.14	74.31
580.35	82.31
580.561	83.31
580.772	78.31
580.982	80.31
581.193	92.31
581.403	83.31
581.614	76.31
581.825	80.31
582.035	84.31
582.246	88.31
582.456	83.31
582.667	77.31
582.877	77.31
583.087	90.31
583.298	100.31
583.508	73.31
583.719	70.31
583.929	88.31
584.139	79.31
584.35	78.31
584.56	78.31
584.77	78.31
584.981	92.31
585.191	80.31
585.401	83.31
585.611	78.31
585.821	77.31
586.032	92.31
586.242	97.31
586.452	97.31
586.662	89.31
586.872	95.31
587.082	82.31
587.292	87.31
587.502	85.31
587.713	82.31
587.923	87.31
588.133	83.31
588.343	92.31
588.553	79.31
588.762	76.31
588.972	67.31
589.182	83.31
589.392	76.31
589.602	72.31
589.812	79.31
590.022	74.31
590.232	80.31
590.441	83.31
590.651	86.31
590.861	82.31
591.071	81.31
591.281	73.31
591.49	83.31
591.7	86.31
591.91	88.31
592.119	82.31
592.329	88.31
592.539	89.31
592.748	79.31
592.958	92.31
593.167	75.31
593.377	89.31
593.587	92.31
593.796	90.31
594.006	83.31
594.215	87.31
594.424	80.31
594.634	78.31
594.843	84.31
595.053	63.31
595.262	79.31
595.472	78.31
595.681	83.31
595.89	82.31
596.1	80.31
596.309	91.31
596.518	83.31
596.727	74.31
596.937	87.31
597.146	85.31
597.355	87.31
597.564	79.31
597.774	76.31
597.983	80.31
598.192	90.31
598.401	84.31
598.61	88.31
598.819	76.31
599.028	63.31
599.237	79.31
599.446	76.31
599.655	74.31
599.864	92.31
600.073	74.31
600.282	62.31
600.491	81.31
600.7	82.31
600.909	71.31
601.118	86.31
601.327	97.31
601.536	84.31
601.745	79.31
601.953	75.31
602.162	78.31
602.371	86.31
602.58	80.31
602.789	82.31
602.997	92.31
603.206	66.31
603.415	85.31
603.623	75.31
603.832	81.31
604.041	75.31
604.249	95.31
604.458	73.31
604.666	79.31
604.875	78.31
605.084	79.31
605.292	76.31
605.501	72.31
605.709	79.31
605.918	81.31
606.126	76.31
606.334	82.31
606.543	85.31
606.751	88.31
606.96	84.31
607.168	86.31
607.376	78.31
607.585	90.31
607.793	66.31
608.001	80.31
608.21	74.31
608.418	86.31
608.626	90.31
608.834	83.31
609.043	75.31
609.251	74.31
609.459	86.31
609.667	82.31
609.875	72.31
610.083	75.31
610.291	64.31
610.499	66.31
610.707	82.31
610.916	66.31
611.124	68.31
611.332	84.31
611.54	75.31
611.748	96.31
611.955	94.31
612.163	79.31
612.371	74.31
612.579	81.31
612.787	82.31
612.995	55.31
613.203	83.31
613.411	71.31
613.618	78.31
613.826	88.31
614.034	86.31
614.242	77.31
614.449	77.31
614.657	81.31
614.865	80.31
615.072	87.31
615.28	94.31
615.488	81.31
615.695	82.31
615.903	89.31
616.111	93.31
616.318	103.31
616.526	98.31
616.733	87.31
616.941	78.31
617.148	81.31
617.356	79.31
617.563	76.31
617.771	80.31
617.978	87.31
618.185	71.31
618.393	83.31
618.6	81.31
618.807	82.31
619.015	83.31
619.222	87.31
619.429	82.31
619.637	83.31
619.844	83.31
620.051	75.31
620.258	64.31
620.466	81.31
620.673	99.31
620.88	78.31
621.087	84.31
621.294	75.31
621.501	70.31
621.708	80.31
621.915	75.31
622.122	87.31
622.329	79.31
622.536	82.31
622.743	71.31
622.95	80.31
623.157	60.31
623.364	87.31
623.571	73.31
623.778	75.31
623.985	73.31
624.192	72.31
624.399	82.31
624.606	79.31
624.812	70.31
625.019	76.31
625.226	68.31
625.433	74.31
625.639	74.31
625.846	77.31
626.053	82.31
626.259	83.31
626.466	66.31
626.673	90.31
626.879	74.31
627.086	88.31
627.293	71.31
627.499	83.31
627.706	76.31
627.912	70.31
628.119	90.31
628.325	78.31
628.532	98.31
628.738	82.31
628.945	76.31
629.151	78.31
629.357	70.31
629.564	82.31
629.77	81.31
629.976	78.31
630.183	82.31
630.389	88.31
630.595	80.31
630.802	81.31
631.008	81.31
631.214	72.31
631.42	72.31
631.627	79.31
631.833	88.31
632.039	80.31
632.245	78.31
632.451	77.31
632.657	82.31
632.863	84.31
633.069	77.31
633.275	73.31
633.481	67.31
633.688	79.31
633.893	71.31
634.099	86.31
634.305	79.31
634.511	76.31
634.717	81.31
634.923	76.31
635.129	82.31
635.335	68.31
635.541	74.31
635.747	80.31
635.952	88.31
636.158	81.31
636.364	103.31
636.57	75.31
636.775	71.31
636.981	74.31
637.187	91.31
637.392	79.31
637.598	86.31
637.804	93.31
638.009	63.31
638.215	74.31
638.421	74.31
638.626	71.31
638.832	80.31
639.037	77.31
639.243	71.31
639.448	74.31
639.654	80.31
639.859	74.31
640.065	66.31
640.27	82.31
640.475	70.31
640.681	71.31
640.886	77.31
641.091	81.31
641.297	94.31
641.502	65.31
641.707	82.31
641.913	87.31
642.118	83.31
642.323	79.31
642.528	72.31
642.733	78.31
642.939	73.31
643.144	87.31
643.349	76.31
643.554	76.31
643.759	80.31
643.964	89.31
644.169	68.31
644.374	80.31
644.579	81.31
644.784	79.31
644.989	76.31
645.194	75.31
645.399	84.31
645.604	83.31
645.809	82.31
646.014	83.31
646.219	79.31
646.423	75.31
646.628	78.31
646.833	76.31
647.038	87.31
647.243	67.31
647.447	86.31
647.652	79.31
647.857	75.31
648.062	81.31
648.266	79.31
648.471	69.31
648.676	86.31
648.88	79.31
649.085	77.31
649.289	71.31
649.494	96.31
649.698	129.31
649.903	98.31
650.107	81.31
650.312	81.31
650.516	75.31
650.721	69.31
650.925	86.31
651.13	71.31
651.334	87.31
651.539	74.31
651.743	70.31
651.947	83.31
652.152	79.31
652.356	90.31
652.56	60.31
652.764	80.31
652.969	67.31
653.173	72.31
653.377	82.31
653.581	67.31
653.785	77.31
653.99	99.31
654.194	81.31
654.398	80.31
654.602	63.31
654.806	78.31
655.01	83.31
655.214	97.31
655.418	92.31
655.622	58.31
655.826	72.31
656.03	84.31
656.234	74.31
656.438	82.31
656.642	86.31
656.846	80.31
657.049	76.31
657.253	89.31
657.457	64.31
657.661	77.31
657.865	91.31
658.068	78.31
658.272	80.31
658.476	71.31
658.68	84.31
658.883	74.31
659.087	61.31
659.291	60.31
659.494	76.31
659.698	81.31
659.901	76.31
660.105	65.31
660.309	79.31
660.512	63.31
660.716	84.31
660.919	82.31
661.123	93.31
661.326	77.31
661.53	66.31
661.733	77.31
661.936	80.31
662.14	77.31
662.343	59.31
662.546	79.31
662.75	78.31
662.953	84.31
663.156	84.31
663.36	92.31
663.563	84.31
663.766	83.31
663.969	79.31
664.173	63.31
664.376	71.31
664.579	81.31
664.782	72.31
664.985	76.31
665.188	78.31
665.391	50.31
665.594	75.31
665.797	70.31
666	85.31
666.203	66.31
666.406	93.31
666.609	65.31
666.812	85.31
667.015	82.31
667.218	75.31
667.421	62.31
667.624	79.31
667.827	72.31
668.03	76.31
668.232	80.31
668.435	78.31
668.638	79.31
668.841	78.31
669.043	61.31
669.246	76.31
669.449	70.31
669.651	80.31
669.854	83.31
670.057	89.31
670.259	82.31
670.462	66.31
670.665	66.31
670.867	79.31
671.07	72.31
671.272	64.31
671.475	84.31
671.677	81.31
671.88	86.31
672.082	72.31
672.284	67.31
672.487	68.31
672.689	66.31
672.892	78.31
