Data from Uncirc_1988_H10_HRD10591_00094.txt Node
Date: Wed Jan 03 12:04:23 EST 2024
User: Yrep
Spectrometer: HR+D1059
Trigger mode: 1
Integration Time (sec): 1.000000E-1
Scans to average: 1
Electric dark correction enabled: true
Nonlinearity correction enabled: false
Boxcar width: 0
XAxis mode: Wavelengths
Number of Pixels in Spectrum: 2048
>>>>>Begin Spectral Data<<<<<
223.165	-15.75
223.4	-15.75
223.635	-15.75
223.869	-11.75
224.104	-21.75
224.338	-14.75
224.573	-12.75
224.808	-24.75
225.042	-15.75
225.277	-2.75
225.511	-4.75
225.746	7.25
225.98	14.25
226.215	13.25
226.449	18.25
226.683	1.25
226.918	31.25
227.152	39.25
227.387	35.25
227.621	38.25
227.856	62.25
228.09	47.25
228.324	46.25
228.559	48.25
228.793	60.25
229.027	59.25
229.262	63.25
229.496	74.25
229.73	101.25
229.964	79.25
230.199	74.25
230.433	71.25
230.667	66.25
230.901	65.25
231.136	74.25
231.37	78.25
231.604	79.25
231.838	81.25
232.072	82.25
232.306	88.25
232.541	83.25
232.775	89.25
233.009	89.25
233.243	84.25
233.477	88.25
233.711	82.25
233.945	85.25
234.179	82.25
234.413	69.25
234.647	81.25
234.881	77.25
235.115	79.25
235.349	84.25
235.583	77.25
235.817	74.25
236.051	80.25
236.285	93.25
236.519	81.25
236.753	81.25
236.987	89.25
237.221	88.25
237.455	80.25
237.689	93.25
237.922	74.25
238.156	77.25
238.39	73.25
238.624	79.25
238.858	87.25
239.091	82.25
239.325	67.25
239.559	71.25
239.793	85.25
240.027	80.25
240.26	86.25
240.494	69.25
240.728	77.25
240.961	74.25
241.195	77.25
241.429	79.25
241.662	86.25
241.896	73.25
242.13	71.25
242.363	72.25
242.597	59.25
242.83	74.25
243.064	81.25
243.298	74.25
243.531	71.25
243.765	78.25
243.998	80.25
244.232	85.25
244.465	81.25
244.699	79.25
244.932	81.25
245.166	72.25
245.399	73.25
245.633	87.25
245.866	65.25
246.099	77.25
246.333	66.25
246.566	80.25
246.8	87.25
247.033	88.25
247.266	85.25
247.5	71.25
247.733	71.25
247.966	78.25
248.2	84.25
248.433	64.25
248.666	91.25
248.899	81.25
249.133	91.25
249.366	106.25
249.599	86.25
249.832	91.25
250.066	86.25
250.299	72.25
250.532	98.25
250.765	88.25
250.998	93.25
251.231	86.25
251.465	91.25
251.698	90.25
251.931	74.25
252.164	63.25
252.397	85.25
252.63	93.25
252.863	89.25
253.096	88.25
253.329	84.25
253.562	84.25
253.795	73.25
254.028	96.25
254.261	82.25
254.494	84.25
254.727	80.25
254.96	85.25
255.193	80.25
255.426	82.25
255.659	71.25
255.892	81.25
256.124	87.25
256.357	67.25
256.59	82.25
256.823	79.25
257.056	93.25
257.289	87.25
257.521	81.25
257.754	86.25
257.987	91.25
258.22	83.25
258.452	87.25
258.685	96.25
258.918	78.25
259.151	81.25
259.383	91.25
259.616	81.25
259.849	94.25
260.081	97.25
260.314	91.25
260.547	87.25
260.779	67.25
261.012	103.25
261.244	84.25
261.477	88.25
261.71	91.25
261.942	106.25
262.175	120.25
262.407	89.25
262.64	79.25
262.872	83.25
263.105	78.25
263.337	81.25
263.57	68.25
263.802	80.25
264.035	101.25
264.267	74.25
264.499	95.25
264.732	95.25
264.964	71.25
265.197	88.25
265.429	78.25
265.661	88.25
265.894	71.25
266.126	90.25
266.358	90.25
266.591	71.25
266.823	79.25
267.055	80.25
267.287	63.25
267.52	83.25
267.752	90.25
267.984	94.25
268.216	71.25
268.448	101.25
268.681	95.25
268.913	81.25
269.145	93.25
269.377	99.25
269.609	83.25
269.841	85.25
270.073	83.25
270.306	73.25
270.538	62.25
270.77	89.25
271.002	71.25
271.234	96.25
271.466	99.25
271.698	99.25
271.93	79.25
272.162	98.25
272.394	87.25
272.626	82.25
272.858	89.25
273.09	90.25
273.322	90.25
273.553	67.25
273.785	81.25
274.017	85.25
274.249	84.25
274.481	84.25
274.713	70.25
274.945	84.25
275.176	82.25
275.408	79.25
275.64	88.25
275.872	87.25
276.104	87.25
276.335	107.25
276.567	111.25
276.799	117.25
277.031	106.25
277.262	85.25
277.494	104.25
277.726	86.25
277.957	89.25
278.189	85.25
278.421	85.25
278.652	92.25
278.884	68.25
279.115	88.25
279.347	87.25
279.579	92.25
279.81	84.25
280.042	81.25
280.273	93.25
280.505	83.25
280.736	104.25
280.968	89.25
281.199	94.25
281.431	93.25
281.662	90.25
281.894	82.25
282.125	91.25
282.356	118.25
282.588	153.25
282.819	114.25
283.051	91.25
283.282	90.25
283.513	73.25
283.745	88.25
283.976	90.25
284.207	95.25
284.439	88.25
284.67	81.25
284.901	83.25
285.132	79.25
285.364	85.25
285.595	89.25
285.826	98.25
286.057	77.25
286.288	85.25
286.52	79.25
286.751	84.25
286.982	106.25
287.213	90.25
287.444	78.25
287.675	91.25
287.906	84.25
288.138	89.25
288.369	86.25
288.6	93.25
288.831	95.25
289.062	69.25
289.293	95.25
289.524	87.25
289.755	92.25
289.986	86.25
290.217	92.25
290.448	90.25
290.679	80.25
290.91	72.25
291.141	92.25
291.371	89.25
291.602	95.25
291.833	107.25
292.064	88.25
292.295	88.25
292.526	94.25
292.757	88.25
292.987	91.25
293.218	91.25
293.449	83.25
293.68	82.25
293.91	73.25
294.141	96.25
294.372	93.25
294.603	87.25
294.833	70.25
295.064	96.25
295.295	93.25
295.525	99.25
295.756	115.25
295.987	122.25
296.217	143.25
296.448	118.25
296.679	97.25
296.909	96.25
297.14	97.25
297.37	84.25
297.601	97.25
297.831	86.25
298.062	95.25
298.292	99.25
298.523	95.25
298.753	87.25
298.984	82.25
299.214	97.25
299.445	92.25
299.675	88.25
299.905	100.25
300.136	74.25
300.366	85.25
300.597	98.25
300.827	101.25
301.057	97.25
301.288	101.25
301.518	95.25
301.748	92.25
301.979	86.25
302.209	100.25
302.439	114.25
302.669	105.25
302.9	98.25
303.13	93.25
303.36	83.25
303.59	119.25
303.82	99.25
304.051	97.25
304.281	94.25
304.511	89.25
304.741	97.25
304.971	94.25
305.201	92.25
305.431	83.25
305.661	82.25
305.891	93.25
306.121	93.25
306.352	115.25
306.582	111.25
306.812	96.25
307.042	79.25
307.272	98.25
307.502	92.25
307.731	100.25
307.961	86.25
308.191	81.25
308.421	86.25
308.651	93.25
308.881	81.25
309.111	85.25
309.341	105.25
309.571	102.25
309.8	99.25
310.03	101.25
310.26	112.25
310.49	103.25
310.72	104.25
310.949	107.25
311.179	104.25
311.409	103.25
311.639	93.25
311.868	119.25
312.098	98.25
312.328	96.25
312.557	106.25
312.787	120.25
313.017	98.25
313.246	81.25
313.476	102.25
313.706	96.25
313.935	101.25
314.165	110.25
314.394	90.25
314.624	96.25
314.853	99.25
315.083	90.25
315.312	95.25
315.542	98.25
315.771	78.25
316.001	90.25
316.23	90.25
316.46	106.25
316.689	99.25
316.919	97.25
317.148	94.25
317.377	105.25
317.607	97.25
317.836	102.25
318.065	101.25
318.295	92.25
318.524	92.25
318.753	91.25
318.983	80.25
319.212	103.25
319.441	111.25
319.67	111.25
319.9	94.25
320.129	106.25
320.358	82.25
320.587	102.25
320.816	92.25
321.046	106.25
321.275	110.25
321.504	90.25
321.733	92.25
321.962	99.25
322.191	100.25
322.42	113.25
322.649	109.25
322.878	111.25
323.108	122.25
323.337	126.25
323.566	135.25
323.795	145.25
324.024	224.25
324.253	443.25
324.482	959.25
324.71	2045.25
324.939	2775.25
325.168	942.25
325.397	288.25
325.626	165.25
325.855	139.25
326.084	137.25
326.313	132.25
326.542	141.25
326.77	253.25
326.999	505.25
327.228	1126.25
327.457	2103.25
327.686	1707.25
327.914	438.25
328.143	229.25
328.372	151.25
328.6	130.25
328.829	127.25
329.058	153.25
329.287	143.25
329.515	105.25
329.744	123.25
329.972	105.25
330.201	124.25
330.43	157.25
330.658	138.25
330.887	156.25
331.115	130.25
331.344	105.25
331.572	109.25
331.801	114.25
332.03	127.25
332.258	103.25
332.486	101.25
332.715	97.25
332.943	90.25
333.172	92.25
333.4	92.25
333.629	121.25
333.857	117.25
334.085	109.25
334.314	125.25
334.542	146.25
334.771	161.25
334.999	115.25
335.227	106.25
335.455	105.25
335.684	102.25
335.912	103.25
336.14	97.25
336.369	102.25
336.597	102.25
336.825	106.25
337.053	86.25
337.281	99.25
337.51	89.25
337.738	98.25
337.966	105.25
338.194	103.25
338.422	111.25
338.65	109.25
338.878	104.25
339.106	100.25
339.334	94.25
339.562	96.25
339.79	98.25
340.018	97.25
340.246	97.25
340.474	95.25
340.702	93.25
340.93	104.25
341.158	79.25
341.386	100.25
341.614	94.25
341.842	89.25
342.07	95.25
342.298	95.25
342.526	89.25
342.754	87.25
342.981	94.25
343.209	91.25
343.437	97.25
343.665	110.25
343.893	95.25
344.12	103.25
344.348	99.25
344.576	92.25
344.804	95.25
345.031	90.25
345.259	93.25
345.487	106.25
345.714	86.25
345.942	101.25
346.17	95.25
346.397	91.25
346.625	104.25
346.853	98.25
347.08	84.25
347.308	91.25
347.535	107.25
347.763	112.25
347.99	99.25
348.218	110.25
348.445	124.25
348.673	106.25
348.9	104.25
349.128	81.25
349.355	101.25
349.583	101.25
349.81	96.25
350.037	97.25
350.265	92.25
350.492	85.25
350.72	105.25
350.947	107.25
351.174	104.25
351.402	113.25
351.629	102.25
351.856	120.25
352.083	111.25
352.311	97.25
352.538	106.25
352.765	111.25
352.992	118.25
353.22	122.25
353.447	111.25
353.674	88.25
353.901	98.25
354.128	93.25
354.355	89.25
354.583	93.25
354.81	94.25
355.037	99.25
355.264	90.25
355.491	100.25
355.718	86.25
355.945	93.25
356.172	86.25
356.399	91.25
356.626	86.25
356.853	90.25
357.08	89.25
357.307	93.25
357.534	84.25
357.761	91.25
357.988	95.25
358.215	80.25
358.441	90.25
358.668	97.25
358.895	93.25
359.122	99.25
359.349	95.25
359.576	103.25
359.802	106.25
360.029	134.25
360.256	115.25
360.483	103.25
360.709	95.25
360.936	94.25
361.163	96.25
361.39	111.25
361.616	113.25
361.843	93.25
362.07	99.25
362.296	103.25
362.523	84.25
362.749	90.25
362.976	98.25
363.203	90.25
363.429	83.25
363.656	85.25
363.882	81.25
364.109	83.25
364.335	106.25
364.562	85.25
364.788	95.25
365.015	87.25
365.241	113.25
365.468	111.25
365.694	113.25
365.92	100.25
366.147	104.25
366.373	97.25
366.599	87.25
366.826	87.25
367.052	89.25
367.278	97.25
367.505	102.25
367.731	106.25
367.957	100.25
368.184	96.25
368.41	107.25
368.636	126.25
368.862	115.25
369.089	110.25
369.315	99.25
369.541	113.25
369.767	82.25
369.993	94.25
370.219	82.25
370.445	106.25
370.672	83.25
370.898	89.25
371.124	81.25
371.35	91.25
371.576	88.25
371.802	84.25
372.028	101.25
372.254	108.25
372.48	91.25
372.706	95.25
372.932	82.25
373.158	86.25
373.384	92.25
373.61	85.25
373.835	95.25
374.061	82.25
374.287	101.25
374.513	93.25
374.739	90.25
374.965	87.25
375.191	73.25
375.416	94.25
375.642	78.25
375.868	90.25
376.094	95.25
376.319	83.25
376.545	107.25
376.771	96.25
376.997	84.25
377.222	96.25
377.448	94.25
377.674	93.25
377.899	85.25
378.125	89.25
378.35	78.25
378.576	100.25
378.802	101.25
379.027	97.25
379.253	87.25
379.478	73.25
379.704	84.25
379.929	95.25
380.155	105.25
380.38	86.25
380.606	89.25
380.831	93.25
381.057	91.25
381.282	97.25
381.507	91.25
381.733	95.25
381.958	91.25
382.184	102.25
382.409	95.25
382.634	101.25
382.86	92.25
383.085	94.25
383.31	98.25
383.535	68.25
383.761	104.25
383.986	94.25
384.211	81.25
384.436	90.25
384.662	90.25
384.887	96.25
385.112	106.25
385.337	112.25
385.562	105.25
385.787	97.25
386.013	101.25
386.238	113.25
386.463	88.25
386.688	101.25
386.913	98.25
387.138	94.25
387.363	103.25
387.588	122.25
387.813	92.25
388.038	102.25
388.263	109.25
388.488	94.25
388.713	80.25
388.938	102.25
389.163	104.25
389.387	94.25
389.612	83.25
389.837	95.25
390.062	96.25
390.287	94.25
390.512	94.25
390.736	92.25
390.961	93.25
391.186	109.25
391.411	107.25
391.636	102.25
391.86	95.25
392.085	93.25
392.31	87.25
392.534	86.25
392.759	72.25
392.984	97.25
393.208	92.25
393.433	86.25
393.658	89.25
393.882	90.25
394.107	90.25
394.331	97.25
394.556	95.25
394.78	94.25
395.005	102.25
395.229	72.25
395.454	79.25
395.678	78.25
395.903	71.25
396.127	95.25
396.352	113.25
396.576	83.25
396.801	95.25
397.025	92.25
397.249	96.25
397.474	89.25
397.698	88.25
397.922	94.25
398.147	89.25
398.371	88.25
398.595	92.25
398.82	98.25
399.044	99.25
399.268	98.25
399.492	85.25
399.717	95.25
399.941	93.25
400.165	93.25
400.389	102.25
400.613	84.25
400.837	90.25
401.062	87.25
401.286	81.25
401.51	94.25
401.734	97.25
401.958	94.25
402.182	130.25
402.406	176.25
402.63	126.25
402.854	95.25
403.078	86.25
403.302	98.25
403.526	105.25
403.75	90.25
403.974	95.25
404.198	102.25
404.422	100.25
404.645	98.25
404.869	90.25
405.093	98.25
405.317	116.25
405.541	103.25
405.765	126.25
405.988	117.25
406.212	179.25
406.436	245.25
406.66	172.25
406.883	110.25
407.107	98.25
407.331	97.25
407.555	105.25
407.778	109.25
408.002	96.25
408.226	90.25
408.449	79.25
408.673	87.25
408.896	93.25
409.12	109.25
409.344	85.25
409.567	86.25
409.791	103.25
410.014	84.25
410.238	85.25
410.461	81.25
410.685	98.25
410.908	100.25
411.132	103.25
411.355	94.25
411.578	97.25
411.802	80.25
412.025	93.25
412.249	93.25
412.472	98.25
412.695	99.25
412.919	82.25
413.142	97.25
413.365	90.25
413.589	90.25
413.812	88.25
414.035	102.25
414.258	88.25
414.482	92.25
414.705	75.25
414.928	84.25
415.151	86.25
415.374	101.25
415.597	82.25
415.821	92.25
416.044	84.25
416.267	94.25
416.49	80.25
416.713	85.25
416.936	74.25
417.159	70.25
417.382	78.25
417.605	94.25
417.828	93.25
418.051	87.25
418.274	74.25
418.497	77.25
418.72	87.25
418.943	81.25
419.166	102.25
419.389	99.25
419.611	85.25
419.834	88.25
420.057	93.25
420.28	87.25
420.503	97.25
420.726	95.25
420.948	95.25
421.171	95.25
421.394	96.25
421.617	86.25
421.839	90.25
422.062	88.25
422.285	86.25
422.507	102.25
422.73	101.25
422.953	101.25
423.175	87.25
423.398	84.25
423.621	74.25
423.843	90.25
424.066	85.25
424.288	93.25
424.511	89.25
424.733	104.25
424.956	104.25
425.178	113.25
425.401	128.25
425.623	91.25
425.846	106.25
426.068	101.25
426.291	100.25
426.513	74.25
426.735	90.25
426.958	98.25
427.18	129.25
427.402	164.25
427.625	202.25
427.847	132.25
428.069	125.25
428.292	105.25
428.514	101.25
428.736	75.25
428.958	83.25
429.181	93.25
429.403	86.25
429.625	94.25
429.847	93.25
430.069	101.25
430.292	100.25
430.514	77.25
430.736	83.25
430.958	92.25
431.18	88.25
431.402	91.25
431.624	90.25
431.846	100.25
432.068	95.25
432.29	77.25
432.512	79.25
432.734	81.25
432.956	94.25
433.178	107.25
433.4	87.25
433.622	97.25
433.844	101.25
434.066	101.25
434.287	92.25
434.509	73.25
434.731	95.25
434.953	89.25
435.175	86.25
435.397	96.25
435.618	88.25
435.84	118.25
436.062	134.25
436.284	118.25
436.505	102.25
436.727	121.25
436.949	96.25
437.17	88.25
437.392	91.25
437.614	103.25
437.835	107.25
438.057	120.25
438.278	121.25
438.5	124.25
438.721	132.25
438.943	109.25
439.165	83.25
439.386	78.25
439.608	109.25
439.829	107.25
440.05	126.25
440.272	176.25
440.493	106.25
440.715	85.25
440.936	86.25
441.158	100.25
441.379	74.25
441.6	85.25
441.822	107.25
442.043	101.25
442.264	114.25
442.486	124.25
442.707	95.25
442.928	120.25
443.149	136.25
443.371	143.25
443.592	129.25
443.813	132.25
444.034	106.25
444.255	86.25
444.476	98.25
444.698	87.25
444.919	97.25
445.14	124.25
445.361	116.25
445.582	129.25
445.803	154.25
446.024	153.25
446.245	153.25
446.466	128.25
446.687	101.25
446.908	102.25
447.129	98.25
447.35	89.25
447.571	91.25
447.792	101.25
448.013	92.25
448.234	114.25
448.455	112.25
448.675	125.25
448.896	149.25
449.117	96.25
449.338	123.25
449.559	137.25
449.779	162.25
450	111.25
450.221	87.25
450.442	98.25
450.662	94.25
450.883	113.25
451.104	125.25
451.324	97.25
451.545	95.25
451.766	85.25
451.986	85.25
452.207	83.25
452.428	91.25
452.648	104.25
452.869	105.25
453.089	113.25
453.31	101.25
453.53	91.25
453.751	89.25
453.971	102.25
454.192	116.25
454.412	93.25
454.633	100.25
454.853	91.25
455.073	87.25
455.294	103.25
455.514	105.25
455.734	73.25
455.955	79.25
456.175	85.25
456.395	99.25
456.616	93.25
456.836	93.25
457.056	101.25
457.276	94.25
457.497	101.25
457.717	90.25
457.937	81.25
458.157	85.25
458.377	103.25
458.598	129.25
458.818	173.25
459.038	197.25
459.258	134.25
459.478	99.25
459.698	96.25
459.918	99.25
460.138	69.25
460.358	77.25
460.578	86.25
460.798	87.25
461.018	99.25
461.238	88.25
461.458	82.25
461.678	81.25
461.898	90.25
462.118	84.25
462.338	93.25
462.558	87.25
462.777	95.25
462.997	90.25
463.217	97.25
463.437	97.25
463.657	103.25
463.876	88.25
464.096	83.25
464.316	103.25
464.536	91.25
464.755	101.25
464.975	103.25
465.195	174.25
465.414	171.25
465.634	116.25
465.854	81.25
466.073	83.25
466.293	85.25
466.512	87.25
466.732	95.25
466.951	88.25
467.171	99.25
467.391	101.25
467.61	106.25
467.829	97.25
468.049	106.25
468.268	112.25
468.488	87.25
468.707	84.25
468.927	86.25
469.146	96.25
469.365	77.25
469.585	83.25
469.804	107.25
470.023	103.25
470.243	116.25
470.462	118.25
470.681	117.25
470.901	94.25
471.12	102.25
471.339	86.25
471.558	95.25
471.777	99.25
471.997	92.25
472.216	110.25
472.435	174.25
472.654	106.25
472.873	89.25
473.092	84.25
473.311	74.25
473.53	78.25
473.749	89.25
473.968	85.25
474.187	119.25
474.406	107.25
474.625	83.25
474.844	102.25
475.063	88.25
475.282	96.25
475.501	79.25
475.72	89.25
475.939	77.25
476.158	77.25
476.377	97.25
476.596	106.25
476.814	91.25
477.033	82.25
477.252	96.25
477.471	82.25
477.69	79.25
477.908	78.25
478.127	75.25
478.346	94.25
478.564	88.25
478.783	121.25
479.002	105.25
479.22	94.25
479.439	102.25
479.658	107.25
479.876	106.25
480.095	72.25
480.313	94.25
480.532	96.25
480.751	96.25
480.969	123.25
481.188	246.25
481.406	181.25
481.624	100.25
481.843	106.25
482.061	82.25
482.28	91.25
482.498	82.25
482.717	74.25
482.935	81.25
483.153	96.25
483.372	96.25
483.59	94.25
483.808	92.25
484.027	94.25
484.245	96.25
484.463	95.25
484.681	98.25
484.9	97.25
485.118	88.25
485.336	88.25
485.554	117.25
485.772	85.25
485.99	99.25
486.209	100.25
486.427	94.25
486.645	88.25
486.863	106.25
487.081	101.25
487.299	108.25
487.517	103.25
487.735	87.25
487.953	89.25
488.171	100.25
488.389	96.25
488.607	87.25
488.825	91.25
489.043	94.25
489.261	92.25
489.479	83.25
489.696	87.25
489.914	90.25
490.132	80.25
490.35	94.25
490.568	77.25
490.786	92.25
491.003	89.25
491.221	95.25
491.439	103.25
491.657	105.25
491.874	90.25
492.092	98.25
492.31	94.25
492.527	94.25
492.745	98.25
492.963	92.25
493.18	98.25
493.398	104.25
493.615	93.25
493.833	105.25
494.05	88.25
494.268	81.25
494.485	101.25
494.703	99.25
494.92	96.25
495.138	93.25
495.355	96.25
495.573	98.25
495.79	90.25
496.008	83.25
496.225	95.25
496.442	102.25
496.66	107.25
496.877	88.25
497.094	89.25
497.312	95.25
497.529	101.25
497.746	104.25
497.963	103.25
498.181	87.25
498.398	93.25
498.615	123.25
498.832	98.25
499.049	94.25
499.267	87.25
499.484	99.25
499.701	98.25
499.918	93.25
500.135	90.25
500.352	82.25
500.569	81.25
500.786	83.25
501.003	93.25
501.22	72.25
501.437	78.25
501.654	99.25
501.871	108.25
502.088	79.25
502.305	78.25
502.522	85.25
502.739	93.25
502.956	102.25
503.172	96.25
503.389	90.25
503.606	109.25
503.823	101.25
504.04	104.25
504.256	94.25
504.473	115.25
504.69	104.25
504.907	99.25
505.123	88.25
505.34	99.25
505.557	97.25
505.773	94.25
505.99	87.25
506.207	95.25
506.423	88.25
506.64	100.25
506.856	93.25
507.073	95.25
507.289	98.25
507.506	103.25
507.722	111.25
507.939	103.25
508.155	97.25
508.372	77.25
508.588	99.25
508.805	112.25
509.021	94.25
509.238	100.25
509.454	90.25
509.67	103.25
509.887	104.25
510.103	129.25
510.319	227.25
510.536	822.25
510.752	2712.25
510.968	729.25
511.184	165.25
511.401	119.25
511.617	91.25
511.833	95.25
512.049	87.25
512.265	87.25
512.481	89.25
512.698	96.25
512.914	97.25
513.13	104.25
513.346	99.25
513.562	104.25
513.778	91.25
513.994	104.25
514.21	102.25
514.426	114.25
514.642	144.25
514.858	145.25
515.074	181.25
515.29	508.25
515.506	1811.25
515.721	614.25
515.937	170.25
516.153	102.25
516.369	94.25
516.585	106.25
516.801	97.25
517.016	95.25
517.232	99.25
517.448	96.25
517.664	86.25
517.879	96.25
518.095	95.25
518.311	88.25
518.527	102.25
518.742	94.25
518.958	81.25
519.173	95.25
519.389	87.25
519.605	105.25
519.82	105.25
520.036	112.25
520.251	151.25
520.467	105.25
520.682	123.25
520.898	113.25
521.113	113.25
521.329	137.25
521.544	229.25
521.76	659.25
521.975	2977.25
522.19	1751.25
522.406	356.25
522.621	157.25
522.836	103.25
523.052	101.25
523.267	104.25
523.482	86.25
523.698	109.25
523.913	123.25
524.128	105.25
524.343	95.25
524.559	100.25
524.774	85.25
524.989	98.25
525.204	107.25
525.419	113.25
525.634	98.25
525.849	88.25
526.064	77.25
526.28	84.25
526.495	90.25
526.71	98.25
526.925	85.25
527.14	82.25
527.355	82.25
527.57	103.25
527.785	90.25
527.999	106.25
528.214	87.25
528.429	97.25
528.644	105.25
528.859	96.25
529.074	105.25
529.289	122.25
529.503	199.25
529.718	103.25
529.933	106.25
530.148	91.25
530.363	94.25
530.577	85.25
530.792	72.25
531.007	96.25
531.221	99.25
531.436	103.25
531.651	98.25
531.865	94.25
532.08	88.25
532.295	105.25
532.509	90.25
532.724	73.25
532.938	99.25
533.153	102.25
533.367	85.25
533.582	79.25
533.796	91.25
534.011	81.25
534.225	92.25
534.44	88.25
534.654	93.25
534.868	95.25
535.083	78.25
535.297	88.25
535.511	105.25
535.726	99.25
535.94	104.25
536.154	99.25
536.369	100.25
536.583	99.25
536.797	101.25
537.011	82.25
537.225	89.25
537.44	75.25
537.654	91.25
537.868	87.25
538.082	81.25
538.296	89.25
538.51	90.25
538.724	90.25
538.938	100.25
539.153	107.25
539.367	115.25
539.581	105.25
539.795	82.25
540.009	86.25
540.222	90.25
540.436	87.25
540.65	93.25
540.864	104.25
541.078	96.25
541.292	84.25
541.506	95.25
541.72	95.25
541.934	83.25
542.147	80.25
542.361	79.25
542.575	89.25
542.789	93.25
543.002	93.25
543.216	115.25
543.43	106.25
543.644	88.25
543.857	90.25
544.071	97.25
544.285	90.25
544.498	95.25
544.712	108.25
544.925	102.25
545.139	112.25
545.352	83.25
545.566	80.25
545.779	94.25
545.993	94.25
546.206	97.25
546.42	90.25
546.633	74.25
546.847	92.25
547.06	82.25
547.274	94.25
547.487	97.25
547.7	89.25
547.914	73.25
548.127	81.25
548.34	100.25
548.554	95.25
548.767	98.25
548.98	107.25
549.193	95.25
549.407	80.25
549.62	87.25
549.833	92.25
550.046	89.25
550.259	95.25
550.473	98.25
550.686	102.25
550.899	98.25
551.112	91.25
551.325	89.25
551.538	86.25
551.751	96.25
551.964	88.25
552.177	82.25
552.39	98.25
552.603	91.25
552.816	87.25
553.029	79.25
553.242	102.25
553.455	112.25
553.667	107.25
553.88	104.25
554.093	70.25
554.306	87.25
554.519	95.25
554.732	95.25
554.944	78.25
555.157	101.25
555.37	89.25
555.583	95.25
555.795	94.25
556.008	88.25
556.221	85.25
556.433	89.25
556.646	93.25
556.859	96.25
557.071	104.25
557.284	88.25
557.496	86.25
557.709	94.25
557.921	92.25
558.134	94.25
558.346	88.25
558.559	85.25
558.771	89.25
558.984	94.25
559.196	87.25
559.409	94.25
559.621	77.25
559.833	95.25
560.046	92.25
560.258	90.25
560.47	81.25
560.683	95.25
560.895	101.25
561.107	96.25
561.32	70.25
561.532	94.25
561.744	90.25
561.956	88.25
562.168	80.25
562.381	88.25
562.593	90.25
562.805	89.25
563.017	88.25
563.229	90.25
563.441	92.25
563.653	95.25
563.865	90.25
564.077	96.25
564.289	94.25
564.501	96.25
564.713	98.25
564.925	97.25
565.137	101.25
565.349	96.25
565.561	95.25
565.773	90.25
565.985	104.25
566.197	86.25
566.408	88.25
566.62	91.25
566.832	91.25
567.044	97.25
567.255	98.25
567.467	88.25
567.679	84.25
567.891	87.25
568.102	97.25
568.314	75.25
568.526	81.25
568.737	82.25
568.949	85.25
569.161	93.25
569.372	90.25
569.584	90.25
569.795	86.25
570.007	138.25
570.218	233.25
570.43	148.25
570.641	94.25
570.853	103.25
571.064	79.25
571.276	92.25
571.487	86.25
571.698	87.25
571.91	83.25
572.121	97.25
572.333	81.25
572.544	82.25
572.755	78.25
572.966	89.25
573.178	73.25
573.389	97.25
573.6	87.25
573.811	92.25
574.023	94.25
574.234	87.25
574.445	78.25
574.656	93.25
574.867	93.25
575.078	74.25
575.289	74.25
575.501	73.25
575.712	87.25
575.923	69.25
576.134	86.25
576.345	89.25
576.556	98.25
576.767	103.25
576.978	99.25
577.188	92.25
577.399	101.25
577.61	73.25
577.821	109.25
578.032	116.25
578.243	298.25
578.454	855.25
578.665	226.25
578.875	85.25
579.086	91.25
579.297	93.25
579.508	85.25
579.718	103.25
579.929	93.25
580.14	95.25
580.35	87.25
580.561	78.25
580.772	80.25
580.982	97.25
581.193	93.25
581.403	88.25
581.614	96.25
581.825	88.25
582.035	83.25
582.246	93.25
582.456	82.25
582.667	89.25
582.877	85.25
583.087	80.25
583.298	77.25
583.508	85.25
583.719	91.25
583.929	95.25
584.139	96.25
584.35	89.25
584.56	95.25
584.77	93.25
584.981	80.25
585.191	95.25
585.401	96.25
585.611	93.25
585.821	85.25
586.032	94.25
586.242	84.25
586.452	79.25
586.662	79.25
586.872	77.25
587.082	94.25
587.292	78.25
587.502	85.25
587.713	93.25
587.923	84.25
588.133	93.25
588.343	83.25
588.553	90.25
588.762	102.25
588.972	102.25
589.182	87.25
589.392	89.25
589.602	89.25
589.812	86.25
590.022	81.25
590.232	77.25
590.441	90.25
590.651	86.25
590.861	77.25
591.071	77.25
591.281	107.25
591.49	90.25
591.7	91.25
591.91	91.25
592.119	72.25
592.329	90.25
592.539	87.25
592.748	93.25
592.958	89.25
593.167	79.25
593.377	101.25
593.587	95.25
593.796	80.25
594.006	77.25
594.215	90.25
594.424	89.25
594.634	83.25
594.843	81.25
595.053	84.25
595.262	88.25
595.472	87.25
595.681	75.25
595.89	86.25
596.1	68.25
596.309	77.25
596.518	87.25
596.727	95.25
596.937	101.25
597.146	98.25
597.355	85.25
597.564	79.25
597.774	93.25
597.983	77.25
598.192	79.25
598.401	78.25
598.61	71.25
598.819	80.25
599.028	73.25
599.237	83.25
599.446	86.25
599.655	85.25
599.864	93.25
600.073	100.25
600.282	91.25
600.491	98.25
600.7	85.25
600.909	100.25
601.118	92.25
601.327	85.25
601.536	96.25
601.745	91.25
601.953	78.25
602.162	88.25
602.371	83.25
602.58	90.25
602.789	81.25
602.997	91.25
603.206	89.25
603.415	100.25
603.623	95.25
603.832	79.25
604.041	84.25
604.249	78.25
604.458	79.25
604.666	70.25
604.875	91.25
605.084	80.25
605.292	96.25
605.501	95.25
605.709	80.25
605.918	87.25
606.126	86.25
606.334	93.25
606.543	83.25
606.751	83.25
606.96	85.25
607.168	84.25
607.376	87.25
607.585	105.25
607.793	79.25
608.001	84.25
608.21	79.25
608.418	71.25
608.626	92.25
608.834	93.25
609.043	83.25
609.251	90.25
609.459	96.25
609.667	84.25
609.875	86.25
610.083	79.25
610.291	81.25
610.499	87.25
610.707	88.25
610.916	95.25
611.124	81.25
611.332	90.25
611.54	94.25
611.748	94.25
611.955	92.25
612.163	83.25
612.371	96.25
612.579	76.25
612.787	91.25
612.995	92.25
613.203	86.25
613.411	103.25
613.618	80.25
613.826	95.25
614.034	82.25
614.242	81.25
614.449	93.25
614.657	81.25
614.865	87.25
615.072	92.25
615.28	91.25
615.488	80.25
615.695	99.25
615.903	95.25
616.111	97.25
616.318	101.25
616.526	104.25
616.733	104.25
616.941	85.25
617.148	88.25
617.356	103.25
617.563	79.25
617.771	103.25
617.978	74.25
618.185	90.25
618.393	89.25
618.6	65.25
618.807	90.25
619.015	81.25
619.222	97.25
619.429	87.25
619.637	96.25
619.844	81.25
620.051	88.25
620.258	96.25
620.466	95.25
620.673	83.25
620.88	89.25
621.087	83.25
621.294	81.25
621.501	82.25
621.708	91.25
621.915	80.25
622.122	82.25
622.329	78.25
622.536	95.25
622.743	83.25
622.95	89.25
623.157	89.25
623.364	85.25
623.571	79.25
623.778	91.25
623.985	80.25
624.192	85.25
624.399	92.25
624.606	84.25
624.812	83.25
625.019	77.25
625.226	84.25
625.433	85.25
625.639	88.25
625.846	90.25
626.053	78.25
626.259	73.25
626.466	93.25
626.673	79.25
626.879	88.25
627.086	97.25
627.293	92.25
627.499	96.25
627.706	83.25
627.912	90.25
628.119	84.25
628.325	98.25
628.532	68.25
628.738	87.25
628.945	78.25
629.151	91.25
629.357	90.25
629.564	89.25
629.77	66.25
629.976	84.25
630.183	74.25
630.389	78.25
630.595	87.25
630.802	86.25
631.008	92.25
631.214	80.25
631.42	81.25
631.627	86.25
631.833	91.25
632.039	82.25
632.245	91.25
632.451	77.25
632.657	83.25
632.863	87.25
633.069	68.25
633.275	78.25
633.481	88.25
633.688	82.25
633.893	87.25
634.099	94.25
634.305	81.25
634.511	80.25
634.717	75.25
634.923	77.25
635.129	90.25
635.335	81.25
635.541	83.25
635.747	82.25
635.952	94.25
636.158	83.25
636.364	85.25
636.57	104.25
636.775	88.25
636.981	100.25
637.187	84.25
637.392	82.25
637.598	94.25
637.804	88.25
638.009	83.25
638.215	88.25
638.421	88.25
638.626	82.25
638.832	87.25
639.037	79.25
639.243	93.25
639.448	84.25
639.654	87.25
639.859	88.25
640.065	79.25
640.27	83.25
640.475	81.25
640.681	86.25
640.886	72.25
641.091	89.25
641.297	85.25
641.502	82.25
641.707	68.25
641.913	89.25
642.118	80.25
642.323	85.25
642.528	104.25
642.733	83.25
642.939	68.25
643.144	95.25
643.349	88.25
643.554	92.25
643.759	90.25
643.964	101.25
644.169	89.25
644.374	93.25
644.579	89.25
644.784	86.25
644.989	85.25
645.194	77.25
645.399	83.25
645.604	86.25
645.809	77.25
646.014	82.25
646.219	94.25
646.423	81.25
646.628	86.25
646.833	96.25
647.038	81.25
647.243	96.25
647.447	87.25
647.652	78.25
647.857	90.25
648.062	78.25
648.266	87.25
648.471	83.25
648.676	73.25
648.88	86.25
649.085	93.25
649.289	95.25
649.494	107.25
649.698	147.25
649.903	102.25
650.107	79.25
650.312	90.25
650.516	83.25
650.721	89.25
650.925	80.25
651.13	85.25
651.334	82.25
651.539	91.25
651.743	82.25
651.947	80.25
652.152	96.25
652.356	94.25
652.56	76.25
652.764	74.25
652.969	86.25
653.173	74.25
653.377	82.25
653.581	99.25
653.785	90.25
653.99	83.25
654.194	88.25
654.398	90.25
654.602	88.25
654.806	83.25
655.01	109.25
655.214	110.25
655.418	92.25
655.622	101.25
655.826	85.25
656.03	85.25
656.234	91.25
656.438	82.25
656.642	102.25
656.846	96.25
657.049	95.25
657.253	71.25
657.457	75.25
657.661	90.25
657.865	87.25
658.068	77.25
658.272	83.25
658.476	87.25
658.68	77.25
658.883	70.25
659.087	73.25
659.291	83.25
659.494	91.25
659.698	74.25
659.901	74.25
660.105	74.25
660.309	81.25
660.512	79.25
660.716	74.25
660.919	74.25
661.123	87.25
661.326	78.25
661.53	82.25
661.733	80.25
661.936	73.25
662.14	90.25
662.343	89.25
662.546	86.25
662.75	71.25
662.953	93.25
663.156	77.25
663.36	76.25
663.563	76.25
663.766	72.25
663.969	78.25
664.173	81.25
664.376	88.25
664.579	83.25
664.782	75.25
664.985	88.25
665.188	77.25
665.391	90.25
665.594	81.25
665.797	66.25
666	81.25
666.203	91.25
666.406	77.25
666.609	80.25
666.812	87.25
667.015	71.25
667.218	82.25
667.421	95.25
667.624	78.25
667.827	81.25
668.03	82.25
668.232	97.25
668.435	76.25
668.638	68.25
668.841	82.25
669.043	75.25
669.246	90.25
669.449	83.25
669.651	71.25
669.854	70.25
670.057	83.25
670.259	77.25
670.462	85.25
670.665	85.25
670.867	64.25
671.07	79.25
671.272	100.25
671.475	79.25
671.677	88.25
671.88	74.25
672.082	80.25
672.284	72.25
672.487	90.25
672.689	84.25
672.892	75.25
