Data from 237_2_HRD10591_00045.txt Node
Date: Mon Jan 19 14:11:53 EST 2026
User: Yrep
Spectrometer: HR+D1059
Trigger mode: 1
Integration Time (sec): 1.000000E-1
Scans to average: 1
Electric dark correction enabled: true
Nonlinearity correction enabled: false
Boxcar width: 0
XAxis mode: Wavelengths
Number of Pixels in Spectrum: 2048
>>>>>Begin Spectral Data<<<<<
223.165	-10.25
223.4	-10.25
223.635	-10.25
223.869	-28.25
224.104	-19.25
224.338	-19.25
224.573	-6.25
224.808	-15.25
225.042	-4.25
225.277	-4.25
225.511	0.75
225.746	4.75
225.98	1.75
226.215	7.75
226.449	14.75
226.683	20.75
226.918	27.75
227.152	28.75
227.387	34.75
227.621	45.75
227.856	51.75
228.09	35.75
228.324	54.75
228.559	55.75
228.793	73.75
229.027	52.75
229.262	65.75
229.496	49.75
229.73	66.75
229.964	72.75
230.199	62.75
230.433	65.75
230.667	69.75
230.901	83.75
231.136	68.75
231.37	77.75
231.604	77.75
231.838	79.75
232.072	73.75
232.306	85.75
232.541	78.75
232.775	72.75
233.009	73.75
233.243	85.75
233.477	84.75
233.711	90.75
233.945	65.75
234.179	81.75
234.413	81.75
234.647	78.75
234.881	81.75
235.115	74.75
235.349	83.75
235.583	83.75
235.817	57.75
236.051	71.75
236.285	79.75
236.519	69.75
236.753	97.75
236.987	81.75
237.221	94.75
237.455	75.75
237.689	88.75
237.922	83.75
238.156	74.75
238.39	79.75
238.624	69.75
238.858	69.75
239.091	64.75
239.325	66.75
239.559	75.75
239.793	76.75
240.027	77.75
240.26	70.75
240.494	85.75
240.728	64.75
240.961	68.75
241.195	59.75
241.429	65.75
241.662	79.75
241.896	68.75
242.13	66.75
242.363	55.75
242.597	73.75
242.83	60.75
243.064	78.75
243.298	80.75
243.531	82.75
243.765	69.75
243.998	89.75
244.232	65.75
244.465	82.75
244.699	67.75
244.932	71.75
245.166	88.75
245.399	77.75
245.633	64.75
245.866	81.75
246.099	81.75
246.333	74.75
246.566	75.75
246.8	66.75
247.033	59.75
247.266	69.75
247.5	79.75
247.733	68.75
247.966	73.75
248.2	87.75
248.433	72.75
248.666	79.75
248.899	89.75
249.133	86.75
249.366	95.75
249.599	86.75
249.832	79.75
250.066	68.75
250.299	79.75
250.532	95.75
250.765	82.75
250.998	77.75
251.231	75.75
251.465	73.75
251.698	75.75
251.931	65.75
252.164	81.75
252.397	75.75
252.63	65.75
252.863	67.75
253.096	78.75
253.329	81.75
253.562	62.75
253.795	89.75
254.028	76.75
254.261	86.75
254.494	75.75
254.727	77.75
254.96	74.75
255.193	84.75
255.426	65.75
255.659	68.75
255.892	88.75
256.124	70.75
256.357	72.75
256.59	87.75
256.823	66.75
257.056	73.75
257.289	69.75
257.521	85.75
257.754	85.75
257.987	80.75
258.22	62.75
258.452	63.75
258.685	73.75
258.918	66.75
259.151	75.75
259.383	81.75
259.616	71.75
259.849	80.75
260.081	93.75
260.314	84.75
260.547	65.75
260.779	71.75
261.012	75.75
261.244	80.75
261.477	75.75
261.71	59.75
261.942	63.75
262.175	79.75
262.407	80.75
262.64	74.75
262.872	81.75
263.105	73.75
263.337	84.75
263.57	69.75
263.802	70.75
264.035	80.75
264.267	76.75
264.499	76.75
264.732	88.75
264.964	71.75
265.197	69.75
265.429	73.75
265.661	65.75
265.894	95.75
266.126	87.75
266.358	78.75
266.591	85.75
266.823	79.75
267.055	72.75
267.287	86.75
267.52	72.75
267.752	57.75
267.984	74.75
268.216	84.75
268.448	79.75
268.681	73.75
268.913	73.75
269.145	72.75
269.377	87.75
269.609	76.75
269.841	81.75
270.073	86.75
270.306	71.75
270.538	73.75
270.77	76.75
271.002	73.75
271.234	75.75
271.466	79.75
271.698	81.75
271.93	83.75
272.162	80.75
272.394	89.75
272.626	87.75
272.858	76.75
273.09	87.75
273.322	70.75
273.553	71.75
273.785	76.75
274.017	93.75
274.249	78.75
274.481	85.75
274.713	82.75
274.945	82.75
275.176	74.75
275.408	63.75
275.64	81.75
275.872	76.75
276.104	75.75
276.335	51.75
276.567	71.75
276.799	84.75
277.031	77.75
277.262	91.75
277.494	87.75
277.726	85.75
277.957	83.75
278.189	75.75
278.421	78.75
278.652	78.75
278.884	85.75
279.115	79.75
279.347	76.75
279.579	90.75
279.81	87.75
280.042	79.75
280.273	71.75
280.505	73.75
280.736	79.75
280.968	83.75
281.199	77.75
281.431	74.75
281.662	77.75
281.894	78.75
282.125	81.75
282.356	90.75
282.588	77.75
282.819	70.75
283.051	76.75
283.282	77.75
283.513	91.75
283.745	89.75
283.976	74.75
284.207	77.75
284.439	75.75
284.67	82.75
284.901	71.75
285.132	82.75
285.364	87.75
285.595	75.75
285.826	70.75
286.057	82.75
286.288	90.75
286.52	84.75
286.751	91.75
286.982	81.75
287.213	75.75
287.444	78.75
287.675	82.75
287.906	95.75
288.138	81.75
288.369	68.75
288.6	68.75
288.831	79.75
289.062	77.75
289.293	75.75
289.524	85.75
289.755	81.75
289.986	74.75
290.217	85.75
290.448	73.75
290.679	73.75
290.91	80.75
291.141	81.75
291.371	95.75
291.602	86.75
291.833	86.75
292.064	68.75
292.295	82.75
292.526	95.75
292.757	91.75
292.987	89.75
293.218	87.75
293.449	82.75
293.68	90.75
293.91	73.75
294.141	74.75
294.372	92.75
294.603	77.75
294.833	85.75
295.064	99.75
295.295	87.75
295.525	69.75
295.756	90.75
295.987	73.75
296.217	77.75
296.448	85.75
296.679	81.75
296.909	74.75
297.14	94.75
297.37	102.75
297.601	86.75
297.831	76.75
298.062	78.75
298.292	79.75
298.523	85.75
298.753	90.75
298.984	95.75
299.214	101.75
299.445	80.75
299.675	83.75
299.905	86.75
300.136	73.75
300.366	90.75
300.597	72.75
300.827	80.75
301.057	88.75
301.288	78.75
301.518	80.75
301.748	82.75
301.979	90.75
302.209	76.75
302.439	73.75
302.669	100.75
302.9	82.75
303.13	81.75
303.36	92.75
303.59	93.75
303.82	97.75
304.051	65.75
304.281	76.75
304.511	81.75
304.741	87.75
304.971	75.75
305.201	79.75
305.431	83.75
305.661	85.75
305.891	85.75
306.121	77.75
306.352	87.75
306.582	81.75
306.812	79.75
307.042	82.75
307.272	83.75
307.502	97.75
307.731	83.75
307.961	96.75
308.191	98.75
308.421	80.75
308.651	86.75
308.881	93.75
309.111	71.75
309.341	101.75
309.571	89.75
309.8	89.75
310.03	82.75
310.26	86.75
310.49	83.75
310.72	89.75
310.949	77.75
311.179	98.75
311.409	90.75
311.639	93.75
311.868	80.75
312.098	77.75
312.328	73.75
312.557	69.75
312.787	73.75
313.017	82.75
313.246	84.75
313.476	87.75
313.706	79.75
313.935	93.75
314.165	85.75
314.394	86.75
314.624	73.75
314.853	78.75
315.083	64.75
315.312	74.75
315.542	83.75
315.771	83.75
316.001	81.75
316.23	80.75
316.46	82.75
316.689	76.75
316.919	76.75
317.148	82.75
317.377	69.75
317.607	81.75
317.836	97.75
318.065	101.75
318.295	83.75
318.524	83.75
318.753	79.75
318.983	85.75
319.212	74.75
319.441	90.75
319.67	100.75
319.9	76.75
320.129	72.75
320.358	76.75
320.587	88.75
320.816	97.75
321.046	81.75
321.275	82.75
321.504	91.75
321.733	85.75
321.962	89.75
322.191	89.75
322.42	83.75
322.649	101.75
322.878	92.75
323.108	85.75
323.337	86.75
323.566	73.75
323.795	80.75
324.024	101.75
324.253	85.75
324.482	76.75
324.71	89.75
324.939	79.75
325.168	73.75
325.397	86.75
325.626	83.75
325.855	76.75
326.084	80.75
326.313	86.75
326.542	80.75
326.77	80.75
326.999	73.75
327.228	83.75
327.457	82.75
327.686	84.75
327.914	88.75
328.143	81.75
328.372	69.75
328.6	82.75
328.829	61.75
329.058	70.75
329.287	85.75
329.515	83.75
329.744	83.75
329.972	73.75
330.201	93.75
330.43	85.75
330.658	91.75
330.887	83.75
331.115	90.75
331.344	84.75
331.572	89.75
331.801	95.75
332.03	91.75
332.258	94.75
332.486	79.75
332.715	83.75
332.943	87.75
333.172	83.75
333.4	79.75
333.629	85.75
333.857	80.75
334.085	94.75
334.314	88.75
334.542	75.75
334.771	80.75
334.999	100.75
335.227	104.75
335.455	79.75
335.684	95.75
335.912	80.75
336.14	74.75
336.369	82.75
336.597	87.75
336.825	100.75
337.053	74.75
337.281	90.75
337.51	78.75
337.738	87.75
337.966	72.75
338.194	94.75
338.422	92.75
338.65	104.75
338.878	84.75
339.106	80.75
339.334	89.75
339.562	85.75
339.79	76.75
340.018	72.75
340.246	77.75
340.474	79.75
340.702	89.75
340.93	90.75
341.158	83.75
341.386	81.75
341.614	74.75
341.842	77.75
342.07	86.75
342.298	78.75
342.526	82.75
342.754	81.75
342.981	86.75
343.209	88.75
343.437	86.75
343.665	92.75
343.893	73.75
344.12	81.75
344.348	92.75
344.576	91.75
344.804	82.75
345.031	76.75
345.259	74.75
345.487	72.75
345.714	82.75
345.942	76.75
346.17	74.75
346.397	73.75
346.625	97.75
346.853	91.75
347.08	75.75
347.308	69.75
347.535	89.75
347.763	92.75
347.99	81.75
348.218	84.75
348.445	80.75
348.673	89.75
348.9	80.75
349.128	81.75
349.355	85.75
349.583	75.75
349.81	80.75
350.037	79.75
350.265	77.75
350.492	86.75
350.72	84.75
350.947	81.75
351.174	90.75
351.402	88.75
351.629	85.75
351.856	81.75
352.083	82.75
352.311	88.75
352.538	82.75
352.765	91.75
352.992	102.75
353.22	87.75
353.447	88.75
353.674	79.75
353.901	81.75
354.128	78.75
354.355	90.75
354.583	71.75
354.81	97.75
355.037	93.75
355.264	85.75
355.491	83.75
355.718	75.75
355.945	79.75
356.172	75.75
356.399	93.75
356.626	81.75
356.853	95.75
357.08	89.75
357.307	70.75
357.534	84.75
357.761	72.75
357.988	86.75
358.215	91.75
358.441	80.75
358.668	76.75
358.895	86.75
359.122	87.75
359.349	83.75
359.576	80.75
359.802	74.75
360.029	81.75
360.256	74.75
360.483	76.75
360.709	76.75
360.936	76.75
361.163	78.75
361.39	90.75
361.616	72.75
361.843	83.75
362.07	76.75
362.296	83.75
362.523	73.75
362.749	84.75
362.976	73.75
363.203	103.75
363.429	90.75
363.656	82.75
363.882	74.75
364.109	72.75
364.335	98.75
364.562	84.75
364.788	89.75
365.015	90.75
365.241	99.75
365.468	84.75
365.694	93.75
365.92	79.75
366.147	66.75
366.373	78.75
366.599	70.75
366.826	73.75
367.052	79.75
367.278	89.75
367.505	89.75
367.731	83.75
367.957	80.75
368.184	71.75
368.41	77.75
368.636	89.75
368.862	89.75
369.089	87.75
369.315	76.75
369.541	88.75
369.767	79.75
369.993	82.75
370.219	95.75
370.445	93.75
370.672	74.75
370.898	74.75
371.124	84.75
371.35	66.75
371.576	75.75
371.802	72.75
372.028	84.75
372.254	79.75
372.48	74.75
372.706	77.75
372.932	93.75
373.158	94.75
373.384	88.75
373.61	82.75
373.835	97.75
374.061	91.75
374.287	84.75
374.513	92.75
374.739	80.75
374.965	75.75
375.191	85.75
375.416	88.75
375.642	80.75
375.868	95.75
376.094	82.75
376.319	68.75
376.545	86.75
376.771	89.75
376.997	62.75
377.222	75.75
377.448	82.75
377.674	93.75
377.899	79.75
378.125	90.75
378.35	81.75
378.576	77.75
378.802	81.75
379.027	84.75
379.253	91.75
379.478	97.75
379.704	80.75
379.929	82.75
380.155	72.75
380.38	86.75
380.606	95.75
380.831	82.75
381.057	85.75
381.282	69.75
381.507	80.75
381.733	87.75
381.958	87.75
382.184	89.75
382.409	77.75
382.634	93.75
382.86	92.75
383.085	83.75
383.31	77.75
383.535	86.75
383.761	75.75
383.986	79.75
384.211	89.75
384.436	78.75
384.662	81.75
384.887	95.75
385.112	70.75
385.337	73.75
385.562	79.75
385.787	101.75
386.013	93.75
386.238	91.75
386.463	73.75
386.688	92.75
386.913	82.75
387.138	82.75
387.363	73.75
387.588	102.75
387.813	89.75
388.038	93.75
388.263	79.75
388.488	80.75
388.713	87.75
388.938	87.75
389.163	70.75
389.387	79.75
389.612	83.75
389.837	93.75
390.062	70.75
390.287	79.75
390.512	88.75
390.736	81.75
390.961	88.75
391.186	85.75
391.411	86.75
391.636	77.75
391.86	87.75
392.085	86.75
392.31	75.75
392.534	77.75
392.759	99.75
392.984	103.75
393.208	144.75
393.433	185.75
393.658	157.75
393.882	98.75
394.107	91.75
394.331	98.75
394.556	103.75
394.78	86.75
395.005	75.75
395.229	75.75
395.454	79.75
395.678	94.75
395.903	89.75
396.127	95.75
396.352	102.75
396.576	109.75
396.801	150.75
397.025	173.75
397.249	111.75
397.474	95.75
397.698	72.75
397.922	83.75
398.147	92.75
398.371	87.75
398.595	77.75
398.82	94.75
399.044	90.75
399.268	85.75
399.492	85.75
399.717	81.75
399.941	72.75
400.165	88.75
400.389	82.75
400.613	77.75
400.837	86.75
401.062	85.75
401.286	75.75
401.51	81.75
401.734	83.75
401.958	84.75
402.182	84.75
402.406	75.75
402.63	71.75
402.854	63.75
403.078	84.75
403.302	75.75
403.526	99.75
403.75	73.75
403.974	74.75
404.198	69.75
404.422	89.75
404.645	62.75
404.869	77.75
405.093	86.75
405.317	79.75
405.541	86.75
405.765	100.75
405.988	82.75
406.212	85.75
406.436	66.75
406.66	72.75
406.883	91.75
407.107	94.75
407.331	92.75
407.555	74.75
407.778	77.75
408.002	79.75
408.226	80.75
408.449	82.75
408.673	80.75
408.896	86.75
409.12	71.75
409.344	81.75
409.567	87.75
409.791	81.75
410.014	79.75
410.238	86.75
410.461	62.75
410.685	87.75
410.908	78.75
411.132	78.75
411.355	83.75
411.578	97.75
411.802	74.75
412.025	74.75
412.249	72.75
412.472	81.75
412.695	73.75
412.919	78.75
413.142	81.75
413.365	83.75
413.589	75.75
413.812	75.75
414.035	74.75
414.258	76.75
414.482	94.75
414.705	81.75
414.928	87.75
415.151	79.75
415.374	89.75
415.597	82.75
415.821	65.75
416.044	85.75
416.267	86.75
416.49	83.75
416.713	89.75
416.936	73.75
417.159	86.75
417.382	95.75
417.605	78.75
417.828	96.75
418.051	71.75
418.274	83.75
418.497	71.75
418.72	81.75
418.943	83.75
419.166	80.75
419.389	81.75
419.611	83.75
419.834	74.75
420.057	83.75
420.28	75.75
420.503	83.75
420.726	80.75
420.948	82.75
421.171	81.75
421.394	54.75
421.617	85.75
421.839	78.75
422.062	86.75
422.285	101.75
422.507	142.75
422.73	219.75
422.953	185.75
423.175	95.75
423.398	84.75
423.621	86.75
423.843	74.75
424.066	90.75
424.288	89.75
424.511	87.75
424.733	85.75
424.956	81.75
425.178	71.75
425.401	80.75
425.623	69.75
425.846	82.75
426.068	75.75
426.291	86.75
426.513	73.75
426.735	86.75
426.958	83.75
427.18	80.75
427.402	79.75
427.625	68.75
427.847	90.75
428.069	91.75
428.292	94.75
428.514	100.75
428.736	91.75
428.958	91.75
429.181	83.75
429.403	100.75
429.625	95.75
429.847	96.75
430.069	107.75
430.292	111.75
430.514	99.75
430.736	106.75
430.958	111.75
431.18	86.75
431.402	78.75
431.624	71.75
431.846	82.75
432.068	92.75
432.29	92.75
432.512	84.75
432.734	71.75
432.956	81.75
433.178	90.75
433.4	79.75
433.622	83.75
433.844	90.75
434.066	85.75
434.287	82.75
434.509	83.75
434.731	91.75
434.953	91.75
435.175	91.75
435.397	85.75
435.618	82.75
435.84	81.75
436.062	87.75
436.284	100.75
436.505	88.75
436.727	71.75
436.949	89.75
437.17	79.75
437.392	90.75
437.614	81.75
437.835	73.75
438.057	75.75
438.278	81.75
438.5	91.75
438.721	75.75
438.943	84.75
439.165	69.75
439.386	76.75
439.608	88.75
439.829	78.75
440.05	73.75
440.272	87.75
440.493	75.75
440.715	74.75
440.936	82.75
441.158	81.75
441.379	79.75
441.6	72.75
441.822	78.75
442.043	83.75
442.264	64.75
442.486	87.75
442.707	101.75
442.928	87.75
443.149	83.75
443.371	92.75
443.592	99.75
443.813	113.75
444.034	79.75
444.255	83.75
444.476	75.75
444.698	70.75
444.919	90.75
445.14	177.75
445.361	139.75
445.582	124.75
445.803	115.75
446.024	95.75
446.245	79.75
446.466	83.75
446.687	78.75
446.908	89.75
447.129	79.75
447.35	78.75
447.571	77.75
447.792	88.75
448.013	69.75
448.234	74.75
448.455	82.75
448.675	77.75
448.896	82.75
449.117	73.75
449.338	85.75
449.559	83.75
449.779	86.75
450	75.75
450.221	65.75
450.442	79.75
450.662	71.75
450.883	70.75
451.104	76.75
451.324	87.75
451.545	78.75
451.766	76.75
451.986	65.75
452.207	72.75
452.428	79.75
452.648	83.75
452.869	79.75
453.089	81.75
453.31	82.75
453.53	71.75
453.751	79.75
453.971	78.75
454.192	82.75
454.412	92.75
454.633	86.75
454.853	74.75
455.073	72.75
455.294	75.75
455.514	86.75
455.734	88.75
455.955	82.75
456.175	80.75
456.395	89.75
456.616	78.75
456.836	93.75
457.056	85.75
457.276	82.75
457.497	77.75
457.717	89.75
457.937	79.75
458.157	82.75
458.377	81.75
458.598	95.75
458.818	81.75
459.038	89.75
459.258	92.75
459.478	72.75
459.698	75.75
459.918	77.75
460.138	79.75
460.358	95.75
460.578	94.75
460.798	83.75
461.018	102.75
461.238	79.75
461.458	75.75
461.678	88.75
461.898	83.75
462.118	82.75
462.338	87.75
462.558	85.75
462.777	83.75
462.997	82.75
463.217	94.75
463.437	97.75
463.657	87.75
463.876	77.75
464.096	71.75
464.316	73.75
464.536	86.75
464.755	99.75
464.975	81.75
465.195	74.75
465.414	106.75
465.634	72.75
465.854	81.75
466.073	61.75
466.293	74.75
466.512	74.75
466.732	83.75
466.951	71.75
467.171	78.75
467.391	72.75
467.61	80.75
467.829	83.75
468.049	79.75
468.268	72.75
468.488	77.75
468.707	63.75
468.927	74.75
469.146	90.75
469.365	93.75
469.585	83.75
469.804	76.75
470.023	69.75
470.243	70.75
470.462	68.75
470.681	65.75
470.901	84.75
471.12	82.75
471.339	98.75
471.558	84.75
471.777	88.75
471.997	79.75
472.216	89.75
472.435	83.75
472.654	83.75
472.873	86.75
473.092	77.75
473.311	67.75
473.53	91.75
473.749	78.75
473.968	90.75
474.187	80.75
474.406	74.75
474.625	90.75
474.844	71.75
475.063	78.75
475.282	84.75
475.501	80.75
475.72	68.75
475.939	63.75
476.158	87.75
476.377	75.75
476.596	68.75
476.814	85.75
477.033	74.75
477.252	88.75
477.471	88.75
477.69	78.75
477.908	71.75
478.127	79.75
478.346	70.75
478.564	91.75
478.783	83.75
479.002	90.75
479.22	74.75
479.439	78.75
479.658	85.75
479.876	73.75
480.095	80.75
480.313	82.75
480.532	80.75
480.751	76.75
480.969	72.75
481.188	87.75
481.406	91.75
481.624	73.75
481.843	83.75
482.061	85.75
482.28	70.75
482.498	82.75
482.717	85.75
482.935	84.75
483.153	81.75
483.372	77.75
483.59	86.75
483.808	73.75
484.027	73.75
484.245	84.75
484.463	90.75
484.681	78.75
484.9	95.75
485.118	86.75
485.336	82.75
485.554	83.75
485.772	87.75
485.99	76.75
486.209	79.75
486.427	80.75
486.645	79.75
486.863	79.75
487.081	82.75
487.299	74.75
487.517	75.75
487.735	103.75
487.953	86.75
488.171	92.75
488.389	81.75
488.607	69.75
488.825	79.75
489.043	85.75
489.261	80.75
489.479	65.75
489.696	85.75
489.914	92.75
490.132	83.75
490.35	81.75
490.568	89.75
490.786	83.75
491.003	96.75
491.221	82.75
491.439	93.75
491.657	96.75
491.874	89.75
492.092	81.75
492.31	97.75
492.527	71.75
492.745	72.75
492.963	91.75
493.18	98.75
493.398	84.75
493.615	75.75
493.833	96.75
494.05	80.75
494.268	79.75
494.485	80.75
494.703	88.75
494.92	73.75
495.138	99.75
495.355	93.75
495.573	81.75
495.79	77.75
496.008	92.75
496.225	74.75
496.442	74.75
496.66	79.75
496.877	88.75
497.094	94.75
497.312	80.75
497.529	74.75
497.746	88.75
497.963	85.75
498.181	80.75
498.398	85.75
498.615	87.75
498.832	79.75
499.049	90.75
499.267	79.75
499.484	78.75
499.701	86.75
499.918	86.75
500.135	90.75
500.352	76.75
500.569	70.75
500.786	70.75
501.003	85.75
501.22	77.75
501.437	76.75
501.654	77.75
501.871	75.75
502.088	76.75
502.305	85.75
502.522	85.75
502.739	81.75
502.956	89.75
503.172	78.75
503.389	81.75
503.606	87.75
503.823	83.75
504.04	79.75
504.256	90.75
504.473	76.75
504.69	94.75
504.907	97.75
505.123	85.75
505.34	91.75
505.557	93.75
505.773	73.75
505.99	79.75
506.207	76.75
506.423	76.75
506.64	80.75
506.856	75.75
507.073	102.75
507.289	67.75
507.506	80.75
507.722	83.75
507.939	61.75
508.155	71.75
508.372	76.75
508.588	83.75
508.805	75.75
509.021	76.75
509.238	69.75
509.454	86.75
509.67	78.75
509.887	79.75
510.103	90.75
510.319	82.75
510.536	77.75
510.752	86.75
510.968	85.75
511.184	93.75
511.401	80.75
511.617	93.75
511.833	87.75
512.049	80.75
512.265	87.75
512.481	69.75
512.698	86.75
512.914	79.75
513.13	83.75
513.346	87.75
513.562	89.75
513.778	89.75
513.994	78.75
514.21	66.75
514.426	86.75
514.642	85.75
514.858	97.75
515.074	83.75
515.29	79.75
515.506	84.75
515.721	103.75
515.937	85.75
516.153	75.75
516.369	81.75
516.585	83.75
516.801	86.75
517.016	72.75
517.232	95.75
517.448	99.75
517.664	92.75
517.879	78.75
518.095	83.75
518.311	75.75
518.527	70.75
518.742	78.75
518.958	82.75
519.173	94.75
519.389	81.75
519.605	85.75
519.82	83.75
520.036	78.75
520.251	73.75
520.467	90.75
520.682	98.75
520.898	77.75
521.113	83.75
521.329	75.75
521.544	74.75
521.76	78.75
521.975	97.75
522.19	88.75
522.406	74.75
522.621	85.75
522.836	92.75
523.052	78.75
523.267	94.75
523.482	91.75
523.698	91.75
523.913	84.75
524.128	69.75
524.343	77.75
524.559	90.75
524.774	96.75
524.989	71.75
525.204	82.75
525.419	81.75
525.634	78.75
525.849	83.75
526.064	87.75
526.28	90.75
526.495	112.75
526.71	113.75
526.925	85.75
527.14	106.75
527.355	102.75
527.57	79.75
527.785	87.75
527.999	89.75
528.214	73.75
528.429	90.75
528.644	81.75
528.859	83.75
529.074	79.75
529.289	69.75
529.503	69.75
529.718	75.75
529.933	83.75
530.148	87.75
530.363	77.75
530.577	78.75
530.792	80.75
531.007	76.75
531.221	97.75
531.436	83.75
531.651	99.75
531.865	90.75
532.08	90.75
532.295	96.75
532.509	83.75
532.724	90.75
532.938	93.75
533.153	77.75
533.367	82.75
533.582	85.75
533.796	86.75
534.011	82.75
534.225	81.75
534.44	77.75
534.654	86.75
534.868	93.75
535.083	89.75
535.297	98.75
535.511	99.75
535.726	79.75
535.94	80.75
536.154	88.75
536.369	87.75
536.583	96.75
536.797	90.75
537.011	90.75
537.225	76.75
537.44	73.75
537.654	74.75
537.868	89.75
538.082	81.75
538.296	77.75
538.51	82.75
538.724	74.75
538.938	96.75
539.153	85.75
539.367	84.75
539.581	86.75
539.795	88.75
540.009	92.75
540.222	97.75
540.436	83.75
540.65	90.75
540.864	89.75
541.078	70.75
541.292	89.75
541.506	89.75
541.72	89.75
541.934	86.75
542.147	89.75
542.361	92.75
542.575	85.75
542.789	98.75
543.002	97.75
543.216	95.75
543.43	75.75
543.644	102.75
543.857	71.75
544.071	86.75
544.285	93.75
544.498	89.75
544.712	89.75
544.925	75.75
545.139	97.75
545.352	84.75
545.566	95.75
545.779	82.75
545.993	71.75
546.206	88.75
546.42	95.75
546.633	91.75
546.847	107.75
547.06	96.75
547.274	82.75
547.487	116.75
547.7	104.75
547.914	99.75
548.127	105.75
548.34	113.75
548.554	112.75
548.767	124.75
548.98	106.75
549.193	111.75
549.407	102.75
549.62	95.75
549.833	102.75
550.046	111.75
550.259	145.75
550.473	118.75
550.686	121.75
550.899	125.75
551.112	120.75
551.325	134.75
551.538	146.75
551.751	143.75
551.964	124.75
552.177	125.75
552.39	122.75
552.603	139.75
552.816	125.75
553.029	121.75
553.242	122.75
553.455	112.75
553.667	135.75
553.88	129.75
554.093	149.75
554.306	120.75
554.519	132.75
554.732	133.75
554.944	129.75
555.157	126.75
555.37	113.75
555.583	117.75
555.795	128.75
556.008	114.75
556.221	101.75
556.433	109.75
556.646	106.75
556.859	113.75
557.071	121.75
557.284	103.75
557.496	102.75
557.709	97.75
557.921	115.75
558.134	112.75
558.346	104.75
558.559	107.75
558.771	87.75
558.984	129.75
559.196	137.75
559.409	113.75
559.621	130.75
559.833	95.75
560.046	127.75
560.258	98.75
560.47	113.75
560.683	86.75
560.895	79.75
561.107	101.75
561.32	83.75
561.532	86.75
561.744	96.75
561.956	85.75
562.168	90.75
562.381	96.75
562.593	84.75
562.805	90.75
563.017	88.75
563.229	85.75
563.441	75.75
563.653	72.75
563.865	88.75
564.077	90.75
564.289	89.75
564.501	94.75
564.713	81.75
564.925	82.75
565.137	81.75
565.349	80.75
565.561	94.75
565.773	95.75
565.985	76.75
566.197	76.75
566.408	89.75
566.62	82.75
566.832	86.75
567.044	89.75
567.255	85.75
567.467	105.75
567.679	79.75
567.891	81.75
568.102	79.75
568.314	74.75
568.526	93.75
568.737	87.75
568.949	73.75
569.161	75.75
569.372	94.75
569.584	85.75
569.795	87.75
570.007	98.75
570.218	81.75
570.43	83.75
570.641	65.75
570.853	88.75
571.064	85.75
571.276	83.75
571.487	94.75
571.698	94.75
571.91	84.75
572.121	91.75
572.333	97.75
572.544	83.75
572.755	87.75
572.966	78.75
573.178	88.75
573.389	95.75
573.6	82.75
573.811	87.75
574.023	79.75
574.234	88.75
574.445	81.75
574.656	87.75
574.867	90.75
575.078	86.75
575.289	84.75
575.501	78.75
575.712	90.75
575.923	79.75
576.134	84.75
576.345	74.75
576.556	84.75
576.767	85.75
576.978	79.75
577.188	88.75
577.399	86.75
577.61	74.75
577.821	93.75
578.032	82.75
578.243	76.75
578.454	79.75
578.665	71.75
578.875	84.75
579.086	65.75
579.297	76.75
579.508	84.75
579.718	81.75
579.929	84.75
580.14	65.75
580.35	81.75
580.561	77.75
580.772	84.75
580.982	84.75
581.193	97.75
581.403	87.75
581.614	85.75
581.825	87.75
582.035	81.75
582.246	85.75
582.456	87.75
582.667	88.75
582.877	83.75
583.087	73.75
583.298	87.75
583.508	95.75
583.719	65.75
583.929	74.75
584.139	86.75
584.35	85.75
584.56	87.75
584.77	88.75
584.981	84.75
585.191	89.75
585.401	75.75
585.611	80.75
585.821	91.75
586.032	100.75
586.242	95.75
586.452	93.75
586.662	95.75
586.872	88.75
587.082	100.75
587.292	89.75
587.502	95.75
587.713	99.75
587.923	77.75
588.133	88.75
588.343	83.75
588.553	93.75
588.762	101.75
588.972	153.75
589.182	341.75
589.392	217.75
589.602	161.75
589.812	286.75
590.022	159.75
590.232	88.75
590.441	93.75
590.651	87.75
590.861	87.75
591.071	92.75
591.281	99.75
591.49	89.75
591.7	82.75
591.91	86.75
592.119	89.75
592.329	84.75
592.539	84.75
592.748	89.75
592.958	89.75
593.167	87.75
593.377	81.75
593.587	95.75
593.796	101.75
594.006	82.75
594.215	85.75
594.424	97.75
594.634	104.75
594.843	103.75
595.053	101.75
595.262	92.75
595.472	96.75
595.681	94.75
595.89	114.75
596.1	89.75
596.309	115.75
596.518	98.75
596.727	103.75
596.937	108.75
597.146	97.75
597.355	121.75
597.564	91.75
597.774	116.75
597.983	101.75
598.192	93.75
598.401	110.75
598.61	93.75
598.819	111.75
599.028	117.75
599.237	119.75
599.446	106.75
599.655	112.75
599.864	101.75
600.073	92.75
600.282	93.75
600.491	111.75
600.7	101.75
600.909	103.75
601.118	113.75
601.327	109.75
601.536	99.75
601.745	93.75
601.953	104.75
602.162	113.75
602.371	97.75
602.58	109.75
602.789	106.75
602.997	121.75
603.206	108.75
603.415	105.75
603.623	93.75
603.832	101.75
604.041	98.75
604.249	120.75
604.458	113.75
604.666	112.75
604.875	102.75
605.084	105.75
605.292	116.75
605.501	118.75
605.709	114.75
605.918	127.75
606.126	116.75
606.334	117.75
606.543	119.75
606.751	133.75
606.96	112.75
607.168	122.75
607.376	122.75
607.585	125.75
607.793	111.75
608.001	110.75
608.21	106.75
608.418	102.75
608.626	107.75
608.834	113.75
609.043	115.75
609.251	115.75
609.459	126.75
609.667	112.75
609.875	115.75
610.083	126.75
610.291	118.75
610.499	133.75
610.707	126.75
610.916	102.75
611.124	114.75
611.332	119.75
611.54	127.75
611.748	130.75
611.955	148.75
612.163	125.75
612.371	169.75
612.579	134.75
612.787	142.75
612.995	125.75
613.203	116.75
613.411	118.75
613.618	116.75
613.826	131.75
614.034	129.75
614.242	119.75
614.449	107.75
614.657	130.75
614.865	120.75
615.072	117.75
615.28	137.75
615.488	119.75
615.695	135.75
615.903	125.75
616.111	121.75
616.318	170.75
616.526	181.75
616.733	121.75
616.941	130.75
617.148	138.75
617.356	117.75
617.563	121.75
617.771	120.75
617.978	103.75
618.185	123.75
618.393	107.75
618.6	99.75
618.807	123.75
619.015	121.75
619.222	115.75
619.429	131.75
619.637	120.75
619.844	116.75
620.051	98.75
620.258	103.75
620.466	107.75
620.673	110.75
620.88	120.75
621.087	105.75
621.294	124.75
621.501	109.75
621.708	111.75
621.915	127.75
622.122	103.75
622.329	106.75
622.536	113.75
622.743	101.75
622.95	112.75
623.157	125.75
623.364	114.75
623.571	110.75
623.778	111.75
623.985	104.75
624.192	110.75
624.399	104.75
624.606	109.75
624.812	118.75
625.019	121.75
625.226	107.75
625.433	120.75
625.639	97.75
625.846	101.75
626.053	91.75
626.259	103.75
626.466	96.75
626.673	109.75
626.879	112.75
627.086	90.75
627.293	91.75
627.499	91.75
627.706	101.75
627.912	88.75
628.119	90.75
628.325	86.75
628.532	95.75
628.738	78.75
628.945	96.75
629.151	81.75
629.357	72.75
629.564	86.75
629.77	73.75
629.976	85.75
630.183	87.75
630.389	67.75
630.595	77.75
630.802	86.75
631.008	94.75
631.214	84.75
631.42	90.75
631.627	85.75
631.833	93.75
632.039	81.75
632.245	87.75
632.451	80.75
632.657	71.75
632.863	87.75
633.069	82.75
633.275	85.75
633.481	86.75
633.688	86.75
633.893	93.75
634.099	86.75
634.305	82.75
634.511	86.75
634.717	83.75
634.923	82.75
635.129	99.75
635.335	89.75
635.541	90.75
635.747	87.75
635.952	91.75
636.158	74.75
636.364	73.75
636.57	93.75
636.775	89.75
636.981	97.75
637.187	79.75
637.392	83.75
637.598	94.75
637.804	90.75
638.009	87.75
638.215	85.75
638.421	81.75
638.626	66.75
638.832	79.75
639.037	91.75
639.243	86.75
639.448	91.75
639.654	82.75
639.859	93.75
640.065	87.75
640.27	79.75
640.475	78.75
640.681	78.75
640.886	71.75
641.091	81.75
641.297	89.75
641.502	72.75
641.707	89.75
641.913	87.75
642.118	91.75
642.323	90.75
642.528	87.75
642.733	72.75
642.939	73.75
643.144	94.75
643.349	82.75
643.554	94.75
643.759	83.75
643.964	91.75
644.169	115.75
644.374	92.75
644.579	83.75
644.784	88.75
644.989	85.75
645.194	87.75
645.399	96.75
645.604	89.75
645.809	73.75
646.014	78.75
646.219	93.75
646.423	109.75
646.628	83.75
646.833	74.75
647.038	87.75
647.243	88.75
647.447	75.75
647.652	75.75
647.857	80.75
648.062	88.75
648.266	73.75
648.471	83.75
648.676	97.75
648.88	87.75
649.085	83.75
649.289	94.75
649.494	73.75
649.698	79.75
649.903	101.75
650.107	72.75
650.312	86.75
650.516	79.75
650.721	73.75
650.925	78.75
651.13	91.75
651.334	90.75
651.539	84.75
651.743	69.75
651.947	67.75
652.152	82.75
652.356	85.75
652.56	79.75
652.764	69.75
652.969	73.75
653.173	85.75
653.377	88.75
653.581	65.75
653.785	75.75
653.99	70.75
654.194	72.75
654.398	75.75
654.602	81.75
654.806	77.75
655.01	96.75
655.214	81.75
655.418	89.75
655.622	93.75
655.826	79.75
656.03	68.75
656.234	83.75
656.438	80.75
656.642	81.75
656.846	89.75
657.049	79.75
657.253	96.75
657.457	76.75
657.661	81.75
657.865	84.75
658.068	73.75
658.272	83.75
658.476	82.75
658.68	97.75
658.883	86.75
659.087	71.75
659.291	81.75
659.494	68.75
659.698	71.75
659.901	83.75
660.105	74.75
660.309	83.75
660.512	78.75
660.716	88.75
660.919	78.75
661.123	78.75
661.326	78.75
661.53	85.75
661.733	72.75
661.936	77.75
662.14	71.75
662.343	75.75
662.546	98.75
662.75	102.75
662.953	73.75
663.156	65.75
663.36	79.75
663.563	81.75
663.766	69.75
663.969	81.75
664.173	70.75
664.376	79.75
664.579	69.75
664.782	71.75
664.985	81.75
665.188	65.75
665.391	73.75
665.594	82.75
665.797	73.75
666	84.75
666.203	86.75
666.406	86.75
666.609	70.75
666.812	64.75
667.015	71.75
667.218	80.75
667.421	74.75
667.624	65.75
667.827	88.75
668.03	87.75
668.232	79.75
668.435	82.75
668.638	76.75
668.841	74.75
669.043	70.75
669.246	79.75
669.449	76.75
669.651	71.75
669.854	95.75
670.057	60.75
670.259	68.75
670.462	78.75
670.665	65.75
670.867	83.75
671.07	87.75
671.272	76.75
671.475	94.75
671.677	70.75
671.88	85.75
672.082	81.75
672.284	79.75
672.487	82.75
672.689	80.75
672.892	67.75
