Data from 237_2_HRD10591_00038.txt Node
Date: Mon Jan 19 14:11:49 EST 2026
User: Yrep
Spectrometer: HR+D1059
Trigger mode: 1
Integration Time (sec): 1.000000E-1
Scans to average: 1
Electric dark correction enabled: true
Nonlinearity correction enabled: false
Boxcar width: 0
XAxis mode: Wavelengths
Number of Pixels in Spectrum: 2048
>>>>>Begin Spectral Data<<<<<
223.165	-11.5
223.4	-11.5
223.635	-11.5
223.869	-11.5
224.104	-14.5
224.338	-15.5
224.573	-22.5
224.808	-7.5
225.042	-4.5
225.277	-9.5
225.511	-1.5
225.746	5.5
225.98	9.5
226.215	5.5
226.449	16.5
226.683	8.5
226.918	32.5
227.152	20.5
227.387	25.5
227.621	42.5
227.856	52.5
228.09	37.5
228.324	42.5
228.559	62.5
228.793	62.5
229.027	57.5
229.262	73.5
229.496	64.5
229.73	74.5
229.964	70.5
230.199	70.5
230.433	75.5
230.667	86.5
230.901	82.5
231.136	68.5
231.37	89.5
231.604	78.5
231.838	84.5
232.072	78.5
232.306	84.5
232.541	72.5
232.775	82.5
233.009	90.5
233.243	81.5
233.477	92.5
233.711	70.5
233.945	80.5
234.179	77.5
234.413	89.5
234.647	88.5
234.881	76.5
235.115	73.5
235.349	65.5
235.583	83.5
235.817	65.5
236.051	85.5
236.285	71.5
236.519	79.5
236.753	80.5
236.987	80.5
237.221	81.5
237.455	75.5
237.689	87.5
237.922	86.5
238.156	84.5
238.39	86.5
238.624	82.5
238.858	75.5
239.091	72.5
239.325	81.5
239.559	82.5
239.793	68.5
240.027	73.5
240.26	87.5
240.494	82.5
240.728	71.5
240.961	86.5
241.195	79.5
241.429	72.5
241.662	74.5
241.896	66.5
242.13	77.5
242.363	74.5
242.597	75.5
242.83	84.5
243.064	66.5
243.298	87.5
243.531	78.5
243.765	74.5
243.998	90.5
244.232	90.5
244.465	90.5
244.699	69.5
244.932	74.5
245.166	86.5
245.399	86.5
245.633	75.5
245.866	65.5
246.099	71.5
246.333	86.5
246.566	78.5
246.8	85.5
247.033	76.5
247.266	73.5
247.5	79.5
247.733	76.5
247.966	99.5
248.2	82.5
248.433	73.5
248.666	80.5
248.899	93.5
249.133	86.5
249.366	70.5
249.599	85.5
249.832	68.5
250.066	88.5
250.299	79.5
250.532	72.5
250.765	70.5
250.998	71.5
251.231	94.5
251.465	80.5
251.698	79.5
251.931	84.5
252.164	74.5
252.397	72.5
252.63	75.5
252.863	83.5
253.096	93.5
253.329	72.5
253.562	76.5
253.795	87.5
254.028	72.5
254.261	87.5
254.494	76.5
254.727	86.5
254.96	78.5
255.193	83.5
255.426	79.5
255.659	80.5
255.892	79.5
256.124	73.5
256.357	73.5
256.59	84.5
256.823	96.5
257.056	87.5
257.289	70.5
257.521	84.5
257.754	84.5
257.987	79.5
258.22	93.5
258.452	79.5
258.685	93.5
258.918	75.5
259.151	66.5
259.383	69.5
259.616	68.5
259.849	76.5
260.081	79.5
260.314	82.5
260.547	66.5
260.779	88.5
261.012	97.5
261.244	80.5
261.477	75.5
261.71	71.5
261.942	79.5
262.175	81.5
262.407	91.5
262.64	89.5
262.872	73.5
263.105	73.5
263.337	86.5
263.57	70.5
263.802	81.5
264.035	68.5
264.267	74.5
264.499	90.5
264.732	71.5
264.964	71.5
265.197	82.5
265.429	87.5
265.661	91.5
265.894	95.5
266.126	86.5
266.358	73.5
266.591	85.5
266.823	89.5
267.055	83.5
267.287	81.5
267.52	79.5
267.752	94.5
267.984	93.5
268.216	74.5
268.448	82.5
268.681	71.5
268.913	87.5
269.145	85.5
269.377	77.5
269.609	82.5
269.841	98.5
270.073	78.5
270.306	64.5
270.538	100.5
270.77	75.5
271.002	83.5
271.234	79.5
271.466	98.5
271.698	84.5
271.93	91.5
272.162	82.5
272.394	76.5
272.626	75.5
272.858	76.5
273.09	91.5
273.322	79.5
273.553	82.5
273.785	83.5
274.017	95.5
274.249	86.5
274.481	82.5
274.713	84.5
274.945	82.5
275.176	72.5
275.408	101.5
275.64	74.5
275.872	75.5
276.104	82.5
276.335	72.5
276.567	93.5
276.799	88.5
277.031	78.5
277.262	80.5
277.494	89.5
277.726	82.5
277.957	78.5
278.189	82.5
278.421	85.5
278.652	75.5
278.884	92.5
279.115	76.5
279.347	88.5
279.579	84.5
279.81	86.5
280.042	89.5
280.273	82.5
280.505	94.5
280.736	84.5
280.968	75.5
281.199	72.5
281.431	88.5
281.662	88.5
281.894	86.5
282.125	87.5
282.356	84.5
282.588	100.5
282.819	86.5
283.051	76.5
283.282	83.5
283.513	78.5
283.745	76.5
283.976	74.5
284.207	78.5
284.439	78.5
284.67	98.5
284.901	87.5
285.132	82.5
285.364	105.5
285.595	84.5
285.826	82.5
286.057	79.5
286.288	91.5
286.52	86.5
286.751	90.5
286.982	90.5
287.213	95.5
287.444	88.5
287.675	107.5
287.906	88.5
288.138	78.5
288.369	90.5
288.6	100.5
288.831	82.5
289.062	87.5
289.293	76.5
289.524	96.5
289.755	82.5
289.986	82.5
290.217	76.5
290.448	81.5
290.679	76.5
290.91	97.5
291.141	80.5
291.371	93.5
291.602	87.5
291.833	82.5
292.064	69.5
292.295	83.5
292.526	76.5
292.757	67.5
292.987	84.5
293.218	92.5
293.449	81.5
293.68	89.5
293.91	74.5
294.141	82.5
294.372	75.5
294.603	87.5
294.833	98.5
295.064	88.5
295.295	75.5
295.525	82.5
295.756	98.5
295.987	82.5
296.217	74.5
296.448	92.5
296.679	82.5
296.909	95.5
297.14	82.5
297.37	77.5
297.601	82.5
297.831	86.5
298.062	71.5
298.292	82.5
298.523	82.5
298.753	81.5
298.984	94.5
299.214	92.5
299.445	86.5
299.675	89.5
299.905	86.5
300.136	89.5
300.366	79.5
300.597	83.5
300.827	85.5
301.057	90.5
301.288	92.5
301.518	78.5
301.748	89.5
301.979	75.5
302.209	91.5
302.439	96.5
302.669	87.5
302.9	90.5
303.13	88.5
303.36	75.5
303.59	97.5
303.82	84.5
304.051	80.5
304.281	72.5
304.511	74.5
304.741	76.5
304.971	75.5
305.201	88.5
305.431	94.5
305.661	82.5
305.891	86.5
306.121	76.5
306.352	84.5
306.582	99.5
306.812	73.5
307.042	91.5
307.272	72.5
307.502	92.5
307.731	95.5
307.961	94.5
308.191	86.5
308.421	101.5
308.651	86.5
308.881	76.5
309.111	81.5
309.341	92.5
309.571	92.5
309.8	90.5
310.03	95.5
310.26	80.5
310.49	87.5
310.72	96.5
310.949	87.5
311.179	90.5
311.409	76.5
311.639	88.5
311.868	96.5
312.098	86.5
312.328	80.5
312.557	99.5
312.787	84.5
313.017	79.5
313.246	82.5
313.476	98.5
313.706	86.5
313.935	86.5
314.165	88.5
314.394	92.5
314.624	71.5
314.853	81.5
315.083	79.5
315.312	82.5
315.542	81.5
315.771	86.5
316.001	84.5
316.23	90.5
316.46	86.5
316.689	78.5
316.919	86.5
317.148	79.5
317.377	79.5
317.607	89.5
317.836	93.5
318.065	105.5
318.295	90.5
318.524	98.5
318.753	82.5
318.983	84.5
319.212	98.5
319.441	84.5
319.67	69.5
319.9	79.5
320.129	97.5
320.358	89.5
320.587	76.5
320.816	86.5
321.046	92.5
321.275	92.5
321.504	83.5
321.733	84.5
321.962	97.5
322.191	92.5
322.42	102.5
322.649	100.5
322.878	80.5
323.108	99.5
323.337	94.5
323.566	91.5
323.795	80.5
324.024	82.5
324.253	71.5
324.482	84.5
324.71	91.5
324.939	91.5
325.168	87.5
325.397	83.5
325.626	83.5
325.855	87.5
326.084	84.5
326.313	90.5
326.542	96.5
326.77	86.5
326.999	87.5
327.228	81.5
327.457	88.5
327.686	83.5
327.914	73.5
328.143	87.5
328.372	82.5
328.6	83.5
328.829	86.5
329.058	94.5
329.287	80.5
329.515	83.5
329.744	87.5
329.972	87.5
330.201	95.5
330.43	97.5
330.658	84.5
330.887	72.5
331.115	90.5
331.344	95.5
331.572	77.5
331.801	83.5
332.03	103.5
332.258	93.5
332.486	90.5
332.715	83.5
332.943	82.5
333.172	90.5
333.4	66.5
333.629	74.5
333.857	87.5
334.085	78.5
334.314	87.5
334.542	76.5
334.771	82.5
334.999	108.5
335.227	90.5
335.455	73.5
335.684	83.5
335.912	83.5
336.14	98.5
336.369	90.5
336.597	82.5
336.825	84.5
337.053	91.5
337.281	93.5
337.51	86.5
337.738	85.5
337.966	88.5
338.194	78.5
338.422	84.5
338.65	79.5
338.878	92.5
339.106	88.5
339.334	87.5
339.562	68.5
339.79	89.5
340.018	89.5
340.246	101.5
340.474	94.5
340.702	86.5
340.93	82.5
341.158	92.5
341.386	102.5
341.614	89.5
341.842	87.5
342.07	78.5
342.298	83.5
342.526	86.5
342.754	93.5
342.981	95.5
343.209	90.5
343.437	103.5
343.665	82.5
343.893	83.5
344.12	100.5
344.348	76.5
344.576	90.5
344.804	78.5
345.031	87.5
345.259	89.5
345.487	83.5
345.714	82.5
345.942	88.5
346.17	76.5
346.397	75.5
346.625	84.5
346.853	83.5
347.08	76.5
347.308	96.5
347.535	96.5
347.763	91.5
347.99	85.5
348.218	78.5
348.445	93.5
348.673	89.5
348.9	85.5
349.128	75.5
349.355	87.5
349.583	91.5
349.81	95.5
350.037	92.5
350.265	96.5
350.492	94.5
350.72	83.5
350.947	92.5
351.174	98.5
351.402	94.5
351.629	84.5
351.856	87.5
352.083	84.5
352.311	72.5
352.538	94.5
352.765	84.5
352.992	86.5
353.22	86.5
353.447	79.5
353.674	98.5
353.901	89.5
354.128	98.5
354.355	94.5
354.583	86.5
354.81	95.5
355.037	95.5
355.264	86.5
355.491	89.5
355.718	72.5
355.945	78.5
356.172	94.5
356.399	83.5
356.626	94.5
356.853	92.5
357.08	80.5
357.307	85.5
357.534	86.5
357.761	86.5
357.988	87.5
358.215	113.5
358.441	92.5
358.668	92.5
358.895	81.5
359.122	80.5
359.349	74.5
359.576	79.5
359.802	79.5
360.029	92.5
360.256	91.5
360.483	77.5
360.709	75.5
360.936	96.5
361.163	82.5
361.39	76.5
361.616	78.5
361.843	72.5
362.07	74.5
362.296	98.5
362.523	92.5
362.749	96.5
362.976	84.5
363.203	99.5
363.429	89.5
363.656	98.5
363.882	75.5
364.109	95.5
364.335	110.5
364.562	106.5
364.788	96.5
365.015	95.5
365.241	81.5
365.468	89.5
365.694	94.5
365.92	82.5
366.147	75.5
366.373	89.5
366.599	84.5
366.826	86.5
367.052	105.5
367.278	82.5
367.505	82.5
367.731	80.5
367.957	98.5
368.184	98.5
368.41	86.5
368.636	90.5
368.862	91.5
369.089	96.5
369.315	94.5
369.541	81.5
369.767	88.5
369.993	86.5
370.219	81.5
370.445	96.5
370.672	94.5
370.898	93.5
371.124	92.5
371.35	82.5
371.576	86.5
371.802	81.5
372.028	98.5
372.254	103.5
372.48	91.5
372.706	91.5
372.932	92.5
373.158	102.5
373.384	81.5
373.61	116.5
373.835	98.5
374.061	87.5
374.287	87.5
374.513	82.5
374.739	86.5
374.965	70.5
375.191	85.5
375.416	76.5
375.642	90.5
375.868	90.5
376.094	92.5
376.319	88.5
376.545	80.5
376.771	68.5
376.997	88.5
377.222	86.5
377.448	89.5
377.674	90.5
377.899	89.5
378.125	95.5
378.35	89.5
378.576	96.5
378.802	90.5
379.027	98.5
379.253	89.5
379.478	74.5
379.704	90.5
379.929	82.5
380.155	78.5
380.38	87.5
380.606	98.5
380.831	85.5
381.057	82.5
381.282	92.5
381.507	89.5
381.733	74.5
381.958	85.5
382.184	91.5
382.409	80.5
382.634	95.5
382.86	98.5
383.085	94.5
383.31	83.5
383.535	81.5
383.761	80.5
383.986	83.5
384.211	70.5
384.436	79.5
384.662	93.5
384.887	82.5
385.112	86.5
385.337	90.5
385.562	88.5
385.787	99.5
386.013	106.5
386.238	114.5
386.463	97.5
386.688	98.5
386.913	102.5
387.138	73.5
387.363	86.5
387.588	95.5
387.813	80.5
388.038	105.5
388.263	97.5
388.488	92.5
388.713	74.5
388.938	91.5
389.163	92.5
389.387	92.5
389.612	91.5
389.837	87.5
390.062	98.5
390.287	80.5
390.512	90.5
390.736	86.5
390.961	99.5
391.186	82.5
391.411	96.5
391.636	84.5
391.86	89.5
392.085	86.5
392.31	87.5
392.534	100.5
392.759	119.5
392.984	121.5
393.208	238.5
393.433	328.5
393.658	253.5
393.882	121.5
394.107	104.5
394.331	98.5
394.556	112.5
394.78	94.5
395.005	100.5
395.229	84.5
395.454	84.5
395.678	95.5
395.903	101.5
396.127	115.5
396.352	129.5
396.576	149.5
396.801	225.5
397.025	249.5
397.249	155.5
397.474	101.5
397.698	91.5
397.922	92.5
398.147	69.5
398.371	86.5
398.595	91.5
398.82	86.5
399.044	77.5
399.268	89.5
399.492	80.5
399.717	88.5
399.941	91.5
400.165	74.5
400.389	86.5
400.613	80.5
400.837	86.5
401.062	93.5
401.286	75.5
401.51	78.5
401.734	89.5
401.958	74.5
402.182	89.5
402.406	90.5
402.63	77.5
402.854	91.5
403.078	98.5
403.302	86.5
403.526	90.5
403.75	85.5
403.974	73.5
404.198	86.5
404.422	86.5
404.645	98.5
404.869	100.5
405.093	79.5
405.317	56.5
405.541	90.5
405.765	73.5
405.988	99.5
406.212	89.5
406.436	74.5
406.66	71.5
406.883	88.5
407.107	86.5
407.331	89.5
407.555	85.5
407.778	103.5
408.002	106.5
408.226	88.5
408.449	72.5
408.673	95.5
408.896	81.5
409.12	85.5
409.344	86.5
409.567	110.5
409.791	99.5
410.014	82.5
410.238	75.5
410.461	95.5
410.685	81.5
410.908	80.5
411.132	84.5
411.355	91.5
411.578	98.5
411.802	84.5
412.025	87.5
412.249	78.5
412.472	86.5
412.695	80.5
412.919	86.5
413.142	82.5
413.365	84.5
413.589	97.5
413.812	75.5
414.035	78.5
414.258	55.5
414.482	75.5
414.705	78.5
414.928	97.5
415.151	92.5
415.374	76.5
415.597	79.5
415.821	73.5
416.044	84.5
416.267	89.5
416.49	86.5
416.713	90.5
416.936	91.5
417.159	87.5
417.382	82.5
417.605	84.5
417.828	94.5
418.051	72.5
418.274	87.5
418.497	88.5
418.72	90.5
418.943	89.5
419.166	92.5
419.389	84.5
419.611	92.5
419.834	79.5
420.057	81.5
420.28	80.5
420.503	85.5
420.726	88.5
420.948	75.5
421.171	96.5
421.394	92.5
421.617	104.5
421.839	105.5
422.062	112.5
422.285	136.5
422.507	212.5
422.73	347.5
422.953	330.5
423.175	160.5
423.398	114.5
423.621	112.5
423.843	105.5
424.066	82.5
424.288	75.5
424.511	86.5
424.733	87.5
424.956	97.5
425.178	95.5
425.401	96.5
425.623	84.5
425.846	79.5
426.068	90.5
426.291	90.5
426.513	87.5
426.735	93.5
426.958	92.5
427.18	89.5
427.402	86.5
427.625	82.5
427.847	91.5
428.069	107.5
428.292	102.5
428.514	126.5
428.736	91.5
428.958	118.5
429.181	110.5
429.403	99.5
429.625	101.5
429.847	111.5
430.069	132.5
430.292	138.5
430.514	133.5
430.736	107.5
430.958	114.5
431.18	85.5
431.402	79.5
431.624	95.5
431.846	115.5
432.068	114.5
432.29	82.5
432.512	90.5
432.734	95.5
432.956	87.5
433.178	79.5
433.4	83.5
433.622	102.5
433.844	91.5
434.066	92.5
434.287	94.5
434.509	74.5
434.731	82.5
434.953	87.5
435.175	76.5
435.397	94.5
435.618	87.5
435.84	91.5
436.062	94.5
436.284	76.5
436.505	62.5
436.727	86.5
436.949	69.5
437.17	80.5
437.392	86.5
437.614	88.5
437.835	70.5
438.057	91.5
438.278	88.5
438.5	95.5
438.721	91.5
438.943	82.5
439.165	84.5
439.386	83.5
439.608	84.5
439.829	83.5
440.05	71.5
440.272	79.5
440.493	84.5
440.715	80.5
440.936	80.5
441.158	75.5
441.379	89.5
441.6	84.5
441.822	90.5
442.043	71.5
442.264	80.5
442.486	106.5
442.707	135.5
442.928	106.5
443.149	102.5
443.371	122.5
443.592	198.5
443.813	154.5
444.034	105.5
444.255	89.5
444.476	79.5
444.698	73.5
444.919	91.5
445.14	179.5
445.361	173.5
445.582	214.5
445.803	179.5
446.024	115.5
446.245	96.5
446.466	94.5
446.687	80.5
446.908	89.5
447.129	95.5
447.35	80.5
447.571	91.5
447.792	95.5
448.013	86.5
448.234	89.5
448.455	88.5
448.675	70.5
448.896	81.5
449.117	90.5
449.338	91.5
449.559	87.5
449.779	89.5
450	76.5
450.221	91.5
450.442	82.5
450.662	80.5
450.883	95.5
451.104	72.5
451.324	94.5
451.545	82.5
451.766	80.5
451.986	89.5
452.207	94.5
452.428	86.5
452.648	98.5
452.869	89.5
453.089	82.5
453.31	94.5
453.53	89.5
453.751	75.5
453.971	80.5
454.192	83.5
454.412	84.5
454.633	102.5
454.853	82.5
455.073	75.5
455.294	82.5
455.514	89.5
455.734	92.5
455.955	96.5
456.175	92.5
456.395	77.5
456.616	76.5
456.836	87.5
457.056	80.5
457.276	93.5
457.497	75.5
457.717	98.5
457.937	108.5
458.157	115.5
458.377	112.5
458.598	101.5
458.818	102.5
459.038	87.5
459.258	82.5
459.478	72.5
459.698	85.5
459.918	84.5
460.138	100.5
460.358	87.5
460.578	87.5
460.798	106.5
461.018	114.5
461.238	78.5
461.458	87.5
461.678	89.5
461.898	83.5
462.118	97.5
462.338	82.5
462.558	90.5
462.777	91.5
462.997	83.5
463.217	92.5
463.437	79.5
463.657	84.5
463.876	89.5
464.096	99.5
464.316	89.5
464.536	102.5
464.755	84.5
464.975	82.5
465.195	74.5
465.414	94.5
465.634	84.5
465.854	77.5
466.073	97.5
466.293	96.5
466.512	92.5
466.732	94.5
466.951	80.5
467.171	84.5
467.391	82.5
467.61	74.5
467.829	78.5
468.049	72.5
468.268	70.5
468.488	74.5
468.707	85.5
468.927	81.5
469.146	83.5
469.365	77.5
469.585	88.5
469.804	90.5
470.023	75.5
470.243	78.5
470.462	84.5
470.681	82.5
470.901	88.5
471.12	95.5
471.339	90.5
471.558	71.5
471.777	80.5
471.997	102.5
472.216	80.5
472.435	92.5
472.654	87.5
472.873	100.5
473.092	80.5
473.311	87.5
473.53	76.5
473.749	84.5
473.968	83.5
474.187	87.5
474.406	97.5
474.625	74.5
474.844	75.5
475.063	98.5
475.282	88.5
475.501	91.5
475.72	96.5
475.939	90.5
476.158	77.5
476.377	89.5
476.596	81.5
476.814	95.5
477.033	92.5
477.252	99.5
477.471	78.5
477.69	78.5
477.908	89.5
478.127	80.5
478.346	84.5
478.564	89.5
478.783	71.5
479.002	85.5
479.22	94.5
479.439	91.5
479.658	94.5
479.876	96.5
480.095	98.5
480.313	96.5
480.532	83.5
480.751	101.5
480.969	77.5
481.188	87.5
481.406	84.5
481.624	85.5
481.843	73.5
482.061	88.5
482.28	79.5
482.498	91.5
482.717	84.5
482.935	88.5
483.153	77.5
483.372	89.5
483.59	87.5
483.808	93.5
484.027	86.5
484.245	99.5
484.463	84.5
484.681	91.5
484.9	95.5
485.118	86.5
485.336	78.5
485.554	84.5
485.772	80.5
485.99	86.5
486.209	78.5
486.427	75.5
486.645	72.5
486.863	84.5
487.081	86.5
487.299	84.5
487.517	80.5
487.735	102.5
487.953	122.5
488.171	116.5
488.389	87.5
488.607	69.5
488.825	80.5
489.043	91.5
489.261	81.5
489.479	90.5
489.696	100.5
489.914	90.5
490.132	85.5
490.35	84.5
490.568	89.5
490.786	84.5
491.003	85.5
491.221	80.5
491.439	98.5
491.657	92.5
491.874	77.5
492.092	90.5
492.31	87.5
492.527	89.5
492.745	80.5
492.963	94.5
493.18	74.5
493.398	78.5
493.615	83.5
493.833	74.5
494.05	84.5
494.268	83.5
494.485	82.5
494.703	83.5
494.92	84.5
495.138	83.5
495.355	91.5
495.573	86.5
495.79	90.5
496.008	101.5
496.225	82.5
496.442	81.5
496.66	80.5
496.877	91.5
497.094	94.5
497.312	80.5
497.529	84.5
497.746	89.5
497.963	72.5
498.181	90.5
498.398	92.5
498.615	106.5
498.832	90.5
499.049	70.5
499.267	107.5
499.484	91.5
499.701	91.5
499.918	84.5
500.135	103.5
500.352	93.5
500.569	82.5
500.786	92.5
501.003	88.5
501.22	85.5
501.437	86.5
501.654	86.5
501.871	93.5
502.088	73.5
502.305	86.5
502.522	83.5
502.739	90.5
502.956	76.5
503.172	78.5
503.389	84.5
503.606	88.5
503.823	80.5
504.04	102.5
504.256	98.5
504.473	110.5
504.69	94.5
504.907	95.5
505.123	87.5
505.34	90.5
505.557	82.5
505.773	89.5
505.99	82.5
506.207	94.5
506.423	89.5
506.64	92.5
506.856	86.5
507.073	81.5
507.289	92.5
507.506	80.5
507.722	86.5
507.939	78.5
508.155	88.5
508.372	92.5
508.588	82.5
508.805	77.5
509.021	88.5
509.238	82.5
509.454	104.5
509.67	102.5
509.887	79.5
510.103	83.5
510.319	84.5
510.536	83.5
510.752	98.5
510.968	85.5
511.184	87.5
511.401	96.5
511.617	94.5
511.833	86.5
512.049	91.5
512.265	67.5
512.481	98.5
512.698	82.5
512.914	88.5
513.13	84.5
513.346	92.5
513.562	84.5
513.778	110.5
513.994	94.5
514.21	79.5
514.426	81.5
514.642	99.5
514.858	86.5
515.074	91.5
515.29	99.5
515.506	75.5
515.721	79.5
515.937	95.5
516.153	89.5
516.369	71.5
516.585	80.5
516.801	81.5
517.016	102.5
517.232	99.5
517.448	94.5
517.664	83.5
517.879	87.5
518.095	88.5
518.311	77.5
518.527	105.5
518.742	86.5
518.958	104.5
519.173	138.5
519.389	89.5
519.605	86.5
519.82	77.5
520.036	78.5
520.251	79.5
520.467	86.5
520.682	78.5
520.898	76.5
521.113	96.5
521.329	80.5
521.544	71.5
521.76	88.5
521.975	80.5
522.19	89.5
522.406	74.5
522.621	87.5
522.836	75.5
523.052	85.5
523.267	110.5
523.482	93.5
523.698	90.5
523.913	89.5
524.128	82.5
524.343	76.5
524.559	86.5
524.774	91.5
524.989	81.5
525.204	79.5
525.419	84.5
525.634	103.5
525.849	107.5
526.064	94.5
526.28	140.5
526.495	192.5
526.71	204.5
526.925	166.5
527.14	198.5
527.355	174.5
527.57	105.5
527.785	77.5
527.999	91.5
528.214	90.5
528.429	79.5
528.644	87.5
528.859	72.5
529.074	84.5
529.289	91.5
529.503	103.5
529.718	94.5
529.933	83.5
530.148	92.5
530.363	86.5
530.577	73.5
530.792	75.5
531.007	82.5
531.221	98.5
531.436	88.5
531.651	98.5
531.865	80.5
532.08	76.5
532.295	87.5
532.509	94.5
532.724	94.5
532.938	97.5
533.153	89.5
533.367	100.5
533.582	93.5
533.796	86.5
534.011	73.5
534.225	85.5
534.44	98.5
534.654	86.5
534.868	102.5
535.083	118.5
535.297	124.5
535.511	100.5
535.726	101.5
535.94	86.5
536.154	83.5
536.369	101.5
536.583	90.5
536.797	89.5
537.011	95.5
537.225	110.5
537.44	96.5
537.654	105.5
537.868	78.5
538.082	84.5
538.296	103.5
538.51	102.5
538.724	96.5
538.938	109.5
539.153	112.5
539.367	89.5
539.581	99.5
539.795	102.5
540.009	94.5
540.222	102.5
540.436	91.5
540.65	101.5
540.864	79.5
541.078	86.5
541.292	99.5
541.506	90.5
541.72	90.5
541.934	84.5
542.147	96.5
542.361	100.5
542.575	93.5
542.789	98.5
543.002	95.5
543.216	98.5
543.43	107.5
543.644	94.5
543.857	90.5
544.071	100.5
544.285	94.5
544.498	100.5
544.712	102.5
544.925	114.5
545.139	105.5
545.352	104.5
545.566	94.5
545.779	76.5
545.993	90.5
546.206	103.5
546.42	104.5
546.633	110.5
546.847	124.5
547.06	108.5
547.274	121.5
547.487	151.5
547.7	163.5
547.914	157.5
548.127	163.5
548.34	163.5
548.554	171.5
548.767	167.5
548.98	179.5
549.193	164.5
549.407	160.5
549.62	152.5
549.833	188.5
550.046	203.5
550.259	186.5
550.473	199.5
550.686	196.5
550.899	229.5
551.112	215.5
551.325	234.5
551.538	254.5
551.751	223.5
551.964	208.5
552.177	204.5
552.39	214.5
552.603	218.5
552.816	209.5
553.029	198.5
553.242	205.5
553.455	187.5
553.667	204.5
553.88	219.5
554.093	210.5
554.306	215.5
554.519	202.5
554.732	199.5
554.944	201.5
555.157	201.5
555.37	204.5
555.583	197.5
555.795	156.5
556.008	156.5
556.221	155.5
556.433	154.5
556.646	140.5
556.859	142.5
557.071	127.5
557.284	124.5
557.496	122.5
557.709	129.5
557.921	141.5
558.134	131.5
558.346	126.5
558.559	136.5
558.771	139.5
558.984	231.5
559.196	265.5
559.409	163.5
559.621	212.5
559.833	165.5
560.046	199.5
560.258	151.5
560.47	156.5
560.683	126.5
560.895	104.5
561.107	110.5
561.32	92.5
561.532	94.5
561.744	97.5
561.956	87.5
562.168	88.5
562.381	97.5
562.593	94.5
562.805	87.5
563.017	101.5
563.229	103.5
563.441	98.5
563.653	73.5
563.865	102.5
564.077	96.5
564.289	100.5
564.501	91.5
564.713	97.5
564.925	90.5
565.137	86.5
565.349	82.5
565.561	75.5
565.773	113.5
565.985	95.5
566.197	91.5
566.408	97.5
566.62	99.5
566.832	102.5
567.044	92.5
567.255	98.5
567.467	98.5
567.679	105.5
567.891	98.5
568.102	87.5
568.314	90.5
568.526	104.5
568.737	99.5
568.949	96.5
569.161	100.5
569.372	94.5
569.584	95.5
569.795	101.5
570.007	90.5
570.218	103.5
570.43	98.5
570.641	89.5
570.853	98.5
571.064	86.5
571.276	97.5
571.487	94.5
571.698	100.5
571.91	89.5
572.121	100.5
572.333	90.5
572.544	94.5
572.755	88.5
572.966	88.5
573.178	92.5
573.389	91.5
573.6	80.5
573.811	90.5
574.023	90.5
574.234	97.5
574.445	91.5
574.656	73.5
574.867	81.5
575.078	88.5
575.289	80.5
575.501	91.5
575.712	82.5
575.923	104.5
576.134	104.5
576.345	89.5
576.556	88.5
576.767	83.5
576.978	82.5
577.188	88.5
577.399	89.5
577.61	70.5
577.821	100.5
578.032	90.5
578.243	84.5
578.454	103.5
578.665	82.5
578.875	80.5
579.086	94.5
579.297	85.5
579.508	90.5
579.718	93.5
579.929	107.5
580.14	95.5
580.35	97.5
580.561	86.5
580.772	89.5
580.982	91.5
581.193	97.5
581.403	100.5
581.614	90.5
581.825	79.5
582.035	90.5
582.246	88.5
582.456	90.5
582.667	87.5
582.877	95.5
583.087	86.5
583.298	84.5
583.508	88.5
583.719	82.5
583.929	112.5
584.139	103.5
584.35	103.5
584.56	87.5
584.77	89.5
584.981	88.5
585.191	106.5
585.401	90.5
585.611	96.5
585.821	129.5
586.032	154.5
586.242	102.5
586.452	100.5
586.662	91.5
586.872	101.5
587.082	106.5
587.292	94.5
587.502	99.5
587.713	123.5
587.923	113.5
588.133	94.5
588.343	118.5
588.553	110.5
588.762	112.5
588.972	208.5
589.182	573.5
589.392	376.5
589.602	242.5
589.812	478.5
590.022	257.5
590.232	121.5
590.441	114.5
590.651	104.5
590.861	99.5
591.071	93.5
591.281	105.5
591.49	103.5
591.7	115.5
591.91	90.5
592.119	90.5
592.329	100.5
592.539	100.5
592.748	102.5
592.958	108.5
593.167	105.5
593.377	99.5
593.587	111.5
593.796	124.5
594.006	123.5
594.215	130.5
594.424	113.5
594.634	118.5
594.843	110.5
595.053	128.5
595.262	123.5
595.472	143.5
595.681	121.5
595.89	132.5
596.1	138.5
596.309	136.5
596.518	148.5
596.727	142.5
596.937	160.5
597.146	151.5
597.355	164.5
597.564	164.5
597.774	149.5
597.983	146.5
598.192	151.5
598.401	140.5
598.61	167.5
598.819	171.5
599.028	168.5
599.237	168.5
599.446	166.5
599.655	159.5
599.864	162.5
600.073	147.5
600.282	141.5
600.491	160.5
600.7	184.5
600.909	174.5
601.118	145.5
601.327	134.5
601.536	139.5
601.745	118.5
601.953	137.5
602.162	132.5
602.371	130.5
602.58	139.5
602.789	134.5
602.997	135.5
603.206	163.5
603.415	155.5
603.623	147.5
603.832	150.5
604.041	150.5
604.249	155.5
604.458	165.5
604.666	197.5
604.875	167.5
605.084	177.5
605.292	177.5
605.501	174.5
605.709	175.5
605.918	197.5
606.126	210.5
606.334	199.5
606.543	202.5
606.751	191.5
606.96	201.5
607.168	179.5
607.376	159.5
607.585	180.5
607.793	166.5
608.001	178.5
608.21	179.5
608.418	194.5
608.626	190.5
608.834	194.5
609.043	211.5
609.251	193.5
609.459	161.5
609.667	187.5
609.875	195.5
610.083	200.5
610.291	188.5
610.499	247.5
610.707	204.5
610.916	190.5
611.124	170.5
611.332	188.5
611.54	190.5
611.748	192.5
611.955	221.5
612.163	217.5
612.371	333.5
612.579	276.5
612.787	229.5
612.995	211.5
613.203	212.5
613.411	210.5
613.618	189.5
613.826	192.5
614.034	186.5
614.242	203.5
614.449	194.5
614.657	219.5
614.865	198.5
615.072	204.5
615.28	206.5
615.488	192.5
615.695	202.5
615.903	200.5
616.111	216.5
616.318	329.5
616.526	331.5
616.733	221.5
616.941	219.5
617.148	262.5
617.356	200.5
617.563	194.5
617.771	179.5
617.978	178.5
618.185	198.5
618.393	185.5
618.6	177.5
618.807	182.5
619.015	158.5
619.222	149.5
619.429	177.5
619.637	155.5
619.844	170.5
620.051	161.5
620.258	154.5
620.466	165.5
620.673	153.5
620.88	174.5
621.087	164.5
621.294	164.5
621.501	166.5
621.708	161.5
621.915	155.5
622.122	166.5
622.329	165.5
622.536	180.5
622.743	170.5
622.95	168.5
623.157	177.5
623.364	176.5
623.571	168.5
623.778	166.5
623.985	153.5
624.192	147.5
624.399	151.5
624.606	164.5
624.812	174.5
625.019	149.5
625.226	152.5
625.433	158.5
625.639	170.5
625.846	138.5
626.053	152.5
626.259	140.5
626.466	147.5
626.673	132.5
626.879	120.5
627.086	126.5
627.293	124.5
627.499	122.5
627.706	127.5
627.912	126.5
628.119	112.5
628.325	107.5
628.532	118.5
628.738	104.5
628.945	103.5
629.151	111.5
629.357	103.5
629.564	95.5
629.77	103.5
629.976	101.5
630.183	98.5
630.389	98.5
630.595	104.5
630.802	86.5
631.008	91.5
631.214	84.5
631.42	105.5
631.627	97.5
631.833	103.5
632.039	100.5
632.245	99.5
632.451	91.5
632.657	91.5
632.863	91.5
633.069	102.5
633.275	96.5
633.481	100.5
633.688	98.5
633.893	120.5
634.099	105.5
634.305	104.5
634.511	97.5
634.717	92.5
634.923	98.5
635.129	105.5
635.335	98.5
635.541	104.5
635.747	92.5
635.952	83.5
636.158	94.5
636.364	89.5
636.57	89.5
636.775	100.5
636.981	98.5
637.187	110.5
637.392	90.5
637.598	82.5
637.804	106.5
638.009	89.5
638.215	95.5
638.421	98.5
638.626	105.5
638.832	92.5
639.037	96.5
639.243	84.5
639.448	80.5
639.654	87.5
639.859	87.5
640.065	90.5
640.27	97.5
640.475	98.5
640.681	83.5
640.886	93.5
641.091	95.5
641.297	107.5
641.502	103.5
641.707	107.5
641.913	98.5
642.118	90.5
642.323	84.5
642.528	80.5
642.733	90.5
642.939	89.5
643.144	94.5
643.349	97.5
643.554	111.5
643.759	107.5
643.964	127.5
644.169	140.5
644.374	96.5
644.579	92.5
644.784	94.5
644.989	96.5
645.194	98.5
645.399	108.5
645.604	88.5
645.809	91.5
646.014	88.5
646.219	102.5
646.423	146.5
646.628	97.5
646.833	98.5
647.038	91.5
647.243	85.5
647.447	102.5
647.652	82.5
647.857	74.5
648.062	84.5
648.266	85.5
648.471	85.5
648.676	90.5
648.88	90.5
649.085	80.5
649.289	86.5
649.494	119.5
649.698	94.5
649.903	79.5
650.107	98.5
650.312	91.5
650.516	72.5
650.721	85.5
650.925	83.5
651.13	91.5
651.334	94.5
651.539	85.5
651.743	75.5
651.947	103.5
652.152	83.5
652.356	77.5
652.56	100.5
652.764	86.5
652.969	96.5
653.173	98.5
653.377	94.5
653.581	83.5
653.785	78.5
653.99	79.5
654.194	86.5
654.398	82.5
654.602	79.5
654.806	82.5
655.01	82.5
655.214	90.5
655.418	82.5
655.622	77.5
655.826	85.5
656.03	87.5
656.234	92.5
656.438	70.5
656.642	82.5
656.846	71.5
657.049	71.5
657.253	87.5
657.457	85.5
657.661	92.5
657.865	90.5
658.068	90.5
658.272	77.5
658.476	82.5
658.68	73.5
658.883	66.5
659.087	90.5
659.291	94.5
659.494	99.5
659.698	90.5
659.901	93.5
660.105	78.5
660.309	74.5
660.512	84.5
660.716	91.5
660.919	76.5
661.123	89.5
661.326	80.5
661.53	79.5
661.733	90.5
661.936	75.5
662.14	79.5
662.343	85.5
662.546	75.5
662.75	95.5
662.953	71.5
663.156	96.5
663.36	82.5
663.563	79.5
663.766	83.5
663.969	88.5
664.173	82.5
664.376	82.5
664.579	82.5
664.782	77.5
664.985	76.5
665.188	76.5
665.391	70.5
665.594	67.5
665.797	80.5
666	75.5
666.203	88.5
666.406	85.5
666.609	89.5
666.812	77.5
667.015	95.5
667.218	86.5
667.421	72.5
667.624	78.5
667.827	90.5
668.03	82.5
668.232	73.5
668.435	89.5
668.638	74.5
668.841	90.5
669.043	76.5
669.246	81.5
669.449	91.5
669.651	93.5
669.854	84.5
670.057	90.5
670.259	89.5
670.462	82.5
670.665	82.5
670.867	76.5
671.07	75.5
671.272	83.5
671.475	84.5
671.677	84.5
671.88	70.5
672.082	90.5
672.284	75.5
672.487	80.5
672.689	82.5
672.892	87.5
