Data from BG_HRD10591_050.txt Node
Date: Fri May 16 15:27:12 EDT 2025
User: Yrep
Spectrometer: HR+D1059
Trigger mode: 1
Integration Time (sec): 1.000000E-1
Scans to average: 1
Electric dark correction enabled: true
Nonlinearity correction enabled: false
Boxcar width: 0
XAxis mode: Wavelengths
Number of Pixels in Spectrum: 2048
>>>>>Begin Spectral Data<<<<<
223.165	-18.75
223.4	-18.75
223.635	-18.75
223.869	-17.75
224.104	-32.75
224.338	-6.75
224.573	-6.75
224.808	-3.75
225.042	-3.75
225.277	-4.75
225.511	7.25
225.746	6.25
225.98	11.25
226.215	8.25
226.449	8.25
226.683	10.25
226.918	16.25
227.152	27.25
227.387	34.25
227.621	44.25
227.856	50.25
228.09	58.25
228.324	35.25
228.559	46.25
228.793	61.25
229.027	69.25
229.262	68.25
229.496	68.25
229.73	71.25
229.964	81.25
230.199	75.25
230.433	75.25
230.667	75.25
230.901	73.25
231.136	76.25
231.37	86.25
231.604	78.25
231.838	73.25
232.072	66.25
232.306	84.25
232.541	82.25
232.775	88.25
233.009	78.25
233.243	75.25
233.477	73.25
233.711	79.25
233.945	76.25
234.179	98.25
234.413	73.25
234.647	64.25
234.881	78.25
235.115	63.25
235.349	80.25
235.583	91.25
235.817	77.25
236.051	79.25
236.285	86.25
236.519	80.25
236.753	75.25
236.987	83.25
237.221	70.25
237.455	83.25
237.689	74.25
237.922	87.25
238.156	66.25
238.39	78.25
238.624	80.25
238.858	60.25
239.091	82.25
239.325	82.25
239.559	83.25
239.793	90.25
240.027	72.25
240.26	61.25
240.494	88.25
240.728	64.25
240.961	71.25
241.195	89.25
241.429	78.25
241.662	73.25
241.896	88.25
242.13	66.25
242.363	72.25
242.597	70.25
242.83	70.25
243.064	80.25
243.298	89.25
243.531	84.25
243.765	84.25
243.998	83.25
244.232	77.25
244.465	73.25
244.699	70.25
244.932	78.25
245.166	83.25
245.399	84.25
245.633	72.25
245.866	73.25
246.099	93.25
246.333	80.25
246.566	79.25
246.8	90.25
247.033	78.25
247.266	81.25
247.5	67.25
247.733	86.25
247.966	83.25
248.2	76.25
248.433	78.25
248.666	69.25
248.899	84.25
249.133	85.25
249.366	75.25
249.599	87.25
249.832	85.25
250.066	103.25
250.299	89.25
250.532	95.25
250.765	81.25
250.998	86.25
251.231	82.25
251.465	78.25
251.698	76.25
251.931	83.25
252.164	82.25
252.397	92.25
252.63	86.25
252.863	75.25
253.096	82.25
253.329	78.25
253.562	69.25
253.795	80.25
254.028	82.25
254.261	76.25
254.494	82.25
254.727	92.25
254.96	82.25
255.193	89.25
255.426	81.25
255.659	73.25
255.892	84.25
256.124	70.25
256.357	74.25
256.59	90.25
256.823	88.25
257.056	68.25
257.289	89.25
257.521	83.25
257.754	78.25
257.987	75.25
258.22	82.25
258.452	93.25
258.685	83.25
258.918	83.25
259.151	93.25
259.383	78.25
259.616	81.25
259.849	78.25
260.081	84.25
260.314	82.25
260.547	79.25
260.779	78.25
261.012	90.25
261.244	87.25
261.477	73.25
261.71	82.25
261.942	91.25
262.175	84.25
262.407	84.25
262.64	87.25
262.872	79.25
263.105	85.25
263.337	80.25
263.57	76.25
263.802	72.25
264.035	98.25
264.267	90.25
264.499	82.25
264.732	75.25
264.964	85.25
265.197	88.25
265.429	75.25
265.661	80.25
265.894	77.25
266.126	71.25
266.358	78.25
266.591	93.25
266.823	77.25
267.055	86.25
267.287	97.25
267.52	75.25
267.752	80.25
267.984	91.25
268.216	93.25
268.448	78.25
268.681	84.25
268.913	77.25
269.145	92.25
269.377	93.25
269.609	78.25
269.841	79.25
270.073	80.25
270.306	95.25
270.538	82.25
270.77	87.25
271.002	75.25
271.234	96.25
271.466	89.25
271.698	88.25
271.93	84.25
272.162	84.25
272.394	85.25
272.626	86.25
272.858	80.25
273.09	87.25
273.322	80.25
273.553	94.25
273.785	74.25
274.017	90.25
274.249	86.25
274.481	89.25
274.713	90.25
274.945	89.25
275.176	76.25
275.408	90.25
275.64	81.25
275.872	81.25
276.104	81.25
276.335	90.25
276.567	78.25
276.799	100.25
277.031	73.25
277.262	92.25
277.494	117.25
277.726	102.25
277.957	83.25
278.189	81.25
278.421	81.25
278.652	84.25
278.884	96.25
279.115	94.25
279.347	83.25
279.579	78.25
279.81	86.25
280.042	94.25
280.273	80.25
280.505	103.25
280.736	73.25
280.968	84.25
281.199	88.25
281.431	78.25
281.662	77.25
281.894	96.25
282.125	92.25
282.356	73.25
282.588	96.25
282.819	83.25
283.051	79.25
283.282	94.25
283.513	86.25
283.745	77.25
283.976	93.25
284.207	82.25
284.439	97.25
284.67	89.25
284.901	94.25
285.132	78.25
285.364	76.25
285.595	91.25
285.826	89.25
286.057	101.25
286.288	93.25
286.52	92.25
286.751	84.25
286.982	84.25
287.213	90.25
287.444	79.25
287.675	96.25
287.906	96.25
288.138	93.25
288.369	91.25
288.6	85.25
288.831	81.25
289.062	90.25
289.293	81.25
289.524	96.25
289.755	87.25
289.986	81.25
290.217	72.25
290.448	87.25
290.679	94.25
290.91	98.25
291.141	91.25
291.371	98.25
291.602	83.25
291.833	87.25
292.064	82.25
292.295	93.25
292.526	95.25
292.757	91.25
292.987	92.25
293.218	104.25
293.449	91.25
293.68	81.25
293.91	86.25
294.141	82.25
294.372	97.25
294.603	87.25
294.833	81.25
295.064	78.25
295.295	87.25
295.525	75.25
295.756	90.25
295.987	95.25
296.217	78.25
296.448	100.25
296.679	84.25
296.909	95.25
297.14	84.25
297.37	77.25
297.601	86.25
297.831	88.25
298.062	97.25
298.292	88.25
298.523	99.25
298.753	100.25
298.984	95.25
299.214	86.25
299.445	76.25
299.675	81.25
299.905	87.25
300.136	89.25
300.366	90.25
300.597	91.25
300.827	89.25
301.057	98.25
301.288	90.25
301.518	88.25
301.748	86.25
301.979	111.25
302.209	96.25
302.439	81.25
302.669	93.25
302.9	91.25
303.13	84.25
303.36	102.25
303.59	78.25
303.82	71.25
304.051	100.25
304.281	94.25
304.511	87.25
304.741	96.25
304.971	73.25
305.201	84.25
305.431	83.25
305.661	88.25
305.891	87.25
306.121	82.25
306.352	98.25
306.582	91.25
306.812	87.25
307.042	73.25
307.272	88.25
307.502	84.25
307.731	89.25
307.961	99.25
308.191	82.25
308.421	83.25
308.651	84.25
308.881	104.25
309.111	78.25
309.341	93.25
309.571	88.25
309.8	82.25
310.03	74.25
310.26	73.25
310.49	95.25
310.72	94.25
310.949	80.25
311.179	89.25
311.409	89.25
311.639	85.25
311.868	103.25
312.098	93.25
312.328	97.25
312.557	89.25
312.787	90.25
313.017	86.25
313.246	92.25
313.476	88.25
313.706	78.25
313.935	90.25
314.165	86.25
314.394	77.25
314.624	82.25
314.853	96.25
315.083	103.25
315.312	88.25
315.542	83.25
315.771	82.25
316.001	74.25
316.23	89.25
316.46	89.25
316.689	87.25
316.919	92.25
317.148	83.25
317.377	97.25
317.607	90.25
317.836	95.25
318.065	92.25
318.295	95.25
318.524	82.25
318.753	82.25
318.983	74.25
319.212	91.25
319.441	88.25
319.67	108.25
319.9	91.25
320.129	82.25
320.358	88.25
320.587	97.25
320.816	84.25
321.046	96.25
321.275	93.25
321.504	80.25
321.733	83.25
321.962	91.25
322.191	91.25
322.42	90.25
322.649	87.25
322.878	84.25
323.108	76.25
323.337	79.25
323.566	96.25
323.795	79.25
324.024	95.25
324.253	85.25
324.482	89.25
324.71	90.25
324.939	76.25
325.168	75.25
325.397	103.25
325.626	93.25
325.855	82.25
326.084	85.25
326.313	93.25
326.542	70.25
326.77	96.25
326.999	92.25
327.228	78.25
327.457	90.25
327.686	102.25
327.914	79.25
328.143	96.25
328.372	86.25
328.6	88.25
328.829	89.25
329.058	100.25
329.287	97.25
329.515	68.25
329.744	91.25
329.972	84.25
330.201	88.25
330.43	89.25
330.658	97.25
330.887	92.25
331.115	103.25
331.344	104.25
331.572	90.25
331.801	87.25
332.03	97.25
332.258	89.25
332.486	80.25
332.715	94.25
332.943	89.25
333.172	90.25
333.4	98.25
333.629	83.25
333.857	97.25
334.085	82.25
334.314	103.25
334.542	98.25
334.771	92.25
334.999	91.25
335.227	90.25
335.455	90.25
335.684	92.25
335.912	87.25
336.14	91.25
336.369	91.25
336.597	107.25
336.825	89.25
337.053	76.25
337.281	107.25
337.51	96.25
337.738	83.25
337.966	105.25
338.194	94.25
338.422	97.25
338.65	95.25
338.878	99.25
339.106	77.25
339.334	74.25
339.562	79.25
339.79	89.25
340.018	83.25
340.246	98.25
340.474	81.25
340.702	94.25
340.93	94.25
341.158	80.25
341.386	87.25
341.614	77.25
341.842	82.25
342.07	86.25
342.298	90.25
342.526	95.25
342.754	99.25
342.981	97.25
343.209	80.25
343.437	112.25
343.665	80.25
343.893	71.25
344.12	87.25
344.348	87.25
344.576	77.25
344.804	76.25
345.031	76.25
345.259	87.25
345.487	100.25
345.714	83.25
345.942	90.25
346.17	94.25
346.397	83.25
346.625	87.25
346.853	82.25
347.08	87.25
347.308	70.25
347.535	90.25
347.763	109.25
347.99	100.25
348.218	92.25
348.445	92.25
348.673	87.25
348.9	93.25
349.128	92.25
349.355	88.25
349.583	107.25
349.81	80.25
350.037	65.25
350.265	94.25
350.492	97.25
350.72	79.25
350.947	98.25
351.174	106.25
351.402	84.25
351.629	100.25
351.856	93.25
352.083	96.25
352.311	85.25
352.538	91.25
352.765	88.25
352.992	86.25
353.22	91.25
353.447	97.25
353.674	87.25
353.901	98.25
354.128	80.25
354.355	85.25
354.583	78.25
354.81	87.25
355.037	92.25
355.264	105.25
355.491	96.25
355.718	89.25
355.945	102.25
356.172	107.25
356.399	75.25
356.626	86.25
356.853	91.25
357.08	103.25
357.307	86.25
357.534	99.25
357.761	82.25
357.988	96.25
358.215	82.25
358.441	86.25
358.668	89.25
358.895	94.25
359.122	104.25
359.349	87.25
359.576	85.25
359.802	82.25
360.029	87.25
360.256	80.25
360.483	81.25
360.709	95.25
360.936	96.25
361.163	81.25
361.39	83.25
361.616	95.25
361.843	89.25
362.07	81.25
362.296	91.25
362.523	74.25
362.749	77.25
362.976	88.25
363.203	98.25
363.429	89.25
363.656	86.25
363.882	94.25
364.109	87.25
364.335	86.25
364.562	86.25
364.788	81.25
365.015	81.25
365.241	90.25
365.468	97.25
365.694	90.25
365.92	87.25
366.147	86.25
366.373	89.25
366.599	91.25
366.826	90.25
367.052	84.25
367.278	103.25
367.505	94.25
367.731	83.25
367.957	77.25
368.184	94.25
368.41	84.25
368.636	98.25
368.862	94.25
369.089	96.25
369.315	81.25
369.541	90.25
369.767	88.25
369.993	81.25
370.219	85.25
370.445	80.25
370.672	76.25
370.898	86.25
371.124	87.25
371.35	91.25
371.576	104.25
371.802	91.25
372.028	72.25
372.254	83.25
372.48	88.25
372.706	97.25
372.932	111.25
373.158	89.25
373.384	103.25
373.61	102.25
373.835	92.25
374.061	88.25
374.287	84.25
374.513	71.25
374.739	77.25
374.965	86.25
375.191	98.25
375.416	95.25
375.642	87.25
375.868	96.25
376.094	92.25
376.319	89.25
376.545	88.25
376.771	94.25
376.997	85.25
377.222	81.25
377.448	78.25
377.674	94.25
377.899	99.25
378.125	82.25
378.35	97.25
378.576	72.25
378.802	82.25
379.027	95.25
379.253	103.25
379.478	96.25
379.704	91.25
379.929	92.25
380.155	84.25
380.38	100.25
380.606	83.25
380.831	98.25
381.057	100.25
381.282	86.25
381.507	81.25
381.733	98.25
381.958	92.25
382.184	77.25
382.409	91.25
382.634	82.25
382.86	83.25
383.085	87.25
383.31	90.25
383.535	95.25
383.761	96.25
383.986	95.25
384.211	81.25
384.436	85.25
384.662	89.25
384.887	81.25
385.112	93.25
385.337	96.25
385.562	80.25
385.787	98.25
386.013	92.25
386.238	66.25
386.463	86.25
386.688	97.25
386.913	85.25
387.138	90.25
387.363	97.25
387.588	88.25
387.813	88.25
388.038	92.25
388.263	74.25
388.488	92.25
388.713	94.25
388.938	80.25
389.163	94.25
389.387	93.25
389.612	86.25
389.837	84.25
390.062	88.25
390.287	75.25
390.512	88.25
390.736	92.25
390.961	84.25
391.186	90.25
391.411	94.25
391.636	91.25
391.86	92.25
392.085	83.25
392.31	97.25
392.534	87.25
392.759	89.25
392.984	80.25
393.208	86.25
393.433	90.25
393.658	92.25
393.882	78.25
394.107	89.25
394.331	83.25
394.556	83.25
394.78	104.25
395.005	81.25
395.229	89.25
395.454	96.25
395.678	97.25
395.903	94.25
396.127	93.25
396.352	84.25
396.576	95.25
396.801	79.25
397.025	65.25
397.249	86.25
397.474	91.25
397.698	90.25
397.922	96.25
398.147	80.25
398.371	79.25
398.595	85.25
398.82	89.25
399.044	92.25
399.268	89.25
399.492	83.25
399.717	101.25
399.941	83.25
400.165	93.25
400.389	72.25
400.613	85.25
400.837	82.25
401.062	74.25
401.286	73.25
401.51	83.25
401.734	95.25
401.958	95.25
402.182	102.25
402.406	98.25
402.63	96.25
402.854	92.25
403.078	93.25
403.302	95.25
403.526	86.25
403.75	95.25
403.974	93.25
404.198	97.25
404.422	74.25
404.645	88.25
404.869	94.25
405.093	87.25
405.317	98.25
405.541	88.25
405.765	89.25
405.988	86.25
406.212	108.25
406.436	90.25
406.66	84.25
406.883	76.25
407.107	79.25
407.331	98.25
407.555	104.25
407.778	82.25
408.002	83.25
408.226	83.25
408.449	79.25
408.673	91.25
408.896	91.25
409.12	89.25
409.344	83.25
409.567	106.25
409.791	91.25
410.014	97.25
410.238	91.25
410.461	92.25
410.685	91.25
410.908	80.25
411.132	99.25
411.355	91.25
411.578	88.25
411.802	90.25
412.025	96.25
412.249	83.25
412.472	83.25
412.695	67.25
412.919	103.25
413.142	89.25
413.365	81.25
413.589	82.25
413.812	88.25
414.035	88.25
414.258	87.25
414.482	89.25
414.705	88.25
414.928	89.25
415.151	88.25
415.374	77.25
415.597	86.25
415.821	91.25
416.044	88.25
416.267	89.25
416.49	81.25
416.713	94.25
416.936	75.25
417.159	83.25
417.382	88.25
417.605	90.25
417.828	79.25
418.051	94.25
418.274	86.25
418.497	100.25
418.72	92.25
418.943	102.25
419.166	95.25
419.389	86.25
419.611	83.25
419.834	91.25
420.057	84.25
420.28	98.25
420.503	91.25
420.726	90.25
420.948	81.25
421.171	94.25
421.394	95.25
421.617	97.25
421.839	74.25
422.062	71.25
422.285	83.25
422.507	97.25
422.73	84.25
422.953	98.25
423.175	79.25
423.398	93.25
423.621	97.25
423.843	87.25
424.066	79.25
424.288	86.25
424.511	91.25
424.733	94.25
424.956	94.25
425.178	87.25
425.401	82.25
425.623	88.25
425.846	91.25
426.068	88.25
426.291	77.25
426.513	82.25
426.735	83.25
426.958	97.25
427.18	89.25
427.402	81.25
427.625	96.25
427.847	92.25
428.069	81.25
428.292	89.25
428.514	95.25
428.736	75.25
428.958	89.25
429.181	85.25
429.403	105.25
429.625	84.25
429.847	97.25
430.069	89.25
430.292	84.25
430.514	87.25
430.736	90.25
430.958	78.25
431.18	98.25
431.402	85.25
431.624	95.25
431.846	69.25
432.068	91.25
432.29	89.25
432.512	87.25
432.734	89.25
432.956	87.25
433.178	104.25
433.4	94.25
433.622	84.25
433.844	95.25
434.066	93.25
434.287	90.25
434.509	85.25
434.731	93.25
434.953	83.25
435.175	86.25
435.397	86.25
435.618	95.25
435.84	90.25
436.062	86.25
436.284	76.25
436.505	104.25
436.727	84.25
436.949	87.25
437.17	80.25
437.392	74.25
437.614	82.25
437.835	81.25
438.057	86.25
438.278	93.25
438.5	69.25
438.721	92.25
438.943	92.25
439.165	81.25
439.386	94.25
439.608	96.25
439.829	103.25
440.05	86.25
440.272	91.25
440.493	80.25
440.715	78.25
440.936	103.25
441.158	108.25
441.379	85.25
441.6	74.25
441.822	98.25
442.043	86.25
442.264	86.25
442.486	82.25
442.707	96.25
442.928	69.25
443.149	79.25
443.371	86.25
443.592	93.25
443.813	95.25
444.034	86.25
444.255	87.25
444.476	99.25
444.698	88.25
444.919	85.25
445.14	150.25
445.361	125.25
445.582	90.25
445.803	92.25
446.024	75.25
446.245	85.25
446.466	83.25
446.687	92.25
446.908	95.25
447.129	90.25
447.35	81.25
447.571	95.25
447.792	94.25
448.013	86.25
448.234	86.25
448.455	91.25
448.675	74.25
448.896	81.25
449.117	92.25
449.338	84.25
449.559	86.25
449.779	84.25
450	74.25
450.221	92.25
450.442	94.25
450.662	71.25
450.883	88.25
451.104	96.25
451.324	90.25
451.545	92.25
451.766	86.25
451.986	74.25
452.207	85.25
452.428	93.25
452.648	88.25
452.869	84.25
453.089	78.25
453.31	89.25
453.53	93.25
453.751	80.25
453.971	80.25
454.192	81.25
454.412	91.25
454.633	85.25
454.853	80.25
455.073	86.25
455.294	82.25
455.514	98.25
455.734	97.25
455.955	73.25
456.175	83.25
456.395	89.25
456.616	83.25
456.836	80.25
457.056	90.25
457.276	94.25
457.497	84.25
457.717	88.25
457.937	83.25
458.157	102.25
458.377	92.25
458.598	82.25
458.818	86.25
459.038	78.25
459.258	84.25
459.478	98.25
459.698	82.25
459.918	81.25
460.138	104.25
460.358	99.25
460.578	89.25
460.798	93.25
461.018	83.25
461.238	94.25
461.458	92.25
461.678	89.25
461.898	94.25
462.118	86.25
462.338	82.25
462.558	99.25
462.777	94.25
462.997	100.25
463.217	84.25
463.437	73.25
463.657	81.25
463.876	87.25
464.096	95.25
464.316	91.25
464.536	93.25
464.755	97.25
464.975	98.25
465.195	90.25
465.414	92.25
465.634	83.25
465.854	81.25
466.073	100.25
466.293	88.25
466.512	77.25
466.732	93.25
466.951	95.25
467.171	87.25
467.391	96.25
467.61	87.25
467.829	79.25
468.049	83.25
468.268	85.25
468.488	107.25
468.707	95.25
468.927	87.25
469.146	76.25
469.365	89.25
469.585	106.25
469.804	90.25
470.023	84.25
470.243	82.25
470.462	89.25
470.681	80.25
470.901	75.25
471.12	86.25
471.339	89.25
471.558	82.25
471.777	102.25
471.997	70.25
472.216	87.25
472.435	97.25
472.654	88.25
472.873	95.25
473.092	94.25
473.311	83.25
473.53	93.25
473.749	101.25
473.968	98.25
474.187	86.25
474.406	91.25
474.625	94.25
474.844	85.25
475.063	75.25
475.282	92.25
475.501	100.25
475.72	98.25
475.939	86.25
476.158	90.25
476.377	95.25
476.596	90.25
476.814	78.25
477.033	88.25
477.252	102.25
477.471	108.25
477.69	81.25
477.908	86.25
478.127	92.25
478.346	93.25
478.564	94.25
478.783	105.25
479.002	93.25
479.22	72.25
479.439	82.25
479.658	73.25
479.876	87.25
480.095	86.25
480.313	94.25
480.532	78.25
480.751	98.25
480.969	88.25
481.188	84.25
481.406	99.25
481.624	93.25
481.843	79.25
482.061	93.25
482.28	91.25
482.498	85.25
482.717	95.25
482.935	91.25
483.153	89.25
483.372	78.25
483.59	92.25
483.808	102.25
484.027	101.25
484.245	91.25
484.463	92.25
484.681	99.25
484.9	88.25
485.118	95.25
485.336	86.25
485.554	86.25
485.772	90.25
485.99	98.25
486.209	103.25
486.427	94.25
486.645	94.25
486.863	75.25
487.081	103.25
487.299	80.25
487.517	89.25
487.735	99.25
487.953	93.25
488.171	99.25
488.389	82.25
488.607	79.25
488.825	86.25
489.043	88.25
489.261	101.25
489.479	106.25
489.696	100.25
489.914	95.25
490.132	89.25
490.35	76.25
490.568	82.25
490.786	89.25
491.003	90.25
491.221	91.25
491.439	96.25
491.657	93.25
491.874	86.25
492.092	94.25
492.31	87.25
492.527	106.25
492.745	74.25
492.963	82.25
493.18	85.25
493.398	94.25
493.615	96.25
493.833	95.25
494.05	92.25
494.268	111.25
494.485	96.25
494.703	84.25
494.92	94.25
495.138	90.25
495.355	106.25
495.573	98.25
495.79	104.25
496.008	94.25
496.225	79.25
496.442	99.25
496.66	86.25
496.877	82.25
497.094	94.25
497.312	100.25
497.529	90.25
497.746	106.25
497.963	91.25
498.181	92.25
498.398	91.25
498.615	107.25
498.832	89.25
499.049	108.25
499.267	108.25
499.484	110.25
499.701	104.25
499.918	97.25
500.135	114.25
500.352	110.25
500.569	120.25
500.786	118.25
501.003	103.25
501.22	98.25
501.437	102.25
501.654	102.25
501.871	98.25
502.088	112.25
502.305	80.25
502.522	105.25
502.739	86.25
502.956	110.25
503.172	90.25
503.389	82.25
503.606	92.25
503.823	93.25
504.04	91.25
504.256	80.25
504.473	97.25
504.69	79.25
504.907	98.25
505.123	90.25
505.34	89.25
505.557	87.25
505.773	90.25
505.99	82.25
506.207	71.25
506.423	89.25
506.64	90.25
506.856	90.25
507.073	82.25
507.289	100.25
507.506	86.25
507.722	94.25
507.939	100.25
508.155	100.25
508.372	82.25
508.588	85.25
508.805	94.25
509.021	99.25
509.238	86.25
509.454	94.25
509.67	89.25
509.887	83.25
510.103	82.25
510.319	90.25
510.536	111.25
510.752	78.25
510.968	86.25
511.184	94.25
511.401	76.25
511.617	96.25
511.833	100.25
512.049	91.25
512.265	81.25
512.481	80.25
512.698	80.25
512.914	94.25
513.13	79.25
513.346	86.25
513.562	95.25
513.778	99.25
513.994	90.25
514.21	111.25
514.426	95.25
514.642	87.25
514.858	94.25
515.074	105.25
515.29	85.25
515.506	91.25
515.721	99.25
515.937	90.25
516.153	96.25
516.369	79.25
516.585	94.25
516.801	96.25
517.016	99.25
517.232	92.25
517.448	104.25
517.664	105.25
517.879	99.25
518.095	94.25
518.311	88.25
518.527	108.25
518.742	94.25
518.958	92.25
519.173	94.25
519.389	89.25
519.605	96.25
519.82	88.25
520.036	93.25
520.251	96.25
520.467	88.25
520.682	105.25
520.898	90.25
521.113	89.25
521.329	95.25
521.544	98.25
521.76	83.25
521.975	100.25
522.19	76.25
522.406	81.25
522.621	106.25
522.836	92.25
523.052	84.25
523.267	81.25
523.482	86.25
523.698	90.25
523.913	91.25
524.128	80.25
524.343	88.25
524.559	91.25
524.774	84.25
524.989	90.25
525.204	83.25
525.419	89.25
525.634	93.25
525.849	92.25
526.064	89.25
526.28	88.25
526.495	82.25
526.71	97.25
526.925	103.25
527.14	110.25
527.355	104.25
527.57	86.25
527.785	77.25
527.999	91.25
528.214	116.25
528.429	93.25
528.644	95.25
528.859	92.25
529.074	88.25
529.289	83.25
529.503	101.25
529.718	98.25
529.933	82.25
530.148	86.25
530.363	96.25
530.577	88.25
530.792	86.25
531.007	91.25
531.221	92.25
531.436	75.25
531.651	103.25
531.865	86.25
532.08	72.25
532.295	93.25
532.509	96.25
532.724	82.25
532.938	97.25
533.153	95.25
533.367	82.25
533.582	91.25
533.796	95.25
534.011	92.25
534.225	94.25
534.44	86.25
534.654	95.25
534.868	106.25
535.083	84.25
535.297	82.25
535.511	87.25
535.726	81.25
535.94	81.25
536.154	102.25
536.369	94.25
536.583	85.25
536.797	92.25
537.011	95.25
537.225	92.25
537.44	93.25
537.654	87.25
537.868	99.25
538.082	91.25
538.296	89.25
538.51	89.25
538.724	86.25
538.938	76.25
539.153	85.25
539.367	94.25
539.581	99.25
539.795	108.25
540.009	90.25
540.222	99.25
540.436	91.25
540.65	82.25
540.864	90.25
541.078	95.25
541.292	79.25
541.506	89.25
541.72	107.25
541.934	79.25
542.147	90.25
542.361	92.25
542.575	80.25
542.789	103.25
543.002	75.25
543.216	96.25
543.43	93.25
543.644	93.25
543.857	95.25
544.071	80.25
544.285	91.25
544.498	94.25
544.712	75.25
544.925	84.25
545.139	92.25
545.352	85.25
545.566	88.25
545.779	74.25
545.993	92.25
546.206	86.25
546.42	83.25
546.633	88.25
546.847	97.25
547.06	92.25
547.274	96.25
547.487	83.25
547.7	104.25
547.914	85.25
548.127	91.25
548.34	92.25
548.554	82.25
548.767	81.25
548.98	97.25
549.193	90.25
549.407	92.25
549.62	88.25
549.833	101.25
550.046	77.25
550.259	104.25
550.473	95.25
550.686	97.25
550.899	97.25
551.112	92.25
551.325	91.25
551.538	94.25
551.751	99.25
551.964	74.25
552.177	90.25
552.39	87.25
552.603	87.25
552.816	91.25
553.029	93.25
553.242	72.25
553.455	90.25
553.667	97.25
553.88	90.25
554.093	88.25
554.306	91.25
554.519	96.25
554.732	99.25
554.944	97.25
555.157	102.25
555.37	89.25
555.583	96.25
555.795	82.25
556.008	89.25
556.221	91.25
556.433	90.25
556.646	82.25
556.859	94.25
557.071	102.25
557.284	97.25
557.496	88.25
557.709	83.25
557.921	97.25
558.134	96.25
558.346	81.25
558.559	88.25
558.771	90.25
558.984	92.25
559.196	95.25
559.409	87.25
559.621	74.25
559.833	88.25
560.046	80.25
560.258	86.25
560.47	92.25
560.683	96.25
560.895	86.25
561.107	97.25
561.32	98.25
561.532	87.25
561.744	72.25
561.956	78.25
562.168	90.25
562.381	92.25
562.593	91.25
562.805	83.25
563.017	91.25
563.229	85.25
563.441	80.25
563.653	80.25
563.865	83.25
564.077	90.25
564.289	89.25
564.501	92.25
564.713	97.25
564.925	96.25
565.137	84.25
565.349	103.25
565.561	94.25
565.773	88.25
565.985	98.25
566.197	95.25
566.408	90.25
566.62	90.25
566.832	97.25
567.044	79.25
567.255	93.25
567.467	72.25
567.679	91.25
567.891	103.25
568.102	74.25
568.314	88.25
568.526	88.25
568.737	88.25
568.949	100.25
569.161	81.25
569.372	82.25
569.584	83.25
569.795	91.25
570.007	84.25
570.218	89.25
570.43	104.25
570.641	86.25
570.853	82.25
571.064	87.25
571.276	84.25
571.487	87.25
571.698	78.25
571.91	98.25
572.121	86.25
572.333	96.25
572.544	79.25
572.755	89.25
572.966	85.25
573.178	87.25
573.389	104.25
573.6	94.25
573.811	87.25
574.023	91.25
574.234	95.25
574.445	91.25
574.656	100.25
574.867	90.25
575.078	87.25
575.289	80.25
575.501	99.25
575.712	77.25
575.923	76.25
576.134	100.25
576.345	85.25
576.556	94.25
576.767	81.25
576.978	82.25
577.188	105.25
577.399	86.25
577.61	81.25
577.821	91.25
578.032	88.25
578.243	90.25
578.454	70.25
578.665	90.25
578.875	78.25
579.086	95.25
579.297	61.25
579.508	69.25
579.718	106.25
579.929	95.25
580.14	80.25
580.35	82.25
580.561	82.25
580.772	70.25
580.982	80.25
581.193	98.25
581.403	93.25
581.614	92.25
581.825	86.25
582.035	76.25
582.246	78.25
582.456	84.25
582.667	80.25
582.877	98.25
583.087	73.25
583.298	84.25
583.508	102.25
583.719	94.25
583.929	96.25
584.139	97.25
584.35	86.25
584.56	97.25
584.77	90.25
584.981	87.25
585.191	87.25
585.401	85.25
585.611	90.25
585.821	86.25
586.032	86.25
586.242	88.25
586.452	76.25
586.662	97.25
586.872	84.25
587.082	75.25
587.292	81.25
587.502	87.25
587.713	85.25
587.923	84.25
588.133	92.25
588.343	77.25
588.553	86.25
588.762	91.25
588.972	101.25
589.182	87.25
589.392	90.25
589.602	101.25
589.812	81.25
590.022	90.25
590.232	90.25
590.441	88.25
590.651	91.25
590.861	87.25
591.071	91.25
591.281	69.25
591.49	86.25
591.7	88.25
591.91	87.25
592.119	87.25
592.329	95.25
592.539	73.25
592.748	79.25
592.958	87.25
593.167	95.25
593.377	90.25
593.587	94.25
593.796	94.25
594.006	87.25
594.215	83.25
594.424	95.25
594.634	89.25
594.843	94.25
595.053	91.25
595.262	82.25
595.472	89.25
595.681	83.25
595.89	92.25
596.1	78.25
596.309	88.25
596.518	81.25
596.727	106.25
596.937	87.25
597.146	86.25
597.355	87.25
597.564	89.25
597.774	88.25
597.983	99.25
598.192	79.25
598.401	92.25
598.61	82.25
598.819	90.25
599.028	86.25
599.237	94.25
599.446	83.25
599.655	90.25
599.864	80.25
600.073	97.25
600.282	86.25
600.491	86.25
600.7	91.25
600.909	75.25
601.118	82.25
601.327	87.25
601.536	77.25
601.745	88.25
601.953	80.25
602.162	86.25
602.371	87.25
602.58	98.25
602.789	90.25
602.997	87.25
603.206	96.25
603.415	89.25
603.623	81.25
603.832	95.25
604.041	92.25
604.249	71.25
604.458	93.25
604.666	86.25
604.875	89.25
605.084	81.25
605.292	81.25
605.501	88.25
605.709	90.25
605.918	99.25
606.126	93.25
606.334	99.25
606.543	102.25
606.751	84.25
606.96	96.25
607.168	88.25
607.376	94.25
607.585	102.25
607.793	68.25
608.001	86.25
608.21	99.25
608.418	81.25
608.626	84.25
608.834	64.25
609.043	88.25
609.251	86.25
609.459	82.25
609.667	79.25
609.875	89.25
610.083	96.25
610.291	91.25
610.499	78.25
610.707	75.25
610.916	69.25
611.124	63.25
611.332	76.25
611.54	82.25
611.748	81.25
611.955	92.25
612.163	82.25
612.371	87.25
612.579	89.25
612.787	83.25
612.995	97.25
613.203	79.25
613.411	80.25
613.618	69.25
613.826	80.25
614.034	87.25
614.242	93.25
614.449	78.25
614.657	95.25
614.865	81.25
615.072	95.25
615.28	92.25
615.488	96.25
615.695	98.25
615.903	90.25
616.111	76.25
616.318	89.25
616.526	90.25
616.733	77.25
616.941	75.25
617.148	87.25
617.356	86.25
617.563	95.25
617.771	80.25
617.978	85.25
618.185	81.25
618.393	78.25
618.6	89.25
618.807	83.25
619.015	88.25
619.222	90.25
619.429	86.25
619.637	96.25
619.844	80.25
620.051	81.25
620.258	92.25
620.466	82.25
620.673	83.25
620.88	80.25
621.087	77.25
621.294	82.25
621.501	91.25
621.708	69.25
621.915	91.25
622.122	80.25
622.329	68.25
622.536	81.25
622.743	67.25
622.95	91.25
623.157	87.25
623.364	85.25
623.571	77.25
623.778	90.25
623.985	99.25
624.192	86.25
624.399	83.25
624.606	88.25
624.812	79.25
625.019	90.25
625.226	102.25
625.433	76.25
625.639	85.25
625.846	78.25
626.053	92.25
626.259	80.25
626.466	82.25
626.673	85.25
626.879	78.25
627.086	87.25
627.293	83.25
627.499	93.25
627.706	82.25
627.912	80.25
628.119	75.25
628.325	87.25
628.532	96.25
628.738	88.25
628.945	81.25
629.151	74.25
629.357	75.25
629.564	81.25
629.77	91.25
629.976	74.25
630.183	74.25
630.389	80.25
630.595	92.25
630.802	90.25
631.008	81.25
631.214	90.25
631.42	68.25
631.627	79.25
631.833	80.25
632.039	95.25
632.245	74.25
632.451	99.25
632.657	72.25
632.863	81.25
633.069	89.25
633.275	89.25
633.481	70.25
633.688	86.25
633.893	90.25
634.099	87.25
634.305	88.25
634.511	78.25
634.717	66.25
634.923	82.25
635.129	85.25
635.335	76.25
635.541	72.25
635.747	75.25
635.952	90.25
636.158	87.25
636.364	92.25
636.57	78.25
636.775	83.25
636.981	88.25
637.187	72.25
637.392	71.25
637.598	80.25
637.804	83.25
638.009	95.25
638.215	93.25
638.421	58.25
638.626	69.25
638.832	85.25
639.037	71.25
639.243	80.25
639.448	89.25
639.654	89.25
639.859	79.25
640.065	84.25
640.27	74.25
640.475	83.25
640.681	80.25
640.886	89.25
641.091	84.25
641.297	76.25
641.502	88.25
641.707	90.25
641.913	86.25
642.118	86.25
642.323	67.25
642.528	99.25
642.733	86.25
642.939	80.25
643.144	78.25
643.349	89.25
643.554	92.25
643.759	75.25
643.964	79.25
644.169	88.25
644.374	87.25
644.579	87.25
644.784	85.25
644.989	112.25
645.194	97.25
645.399	98.25
645.604	74.25
645.809	90.25
646.014	80.25
646.219	81.25
646.423	67.25
646.628	97.25
646.833	77.25
647.038	82.25
647.243	66.25
647.447	86.25
647.652	83.25
647.857	67.25
648.062	86.25
648.266	78.25
648.471	82.25
648.676	94.25
648.88	88.25
649.085	85.25
649.289	93.25
649.494	81.25
649.698	67.25
649.903	82.25
650.107	81.25
650.312	96.25
650.516	87.25
650.721	94.25
650.925	93.25
651.13	91.25
651.334	84.25
651.539	80.25
651.743	88.25
651.947	86.25
652.152	82.25
652.356	91.25
652.56	78.25
652.764	74.25
652.969	89.25
653.173	90.25
653.377	99.25
653.581	88.25
653.785	86.25
653.99	87.25
654.194	81.25
654.398	74.25
654.602	73.25
654.806	72.25
655.01	84.25
655.214	81.25
655.418	86.25
655.622	77.25
655.826	76.25
656.03	83.25
656.234	85.25
656.438	83.25
656.642	93.25
656.846	78.25
657.049	79.25
657.253	82.25
657.457	72.25
657.661	78.25
657.865	80.25
658.068	83.25
658.272	95.25
658.476	72.25
658.68	81.25
658.883	76.25
659.087	87.25
659.291	89.25
659.494	96.25
659.698	91.25
659.901	72.25
660.105	74.25
660.309	87.25
660.512	79.25
660.716	95.25
660.919	80.25
661.123	73.25
661.326	72.25
661.53	80.25
661.733	94.25
661.936	81.25
662.14	79.25
662.343	74.25
662.546	79.25
662.75	86.25
662.953	82.25
663.156	71.25
663.36	91.25
663.563	69.25
663.766	78.25
663.969	83.25
664.173	77.25
664.376	82.25
664.579	77.25
664.782	71.25
664.985	87.25
665.188	74.25
665.391	87.25
665.594	82.25
665.797	79.25
666	79.25
666.203	84.25
666.406	88.25
666.609	71.25
666.812	87.25
667.015	82.25
667.218	78.25
667.421	79.25
667.624	84.25
667.827	78.25
668.03	73.25
668.232	82.25
668.435	77.25
668.638	83.25
668.841	90.25
669.043	80.25
669.246	96.25
669.449	89.25
669.651	84.25
669.854	88.25
670.057	72.25
670.259	89.25
670.462	89.25
670.665	87.25
670.867	88.25
671.07	77.25
671.272	97.25
671.475	85.25
671.677	81.25
671.88	78.25
672.082	71.25
672.284	64.25
672.487	80.25
672.689	84.25
672.892	79.25
