Data from BG_HRD10591_042.txt Node
Date: Fri May 16 15:27:08 EDT 2025
User: Yrep
Spectrometer: HR+D1059
Trigger mode: 1
Integration Time (sec): 1.000000E-1
Scans to average: 1
Electric dark correction enabled: true
Nonlinearity correction enabled: false
Boxcar width: 0
XAxis mode: Wavelengths
Number of Pixels in Spectrum: 2048
>>>>>Begin Spectral Data<<<<<
223.165	-21.81
223.4	-21.81
223.635	-21.81
223.869	-23.81
224.104	-16.81
224.338	-8.81
224.573	-29.81
224.808	1.19
225.042	-9.81
225.277	-24.81
225.511	8.19
225.746	14.19
225.98	7.19
226.215	6.19
226.449	-0.81
226.683	29.19
226.918	26.19
227.152	44.19
227.387	38.19
227.621	37.19
227.856	39.19
228.09	52.19
228.324	57.19
228.559	51.19
228.793	61.19
229.027	60.19
229.262	62.19
229.496	80.19
229.73	86.19
229.964	78.19
230.199	80.19
230.433	64.19
230.667	58.19
230.901	62.19
231.136	78.19
231.37	79.19
231.604	78.19
231.838	78.19
232.072	90.19
232.306	79.19
232.541	86.19
232.775	78.19
233.009	78.19
233.243	71.19
233.477	86.19
233.711	75.19
233.945	98.19
234.179	77.19
234.413	76.19
234.647	87.19
234.881	92.19
235.115	84.19
235.349	84.19
235.583	79.19
235.817	88.19
236.051	86.19
236.285	63.19
236.519	80.19
236.753	84.19
236.987	64.19
237.221	74.19
237.455	71.19
237.689	82.19
237.922	87.19
238.156	80.19
238.39	67.19
238.624	80.19
238.858	65.19
239.091	64.19
239.325	77.19
239.559	83.19
239.793	72.19
240.027	81.19
240.26	74.19
240.494	68.19
240.728	68.19
240.961	77.19
241.195	90.19
241.429	78.19
241.662	72.19
241.896	76.19
242.13	82.19
242.363	72.19
242.597	82.19
242.83	76.19
243.064	73.19
243.298	69.19
243.531	75.19
243.765	88.19
243.998	79.19
244.232	73.19
244.465	85.19
244.699	79.19
244.932	60.19
245.166	66.19
245.399	78.19
245.633	99.19
245.866	82.19
246.099	78.19
246.333	83.19
246.566	69.19
246.8	87.19
247.033	79.19
247.266	67.19
247.5	92.19
247.733	81.19
247.966	74.19
248.2	81.19
248.433	79.19
248.666	72.19
248.899	83.19
249.133	70.19
249.366	86.19
249.599	68.19
249.832	82.19
250.066	75.19
250.299	79.19
250.532	74.19
250.765	79.19
250.998	72.19
251.231	59.19
251.465	65.19
251.698	88.19
251.931	70.19
252.164	83.19
252.397	82.19
252.63	85.19
252.863	76.19
253.096	79.19
253.329	85.19
253.562	76.19
253.795	78.19
254.028	85.19
254.261	74.19
254.494	74.19
254.727	67.19
254.96	85.19
255.193	82.19
255.426	84.19
255.659	70.19
255.892	94.19
256.124	80.19
256.357	80.19
256.59	82.19
256.823	87.19
257.056	86.19
257.289	78.19
257.521	72.19
257.754	74.19
257.987	89.19
258.22	67.19
258.452	87.19
258.685	78.19
258.918	74.19
259.151	88.19
259.383	80.19
259.616	87.19
259.849	89.19
260.081	74.19
260.314	74.19
260.547	83.19
260.779	80.19
261.012	86.19
261.244	80.19
261.477	84.19
261.71	86.19
261.942	80.19
262.175	92.19
262.407	93.19
262.64	72.19
262.872	85.19
263.105	89.19
263.337	91.19
263.57	80.19
263.802	77.19
264.035	81.19
264.267	87.19
264.499	68.19
264.732	99.19
264.964	74.19
265.197	81.19
265.429	91.19
265.661	94.19
265.894	82.19
266.126	95.19
266.358	84.19
266.591	84.19
266.823	93.19
267.055	84.19
267.287	83.19
267.52	80.19
267.752	74.19
267.984	70.19
268.216	96.19
268.448	86.19
268.681	84.19
268.913	88.19
269.145	87.19
269.377	79.19
269.609	83.19
269.841	88.19
270.073	76.19
270.306	70.19
270.538	88.19
270.77	81.19
271.002	90.19
271.234	83.19
271.466	78.19
271.698	79.19
271.93	73.19
272.162	81.19
272.394	78.19
272.626	82.19
272.858	89.19
273.09	78.19
273.322	77.19
273.553	85.19
273.785	87.19
274.017	89.19
274.249	86.19
274.481	80.19
274.713	91.19
274.945	83.19
275.176	94.19
275.408	82.19
275.64	95.19
275.872	89.19
276.104	88.19
276.335	82.19
276.567	77.19
276.799	101.19
277.031	91.19
277.262	90.19
277.494	91.19
277.726	86.19
277.957	88.19
278.189	94.19
278.421	80.19
278.652	82.19
278.884	85.19
279.115	89.19
279.347	82.19
279.579	95.19
279.81	64.19
280.042	82.19
280.273	74.19
280.505	78.19
280.736	73.19
280.968	91.19
281.199	87.19
281.431	78.19
281.662	99.19
281.894	87.19
282.125	80.19
282.356	89.19
282.588	89.19
282.819	96.19
283.051	102.19
283.282	69.19
283.513	86.19
283.745	95.19
283.976	88.19
284.207	85.19
284.439	84.19
284.67	78.19
284.901	87.19
285.132	89.19
285.364	72.19
285.595	80.19
285.826	90.19
286.057	95.19
286.288	78.19
286.52	69.19
286.751	80.19
286.982	92.19
287.213	89.19
287.444	84.19
287.675	88.19
287.906	92.19
288.138	87.19
288.369	82.19
288.6	80.19
288.831	84.19
289.062	92.19
289.293	90.19
289.524	97.19
289.755	87.19
289.986	87.19
290.217	89.19
290.448	86.19
290.679	83.19
290.91	83.19
291.141	83.19
291.371	79.19
291.602	89.19
291.833	85.19
292.064	94.19
292.295	86.19
292.526	84.19
292.757	82.19
292.987	88.19
293.218	84.19
293.449	104.19
293.68	84.19
293.91	81.19
294.141	81.19
294.372	96.19
294.603	86.19
294.833	82.19
295.064	89.19
295.295	83.19
295.525	58.19
295.756	94.19
295.987	93.19
296.217	83.19
296.448	85.19
296.679	75.19
296.909	89.19
297.14	92.19
297.37	94.19
297.601	96.19
297.831	78.19
298.062	89.19
298.292	92.19
298.523	81.19
298.753	84.19
298.984	90.19
299.214	85.19
299.445	74.19
299.675	80.19
299.905	74.19
300.136	92.19
300.366	98.19
300.597	89.19
300.827	71.19
301.057	85.19
301.288	90.19
301.518	84.19
301.748	102.19
301.979	110.19
302.209	89.19
302.439	84.19
302.669	85.19
302.9	96.19
303.13	77.19
303.36	87.19
303.59	81.19
303.82	74.19
304.051	82.19
304.281	88.19
304.511	98.19
304.741	92.19
304.971	88.19
305.201	88.19
305.431	86.19
305.661	90.19
305.891	94.19
306.121	92.19
306.352	86.19
306.582	84.19
306.812	84.19
307.042	78.19
307.272	86.19
307.502	95.19
307.731	98.19
307.961	76.19
308.191	88.19
308.421	87.19
308.651	83.19
308.881	89.19
309.111	74.19
309.341	80.19
309.571	76.19
309.8	79.19
310.03	87.19
310.26	97.19
310.49	83.19
310.72	98.19
310.949	89.19
311.179	78.19
311.409	70.19
311.639	83.19
311.868	87.19
312.098	91.19
312.328	91.19
312.557	98.19
312.787	87.19
313.017	75.19
313.246	107.19
313.476	92.19
313.706	104.19
313.935	73.19
314.165	95.19
314.394	95.19
314.624	84.19
314.853	63.19
315.083	82.19
315.312	75.19
315.542	93.19
315.771	88.19
316.001	77.19
316.23	98.19
316.46	84.19
316.689	99.19
316.919	78.19
317.148	88.19
317.377	84.19
317.607	87.19
317.836	83.19
318.065	83.19
318.295	98.19
318.524	78.19
318.753	73.19
318.983	75.19
319.212	86.19
319.441	85.19
319.67	88.19
319.9	78.19
320.129	80.19
320.358	99.19
320.587	100.19
320.816	94.19
321.046	91.19
321.275	96.19
321.504	84.19
321.733	86.19
321.962	104.19
322.191	100.19
322.42	86.19
322.649	70.19
322.878	78.19
323.108	83.19
323.337	98.19
323.566	94.19
323.795	80.19
324.024	82.19
324.253	82.19
324.482	87.19
324.71	90.19
324.939	83.19
325.168	77.19
325.397	80.19
325.626	101.19
325.855	98.19
326.084	101.19
326.313	95.19
326.542	90.19
326.77	87.19
326.999	87.19
327.228	77.19
327.457	79.19
327.686	66.19
327.914	80.19
328.143	92.19
328.372	72.19
328.6	78.19
328.829	78.19
329.058	91.19
329.287	86.19
329.515	95.19
329.744	86.19
329.972	87.19
330.201	97.19
330.43	84.19
330.658	88.19
330.887	63.19
331.115	83.19
331.344	89.19
331.572	102.19
331.801	84.19
332.03	81.19
332.258	78.19
332.486	84.19
332.715	73.19
332.943	78.19
333.172	95.19
333.4	80.19
333.629	86.19
333.857	88.19
334.085	94.19
334.314	107.19
334.542	96.19
334.771	91.19
334.999	86.19
335.227	78.19
335.455	82.19
335.684	87.19
335.912	75.19
336.14	83.19
336.369	82.19
336.597	90.19
336.825	94.19
337.053	94.19
337.281	97.19
337.51	84.19
337.738	76.19
337.966	95.19
338.194	81.19
338.422	88.19
338.65	81.19
338.878	90.19
339.106	93.19
339.334	88.19
339.562	70.19
339.79	85.19
340.018	93.19
340.246	95.19
340.474	90.19
340.702	92.19
340.93	90.19
341.158	94.19
341.386	95.19
341.614	78.19
341.842	84.19
342.07	80.19
342.298	91.19
342.526	102.19
342.754	96.19
342.981	81.19
343.209	71.19
343.437	98.19
343.665	74.19
343.893	84.19
344.12	104.19
344.348	98.19
344.576	98.19
344.804	99.19
345.031	91.19
345.259	70.19
345.487	106.19
345.714	85.19
345.942	80.19
346.17	73.19
346.397	92.19
346.625	70.19
346.853	77.19
347.08	88.19
347.308	84.19
347.535	77.19
347.763	79.19
347.99	83.19
348.218	94.19
348.445	84.19
348.673	86.19
348.9	96.19
349.128	89.19
349.355	79.19
349.583	102.19
349.81	81.19
350.037	79.19
350.265	91.19
350.492	75.19
350.72	74.19
350.947	91.19
351.174	83.19
351.402	88.19
351.629	70.19
351.856	85.19
352.083	84.19
352.311	84.19
352.538	83.19
352.765	88.19
352.992	92.19
353.22	86.19
353.447	86.19
353.674	83.19
353.901	92.19
354.128	72.19
354.355	78.19
354.583	87.19
354.81	95.19
355.037	100.19
355.264	92.19
355.491	96.19
355.718	82.19
355.945	75.19
356.172	98.19
356.399	86.19
356.626	77.19
356.853	86.19
357.08	93.19
357.307	83.19
357.534	72.19
357.761	101.19
357.988	100.19
358.215	94.19
358.441	90.19
358.668	88.19
358.895	90.19
359.122	85.19
359.349	86.19
359.576	78.19
359.802	78.19
360.029	79.19
360.256	86.19
360.483	84.19
360.709	74.19
360.936	101.19
361.163	92.19
361.39	79.19
361.616	72.19
361.843	91.19
362.07	78.19
362.296	86.19
362.523	83.19
362.749	82.19
362.976	87.19
363.203	97.19
363.429	88.19
363.656	78.19
363.882	100.19
364.109	92.19
364.335	94.19
364.562	92.19
364.788	79.19
365.015	87.19
365.241	93.19
365.468	92.19
365.694	72.19
365.92	98.19
366.147	86.19
366.373	74.19
366.599	93.19
366.826	82.19
367.052	86.19
367.278	85.19
367.505	94.19
367.731	84.19
367.957	74.19
368.184	82.19
368.41	96.19
368.636	102.19
368.862	98.19
369.089	80.19
369.315	88.19
369.541	76.19
369.767	78.19
369.993	73.19
370.219	76.19
370.445	69.19
370.672	94.19
370.898	82.19
371.124	69.19
371.35	83.19
371.576	94.19
371.802	92.19
372.028	83.19
372.254	75.19
372.48	73.19
372.706	74.19
372.932	76.19
373.158	93.19
373.384	82.19
373.61	79.19
373.835	89.19
374.061	91.19
374.287	83.19
374.513	81.19
374.739	90.19
374.965	90.19
375.191	80.19
375.416	82.19
375.642	84.19
375.868	87.19
376.094	78.19
376.319	73.19
376.545	88.19
376.771	77.19
376.997	91.19
377.222	85.19
377.448	98.19
377.674	95.19
377.899	92.19
378.125	80.19
378.35	82.19
378.576	87.19
378.802	88.19
379.027	86.19
379.253	82.19
379.478	94.19
379.704	88.19
379.929	76.19
380.155	76.19
380.38	101.19
380.606	82.19
380.831	87.19
381.057	83.19
381.282	73.19
381.507	83.19
381.733	84.19
381.958	74.19
382.184	75.19
382.409	81.19
382.634	93.19
382.86	92.19
383.085	79.19
383.31	76.19
383.535	81.19
383.761	101.19
383.986	89.19
384.211	83.19
384.436	93.19
384.662	80.19
384.887	90.19
385.112	89.19
385.337	100.19
385.562	87.19
385.787	80.19
386.013	72.19
386.238	93.19
386.463	82.19
386.688	94.19
386.913	83.19
387.138	86.19
387.363	84.19
387.588	102.19
387.813	88.19
388.038	76.19
388.263	74.19
388.488	94.19
388.713	91.19
388.938	91.19
389.163	84.19
389.387	90.19
389.612	87.19
389.837	89.19
390.062	80.19
390.287	91.19
390.512	85.19
390.736	86.19
390.961	96.19
391.186	86.19
391.411	84.19
391.636	87.19
391.86	84.19
392.085	90.19
392.31	90.19
392.534	88.19
392.759	81.19
392.984	77.19
393.208	102.19
393.433	86.19
393.658	75.19
393.882	88.19
394.107	87.19
394.331	88.19
394.556	80.19
394.78	66.19
395.005	77.19
395.229	78.19
395.454	82.19
395.678	80.19
395.903	91.19
396.127	90.19
396.352	90.19
396.576	91.19
396.801	83.19
397.025	103.19
397.249	94.19
397.474	94.19
397.698	83.19
397.922	89.19
398.147	86.19
398.371	91.19
398.595	85.19
398.82	95.19
399.044	105.19
399.268	96.19
399.492	86.19
399.717	100.19
399.941	83.19
400.165	80.19
400.389	89.19
400.613	83.19
400.837	86.19
401.062	77.19
401.286	84.19
401.51	82.19
401.734	86.19
401.958	101.19
402.182	89.19
402.406	74.19
402.63	82.19
402.854	81.19
403.078	102.19
403.302	101.19
403.526	100.19
403.75	82.19
403.974	83.19
404.198	88.19
404.422	90.19
404.645	90.19
404.869	75.19
405.093	87.19
405.317	90.19
405.541	90.19
405.765	94.19
405.988	89.19
406.212	92.19
406.436	73.19
406.66	92.19
406.883	96.19
407.107	80.19
407.331	90.19
407.555	96.19
407.778	104.19
408.002	87.19
408.226	90.19
408.449	91.19
408.673	80.19
408.896	94.19
409.12	82.19
409.344	102.19
409.567	83.19
409.791	79.19
410.014	87.19
410.238	80.19
410.461	90.19
410.685	90.19
410.908	87.19
411.132	93.19
411.355	87.19
411.578	96.19
411.802	81.19
412.025	84.19
412.249	83.19
412.472	84.19
412.695	81.19
412.919	83.19
413.142	94.19
413.365	83.19
413.589	90.19
413.812	90.19
414.035	75.19
414.258	76.19
414.482	86.19
414.705	85.19
414.928	101.19
415.151	102.19
415.374	90.19
415.597	85.19
415.821	93.19
416.044	80.19
416.267	83.19
416.49	94.19
416.713	100.19
416.936	93.19
417.159	83.19
417.382	72.19
417.605	79.19
417.828	72.19
418.051	87.19
418.274	99.19
418.497	80.19
418.72	100.19
418.943	98.19
419.166	87.19
419.389	82.19
419.611	84.19
419.834	79.19
420.057	89.19
420.28	80.19
420.503	87.19
420.726	98.19
420.948	80.19
421.171	94.19
421.394	80.19
421.617	76.19
421.839	84.19
422.062	94.19
422.285	83.19
422.507	86.19
422.73	84.19
422.953	73.19
423.175	78.19
423.398	93.19
423.621	84.19
423.843	86.19
424.066	79.19
424.288	104.19
424.511	78.19
424.733	87.19
424.956	94.19
425.178	92.19
425.401	86.19
425.623	90.19
425.846	83.19
426.068	86.19
426.291	86.19
426.513	84.19
426.735	83.19
426.958	88.19
427.18	94.19
427.402	95.19
427.625	84.19
427.847	86.19
428.069	98.19
428.292	75.19
428.514	73.19
428.736	99.19
428.958	72.19
429.181	91.19
429.403	78.19
429.625	91.19
429.847	74.19
430.069	86.19
430.292	84.19
430.514	80.19
430.736	94.19
430.958	99.19
431.18	91.19
431.402	92.19
431.624	85.19
431.846	68.19
432.068	74.19
432.29	92.19
432.512	94.19
432.734	95.19
432.956	94.19
433.178	86.19
433.4	91.19
433.622	77.19
433.844	85.19
434.066	85.19
434.287	85.19
434.509	89.19
434.731	79.19
434.953	89.19
435.175	97.19
435.397	93.19
435.618	84.19
435.84	90.19
436.062	92.19
436.284	79.19
436.505	94.19
436.727	91.19
436.949	73.19
437.17	86.19
437.392	100.19
437.614	88.19
437.835	88.19
438.057	78.19
438.278	74.19
438.5	74.19
438.721	81.19
438.943	92.19
439.165	80.19
439.386	82.19
439.608	83.19
439.829	80.19
440.05	84.19
440.272	87.19
440.493	87.19
440.715	94.19
440.936	86.19
441.158	74.19
441.379	86.19
441.6	78.19
441.822	84.19
442.043	89.19
442.264	103.19
442.486	96.19
442.707	78.19
442.928	83.19
443.149	80.19
443.371	81.19
443.592	95.19
443.813	86.19
444.034	79.19
444.255	87.19
444.476	86.19
444.698	80.19
444.919	80.19
445.14	147.19
445.361	118.19
445.582	92.19
445.803	74.19
446.024	86.19
446.245	88.19
446.466	90.19
446.687	90.19
446.908	98.19
447.129	91.19
447.35	92.19
447.571	83.19
447.792	90.19
448.013	86.19
448.234	83.19
448.455	82.19
448.675	84.19
448.896	86.19
449.117	98.19
449.338	88.19
449.559	93.19
449.779	89.19
450	80.19
450.221	84.19
450.442	90.19
450.662	82.19
450.883	83.19
451.104	107.19
451.324	101.19
451.545	87.19
451.766	86.19
451.986	90.19
452.207	83.19
452.428	93.19
452.648	85.19
452.869	84.19
453.089	71.19
453.31	87.19
453.53	75.19
453.751	91.19
453.971	86.19
454.192	79.19
454.412	94.19
454.633	83.19
454.853	94.19
455.073	90.19
455.294	80.19
455.514	85.19
455.734	89.19
455.955	85.19
456.175	88.19
456.395	87.19
456.616	89.19
456.836	75.19
457.056	72.19
457.276	79.19
457.497	77.19
457.717	79.19
457.937	78.19
458.157	84.19
458.377	80.19
458.598	78.19
458.818	72.19
459.038	88.19
459.258	71.19
459.478	86.19
459.698	86.19
459.918	86.19
460.138	86.19
460.358	91.19
460.578	95.19
460.798	80.19
461.018	100.19
461.238	75.19
461.458	98.19
461.678	74.19
461.898	93.19
462.118	83.19
462.338	82.19
462.558	90.19
462.777	88.19
462.997	96.19
463.217	87.19
463.437	84.19
463.657	82.19
463.876	93.19
464.096	97.19
464.316	85.19
464.536	78.19
464.755	93.19
464.975	85.19
465.195	76.19
465.414	76.19
465.634	85.19
465.854	91.19
466.073	95.19
466.293	80.19
466.512	79.19
466.732	91.19
466.951	94.19
467.171	78.19
467.391	101.19
467.61	75.19
467.829	78.19
468.049	77.19
468.268	87.19
468.488	85.19
468.707	72.19
468.927	74.19
469.146	70.19
469.365	92.19
469.585	90.19
469.804	93.19
470.023	83.19
470.243	82.19
470.462	82.19
470.681	93.19
470.901	75.19
471.12	81.19
471.339	82.19
471.558	80.19
471.777	84.19
471.997	94.19
472.216	99.19
472.435	78.19
472.654	79.19
472.873	72.19
473.092	89.19
473.311	102.19
473.53	100.19
473.749	90.19
473.968	80.19
474.187	91.19
474.406	87.19
474.625	84.19
474.844	88.19
475.063	102.19
475.282	82.19
475.501	91.19
475.72	88.19
475.939	78.19
476.158	86.19
476.377	87.19
476.596	87.19
476.814	88.19
477.033	100.19
477.252	84.19
477.471	94.19
477.69	86.19
477.908	78.19
478.127	96.19
478.346	98.19
478.564	90.19
478.783	93.19
479.002	86.19
479.22	76.19
479.439	96.19
479.658	83.19
479.876	91.19
480.095	78.19
480.313	98.19
480.532	78.19
480.751	92.19
480.969	90.19
481.188	84.19
481.406	80.19
481.624	91.19
481.843	88.19
482.061	92.19
482.28	85.19
482.498	86.19
482.717	94.19
482.935	88.19
483.153	92.19
483.372	106.19
483.59	84.19
483.808	86.19
484.027	87.19
484.245	86.19
484.463	86.19
484.681	88.19
484.9	86.19
485.118	87.19
485.336	79.19
485.554	80.19
485.772	89.19
485.99	78.19
486.209	82.19
486.427	80.19
486.645	96.19
486.863	94.19
487.081	79.19
487.299	79.19
487.517	94.19
487.735	88.19
487.953	92.19
488.171	104.19
488.389	86.19
488.607	90.19
488.825	84.19
489.043	89.19
489.261	86.19
489.479	82.19
489.696	80.19
489.914	94.19
490.132	89.19
490.35	78.19
490.568	84.19
490.786	82.19
491.003	84.19
491.221	84.19
491.439	84.19
491.657	73.19
491.874	97.19
492.092	90.19
492.31	92.19
492.527	97.19
492.745	88.19
492.963	85.19
493.18	86.19
493.398	83.19
493.615	93.19
493.833	77.19
494.05	81.19
494.268	94.19
494.485	80.19
494.703	92.19
494.92	85.19
495.138	84.19
495.355	83.19
495.573	88.19
495.79	95.19
496.008	95.19
496.225	76.19
496.442	94.19
496.66	93.19
496.877	88.19
497.094	91.19
497.312	79.19
497.529	90.19
497.746	92.19
497.963	93.19
498.181	102.19
498.398	105.19
498.615	88.19
498.832	102.19
499.049	101.19
499.267	88.19
499.484	98.19
499.701	93.19
499.918	91.19
500.135	107.19
500.352	115.19
500.569	95.19
500.786	116.19
501.003	119.19
501.22	83.19
501.437	99.19
501.654	100.19
501.871	88.19
502.088	82.19
502.305	103.19
502.522	108.19
502.739	99.19
502.956	93.19
503.172	110.19
503.389	84.19
503.606	100.19
503.823	96.19
504.04	82.19
504.256	91.19
504.473	86.19
504.69	86.19
504.907	95.19
505.123	93.19
505.34	102.19
505.557	95.19
505.773	76.19
505.99	82.19
506.207	81.19
506.423	84.19
506.64	63.19
506.856	87.19
507.073	94.19
507.289	87.19
507.506	82.19
507.722	95.19
507.939	77.19
508.155	83.19
508.372	104.19
508.588	93.19
508.805	82.19
509.021	93.19
509.238	94.19
509.454	71.19
509.67	102.19
509.887	79.19
510.103	77.19
510.319	89.19
510.536	87.19
510.752	86.19
510.968	85.19
511.184	80.19
511.401	88.19
511.617	107.19
511.833	59.19
512.049	83.19
512.265	102.19
512.481	79.19
512.698	84.19
512.914	99.19
513.13	95.19
513.346	92.19
513.562	88.19
513.778	87.19
513.994	89.19
514.21	95.19
514.426	98.19
514.642	84.19
514.858	86.19
515.074	82.19
515.29	80.19
515.506	80.19
515.721	85.19
515.937	88.19
516.153	99.19
516.369	107.19
516.585	87.19
516.801	104.19
517.016	88.19
517.232	93.19
517.448	104.19
517.664	88.19
517.879	87.19
518.095	104.19
518.311	93.19
518.527	82.19
518.742	81.19
518.958	87.19
519.173	84.19
519.389	81.19
519.605	89.19
519.82	91.19
520.036	85.19
520.251	86.19
520.467	75.19
520.682	83.19
520.898	84.19
521.113	79.19
521.329	84.19
521.544	87.19
521.76	87.19
521.975	71.19
522.19	105.19
522.406	100.19
522.621	90.19
522.836	92.19
523.052	98.19
523.267	77.19
523.482	86.19
523.698	80.19
523.913	89.19
524.128	86.19
524.343	80.19
524.559	82.19
524.774	92.19
524.989	83.19
525.204	92.19
525.419	96.19
525.634	89.19
525.849	90.19
526.064	76.19
526.28	91.19
526.495	84.19
526.71	93.19
526.925	82.19
527.14	98.19
527.355	91.19
527.57	90.19
527.785	81.19
527.999	99.19
528.214	85.19
528.429	83.19
528.644	87.19
528.859	90.19
529.074	91.19
529.289	75.19
529.503	74.19
529.718	95.19
529.933	82.19
530.148	86.19
530.363	88.19
530.577	85.19
530.792	89.19
531.007	92.19
531.221	89.19
531.436	80.19
531.651	108.19
531.865	86.19
532.08	88.19
532.295	101.19
532.509	78.19
532.724	86.19
532.938	94.19
533.153	84.19
533.367	83.19
533.582	104.19
533.796	81.19
534.011	87.19
534.225	95.19
534.44	98.19
534.654	80.19
534.868	86.19
535.083	85.19
535.297	90.19
535.511	87.19
535.726	77.19
535.94	91.19
536.154	92.19
536.369	89.19
536.583	93.19
536.797	95.19
537.011	76.19
537.225	92.19
537.44	96.19
537.654	91.19
537.868	98.19
538.082	79.19
538.296	85.19
538.51	71.19
538.724	92.19
538.938	78.19
539.153	90.19
539.367	98.19
539.581	84.19
539.795	96.19
540.009	82.19
540.222	88.19
540.436	94.19
540.65	78.19
540.864	84.19
541.078	84.19
541.292	90.19
541.506	88.19
541.72	91.19
541.934	83.19
542.147	78.19
542.361	68.19
542.575	82.19
542.789	94.19
543.002	83.19
543.216	79.19
543.43	89.19
543.644	88.19
543.857	89.19
544.071	86.19
544.285	100.19
544.498	98.19
544.712	100.19
544.925	91.19
545.139	81.19
545.352	89.19
545.566	84.19
545.779	90.19
545.993	93.19
546.206	71.19
546.42	91.19
546.633	94.19
546.847	87.19
547.06	92.19
547.274	94.19
547.487	86.19
547.7	90.19
547.914	89.19
548.127	85.19
548.34	94.19
548.554	81.19
548.767	92.19
548.98	81.19
549.193	82.19
549.407	86.19
549.62	92.19
549.833	86.19
550.046	61.19
550.259	74.19
550.473	103.19
550.686	90.19
550.899	74.19
551.112	94.19
551.325	95.19
551.538	84.19
551.751	72.19
551.964	89.19
552.177	92.19
552.39	89.19
552.603	78.19
552.816	92.19
553.029	92.19
553.242	93.19
553.455	83.19
553.667	106.19
553.88	83.19
554.093	87.19
554.306	84.19
554.519	99.19
554.732	86.19
554.944	91.19
555.157	89.19
555.37	74.19
555.583	88.19
555.795	83.19
556.008	83.19
556.221	94.19
556.433	88.19
556.646	88.19
556.859	79.19
557.071	83.19
557.284	96.19
557.496	91.19
557.709	88.19
557.921	85.19
558.134	86.19
558.346	75.19
558.559	80.19
558.771	85.19
558.984	85.19
559.196	89.19
559.409	96.19
559.621	90.19
559.833	87.19
560.046	94.19
560.258	84.19
560.47	87.19
560.683	85.19
560.895	79.19
561.107	61.19
561.32	84.19
561.532	92.19
561.744	85.19
561.956	91.19
562.168	93.19
562.381	82.19
562.593	82.19
562.805	82.19
563.017	74.19
563.229	87.19
563.441	90.19
563.653	92.19
563.865	76.19
564.077	84.19
564.289	90.19
564.501	90.19
564.713	86.19
564.925	89.19
565.137	89.19
565.349	85.19
565.561	77.19
565.773	95.19
565.985	92.19
566.197	69.19
566.408	98.19
566.62	79.19
566.832	90.19
567.044	89.19
567.255	85.19
567.467	102.19
567.679	106.19
567.891	88.19
568.102	92.19
568.314	91.19
568.526	82.19
568.737	83.19
568.949	92.19
569.161	88.19
569.372	76.19
569.584	79.19
569.795	87.19
570.007	102.19
570.218	96.19
570.43	76.19
570.641	73.19
570.853	86.19
571.064	80.19
571.276	91.19
571.487	89.19
571.698	79.19
571.91	90.19
572.121	90.19
572.333	90.19
572.544	77.19
572.755	99.19
572.966	91.19
573.178	84.19
573.389	84.19
573.6	96.19
573.811	91.19
574.023	87.19
574.234	87.19
574.445	77.19
574.656	87.19
574.867	72.19
575.078	87.19
575.289	86.19
575.501	96.19
575.712	97.19
575.923	92.19
576.134	90.19
576.345	89.19
576.556	92.19
576.767	82.19
576.978	95.19
577.188	88.19
577.399	96.19
577.61	111.19
577.821	87.19
578.032	95.19
578.243	79.19
578.454	80.19
578.665	84.19
578.875	95.19
579.086	83.19
579.297	86.19
579.508	86.19
579.718	84.19
579.929	91.19
580.14	85.19
580.35	79.19
580.561	96.19
580.772	101.19
580.982	92.19
581.193	83.19
581.403	97.19
581.614	94.19
581.825	84.19
582.035	80.19
582.246	82.19
582.456	95.19
582.667	86.19
582.877	80.19
583.087	76.19
583.298	96.19
583.508	90.19
583.719	81.19
583.929	80.19
584.139	84.19
584.35	93.19
584.56	84.19
584.77	91.19
584.981	84.19
585.191	100.19
585.401	83.19
585.611	98.19
585.821	63.19
586.032	84.19
586.242	76.19
586.452	89.19
586.662	88.19
586.872	86.19
587.082	81.19
587.292	77.19
587.502	93.19
587.713	89.19
587.923	80.19
588.133	85.19
588.343	81.19
588.553	84.19
588.762	93.19
588.972	103.19
589.182	93.19
589.392	94.19
589.602	77.19
589.812	94.19
590.022	86.19
590.232	93.19
590.441	91.19
590.651	94.19
590.861	77.19
591.071	85.19
591.281	87.19
591.49	80.19
591.7	93.19
591.91	89.19
592.119	75.19
592.329	79.19
592.539	97.19
592.748	77.19
592.958	79.19
593.167	77.19
593.377	91.19
593.587	87.19
593.796	84.19
594.006	71.19
594.215	91.19
594.424	88.19
594.634	82.19
594.843	82.19
595.053	86.19
595.262	78.19
595.472	82.19
595.681	103.19
595.89	86.19
596.1	94.19
596.309	88.19
596.518	80.19
596.727	92.19
596.937	94.19
597.146	78.19
597.355	86.19
597.564	86.19
597.774	93.19
597.983	91.19
598.192	98.19
598.401	79.19
598.61	78.19
598.819	85.19
599.028	94.19
599.237	87.19
599.446	91.19
599.655	86.19
599.864	98.19
600.073	75.19
600.282	79.19
600.491	94.19
600.7	84.19
600.909	62.19
601.118	79.19
601.327	91.19
601.536	83.19
601.745	87.19
601.953	89.19
602.162	76.19
602.371	80.19
602.58	77.19
602.789	86.19
602.997	78.19
603.206	87.19
603.415	80.19
603.623	76.19
603.832	98.19
604.041	87.19
604.249	85.19
604.458	86.19
604.666	95.19
604.875	72.19
605.084	103.19
605.292	82.19
605.501	94.19
605.709	95.19
605.918	87.19
606.126	76.19
606.334	87.19
606.543	82.19
606.751	80.19
606.96	72.19
607.168	85.19
607.376	73.19
607.585	82.19
607.793	82.19
608.001	81.19
608.21	78.19
608.418	86.19
608.626	99.19
608.834	88.19
609.043	74.19
609.251	72.19
609.459	85.19
609.667	82.19
609.875	88.19
610.083	85.19
610.291	88.19
610.499	78.19
610.707	88.19
610.916	73.19
611.124	82.19
611.332	91.19
611.54	104.19
611.748	78.19
611.955	84.19
612.163	80.19
612.371	70.19
612.579	77.19
612.787	87.19
612.995	82.19
613.203	87.19
613.411	85.19
613.618	84.19
613.826	72.19
614.034	77.19
614.242	94.19
614.449	100.19
614.657	81.19
614.865	76.19
615.072	107.19
615.28	85.19
615.488	82.19
615.695	76.19
615.903	73.19
616.111	68.19
616.318	98.19
616.526	71.19
616.733	86.19
616.941	77.19
617.148	83.19
617.356	88.19
617.563	75.19
617.771	79.19
617.978	82.19
618.185	85.19
618.393	85.19
618.6	79.19
618.807	72.19
619.015	80.19
619.222	78.19
619.429	89.19
619.637	82.19
619.844	91.19
620.051	80.19
620.258	82.19
620.466	88.19
620.673	93.19
620.88	79.19
621.087	75.19
621.294	79.19
621.501	90.19
621.708	76.19
621.915	89.19
622.122	63.19
622.329	83.19
622.536	95.19
622.743	85.19
622.95	82.19
623.157	67.19
623.364	77.19
623.571	83.19
623.778	84.19
623.985	65.19
624.192	88.19
624.399	83.19
624.606	94.19
624.812	52.19
625.019	88.19
625.226	83.19
625.433	86.19
625.639	83.19
625.846	86.19
626.053	90.19
626.259	78.19
626.466	87.19
626.673	75.19
626.879	82.19
627.086	88.19
627.293	62.19
627.499	79.19
627.706	67.19
627.912	85.19
628.119	91.19
628.325	81.19
628.532	80.19
628.738	72.19
628.945	76.19
629.151	78.19
629.357	74.19
629.564	93.19
629.77	79.19
629.976	76.19
630.183	83.19
630.389	80.19
630.595	86.19
630.802	79.19
631.008	82.19
631.214	77.19
631.42	82.19
631.627	79.19
631.833	84.19
632.039	88.19
632.245	95.19
632.451	79.19
632.657	82.19
632.863	90.19
633.069	76.19
633.275	84.19
633.481	81.19
633.688	82.19
633.893	83.19
634.099	75.19
634.305	87.19
634.511	82.19
634.717	73.19
634.923	83.19
635.129	78.19
635.335	79.19
635.541	78.19
635.747	78.19
635.952	84.19
636.158	67.19
636.364	82.19
636.57	90.19
636.775	71.19
636.981	82.19
637.187	79.19
637.392	69.19
637.598	76.19
637.804	76.19
638.009	79.19
638.215	95.19
638.421	87.19
638.626	76.19
638.832	88.19
639.037	88.19
639.243	69.19
639.448	74.19
639.654	80.19
639.859	83.19
640.065	83.19
640.27	82.19
640.475	80.19
640.681	88.19
640.886	90.19
641.091	86.19
641.297	98.19
641.502	85.19
641.707	90.19
641.913	72.19
642.118	94.19
642.323	77.19
642.528	92.19
642.733	87.19
642.939	87.19
643.144	84.19
643.349	93.19
643.554	82.19
643.759	70.19
643.964	81.19
644.169	98.19
644.374	79.19
644.579	78.19
644.784	79.19
644.989	90.19
645.194	68.19
645.399	76.19
645.604	83.19
645.809	83.19
646.014	74.19
646.219	100.19
646.423	104.19
646.628	78.19
646.833	83.19
647.038	83.19
647.243	77.19
647.447	83.19
647.652	85.19
647.857	86.19
648.062	102.19
648.266	82.19
648.471	98.19
648.676	77.19
648.88	88.19
649.085	87.19
649.289	76.19
649.494	91.19
649.698	82.19
649.903	80.19
650.107	77.19
650.312	93.19
650.516	79.19
650.721	79.19
650.925	99.19
651.13	92.19
651.334	82.19
651.539	83.19
651.743	81.19
651.947	78.19
652.152	77.19
652.356	83.19
652.56	90.19
652.764	80.19
652.969	70.19
653.173	72.19
653.377	90.19
653.581	74.19
653.785	71.19
653.99	80.19
654.194	67.19
654.398	86.19
654.602	77.19
654.806	89.19
655.01	97.19
655.214	88.19
655.418	74.19
655.622	70.19
655.826	81.19
656.03	97.19
656.234	82.19
656.438	79.19
656.642	85.19
656.846	80.19
657.049	81.19
657.253	86.19
657.457	82.19
657.661	71.19
657.865	84.19
658.068	84.19
658.272	84.19
658.476	72.19
658.68	73.19
658.883	74.19
659.087	80.19
659.291	73.19
659.494	86.19
659.698	62.19
659.901	69.19
660.105	72.19
660.309	93.19
660.512	71.19
660.716	77.19
660.919	82.19
661.123	91.19
661.326	86.19
661.53	61.19
661.733	82.19
661.936	79.19
662.14	86.19
662.343	83.19
662.546	78.19
662.75	90.19
662.953	83.19
663.156	60.19
663.36	86.19
663.563	72.19
663.766	75.19
663.969	84.19
664.173	81.19
664.376	71.19
664.579	85.19
664.782	83.19
664.985	89.19
665.188	77.19
665.391	77.19
665.594	73.19
665.797	79.19
666	69.19
666.203	73.19
666.406	87.19
666.609	91.19
666.812	60.19
667.015	79.19
667.218	71.19
667.421	72.19
667.624	74.19
667.827	88.19
668.03	73.19
668.232	78.19
668.435	78.19
668.638	77.19
668.841	77.19
669.043	83.19
669.246	79.19
669.449	85.19
669.651	98.19
669.854	70.19
670.057	79.19
670.259	78.19
670.462	76.19
670.665	84.19
670.867	84.19
671.07	91.19
671.272	86.19
671.475	79.19
671.677	76.19
671.88	78.19
672.082	76.19
672.284	74.19
672.487	82.19
672.689	80.19
672.892	82.19
