Data from Circ_1994_H10_HRD10591_00065.txt Node
Date: Wed Jan 03 11:40:43 EST 2024
User: Yrep
Spectrometer: HR+D1059
Trigger mode: 1
Integration Time (sec): 1.000000E-1
Scans to average: 1
Electric dark correction enabled: true
Nonlinearity correction enabled: false
Boxcar width: 0
XAxis mode: Wavelengths
Number of Pixels in Spectrum: 2048
>>>>>Begin Spectral Data<<<<<
223.165	-7.44
223.4	-7.44
223.635	-7.44
223.869	-20.44
224.104	-15.44
224.338	3.56
224.573	-23.44
224.808	-26.44
225.042	-9.44
225.277	-10.44
225.511	-4.44
225.746	-2.44
225.98	15.56
226.215	23.56
226.449	13.56
226.683	16.56
226.918	18.56
227.152	28.56
227.387	37.56
227.621	44.56
227.856	38.56
228.09	35.56
228.324	40.56
228.559	47.56
228.793	61.56
229.027	49.56
229.262	70.56
229.496	74.56
229.73	82.56
229.964	77.56
230.199	61.56
230.433	79.56
230.667	84.56
230.901	72.56
231.136	74.56
231.37	76.56
231.604	82.56
231.838	66.56
232.072	78.56
232.306	82.56
232.541	82.56
232.775	61.56
233.009	77.56
233.243	78.56
233.477	79.56
233.711	94.56
233.945	80.56
234.179	79.56
234.413	82.56
234.647	73.56
234.881	86.56
235.115	85.56
235.349	78.56
235.583	82.56
235.817	78.56
236.051	89.56
236.285	84.56
236.519	76.56
236.753	66.56
236.987	76.56
237.221	72.56
237.455	88.56
237.689	88.56
237.922	81.56
238.156	82.56
238.39	78.56
238.624	76.56
238.858	76.56
239.091	90.56
239.325	87.56
239.559	75.56
239.793	101.56
240.027	94.56
240.26	86.56
240.494	96.56
240.728	77.56
240.961	78.56
241.195	77.56
241.429	93.56
241.662	74.56
241.896	78.56
242.13	84.56
242.363	63.56
242.597	82.56
242.83	75.56
243.064	70.56
243.298	73.56
243.531	84.56
243.765	88.56
243.998	72.56
244.232	69.56
244.465	88.56
244.699	91.56
244.932	74.56
245.166	80.56
245.399	81.56
245.633	80.56
245.866	77.56
246.099	66.56
246.333	80.56
246.566	80.56
246.8	84.56
247.033	79.56
247.266	69.56
247.5	69.56
247.733	80.56
247.966	86.56
248.2	85.56
248.433	90.56
248.666	74.56
248.899	77.56
249.133	88.56
249.366	93.56
249.599	84.56
249.832	80.56
250.066	92.56
250.299	76.56
250.532	83.56
250.765	85.56
250.998	63.56
251.231	91.56
251.465	92.56
251.698	70.56
251.931	81.56
252.164	80.56
252.397	82.56
252.63	85.56
252.863	84.56
253.096	90.56
253.329	72.56
253.562	84.56
253.795	83.56
254.028	80.56
254.261	85.56
254.494	76.56
254.727	76.56
254.96	83.56
255.193	80.56
255.426	89.56
255.659	76.56
255.892	75.56
256.124	69.56
256.357	84.56
256.59	81.56
256.823	105.56
257.056	91.56
257.289	91.56
257.521	73.56
257.754	80.56
257.987	72.56
258.22	85.56
258.452	78.56
258.685	69.56
258.918	76.56
259.151	94.56
259.383	75.56
259.616	88.56
259.849	88.56
260.081	89.56
260.314	75.56
260.547	86.56
260.779	84.56
261.012	90.56
261.244	83.56
261.477	72.56
261.71	84.56
261.942	109.56
262.175	113.56
262.407	77.56
262.64	84.56
262.872	91.56
263.105	91.56
263.337	84.56
263.57	80.56
263.802	89.56
264.035	90.56
264.267	78.56
264.499	83.56
264.732	80.56
264.964	88.56
265.197	72.56
265.429	75.56
265.661	86.56
265.894	80.56
266.126	76.56
266.358	80.56
266.591	82.56
266.823	76.56
267.055	84.56
267.287	87.56
267.52	80.56
267.752	81.56
267.984	92.56
268.216	92.56
268.448	92.56
268.681	78.56
268.913	83.56
269.145	82.56
269.377	76.56
269.609	79.56
269.841	90.56
270.073	72.56
270.306	98.56
270.538	98.56
270.77	78.56
271.002	77.56
271.234	78.56
271.466	96.56
271.698	93.56
271.93	93.56
272.162	85.56
272.394	95.56
272.626	98.56
272.858	75.56
273.09	81.56
273.322	86.56
273.553	91.56
273.785	92.56
274.017	95.56
274.249	82.56
274.481	81.56
274.713	81.56
274.945	85.56
275.176	70.56
275.408	82.56
275.64	93.56
275.872	101.56
276.104	91.56
276.335	92.56
276.567	93.56
276.799	103.56
277.031	106.56
277.262	109.56
277.494	102.56
277.726	80.56
277.957	85.56
278.189	77.56
278.421	83.56
278.652	84.56
278.884	93.56
279.115	85.56
279.347	88.56
279.579	93.56
279.81	74.56
280.042	83.56
280.273	85.56
280.505	81.56
280.736	99.56
280.968	82.56
281.199	91.56
281.431	104.56
281.662	84.56
281.894	77.56
282.125	93.56
282.356	110.56
282.588	120.56
282.819	99.56
283.051	75.56
283.282	72.56
283.513	85.56
283.745	85.56
283.976	80.56
284.207	86.56
284.439	85.56
284.67	105.56
284.901	83.56
285.132	97.56
285.364	84.56
285.595	70.56
285.826	78.56
286.057	98.56
286.288	87.56
286.52	90.56
286.751	91.56
286.982	80.56
287.213	101.56
287.444	98.56
287.675	93.56
287.906	94.56
288.138	86.56
288.369	98.56
288.6	93.56
288.831	66.56
289.062	74.56
289.293	84.56
289.524	86.56
289.755	76.56
289.986	78.56
290.217	87.56
290.448	87.56
290.679	92.56
290.91	85.56
291.141	76.56
291.371	92.56
291.602	78.56
291.833	64.56
292.064	99.56
292.295	81.56
292.526	111.56
292.757	87.56
292.987	91.56
293.218	94.56
293.449	89.56
293.68	94.56
293.91	85.56
294.141	91.56
294.372	96.56
294.603	82.56
294.833	95.56
295.064	75.56
295.295	82.56
295.525	93.56
295.756	99.56
295.987	102.56
296.217	129.56
296.448	116.56
296.679	98.56
296.909	102.56
297.14	96.56
297.37	72.56
297.601	96.56
297.831	85.56
298.062	103.56
298.292	84.56
298.523	91.56
298.753	80.56
298.984	87.56
299.214	104.56
299.445	100.56
299.675	86.56
299.905	91.56
300.136	85.56
300.366	97.56
300.597	88.56
300.827	93.56
301.057	107.56
301.288	98.56
301.518	95.56
301.748	85.56
301.979	113.56
302.209	91.56
302.439	93.56
302.669	84.56
302.9	99.56
303.13	80.56
303.36	97.56
303.59	97.56
303.82	101.56
304.051	86.56
304.281	95.56
304.511	100.56
304.741	89.56
304.971	84.56
305.201	82.56
305.431	89.56
305.661	95.56
305.891	83.56
306.121	104.56
306.352	105.56
306.582	106.56
306.812	84.56
307.042	88.56
307.272	112.56
307.502	105.56
307.731	98.56
307.961	86.56
308.191	90.56
308.421	101.56
308.651	81.56
308.881	96.56
309.111	106.56
309.341	91.56
309.571	114.56
309.8	106.56
310.03	83.56
310.26	99.56
310.49	91.56
310.72	112.56
310.949	107.56
311.179	89.56
311.409	91.56
311.639	101.56
311.868	92.56
312.098	94.56
312.328	96.56
312.557	92.56
312.787	88.56
313.017	90.56
313.246	93.56
313.476	96.56
313.706	84.56
313.935	105.56
314.165	98.56
314.394	90.56
314.624	89.56
314.853	104.56
315.083	94.56
315.312	98.56
315.542	94.56
315.771	81.56
316.001	90.56
316.23	94.56
316.46	96.56
316.689	79.56
316.919	101.56
317.148	92.56
317.377	100.56
317.607	81.56
317.836	90.56
318.065	95.56
318.295	82.56
318.524	95.56
318.753	88.56
318.983	102.56
319.212	100.56
319.441	102.56
319.67	92.56
319.9	101.56
320.129	94.56
320.358	90.56
320.587	91.56
320.816	101.56
321.046	108.56
321.275	107.56
321.504	97.56
321.733	88.56
321.962	91.56
322.191	96.56
322.42	110.56
322.649	106.56
322.878	112.56
323.108	115.56
323.337	117.56
323.566	112.56
323.795	155.56
324.024	186.56
324.253	335.56
324.482	681.56
324.71	1422.56
324.939	1824.56
325.168	693.56
325.397	214.56
325.626	152.56
325.855	128.56
326.084	128.56
326.313	136.56
326.542	155.56
326.77	205.56
326.999	389.56
327.228	800.56
327.457	1438.56
327.686	1146.56
327.914	326.56
328.143	182.56
328.372	140.56
328.6	136.56
328.829	109.56
329.058	108.56
329.287	121.56
329.515	101.56
329.744	111.56
329.972	125.56
330.201	144.56
330.43	159.56
330.658	152.56
330.887	116.56
331.115	112.56
331.344	88.56
331.572	98.56
331.801	101.56
332.03	102.56
332.258	93.56
332.486	97.56
332.715	89.56
332.943	92.56
333.172	88.56
333.4	79.56
333.629	112.56
333.857	110.56
334.085	113.56
334.314	141.56
334.542	180.56
334.771	164.56
334.999	110.56
335.227	96.56
335.455	83.56
335.684	96.56
335.912	105.56
336.14	90.56
336.369	97.56
336.597	91.56
336.825	84.56
337.053	99.56
337.281	99.56
337.51	83.56
337.738	96.56
337.966	95.56
338.194	94.56
338.422	87.56
338.65	90.56
338.878	95.56
339.106	87.56
339.334	81.56
339.562	72.56
339.79	83.56
340.018	87.56
340.246	93.56
340.474	91.56
340.702	102.56
340.93	104.56
341.158	80.56
341.386	95.56
341.614	100.56
341.842	83.56
342.07	96.56
342.298	79.56
342.526	77.56
342.754	82.56
342.981	84.56
343.209	97.56
343.437	100.56
343.665	93.56
343.893	72.56
344.12	97.56
344.348	82.56
344.576	84.56
344.804	97.56
345.031	88.56
345.259	99.56
345.487	87.56
345.714	100.56
345.942	89.56
346.17	90.56
346.397	88.56
346.625	98.56
346.853	86.56
347.08	98.56
347.308	100.56
347.535	91.56
347.763	93.56
347.99	91.56
348.218	105.56
348.445	94.56
348.673	92.56
348.9	86.56
349.128	94.56
349.355	92.56
349.583	91.56
349.81	91.56
350.037	74.56
350.265	98.56
350.492	93.56
350.72	94.56
350.947	106.56
351.174	106.56
351.402	114.56
351.629	117.56
351.856	99.56
352.083	87.56
352.311	108.56
352.538	112.56
352.765	105.56
352.992	112.56
353.22	110.56
353.447	118.56
353.674	94.56
353.901	92.56
354.128	92.56
354.355	83.56
354.583	87.56
354.81	104.56
355.037	90.56
355.264	85.56
355.491	83.56
355.718	96.56
355.945	91.56
356.172	89.56
356.399	69.56
356.626	84.56
356.853	90.56
357.08	67.56
357.307	90.56
357.534	88.56
357.761	84.56
357.988	106.56
358.215	90.56
358.441	85.56
358.668	97.56
358.895	92.56
359.122	106.56
359.349	80.56
359.576	85.56
359.802	98.56
360.029	93.56
360.256	89.56
360.483	97.56
360.709	85.56
360.936	96.56
361.163	81.56
361.39	91.56
361.616	92.56
361.843	85.56
362.07	90.56
362.296	85.56
362.523	81.56
362.749	106.56
362.976	81.56
363.203	94.56
363.429	83.56
363.656	78.56
363.882	88.56
364.109	91.56
364.335	79.56
364.562	103.56
364.788	101.56
365.015	85.56
365.241	90.56
365.468	95.56
365.694	97.56
365.92	86.56
366.147	85.56
366.373	97.56
366.599	97.56
366.826	84.56
367.052	93.56
367.278	89.56
367.505	83.56
367.731	96.56
367.957	95.56
368.184	97.56
368.41	82.56
368.636	107.56
368.862	113.56
369.089	103.56
369.315	88.56
369.541	92.56
369.767	81.56
369.993	93.56
370.219	73.56
370.445	86.56
370.672	101.56
370.898	89.56
371.124	95.56
371.35	81.56
371.576	87.56
371.802	76.56
372.028	90.56
372.254	99.56
372.48	85.56
372.706	88.56
372.932	94.56
373.158	95.56
373.384	96.56
373.61	90.56
373.835	82.56
374.061	87.56
374.287	103.56
374.513	91.56
374.739	80.56
374.965	99.56
375.191	88.56
375.416	76.56
375.642	86.56
375.868	89.56
376.094	90.56
376.319	81.56
376.545	83.56
376.771	92.56
376.997	101.56
377.222	100.56
377.448	97.56
377.674	98.56
377.899	82.56
378.125	85.56
378.35	106.56
378.576	80.56
378.802	83.56
379.027	94.56
379.253	80.56
379.478	84.56
379.704	95.56
379.929	94.56
380.155	93.56
380.38	90.56
380.606	85.56
380.831	80.56
381.057	105.56
381.282	90.56
381.507	81.56
381.733	88.56
381.958	85.56
382.184	97.56
382.409	93.56
382.634	96.56
382.86	101.56
383.085	99.56
383.31	96.56
383.535	94.56
383.761	107.56
383.986	101.56
384.211	99.56
384.436	96.56
384.662	100.56
384.887	98.56
385.112	94.56
385.337	99.56
385.562	108.56
385.787	103.56
386.013	109.56
386.238	98.56
386.463	100.56
386.688	105.56
386.913	82.56
387.138	99.56
387.363	102.56
387.588	72.56
387.813	102.56
388.038	104.56
388.263	107.56
388.488	119.56
388.713	94.56
388.938	83.56
389.163	85.56
389.387	84.56
389.612	89.56
389.837	95.56
390.062	101.56
390.287	100.56
390.512	94.56
390.736	104.56
390.961	107.56
391.186	92.56
391.411	100.56
391.636	87.56
391.86	96.56
392.085	103.56
392.31	91.56
392.534	88.56
392.759	91.56
392.984	88.56
393.208	84.56
393.433	85.56
393.658	93.56
393.882	84.56
394.107	83.56
394.331	79.56
394.556	84.56
394.78	89.56
395.005	70.56
395.229	94.56
395.454	84.56
395.678	96.56
395.903	92.56
396.127	90.56
396.352	92.56
396.576	89.56
396.801	99.56
397.025	84.56
397.249	84.56
397.474	89.56
397.698	89.56
397.922	97.56
398.147	93.56
398.371	74.56
398.595	92.56
398.82	90.56
399.044	85.56
399.268	93.56
399.492	98.56
399.717	75.56
399.941	91.56
400.165	73.56
400.389	92.56
400.613	84.56
400.837	82.56
401.062	87.56
401.286	97.56
401.51	84.56
401.734	94.56
401.958	106.56
402.182	123.56
402.406	142.56
402.63	111.56
402.854	94.56
403.078	81.56
403.302	69.56
403.526	89.56
403.75	93.56
403.974	94.56
404.198	97.56
404.422	84.56
404.645	85.56
404.869	83.56
405.093	93.56
405.317	75.56
405.541	105.56
405.765	101.56
405.988	107.56
406.212	146.56
406.436	195.56
406.66	128.56
406.883	96.56
407.107	81.56
407.331	95.56
407.555	116.56
407.778	97.56
408.002	97.56
408.226	98.56
408.449	86.56
408.673	84.56
408.896	106.56
409.12	92.56
409.344	65.56
409.567	78.56
409.791	86.56
410.014	97.56
410.238	97.56
410.461	78.56
410.685	84.56
410.908	90.56
411.132	102.56
411.355	91.56
411.578	96.56
411.802	90.56
412.025	86.56
412.249	92.56
412.472	97.56
412.695	100.56
412.919	92.56
413.142	90.56
413.365	87.56
413.589	88.56
413.812	83.56
414.035	95.56
414.258	93.56
414.482	90.56
414.705	81.56
414.928	68.56
415.151	82.56
415.374	87.56
415.597	101.56
415.821	92.56
416.044	88.56
416.267	93.56
416.49	94.56
416.713	94.56
416.936	92.56
417.159	76.56
417.382	96.56
417.605	87.56
417.828	86.56
418.051	80.56
418.274	86.56
418.497	84.56
418.72	87.56
418.943	86.56
419.166	83.56
419.389	99.56
419.611	87.56
419.834	98.56
420.057	95.56
420.28	97.56
420.503	85.56
420.726	84.56
420.948	82.56
421.171	97.56
421.394	93.56
421.617	91.56
421.839	97.56
422.062	86.56
422.285	92.56
422.507	97.56
422.73	104.56
422.953	86.56
423.175	82.56
423.398	83.56
423.621	85.56
423.843	87.56
424.066	99.56
424.288	89.56
424.511	86.56
424.733	78.56
424.956	95.56
425.178	100.56
425.401	104.56
425.623	91.56
425.846	83.56
426.068	91.56
426.291	95.56
426.513	105.56
426.735	93.56
426.958	99.56
427.18	91.56
427.402	124.56
427.625	145.56
427.847	124.56
428.069	106.56
428.292	99.56
428.514	81.56
428.736	92.56
428.958	90.56
429.181	98.56
429.403	88.56
429.625	84.56
429.847	96.56
430.069	89.56
430.292	108.56
430.514	80.56
430.736	82.56
430.958	92.56
431.18	69.56
431.402	88.56
431.624	90.56
431.846	92.56
432.068	90.56
432.29	90.56
432.512	89.56
432.734	88.56
432.956	86.56
433.178	98.56
433.4	99.56
433.622	77.56
433.844	81.56
434.066	100.56
434.287	80.56
434.509	103.56
434.731	97.56
434.953	78.56
435.175	95.56
435.397	72.56
435.618	100.56
435.84	102.56
436.062	119.56
436.284	109.56
436.505	87.56
436.727	100.56
436.949	100.56
437.17	93.56
437.392	84.56
437.614	89.56
437.835	95.56
438.057	108.56
438.278	109.56
438.5	99.56
438.721	100.56
438.943	102.56
439.165	84.56
439.386	90.56
439.608	101.56
439.829	98.56
440.05	105.56
440.272	119.56
440.493	85.56
440.715	88.56
440.936	89.56
441.158	79.56
441.379	89.56
441.6	96.56
441.822	92.56
442.043	90.56
442.264	112.56
442.486	97.56
442.707	102.56
442.928	106.56
443.149	129.56
443.371	106.56
443.592	122.56
443.813	113.56
444.034	90.56
444.255	99.56
444.476	93.56
444.698	67.56
444.919	82.56
445.14	139.56
445.361	110.56
445.582	109.56
445.803	113.56
446.024	118.56
446.245	127.56
446.466	104.56
446.687	91.56
446.908	85.56
447.129	88.56
447.35	75.56
447.571	88.56
447.792	98.56
448.013	101.56
448.234	109.56
448.455	93.56
448.675	94.56
448.896	124.56
449.117	108.56
449.338	100.56
449.559	125.56
449.779	111.56
450	88.56
450.221	88.56
450.442	76.56
450.662	92.56
450.883	97.56
451.104	120.56
451.324	93.56
451.545	99.56
451.766	102.56
451.986	98.56
452.207	85.56
452.428	80.56
452.648	89.56
452.869	108.56
453.089	100.56
453.31	111.56
453.53	97.56
453.751	78.56
453.971	100.56
454.192	111.56
454.412	84.56
454.633	80.56
454.853	86.56
455.073	93.56
455.294	83.56
455.514	94.56
455.734	84.56
455.955	96.56
456.175	85.56
456.395	88.56
456.616	89.56
456.836	77.56
457.056	96.56
457.276	90.56
457.497	92.56
457.717	77.56
457.937	78.56
458.157	81.56
458.377	73.56
458.598	97.56
458.818	138.56
459.038	142.56
459.258	111.56
459.478	97.56
459.698	76.56
459.918	88.56
460.138	82.56
460.358	89.56
460.578	88.56
460.798	100.56
461.018	91.56
461.238	102.56
461.458	83.56
461.678	87.56
461.898	84.56
462.118	82.56
462.338	95.56
462.558	77.56
462.777	85.56
462.997	93.56
463.217	76.56
463.437	82.56
463.657	91.56
463.876	93.56
464.096	76.56
464.316	87.56
464.536	95.56
464.755	94.56
464.975	118.56
465.195	138.56
465.414	131.56
465.634	101.56
465.854	84.56
466.073	83.56
466.293	97.56
466.512	95.56
466.732	93.56
466.951	87.56
467.171	89.56
467.391	79.56
467.61	108.56
467.829	102.56
468.049	115.56
468.268	115.56
468.488	99.56
468.707	80.56
468.927	94.56
469.146	94.56
469.365	85.56
469.585	92.56
469.804	92.56
470.023	94.56
470.243	96.56
470.462	103.56
470.681	101.56
470.901	70.56
471.12	88.56
471.339	80.56
471.558	85.56
471.777	80.56
471.997	90.56
472.216	168.56
472.435	225.56
472.654	114.56
472.873	95.56
473.092	84.56
473.311	93.56
473.53	90.56
473.749	92.56
473.968	91.56
474.187	88.56
474.406	93.56
474.625	91.56
474.844	88.56
475.063	94.56
475.282	88.56
475.501	84.56
475.72	90.56
475.939	89.56
476.158	89.56
476.377	97.56
476.596	81.56
476.814	95.56
477.033	91.56
477.252	90.56
477.471	89.56
477.69	79.56
477.908	87.56
478.127	102.56
478.346	91.56
478.564	92.56
478.783	85.56
479.002	94.56
479.22	79.56
479.439	97.56
479.658	106.56
479.876	92.56
480.095	86.56
480.313	107.56
480.532	101.56
480.751	93.56
480.969	129.56
481.188	314.56
481.406	228.56
481.624	101.56
481.843	92.56
482.061	98.56
482.28	87.56
482.498	93.56
482.717	77.56
482.935	85.56
483.153	97.56
483.372	80.56
483.59	80.56
483.808	82.56
484.027	97.56
484.245	94.56
484.463	86.56
484.681	72.56
484.9	94.56
485.118	94.56
485.336	104.56
485.554	89.56
485.772	96.56
485.99	103.56
486.209	108.56
486.427	95.56
486.645	101.56
486.863	115.56
487.081	98.56
487.299	93.56
487.517	87.56
487.735	92.56
487.953	89.56
488.171	99.56
488.389	90.56
488.607	96.56
488.825	84.56
489.043	79.56
489.261	99.56
489.479	88.56
489.696	104.56
489.914	103.56
490.132	96.56
490.35	83.56
490.568	93.56
490.786	88.56
491.003	102.56
491.221	83.56
491.439	89.56
491.657	98.56
491.874	93.56
492.092	81.56
492.31	86.56
492.527	91.56
492.745	82.56
492.963	94.56
493.18	86.56
493.398	89.56
493.615	114.56
493.833	90.56
494.05	94.56
494.268	88.56
494.485	98.56
494.703	87.56
494.92	93.56
495.138	84.56
495.355	80.56
495.573	83.56
495.79	90.56
496.008	88.56
496.225	94.56
496.442	93.56
496.66	107.56
496.877	97.56
497.094	92.56
497.312	92.56
497.529	100.56
497.746	79.56
497.963	94.56
498.181	90.56
498.398	89.56
498.615	99.56
498.832	89.56
499.049	102.56
499.267	87.56
499.484	97.56
499.701	95.56
499.918	93.56
500.135	89.56
500.352	91.56
500.569	92.56
500.786	94.56
501.003	81.56
501.22	94.56
501.437	88.56
501.654	97.56
501.871	104.56
502.088	80.56
502.305	72.56
502.522	100.56
502.739	87.56
502.956	95.56
503.172	79.56
503.389	89.56
503.606	109.56
503.823	101.56
504.04	90.56
504.256	87.56
504.473	98.56
504.69	85.56
504.907	91.56
505.123	88.56
505.34	81.56
505.557	89.56
505.773	74.56
505.99	97.56
506.207	88.56
506.423	88.56
506.64	93.56
506.856	89.56
507.073	85.56
507.289	98.56
507.506	99.56
507.722	97.56
507.939	94.56
508.155	91.56
508.372	110.56
508.588	91.56
508.805	92.56
509.021	91.56
509.238	102.56
509.454	94.56
509.67	96.56
509.887	101.56
510.103	131.56
510.319	188.56
510.536	682.56
510.752	2045.56
510.968	569.56
511.184	150.56
511.401	96.56
511.617	90.56
511.833	97.56
512.049	96.56
512.265	86.56
512.481	84.56
512.698	87.56
512.914	81.56
513.13	94.56
513.346	87.56
513.562	92.56
513.778	87.56
513.994	90.56
514.21	107.56
514.426	120.56
514.642	122.56
514.858	120.56
515.074	130.56
515.29	376.56
515.506	1217.56
515.721	445.56
515.937	139.56
516.153	101.56
516.369	103.56
516.585	93.56
516.801	89.56
517.016	92.56
517.232	93.56
517.448	86.56
517.664	95.56
517.879	99.56
518.095	102.56
518.311	89.56
518.527	107.56
518.742	116.56
518.958	91.56
519.173	96.56
519.389	95.56
519.605	91.56
519.82	90.56
520.036	107.56
520.251	105.56
520.467	100.56
520.682	108.56
520.898	106.56
521.113	97.56
521.329	135.56
521.544	186.56
521.76	461.56
521.975	1974.56
522.19	1182.56
522.406	257.56
522.621	118.56
522.836	89.56
523.052	86.56
523.267	96.56
523.482	91.56
523.698	102.56
523.913	118.56
524.128	96.56
524.343	82.56
524.559	92.56
524.774	84.56
524.989	101.56
525.204	106.56
525.419	102.56
525.634	88.56
525.849	75.56
526.064	94.56
526.28	101.56
526.495	98.56
526.71	85.56
526.925	78.56
527.14	97.56
527.355	101.56
527.57	80.56
527.785	101.56
527.999	85.56
528.214	101.56
528.429	92.56
528.644	89.56
528.859	109.56
529.074	89.56
529.289	109.56
529.503	155.56
529.718	111.56
529.933	93.56
530.148	89.56
530.363	86.56
530.577	96.56
530.792	80.56
531.007	94.56
531.221	78.56
531.436	90.56
531.651	94.56
531.865	90.56
532.08	74.56
532.295	80.56
532.509	93.56
532.724	77.56
532.938	88.56
533.153	96.56
533.367	76.56
533.582	91.56
533.796	102.56
534.011	88.56
534.225	106.56
534.44	91.56
534.654	93.56
534.868	84.56
535.083	110.56
535.297	103.56
535.511	102.56
535.726	92.56
535.94	88.56
536.154	86.56
536.369	92.56
536.583	97.56
536.797	89.56
537.011	85.56
537.225	90.56
537.44	102.56
537.654	86.56
537.868	84.56
538.082	96.56
538.296	103.56
538.51	82.56
538.724	86.56
538.938	97.56
539.153	90.56
539.367	96.56
539.581	96.56
539.795	90.56
540.009	87.56
540.222	90.56
540.436	91.56
540.65	100.56
540.864	88.56
541.078	91.56
541.292	83.56
541.506	96.56
541.72	84.56
541.934	85.56
542.147	90.56
542.361	87.56
542.575	93.56
542.789	91.56
543.002	97.56
543.216	89.56
543.43	98.56
543.644	93.56
543.857	94.56
544.071	90.56
544.285	90.56
544.498	86.56
544.712	102.56
544.925	97.56
545.139	94.56
545.352	70.56
545.566	91.56
545.779	82.56
545.993	95.56
546.206	104.56
546.42	73.56
546.633	96.56
546.847	74.56
547.06	84.56
547.274	89.56
547.487	82.56
547.7	84.56
547.914	88.56
548.127	84.56
548.34	92.56
548.554	80.56
548.767	89.56
548.98	84.56
549.193	89.56
549.407	83.56
549.62	82.56
549.833	93.56
550.046	78.56
550.259	90.56
550.473	91.56
550.686	82.56
550.899	92.56
551.112	93.56
551.325	81.56
551.538	97.56
551.751	92.56
551.964	83.56
552.177	92.56
552.39	89.56
552.603	84.56
552.816	84.56
553.029	90.56
553.242	87.56
553.455	97.56
553.667	106.56
553.88	97.56
554.093	99.56
554.306	83.56
554.519	99.56
554.732	79.56
554.944	102.56
555.157	94.56
555.37	99.56
555.583	96.56
555.795	96.56
556.008	85.56
556.221	87.56
556.433	80.56
556.646	94.56
556.859	92.56
557.071	91.56
557.284	84.56
557.496	89.56
557.709	87.56
557.921	88.56
558.134	81.56
558.346	91.56
558.559	89.56
558.771	88.56
558.984	97.56
559.196	99.56
559.409	87.56
559.621	88.56
559.833	91.56
560.046	79.56
560.258	86.56
560.47	92.56
560.683	84.56
560.895	78.56
561.107	93.56
561.32	100.56
561.532	81.56
561.744	80.56
561.956	99.56
562.168	82.56
562.381	89.56
562.593	93.56
562.805	94.56
563.017	96.56
563.229	92.56
563.441	75.56
563.653	94.56
563.865	83.56
564.077	74.56
564.289	100.56
564.501	100.56
564.713	98.56
564.925	112.56
565.137	100.56
565.349	91.56
565.561	94.56
565.773	85.56
565.985	89.56
566.197	82.56
566.408	86.56
566.62	101.56
566.832	83.56
567.044	81.56
567.255	87.56
567.467	81.56
567.679	73.56
567.891	101.56
568.102	88.56
568.314	83.56
568.526	89.56
568.737	82.56
568.949	100.56
569.161	100.56
569.372	85.56
569.584	91.56
569.795	81.56
570.007	114.56
570.218	206.56
570.43	127.56
570.641	90.56
570.853	84.56
571.064	88.56
571.276	83.56
571.487	89.56
571.698	84.56
571.91	93.56
572.121	81.56
572.333	77.56
572.544	77.56
572.755	82.56
572.966	88.56
573.178	84.56
573.389	90.56
573.6	93.56
573.811	86.56
574.023	83.56
574.234	78.56
574.445	89.56
574.656	85.56
574.867	74.56
575.078	81.56
575.289	78.56
575.501	94.56
575.712	85.56
575.923	93.56
576.134	88.56
576.345	73.56
576.556	90.56
576.767	93.56
576.978	95.56
577.188	86.56
577.399	106.56
577.61	88.56
577.821	86.56
578.032	102.56
578.243	235.56
578.454	624.56
578.665	184.56
578.875	92.56
579.086	97.56
579.297	94.56
579.508	82.56
579.718	97.56
579.929	93.56
580.14	88.56
580.35	83.56
580.561	84.56
580.772	87.56
580.982	93.56
581.193	77.56
581.403	85.56
581.614	87.56
581.825	78.56
582.035	84.56
582.246	78.56
582.456	85.56
582.667	76.56
582.877	82.56
583.087	95.56
583.298	87.56
583.508	91.56
583.719	93.56
583.929	90.56
584.139	84.56
584.35	96.56
584.56	93.56
584.77	101.56
584.981	77.56
585.191	88.56
585.401	90.56
585.611	90.56
585.821	85.56
586.032	77.56
586.242	95.56
586.452	92.56
586.662	99.56
586.872	88.56
587.082	83.56
587.292	80.56
587.502	78.56
587.713	83.56
587.923	96.56
588.133	88.56
588.343	86.56
588.553	94.56
588.762	85.56
588.972	86.56
589.182	158.56
589.392	117.56
589.602	100.56
589.812	125.56
590.022	102.56
590.232	97.56
590.441	86.56
590.651	101.56
590.861	74.56
591.071	83.56
591.281	81.56
591.49	68.56
591.7	88.56
591.91	85.56
592.119	94.56
592.329	81.56
592.539	89.56
592.748	83.56
592.958	89.56
593.167	89.56
593.377	73.56
593.587	99.56
593.796	90.56
594.006	94.56
594.215	85.56
594.424	101.56
594.634	88.56
594.843	90.56
595.053	84.56
595.262	81.56
595.472	88.56
595.681	92.56
595.89	82.56
596.1	83.56
596.309	98.56
596.518	68.56
596.727	88.56
596.937	85.56
597.146	96.56
597.355	84.56
597.564	94.56
597.774	94.56
597.983	101.56
598.192	87.56
598.401	86.56
598.61	82.56
598.819	100.56
599.028	84.56
599.237	85.56
599.446	85.56
599.655	91.56
599.864	86.56
600.073	93.56
600.282	88.56
600.491	102.56
600.7	83.56
600.909	73.56
601.118	78.56
601.327	98.56
601.536	92.56
601.745	84.56
601.953	81.56
602.162	88.56
602.371	91.56
602.58	96.56
602.789	83.56
602.997	78.56
603.206	93.56
603.415	92.56
603.623	92.56
603.832	79.56
604.041	77.56
604.249	78.56
604.458	97.56
604.666	100.56
604.875	95.56
605.084	88.56
605.292	92.56
605.501	94.56
605.709	81.56
605.918	77.56
606.126	88.56
606.334	84.56
606.543	84.56
606.751	76.56
606.96	84.56
607.168	74.56
607.376	82.56
607.585	81.56
607.793	92.56
608.001	77.56
608.21	85.56
608.418	83.56
608.626	80.56
608.834	92.56
609.043	87.56
609.251	80.56
609.459	85.56
609.667	88.56
609.875	73.56
610.083	78.56
610.291	70.56
610.499	97.56
610.707	82.56
610.916	92.56
611.124	81.56
611.332	87.56
611.54	93.56
611.748	75.56
611.955	83.56
612.163	85.56
612.371	83.56
612.579	90.56
612.787	96.56
612.995	76.56
613.203	78.56
613.411	99.56
613.618	92.56
613.826	103.56
614.034	88.56
614.242	78.56
614.449	93.56
614.657	96.56
614.865	82.56
615.072	85.56
615.28	95.56
615.488	91.56
615.695	76.56
615.903	94.56
616.111	88.56
616.318	113.56
616.526	91.56
616.733	95.56
616.941	82.56
617.148	90.56
617.356	99.56
617.563	84.56
617.771	90.56
617.978	84.56
618.185	96.56
618.393	76.56
618.6	94.56
618.807	85.56
619.015	79.56
619.222	89.56
619.429	88.56
619.637	95.56
619.844	93.56
620.051	93.56
620.258	82.56
620.466	81.56
620.673	85.56
620.88	69.56
621.087	72.56
621.294	80.56
621.501	81.56
621.708	101.56
621.915	83.56
622.122	89.56
622.329	90.56
622.536	89.56
622.743	84.56
622.95	76.56
623.157	72.56
623.364	84.56
623.571	82.56
623.778	86.56
623.985	89.56
624.192	82.56
624.399	72.56
624.606	79.56
624.812	81.56
625.019	90.56
625.226	92.56
625.433	101.56
625.639	77.56
625.846	78.56
626.053	91.56
626.259	80.56
626.466	75.56
626.673	91.56
626.879	83.56
627.086	78.56
627.293	96.56
627.499	97.56
627.706	79.56
627.912	86.56
628.119	94.56
628.325	91.56
628.532	85.56
628.738	70.56
628.945	82.56
629.151	81.56
629.357	82.56
629.564	86.56
629.77	88.56
629.976	78.56
630.183	77.56
630.389	69.56
630.595	85.56
630.802	89.56
631.008	90.56
631.214	94.56
631.42	99.56
631.627	93.56
631.833	74.56
632.039	85.56
632.245	80.56
632.451	89.56
632.657	91.56
632.863	93.56
633.069	81.56
633.275	86.56
633.481	78.56
633.688	84.56
633.893	86.56
634.099	91.56
634.305	87.56
634.511	80.56
634.717	81.56
634.923	84.56
635.129	67.56
635.335	93.56
635.541	74.56
635.747	94.56
635.952	80.56
636.158	80.56
636.364	83.56
636.57	93.56
636.775	78.56
636.981	86.56
637.187	83.56
637.392	82.56
637.598	67.56
637.804	90.56
638.009	77.56
638.215	83.56
638.421	92.56
638.626	81.56
638.832	92.56
639.037	75.56
639.243	74.56
639.448	102.56
639.654	96.56
639.859	76.56
640.065	84.56
640.27	102.56
640.475	88.56
640.681	72.56
640.886	78.56
641.091	97.56
641.297	89.56
641.502	82.56
641.707	95.56
641.913	89.56
642.118	83.56
642.323	80.56
642.528	83.56
642.733	66.56
642.939	68.56
643.144	89.56
643.349	83.56
643.554	79.56
643.759	101.56
643.964	81.56
644.169	88.56
644.374	80.56
644.579	68.56
644.784	92.56
644.989	82.56
645.194	83.56
645.399	82.56
645.604	81.56
645.809	86.56
646.014	86.56
646.219	75.56
646.423	81.56
646.628	88.56
646.833	95.56
647.038	80.56
647.243	93.56
647.447	94.56
647.652	81.56
647.857	96.56
648.062	88.56
648.266	87.56
648.471	82.56
648.676	83.56
648.88	95.56
649.085	81.56
649.289	77.56
649.494	98.56
649.698	118.56
649.903	100.56
650.107	100.56
650.312	70.56
650.516	82.56
650.721	93.56
650.925	91.56
651.13	82.56
651.334	91.56
651.539	98.56
651.743	77.56
651.947	88.56
652.152	93.56
652.356	83.56
652.56	59.56
652.764	58.56
652.969	87.56
653.173	78.56
653.377	95.56
653.581	74.56
653.785	80.56
653.99	78.56
654.194	88.56
654.398	78.56
654.602	83.56
654.806	84.56
655.01	99.56
655.214	89.56
655.418	84.56
655.622	89.56
655.826	91.56
656.03	92.56
656.234	87.56
656.438	94.56
656.642	105.56
656.846	80.56
657.049	100.56
657.253	82.56
657.457	79.56
657.661	80.56
657.865	86.56
658.068	67.56
658.272	70.56
658.476	96.56
658.68	92.56
658.883	67.56
659.087	74.56
659.291	88.56
659.494	88.56
659.698	89.56
659.901	90.56
660.105	82.56
660.309	83.56
660.512	62.56
660.716	86.56
660.919	92.56
661.123	82.56
661.326	80.56
661.53	98.56
661.733	90.56
661.936	63.56
662.14	76.56
662.343	88.56
662.546	78.56
662.75	74.56
662.953	91.56
663.156	77.56
663.36	95.56
663.563	84.56
663.766	97.56
663.969	69.56
664.173	81.56
664.376	82.56
664.579	73.56
664.782	84.56
664.985	78.56
665.188	82.56
665.391	81.56
665.594	80.56
665.797	86.56
666	67.56
666.203	83.56
666.406	69.56
666.609	85.56
666.812	90.56
667.015	83.56
667.218	78.56
667.421	80.56
667.624	78.56
667.827	89.56
668.03	92.56
668.232	82.56
668.435	66.56
668.638	75.56
668.841	94.56
669.043	86.56
669.246	85.56
669.449	80.56
669.651	72.56
669.854	99.56
670.057	88.56
670.259	85.56
670.462	84.56
670.665	84.56
670.867	91.56
671.07	74.56
671.272	74.56
671.475	89.56
671.677	66.56
671.88	74.56
672.082	82.56
672.284	73.56
672.487	76.56
672.689	88.56
672.892	72.56
