Data from Circ_1994_H10_HRD10591_00074.txt Node
Date: Wed Jan 03 11:40:45 EST 2024
User: Yrep
Spectrometer: HR+D1059
Trigger mode: 1
Integration Time (sec): 1.000000E-1
Scans to average: 1
Electric dark correction enabled: true
Nonlinearity correction enabled: false
Boxcar width: 0
XAxis mode: Wavelengths
Number of Pixels in Spectrum: 2048
>>>>>Begin Spectral Data<<<<<
223.165	-9.94
223.4	-9.94
223.635	-9.94
223.869	-21.94
224.104	-10.94
224.338	-31.94
224.573	-9.94
224.808	-2.94
225.042	-13.94
225.277	-17.94
225.511	-0.94
225.746	-1.94
225.98	15.06
226.215	22.06
226.449	20.06
226.683	23.06
226.918	22.06
227.152	20.06
227.387	30.06
227.621	33.06
227.856	39.06
228.09	38.06
228.324	56.06
228.559	41.06
228.793	61.06
229.027	57.06
229.262	69.06
229.496	76.06
229.73	94.06
229.964	74.06
230.199	74.06
230.433	77.06
230.667	65.06
230.901	80.06
231.136	83.06
231.37	67.06
231.604	83.06
231.838	100.06
232.072	65.06
232.306	71.06
232.541	94.06
232.775	84.06
233.009	73.06
233.243	81.06
233.477	72.06
233.711	90.06
233.945	77.06
234.179	87.06
234.413	77.06
234.647	78.06
234.881	78.06
235.115	71.06
235.349	90.06
235.583	78.06
235.817	85.06
236.051	82.06
236.285	65.06
236.519	80.06
236.753	75.06
236.987	67.06
237.221	77.06
237.455	69.06
237.689	78.06
237.922	73.06
238.156	62.06
238.39	82.06
238.624	80.06
238.858	91.06
239.091	88.06
239.325	82.06
239.559	70.06
239.793	58.06
240.027	84.06
240.26	80.06
240.494	85.06
240.728	80.06
240.961	66.06
241.195	80.06
241.429	59.06
241.662	72.06
241.896	75.06
242.13	95.06
242.363	82.06
242.597	74.06
242.83	70.06
243.064	58.06
243.298	74.06
243.531	69.06
243.765	70.06
243.998	86.06
244.232	78.06
244.465	74.06
244.699	83.06
244.932	77.06
245.166	80.06
245.399	81.06
245.633	94.06
245.866	74.06
246.099	63.06
246.333	83.06
246.566	91.06
246.8	74.06
247.033	79.06
247.266	84.06
247.5	61.06
247.733	64.06
247.966	83.06
248.2	88.06
248.433	75.06
248.666	79.06
248.899	77.06
249.133	86.06
249.366	104.06
249.599	98.06
249.832	80.06
250.066	80.06
250.299	74.06
250.532	84.06
250.765	73.06
250.998	67.06
251.231	76.06
251.465	76.06
251.698	78.06
251.931	89.06
252.164	79.06
252.397	78.06
252.63	75.06
252.863	74.06
253.096	85.06
253.329	79.06
253.562	90.06
253.795	71.06
254.028	91.06
254.261	74.06
254.494	83.06
254.727	93.06
254.96	84.06
255.193	81.06
255.426	94.06
255.659	65.06
255.892	70.06
256.124	77.06
256.357	71.06
256.59	75.06
256.823	90.06
257.056	75.06
257.289	89.06
257.521	72.06
257.754	96.06
257.987	71.06
258.22	93.06
258.452	82.06
258.685	66.06
258.918	83.06
259.151	88.06
259.383	86.06
259.616	87.06
259.849	80.06
260.081	83.06
260.314	80.06
260.547	59.06
260.779	77.06
261.012	99.06
261.244	95.06
261.477	85.06
261.71	77.06
261.942	102.06
262.175	115.06
262.407	71.06
262.64	83.06
262.872	74.06
263.105	86.06
263.337	76.06
263.57	86.06
263.802	85.06
264.035	78.06
264.267	72.06
264.499	80.06
264.732	98.06
264.964	96.06
265.197	91.06
265.429	81.06
265.661	63.06
265.894	76.06
266.126	82.06
266.358	70.06
266.591	86.06
266.823	77.06
267.055	84.06
267.287	88.06
267.52	83.06
267.752	87.06
267.984	88.06
268.216	81.06
268.448	76.06
268.681	80.06
268.913	87.06
269.145	77.06
269.377	76.06
269.609	66.06
269.841	91.06
270.073	75.06
270.306	81.06
270.538	75.06
270.77	74.06
271.002	82.06
271.234	92.06
271.466	83.06
271.698	71.06
271.93	76.06
272.162	83.06
272.394	75.06
272.626	85.06
272.858	76.06
273.09	93.06
273.322	80.06
273.553	97.06
273.785	83.06
274.017	75.06
274.249	84.06
274.481	87.06
274.713	82.06
274.945	89.06
275.176	80.06
275.408	82.06
275.64	88.06
275.872	81.06
276.104	95.06
276.335	86.06
276.567	96.06
276.799	103.06
277.031	92.06
277.262	85.06
277.494	86.06
277.726	80.06
277.957	86.06
278.189	83.06
278.421	67.06
278.652	97.06
278.884	86.06
279.115	88.06
279.347	75.06
279.579	87.06
279.81	80.06
280.042	86.06
280.273	95.06
280.505	84.06
280.736	90.06
280.968	83.06
281.199	87.06
281.431	75.06
281.662	79.06
281.894	87.06
282.125	105.06
282.356	116.06
282.588	113.06
282.819	107.06
283.051	83.06
283.282	99.06
283.513	80.06
283.745	96.06
283.976	82.06
284.207	75.06
284.439	81.06
284.67	98.06
284.901	88.06
285.132	78.06
285.364	77.06
285.595	88.06
285.826	78.06
286.057	81.06
286.288	87.06
286.52	93.06
286.751	76.06
286.982	78.06
287.213	100.06
287.444	89.06
287.675	106.06
287.906	95.06
288.138	76.06
288.369	88.06
288.6	106.06
288.831	79.06
289.062	97.06
289.293	83.06
289.524	95.06
289.755	86.06
289.986	91.06
290.217	82.06
290.448	82.06
290.679	80.06
290.91	95.06
291.141	91.06
291.371	86.06
291.602	85.06
291.833	80.06
292.064	82.06
292.295	89.06
292.526	66.06
292.757	92.06
292.987	83.06
293.218	80.06
293.449	83.06
293.68	97.06
293.91	89.06
294.141	95.06
294.372	84.06
294.603	91.06
294.833	88.06
295.064	103.06
295.295	82.06
295.525	81.06
295.756	92.06
295.987	110.06
296.217	123.06
296.448	115.06
296.679	74.06
296.909	84.06
297.14	74.06
297.37	94.06
297.601	80.06
297.831	99.06
298.062	90.06
298.292	83.06
298.523	92.06
298.753	84.06
298.984	95.06
299.214	83.06
299.445	78.06
299.675	80.06
299.905	105.06
300.136	90.06
300.366	88.06
300.597	89.06
300.827	92.06
301.057	99.06
301.288	106.06
301.518	108.06
301.748	98.06
301.979	106.06
302.209	95.06
302.439	88.06
302.669	95.06
302.9	75.06
303.13	92.06
303.36	90.06
303.59	110.06
303.82	90.06
304.051	94.06
304.281	87.06
304.511	88.06
304.741	81.06
304.971	84.06
305.201	86.06
305.431	87.06
305.661	77.06
305.891	79.06
306.121	97.06
306.352	91.06
306.582	110.06
306.812	74.06
307.042	102.06
307.272	90.06
307.502	108.06
307.731	93.06
307.961	90.06
308.191	84.06
308.421	90.06
308.651	83.06
308.881	85.06
309.111	100.06
309.341	92.06
309.571	100.06
309.8	99.06
310.03	103.06
310.26	99.06
310.49	84.06
310.72	100.06
310.949	98.06
311.179	105.06
311.409	87.06
311.639	94.06
311.868	94.06
312.098	84.06
312.328	92.06
312.557	102.06
312.787	98.06
313.017	118.06
313.246	88.06
313.476	88.06
313.706	84.06
313.935	111.06
314.165	103.06
314.394	103.06
314.624	89.06
314.853	87.06
315.083	90.06
315.312	96.06
315.542	89.06
315.771	90.06
316.001	97.06
316.23	92.06
316.46	84.06
316.689	103.06
316.919	82.06
317.148	67.06
317.377	106.06
317.607	107.06
317.836	101.06
318.065	89.06
318.295	99.06
318.524	77.06
318.753	85.06
318.983	87.06
319.212	99.06
319.441	94.06
319.67	110.06
319.9	87.06
320.129	102.06
320.358	90.06
320.587	81.06
320.816	88.06
321.046	90.06
321.275	101.06
321.504	101.06
321.733	86.06
321.962	88.06
322.191	107.06
322.42	90.06
322.649	101.06
322.878	118.06
323.108	111.06
323.337	120.06
323.566	118.06
323.795	133.06
324.024	178.06
324.253	342.06
324.482	718.06
324.71	1490.06
324.939	1896.06
325.168	700.06
325.397	218.06
325.626	131.06
325.855	128.06
326.084	124.06
326.313	140.06
326.542	128.06
326.77	203.06
326.999	428.06
327.228	854.06
327.457	1522.06
327.686	1195.06
327.914	339.06
328.143	187.06
328.372	168.06
328.6	133.06
328.829	118.06
329.058	127.06
329.287	122.06
329.515	116.06
329.744	103.06
329.972	113.06
330.201	149.06
330.43	178.06
330.658	119.06
330.887	129.06
331.115	109.06
331.344	96.06
331.572	97.06
331.801	84.06
332.03	97.06
332.258	94.06
332.486	92.06
332.715	90.06
332.943	105.06
333.172	86.06
333.4	98.06
333.629	100.06
333.857	111.06
334.085	115.06
334.314	151.06
334.542	231.06
334.771	211.06
334.999	125.06
335.227	92.06
335.455	92.06
335.684	97.06
335.912	94.06
336.14	104.06
336.369	97.06
336.597	98.06
336.825	84.06
337.053	86.06
337.281	85.06
337.51	105.06
337.738	84.06
337.966	75.06
338.194	98.06
338.422	108.06
338.65	99.06
338.878	97.06
339.106	93.06
339.334	92.06
339.562	89.06
339.79	105.06
340.018	94.06
340.246	94.06
340.474	73.06
340.702	98.06
340.93	94.06
341.158	91.06
341.386	89.06
341.614	91.06
341.842	84.06
342.07	97.06
342.298	97.06
342.526	101.06
342.754	96.06
342.981	85.06
343.209	82.06
343.437	100.06
343.665	86.06
343.893	97.06
344.12	106.06
344.348	88.06
344.576	102.06
344.804	87.06
345.031	78.06
345.259	95.06
345.487	108.06
345.714	100.06
345.942	90.06
346.17	84.06
346.397	88.06
346.625	83.06
346.853	87.06
347.08	87.06
347.308	91.06
347.535	96.06
347.763	91.06
347.99	88.06
348.218	97.06
348.445	106.06
348.673	91.06
348.9	94.06
349.128	94.06
349.355	93.06
349.583	80.06
349.81	95.06
350.037	96.06
350.265	98.06
350.492	105.06
350.72	100.06
350.947	94.06
351.174	99.06
351.402	104.06
351.629	96.06
351.856	102.06
352.083	108.06
352.311	100.06
352.538	90.06
352.765	108.06
352.992	108.06
353.22	113.06
353.447	95.06
353.674	109.06
353.901	87.06
354.128	77.06
354.355	74.06
354.583	85.06
354.81	94.06
355.037	97.06
355.264	100.06
355.491	108.06
355.718	100.06
355.945	92.06
356.172	96.06
356.399	90.06
356.626	91.06
356.853	104.06
357.08	99.06
357.307	87.06
357.534	96.06
357.761	97.06
357.988	87.06
358.215	94.06
358.441	78.06
358.668	70.06
358.895	78.06
359.122	83.06
359.349	86.06
359.576	98.06
359.802	84.06
360.029	103.06
360.256	106.06
360.483	95.06
360.709	84.06
360.936	91.06
361.163	96.06
361.39	96.06
361.616	87.06
361.843	92.06
362.07	85.06
362.296	89.06
362.523	97.06
362.749	86.06
362.976	85.06
363.203	102.06
363.429	81.06
363.656	82.06
363.882	92.06
364.109	96.06
364.335	95.06
364.562	102.06
364.788	88.06
365.015	101.06
365.241	102.06
365.468	101.06
365.694	108.06
365.92	90.06
366.147	89.06
366.373	77.06
366.599	84.06
366.826	76.06
367.052	83.06
367.278	99.06
367.505	82.06
367.731	87.06
367.957	90.06
368.184	94.06
368.41	109.06
368.636	94.06
368.862	114.06
369.089	99.06
369.315	95.06
369.541	109.06
369.767	91.06
369.993	83.06
370.219	97.06
370.445	67.06
370.672	80.06
370.898	74.06
371.124	70.06
371.35	87.06
371.576	83.06
371.802	86.06
372.028	89.06
372.254	94.06
372.48	74.06
372.706	89.06
372.932	91.06
373.158	91.06
373.384	82.06
373.61	88.06
373.835	82.06
374.061	83.06
374.287	72.06
374.513	88.06
374.739	95.06
374.965	70.06
375.191	81.06
375.416	95.06
375.642	86.06
375.868	84.06
376.094	93.06
376.319	71.06
376.545	80.06
376.771	76.06
376.997	90.06
377.222	81.06
377.448	87.06
377.674	82.06
377.899	91.06
378.125	83.06
378.35	90.06
378.576	77.06
378.802	76.06
379.027	85.06
379.253	106.06
379.478	91.06
379.704	91.06
379.929	80.06
380.155	74.06
380.38	81.06
380.606	108.06
380.831	82.06
381.057	89.06
381.282	83.06
381.507	91.06
381.733	98.06
381.958	93.06
382.184	82.06
382.409	84.06
382.634	97.06
382.86	82.06
383.085	96.06
383.31	91.06
383.535	94.06
383.761	103.06
383.986	103.06
384.211	105.06
384.436	97.06
384.662	79.06
384.887	107.06
385.112	99.06
385.337	96.06
385.562	89.06
385.787	92.06
386.013	105.06
386.238	104.06
386.463	105.06
386.688	108.06
386.913	98.06
387.138	97.06
387.363	91.06
387.588	88.06
387.813	83.06
388.038	88.06
388.263	108.06
388.488	100.06
388.713	88.06
388.938	92.06
389.163	84.06
389.387	91.06
389.612	107.06
389.837	96.06
390.062	95.06
390.287	89.06
390.512	92.06
390.736	93.06
390.961	88.06
391.186	101.06
391.411	93.06
391.636	84.06
391.86	75.06
392.085	87.06
392.31	90.06
392.534	104.06
392.759	86.06
392.984	77.06
393.208	81.06
393.433	90.06
393.658	93.06
393.882	96.06
394.107	82.06
394.331	84.06
394.556	94.06
394.78	90.06
395.005	93.06
395.229	93.06
395.454	85.06
395.678	78.06
395.903	77.06
396.127	86.06
396.352	79.06
396.576	75.06
396.801	80.06
397.025	88.06
397.249	72.06
397.474	92.06
397.698	104.06
397.922	90.06
398.147	78.06
398.371	80.06
398.595	83.06
398.82	86.06
399.044	91.06
399.268	73.06
399.492	83.06
399.717	91.06
399.941	89.06
400.165	79.06
400.389	83.06
400.613	90.06
400.837	82.06
401.062	88.06
401.286	81.06
401.51	91.06
401.734	75.06
401.958	106.06
402.182	138.06
402.406	135.06
402.63	110.06
402.854	93.06
403.078	92.06
403.302	95.06
403.526	97.06
403.75	95.06
403.974	73.06
404.198	82.06
404.422	75.06
404.645	85.06
404.869	88.06
405.093	83.06
405.317	92.06
405.541	107.06
405.765	98.06
405.988	100.06
406.212	146.06
406.436	187.06
406.66	130.06
406.883	104.06
407.107	91.06
407.331	67.06
407.555	90.06
407.778	98.06
408.002	101.06
408.226	86.06
408.449	91.06
408.673	89.06
408.896	91.06
409.12	85.06
409.344	99.06
409.567	91.06
409.791	84.06
410.014	97.06
410.238	102.06
410.461	98.06
410.685	104.06
410.908	99.06
411.132	100.06
411.355	96.06
411.578	87.06
411.802	94.06
412.025	100.06
412.249	84.06
412.472	91.06
412.695	83.06
412.919	91.06
413.142	97.06
413.365	93.06
413.589	90.06
413.812	77.06
414.035	95.06
414.258	94.06
414.482	89.06
414.705	92.06
414.928	95.06
415.151	89.06
415.374	98.06
415.597	94.06
415.821	84.06
416.044	110.06
416.267	88.06
416.49	78.06
416.713	84.06
416.936	77.06
417.159	84.06
417.382	81.06
417.605	89.06
417.828	87.06
418.051	92.06
418.274	100.06
418.497	75.06
418.72	85.06
418.943	97.06
419.166	76.06
419.389	81.06
419.611	90.06
419.834	82.06
420.057	88.06
420.28	72.06
420.503	98.06
420.726	85.06
420.948	81.06
421.171	88.06
421.394	94.06
421.617	74.06
421.839	91.06
422.062	95.06
422.285	91.06
422.507	78.06
422.73	104.06
422.953	99.06
423.175	84.06
423.398	87.06
423.621	85.06
423.843	92.06
424.066	70.06
424.288	87.06
424.511	94.06
424.733	87.06
424.956	92.06
425.178	88.06
425.401	100.06
425.623	90.06
425.846	73.06
426.068	81.06
426.291	79.06
426.513	82.06
426.735	91.06
426.958	97.06
427.18	95.06
427.402	125.06
427.625	134.06
427.847	126.06
428.069	112.06
428.292	88.06
428.514	95.06
428.736	80.06
428.958	82.06
429.181	80.06
429.403	92.06
429.625	99.06
429.847	92.06
430.069	99.06
430.292	94.06
430.514	89.06
430.736	85.06
430.958	86.06
431.18	86.06
431.402	79.06
431.624	83.06
431.846	83.06
432.068	86.06
432.29	99.06
432.512	82.06
432.734	81.06
432.956	83.06
433.178	90.06
433.4	104.06
433.622	90.06
433.844	92.06
434.066	79.06
434.287	82.06
434.509	100.06
434.731	100.06
434.953	90.06
435.175	90.06
435.397	88.06
435.618	94.06
435.84	88.06
436.062	112.06
436.284	100.06
436.505	83.06
436.727	92.06
436.949	94.06
437.17	88.06
437.392	92.06
437.614	80.06
437.835	112.06
438.057	96.06
438.278	111.06
438.5	96.06
438.721	120.06
438.943	87.06
439.165	77.06
439.386	99.06
439.608	106.06
439.829	87.06
440.05	108.06
440.272	125.06
440.493	96.06
440.715	100.06
440.936	81.06
441.158	78.06
441.379	80.06
441.6	86.06
441.822	98.06
442.043	94.06
442.264	97.06
442.486	103.06
442.707	95.06
442.928	102.06
443.149	123.06
443.371	127.06
443.592	104.06
443.813	92.06
444.034	81.06
444.255	89.06
444.476	87.06
444.698	94.06
444.919	78.06
445.14	111.06
445.361	124.06
445.582	106.06
445.803	134.06
446.024	114.06
446.245	124.06
446.466	94.06
446.687	94.06
446.908	86.06
447.129	77.06
447.35	80.06
447.571	92.06
447.792	75.06
448.013	85.06
448.234	94.06
448.455	91.06
448.675	93.06
448.896	87.06
449.117	81.06
449.338	102.06
449.559	107.06
449.779	131.06
450	73.06
450.221	85.06
450.442	72.06
450.662	90.06
450.883	98.06
451.104	88.06
451.324	82.06
451.545	72.06
451.766	80.06
451.986	63.06
452.207	104.06
452.428	91.06
452.648	94.06
452.869	99.06
453.089	102.06
453.31	104.06
453.53	81.06
453.751	72.06
453.971	88.06
454.192	95.06
454.412	87.06
454.633	82.06
454.853	96.06
455.073	84.06
455.294	97.06
455.514	100.06
455.734	80.06
455.955	85.06
456.175	70.06
456.395	89.06
456.616	76.06
456.836	96.06
457.056	79.06
457.276	81.06
457.497	90.06
457.717	85.06
457.937	86.06
458.157	84.06
458.377	79.06
458.598	95.06
458.818	128.06
459.038	143.06
459.258	98.06
459.478	72.06
459.698	91.06
459.918	87.06
460.138	87.06
460.358	91.06
460.578	91.06
460.798	103.06
461.018	74.06
461.238	87.06
461.458	83.06
461.678	75.06
461.898	77.06
462.118	74.06
462.338	79.06
462.558	76.06
462.777	90.06
462.997	72.06
463.217	84.06
463.437	78.06
463.657	93.06
463.876	82.06
464.096	98.06
464.316	98.06
464.536	90.06
464.755	97.06
464.975	98.06
465.195	136.06
465.414	139.06
465.634	95.06
465.854	72.06
466.073	89.06
466.293	89.06
466.512	90.06
466.732	78.06
466.951	75.06
467.171	103.06
467.391	88.06
467.61	112.06
467.829	113.06
468.049	115.06
468.268	119.06
468.488	71.06
468.707	97.06
468.927	88.06
469.146	97.06
469.365	77.06
469.585	96.06
469.804	99.06
470.023	97.06
470.243	104.06
470.462	98.06
470.681	104.06
470.901	92.06
471.12	97.06
471.339	82.06
471.558	91.06
471.777	90.06
471.997	103.06
472.216	170.06
472.435	252.06
472.654	120.06
472.873	90.06
473.092	96.06
473.311	93.06
473.53	79.06
473.749	82.06
473.968	88.06
474.187	94.06
474.406	82.06
474.625	82.06
474.844	83.06
475.063	79.06
475.282	86.06
475.501	81.06
475.72	68.06
475.939	75.06
476.158	80.06
476.377	85.06
476.596	86.06
476.814	100.06
477.033	95.06
477.252	72.06
477.471	94.06
477.69	93.06
477.908	82.06
478.127	80.06
478.346	76.06
478.564	82.06
478.783	87.06
479.002	97.06
479.22	94.06
479.439	92.06
479.658	90.06
479.876	84.06
480.095	82.06
480.313	106.06
480.532	81.06
480.751	118.06
480.969	170.06
481.188	410.06
481.406	249.06
481.624	112.06
481.843	94.06
482.061	79.06
482.28	90.06
482.498	77.06
482.717	78.06
482.935	89.06
483.153	83.06
483.372	90.06
483.59	85.06
483.808	82.06
484.027	104.06
484.245	93.06
484.463	90.06
484.681	88.06
484.9	82.06
485.118	95.06
485.336	75.06
485.554	94.06
485.772	92.06
485.99	90.06
486.209	110.06
486.427	112.06
486.645	96.06
486.863	97.06
487.081	100.06
487.299	91.06
487.517	92.06
487.735	99.06
487.953	99.06
488.171	97.06
488.389	98.06
488.607	94.06
488.825	99.06
489.043	89.06
489.261	87.06
489.479	84.06
489.696	81.06
489.914	82.06
490.132	95.06
490.35	90.06
490.568	78.06
490.786	90.06
491.003	99.06
491.221	90.06
491.439	84.06
491.657	97.06
491.874	99.06
492.092	93.06
492.31	92.06
492.527	91.06
492.745	92.06
492.963	95.06
493.18	72.06
493.398	95.06
493.615	106.06
493.833	103.06
494.05	82.06
494.268	86.06
494.485	83.06
494.703	93.06
494.92	69.06
495.138	78.06
495.355	85.06
495.573	92.06
495.79	81.06
496.008	86.06
496.225	83.06
496.442	81.06
496.66	88.06
496.877	95.06
497.094	85.06
497.312	99.06
497.529	88.06
497.746	90.06
497.963	85.06
498.181	93.06
498.398	103.06
498.615	90.06
498.832	102.06
499.049	93.06
499.267	88.06
499.484	79.06
499.701	92.06
499.918	102.06
500.135	84.06
500.352	94.06
500.569	94.06
500.786	90.06
501.003	87.06
501.22	97.06
501.437	80.06
501.654	98.06
501.871	101.06
502.088	93.06
502.305	78.06
502.522	94.06
502.739	88.06
502.956	79.06
503.172	89.06
503.389	98.06
503.606	110.06
503.823	87.06
504.04	107.06
504.256	90.06
504.473	83.06
504.69	98.06
504.907	80.06
505.123	89.06
505.34	87.06
505.557	95.06
505.773	79.06
505.99	81.06
506.207	87.06
506.423	90.06
506.64	90.06
506.856	79.06
507.073	95.06
507.289	79.06
507.506	98.06
507.722	106.06
507.939	95.06
508.155	104.06
508.372	81.06
508.588	95.06
508.805	102.06
509.021	96.06
509.238	78.06
509.454	95.06
509.67	104.06
509.887	107.06
510.103	111.06
510.319	190.06
510.536	714.06
510.752	2182.06
510.968	606.06
511.184	138.06
511.401	104.06
511.617	105.06
511.833	72.06
512.049	77.06
512.265	102.06
512.481	99.06
512.698	92.06
512.914	84.06
513.13	94.06
513.346	94.06
513.562	93.06
513.778	95.06
513.994	99.06
514.21	92.06
514.426	104.06
514.642	114.06
514.858	104.06
515.074	149.06
515.29	400.06
515.506	1256.06
515.721	474.06
515.937	156.06
516.153	90.06
516.369	107.06
516.585	89.06
516.801	85.06
517.016	98.06
517.232	90.06
517.448	90.06
517.664	89.06
517.879	92.06
518.095	90.06
518.311	89.06
518.527	86.06
518.742	106.06
518.958	99.06
519.173	103.06
519.389	83.06
519.605	95.06
519.82	104.06
520.036	96.06
520.251	107.06
520.467	115.06
520.682	106.06
520.898	103.06
521.113	116.06
521.329	117.06
521.544	182.06
521.76	496.06
521.975	2075.06
522.19	1230.06
522.406	282.06
522.621	118.06
522.836	102.06
523.052	84.06
523.267	88.06
523.482	85.06
523.698	99.06
523.913	118.06
524.128	94.06
524.343	89.06
524.559	87.06
524.774	83.06
524.989	95.06
525.204	92.06
525.419	90.06
525.634	76.06
525.849	84.06
526.064	99.06
526.28	73.06
526.495	83.06
526.71	86.06
526.925	86.06
527.14	85.06
527.355	82.06
527.57	80.06
527.785	81.06
527.999	83.06
528.214	83.06
528.429	86.06
528.644	89.06
528.859	81.06
529.074	92.06
529.289	122.06
529.503	151.06
529.718	106.06
529.933	74.06
530.148	79.06
530.363	103.06
530.577	98.06
530.792	92.06
531.007	90.06
531.221	73.06
531.436	70.06
531.651	90.06
531.865	99.06
532.08	96.06
532.295	93.06
532.509	91.06
532.724	87.06
532.938	66.06
533.153	90.06
533.367	80.06
533.582	101.06
533.796	79.06
534.011	96.06
534.225	81.06
534.44	96.06
534.654	86.06
534.868	81.06
535.083	91.06
535.297	87.06
535.511	99.06
535.726	100.06
535.94	92.06
536.154	92.06
536.369	84.06
536.583	91.06
536.797	74.06
537.011	66.06
537.225	84.06
537.44	94.06
537.654	82.06
537.868	80.06
538.082	92.06
538.296	74.06
538.51	97.06
538.724	84.06
538.938	91.06
539.153	97.06
539.367	95.06
539.581	86.06
539.795	94.06
540.009	71.06
540.222	94.06
540.436	77.06
540.65	76.06
540.864	102.06
541.078	88.06
541.292	96.06
541.506	95.06
541.72	83.06
541.934	110.06
542.147	79.06
542.361	94.06
542.575	80.06
542.789	87.06
543.002	79.06
543.216	84.06
543.43	83.06
543.644	101.06
543.857	83.06
544.071	88.06
544.285	86.06
544.498	68.06
544.712	88.06
544.925	99.06
545.139	95.06
545.352	83.06
545.566	95.06
545.779	78.06
545.993	86.06
546.206	72.06
546.42	91.06
546.633	79.06
546.847	82.06
547.06	78.06
547.274	72.06
547.487	80.06
547.7	76.06
547.914	99.06
548.127	90.06
548.34	89.06
548.554	65.06
548.767	87.06
548.98	87.06
549.193	97.06
549.407	90.06
549.62	83.06
549.833	91.06
550.046	79.06
550.259	67.06
550.473	84.06
550.686	78.06
550.899	78.06
551.112	102.06
551.325	88.06
551.538	92.06
551.751	79.06
551.964	91.06
552.177	91.06
552.39	87.06
552.603	88.06
552.816	85.06
553.029	94.06
553.242	76.06
553.455	92.06
553.667	101.06
553.88	102.06
554.093	90.06
554.306	91.06
554.519	105.06
554.732	82.06
554.944	102.06
555.157	79.06
555.37	91.06
555.583	82.06
555.795	101.06
556.008	87.06
556.221	83.06
556.433	88.06
556.646	83.06
556.859	87.06
557.071	84.06
557.284	79.06
557.496	92.06
557.709	89.06
557.921	80.06
558.134	85.06
558.346	86.06
558.559	75.06
558.771	84.06
558.984	81.06
559.196	89.06
559.409	96.06
559.621	91.06
559.833	97.06
560.046	83.06
560.258	83.06
560.47	95.06
560.683	85.06
560.895	99.06
561.107	90.06
561.32	78.06
561.532	91.06
561.744	83.06
561.956	87.06
562.168	89.06
562.381	84.06
562.593	98.06
562.805	85.06
563.017	70.06
563.229	83.06
563.441	88.06
563.653	86.06
563.865	91.06
564.077	86.06
564.289	87.06
564.501	91.06
564.713	98.06
564.925	98.06
565.137	109.06
565.349	90.06
565.561	82.06
565.773	99.06
565.985	82.06
566.197	74.06
566.408	83.06
566.62	78.06
566.832	84.06
567.044	83.06
567.255	97.06
567.467	75.06
567.679	93.06
567.891	94.06
568.102	87.06
568.314	83.06
568.526	88.06
568.737	90.06
568.949	85.06
569.161	97.06
569.372	84.06
569.584	110.06
569.795	106.06
570.007	110.06
570.218	227.06
570.43	124.06
570.641	89.06
570.853	95.06
571.064	91.06
571.276	89.06
571.487	93.06
571.698	75.06
571.91	83.06
572.121	71.06
572.333	100.06
572.544	99.06
572.755	89.06
572.966	81.06
573.178	79.06
573.389	82.06
573.6	81.06
573.811	84.06
574.023	94.06
574.234	76.06
574.445	78.06
574.656	90.06
574.867	81.06
575.078	89.06
575.289	76.06
575.501	94.06
575.712	79.06
575.923	77.06
576.134	86.06
576.345	88.06
576.556	79.06
576.767	97.06
576.978	96.06
577.188	95.06
577.399	87.06
577.61	92.06
577.821	100.06
578.032	122.06
578.243	221.06
578.454	666.06
578.665	197.06
578.875	107.06
579.086	95.06
579.297	89.06
579.508	97.06
579.718	96.06
579.929	80.06
580.14	87.06
580.35	85.06
580.561	82.06
580.772	95.06
580.982	84.06
581.193	99.06
581.403	82.06
581.614	97.06
581.825	74.06
582.035	89.06
582.246	87.06
582.456	89.06
582.667	76.06
582.877	78.06
583.087	90.06
583.298	86.06
583.508	89.06
583.719	85.06
583.929	96.06
584.139	81.06
584.35	75.06
584.56	74.06
584.77	79.06
584.981	82.06
585.191	74.06
585.401	81.06
585.611	82.06
585.821	84.06
586.032	89.06
586.242	67.06
586.452	85.06
586.662	93.06
586.872	72.06
587.082	88.06
587.292	80.06
587.502	72.06
587.713	85.06
587.923	97.06
588.133	89.06
588.343	87.06
588.553	88.06
588.762	86.06
588.972	100.06
589.182	151.06
589.392	104.06
589.602	101.06
589.812	131.06
590.022	104.06
590.232	94.06
590.441	106.06
590.651	82.06
590.861	90.06
591.071	81.06
591.281	77.06
591.49	72.06
591.7	79.06
591.91	88.06
592.119	73.06
592.329	88.06
592.539	93.06
592.748	90.06
592.958	80.06
593.167	84.06
593.377	88.06
593.587	77.06
593.796	76.06
594.006	90.06
594.215	94.06
594.424	88.06
594.634	89.06
594.843	82.06
595.053	94.06
595.262	92.06
595.472	91.06
595.681	78.06
595.89	84.06
596.1	93.06
596.309	95.06
596.518	79.06
596.727	80.06
596.937	90.06
597.146	84.06
597.355	105.06
597.564	76.06
597.774	79.06
597.983	86.06
598.192	82.06
598.401	81.06
598.61	84.06
598.819	82.06
599.028	88.06
599.237	93.06
599.446	84.06
599.655	81.06
599.864	82.06
600.073	88.06
600.282	84.06
600.491	80.06
600.7	90.06
600.909	87.06
601.118	82.06
601.327	70.06
601.536	84.06
601.745	81.06
601.953	91.06
602.162	83.06
602.371	73.06
602.58	75.06
602.789	90.06
602.997	91.06
603.206	83.06
603.415	83.06
603.623	84.06
603.832	84.06
604.041	99.06
604.249	90.06
604.458	89.06
604.666	78.06
604.875	81.06
605.084	98.06
605.292	86.06
605.501	77.06
605.709	87.06
605.918	78.06
606.126	90.06
606.334	86.06
606.543	97.06
606.751	84.06
606.96	91.06
607.168	77.06
607.376	83.06
607.585	81.06
607.793	84.06
608.001	86.06
608.21	83.06
608.418	82.06
608.626	82.06
608.834	84.06
609.043	84.06
609.251	88.06
609.459	93.06
609.667	78.06
609.875	87.06
610.083	94.06
610.291	96.06
610.499	75.06
610.707	81.06
610.916	79.06
611.124	79.06
611.332	88.06
611.54	104.06
611.748	83.06
611.955	83.06
612.163	89.06
612.371	93.06
612.579	71.06
612.787	100.06
612.995	95.06
613.203	75.06
613.411	90.06
613.618	78.06
613.826	84.06
614.034	88.06
614.242	82.06
614.449	92.06
614.657	86.06
614.865	87.06
615.072	79.06
615.28	90.06
615.488	90.06
615.695	76.06
615.903	83.06
616.111	70.06
616.318	82.06
616.526	101.06
616.733	81.06
616.941	88.06
617.148	90.06
617.356	75.06
617.563	74.06
617.771	83.06
617.978	84.06
618.185	80.06
618.393	87.06
618.6	82.06
618.807	80.06
619.015	71.06
619.222	81.06
619.429	97.06
619.637	95.06
619.844	72.06
620.051	82.06
620.258	80.06
620.466	83.06
620.673	79.06
620.88	78.06
621.087	84.06
621.294	86.06
621.501	80.06
621.708	90.06
621.915	91.06
622.122	84.06
622.329	84.06
622.536	95.06
622.743	80.06
622.95	67.06
623.157	82.06
623.364	94.06
623.571	82.06
623.778	79.06
623.985	87.06
624.192	76.06
624.399	90.06
624.606	96.06
624.812	86.06
625.019	90.06
625.226	89.06
625.433	83.06
625.639	86.06
625.846	80.06
626.053	98.06
626.259	83.06
626.466	84.06
626.673	80.06
626.879	71.06
627.086	87.06
627.293	81.06
627.499	72.06
627.706	87.06
627.912	82.06
628.119	85.06
628.325	91.06
628.532	80.06
628.738	75.06
628.945	92.06
629.151	76.06
629.357	96.06
629.564	94.06
629.77	87.06
629.976	78.06
630.183	80.06
630.389	84.06
630.595	87.06
630.802	89.06
631.008	79.06
631.214	70.06
631.42	91.06
631.627	92.06
631.833	84.06
632.039	75.06
632.245	75.06
632.451	69.06
632.657	85.06
632.863	72.06
633.069	82.06
633.275	79.06
633.481	85.06
633.688	88.06
633.893	91.06
634.099	82.06
634.305	81.06
634.511	86.06
634.717	88.06
634.923	87.06
635.129	86.06
635.335	87.06
635.541	84.06
635.747	83.06
635.952	99.06
636.158	67.06
636.364	103.06
636.57	103.06
636.775	93.06
636.981	91.06
637.187	78.06
637.392	81.06
637.598	81.06
637.804	80.06
638.009	73.06
638.215	83.06
638.421	90.06
638.626	82.06
638.832	85.06
639.037	85.06
639.243	94.06
639.448	84.06
639.654	84.06
639.859	67.06
640.065	92.06
640.27	88.06
640.475	80.06
640.681	72.06
640.886	84.06
641.091	87.06
641.297	87.06
641.502	79.06
641.707	83.06
641.913	86.06
642.118	88.06
642.323	76.06
642.528	80.06
642.733	83.06
642.939	83.06
643.144	65.06
643.349	68.06
643.554	84.06
643.759	85.06
643.964	95.06
644.169	90.06
644.374	83.06
644.579	88.06
644.784	77.06
644.989	78.06
645.194	79.06
645.399	86.06
645.604	80.06
645.809	76.06
646.014	80.06
646.219	81.06
646.423	80.06
646.628	88.06
646.833	76.06
647.038	86.06
647.243	68.06
647.447	74.06
647.652	80.06
647.857	87.06
648.062	78.06
648.266	86.06
648.471	97.06
648.676	78.06
648.88	87.06
649.085	98.06
649.289	85.06
649.494	99.06
649.698	107.06
649.903	101.06
650.107	91.06
650.312	88.06
650.516	71.06
650.721	73.06
650.925	81.06
651.13	83.06
651.334	66.06
651.539	66.06
651.743	97.06
651.947	85.06
652.152	87.06
652.356	74.06
652.56	82.06
652.764	81.06
652.969	78.06
653.173	71.06
653.377	96.06
653.581	80.06
653.785	77.06
653.99	89.06
654.194	85.06
654.398	82.06
654.602	82.06
654.806	99.06
655.01	90.06
655.214	91.06
655.418	91.06
655.622	80.06
655.826	88.06
656.03	92.06
656.234	86.06
656.438	100.06
656.642	101.06
656.846	89.06
657.049	78.06
657.253	83.06
657.457	77.06
657.661	95.06
657.865	80.06
658.068	88.06
658.272	81.06
658.476	79.06
658.68	72.06
658.883	78.06
659.087	70.06
659.291	72.06
659.494	75.06
659.698	76.06
659.901	77.06
660.105	68.06
660.309	94.06
660.512	86.06
660.716	73.06
660.919	87.06
661.123	79.06
661.326	82.06
661.53	81.06
661.733	79.06
661.936	67.06
662.14	86.06
662.343	79.06
662.546	78.06
662.75	74.06
662.953	83.06
663.156	86.06
663.36	77.06
663.563	77.06
663.766	71.06
663.969	86.06
664.173	90.06
664.376	72.06
664.579	74.06
664.782	74.06
664.985	80.06
665.188	98.06
665.391	89.06
665.594	70.06
665.797	79.06
666	76.06
666.203	77.06
666.406	80.06
666.609	76.06
666.812	79.06
667.015	61.06
667.218	79.06
667.421	77.06
667.624	65.06
667.827	71.06
668.03	76.06
668.232	76.06
668.435	70.06
668.638	74.06
668.841	95.06
669.043	76.06
669.246	70.06
669.449	75.06
669.651	68.06
669.854	82.06
670.057	77.06
670.259	64.06
670.462	71.06
670.665	71.06
670.867	85.06
671.07	80.06
671.272	80.06
671.475	70.06
671.677	86.06
671.88	73.06
672.082	74.06
672.284	69.06
672.487	74.06
672.689	76.06
672.892	87.06
