Data from Circ_1994_H10_HRD10591_00075.txt Node
Date: Wed Jan 03 11:40:45 EST 2024
User: Yrep
Spectrometer: HR+D1059
Trigger mode: 1
Integration Time (sec): 1.000000E-1
Scans to average: 1
Electric dark correction enabled: true
Nonlinearity correction enabled: false
Boxcar width: 0
XAxis mode: Wavelengths
Number of Pixels in Spectrum: 2048
>>>>>Begin Spectral Data<<<<<
223.165	-17.81
223.4	-17.81
223.635	-17.81
223.869	-28.81
224.104	-17.81
224.338	-9.81
224.573	-19.81
224.808	-7.81
225.042	-8.81
225.277	-4.81
225.511	-6.81
225.746	12.19
225.98	-4.81
226.215	9.19
226.449	7.19
226.683	18.19
226.918	41.19
227.152	39.19
227.387	33.19
227.621	42.19
227.856	49.19
228.09	39.19
228.324	43.19
228.559	52.19
228.793	62.19
229.027	60.19
229.262	75.19
229.496	82.19
229.73	78.19
229.964	73.19
230.199	62.19
230.433	73.19
230.667	75.19
230.901	87.19
231.136	81.19
231.37	85.19
231.604	68.19
231.838	104.19
232.072	90.19
232.306	61.19
232.541	71.19
232.775	71.19
233.009	74.19
233.243	95.19
233.477	79.19
233.711	80.19
233.945	85.19
234.179	71.19
234.413	70.19
234.647	94.19
234.881	70.19
235.115	76.19
235.349	82.19
235.583	69.19
235.817	61.19
236.051	85.19
236.285	88.19
236.519	72.19
236.753	61.19
236.987	73.19
237.221	93.19
237.455	76.19
237.689	83.19
237.922	83.19
238.156	91.19
238.39	83.19
238.624	67.19
238.858	79.19
239.091	82.19
239.325	80.19
239.559	85.19
239.793	94.19
240.027	59.19
240.26	60.19
240.494	64.19
240.728	54.19
240.961	87.19
241.195	82.19
241.429	90.19
241.662	82.19
241.896	73.19
242.13	63.19
242.363	91.19
242.597	73.19
242.83	85.19
243.064	87.19
243.298	69.19
243.531	88.19
243.765	91.19
243.998	84.19
244.232	71.19
244.465	81.19
244.699	72.19
244.932	84.19
245.166	76.19
245.399	65.19
245.633	62.19
245.866	81.19
246.099	89.19
246.333	78.19
246.566	73.19
246.8	87.19
247.033	79.19
247.266	74.19
247.5	75.19
247.733	85.19
247.966	81.19
248.2	81.19
248.433	73.19
248.666	66.19
248.899	75.19
249.133	84.19
249.366	101.19
249.599	88.19
249.832	68.19
250.066	74.19
250.299	84.19
250.532	83.19
250.765	76.19
250.998	76.19
251.231	88.19
251.465	84.19
251.698	79.19
251.931	72.19
252.164	83.19
252.397	85.19
252.63	83.19
252.863	82.19
253.096	76.19
253.329	78.19
253.562	67.19
253.795	84.19
254.028	73.19
254.261	58.19
254.494	87.19
254.727	84.19
254.96	84.19
255.193	65.19
255.426	66.19
255.659	76.19
255.892	81.19
256.124	82.19
256.357	88.19
256.59	77.19
256.823	84.19
257.056	75.19
257.289	81.19
257.521	76.19
257.754	83.19
257.987	77.19
258.22	84.19
258.452	79.19
258.685	85.19
258.918	78.19
259.151	79.19
259.383	88.19
259.616	85.19
259.849	88.19
260.081	87.19
260.314	84.19
260.547	88.19
260.779	79.19
261.012	95.19
261.244	88.19
261.477	94.19
261.71	107.19
261.942	100.19
262.175	106.19
262.407	92.19
262.64	84.19
262.872	81.19
263.105	71.19
263.337	83.19
263.57	83.19
263.802	81.19
264.035	81.19
264.267	83.19
264.499	85.19
264.732	82.19
264.964	89.19
265.197	73.19
265.429	83.19
265.661	73.19
265.894	81.19
266.126	75.19
266.358	80.19
266.591	82.19
266.823	83.19
267.055	80.19
267.287	84.19
267.52	79.19
267.752	86.19
267.984	71.19
268.216	71.19
268.448	74.19
268.681	85.19
268.913	89.19
269.145	78.19
269.377	84.19
269.609	86.19
269.841	84.19
270.073	97.19
270.306	96.19
270.538	96.19
270.77	79.19
271.002	75.19
271.234	82.19
271.466	95.19
271.698	83.19
271.93	92.19
272.162	87.19
272.394	89.19
272.626	75.19
272.858	76.19
273.09	89.19
273.322	73.19
273.553	75.19
273.785	88.19
274.017	89.19
274.249	86.19
274.481	93.19
274.713	88.19
274.945	74.19
275.176	97.19
275.408	87.19
275.64	80.19
275.872	81.19
276.104	85.19
276.335	103.19
276.567	96.19
276.799	96.19
277.031	107.19
277.262	93.19
277.494	94.19
277.726	78.19
277.957	84.19
278.189	88.19
278.421	91.19
278.652	82.19
278.884	77.19
279.115	80.19
279.347	78.19
279.579	88.19
279.81	89.19
280.042	95.19
280.273	88.19
280.505	95.19
280.736	105.19
280.968	73.19
281.199	73.19
281.431	88.19
281.662	75.19
281.894	82.19
282.125	79.19
282.356	110.19
282.588	131.19
282.819	107.19
283.051	91.19
283.282	81.19
283.513	80.19
283.745	93.19
283.976	87.19
284.207	102.19
284.439	90.19
284.67	92.19
284.901	93.19
285.132	92.19
285.364	76.19
285.595	85.19
285.826	80.19
286.057	91.19
286.288	87.19
286.52	84.19
286.751	76.19
286.982	91.19
287.213	75.19
287.444	82.19
287.675	103.19
287.906	75.19
288.138	80.19
288.369	80.19
288.6	75.19
288.831	86.19
289.062	91.19
289.293	80.19
289.524	78.19
289.755	82.19
289.986	94.19
290.217	91.19
290.448	89.19
290.679	88.19
290.91	80.19
291.141	95.19
291.371	99.19
291.602	92.19
291.833	86.19
292.064	75.19
292.295	84.19
292.526	91.19
292.757	83.19
292.987	81.19
293.218	83.19
293.449	96.19
293.68	84.19
293.91	98.19
294.141	95.19
294.372	80.19
294.603	88.19
294.833	101.19
295.064	92.19
295.295	99.19
295.525	88.19
295.756	105.19
295.987	117.19
296.217	125.19
296.448	110.19
296.679	100.19
296.909	84.19
297.14	91.19
297.37	101.19
297.601	87.19
297.831	85.19
298.062	83.19
298.292	85.19
298.523	86.19
298.753	87.19
298.984	99.19
299.214	90.19
299.445	89.19
299.675	91.19
299.905	88.19
300.136	83.19
300.366	86.19
300.597	71.19
300.827	78.19
301.057	105.19
301.288	109.19
301.518	100.19
301.748	83.19
301.979	80.19
302.209	81.19
302.439	87.19
302.669	88.19
302.9	91.19
303.13	95.19
303.36	85.19
303.59	101.19
303.82	96.19
304.051	94.19
304.281	93.19
304.511	86.19
304.741	94.19
304.971	85.19
305.201	98.19
305.431	84.19
305.661	89.19
305.891	93.19
306.121	77.19
306.352	111.19
306.582	100.19
306.812	95.19
307.042	105.19
307.272	85.19
307.502	104.19
307.731	110.19
307.961	96.19
308.191	94.19
308.421	93.19
308.651	90.19
308.881	108.19
309.111	97.19
309.341	93.19
309.571	93.19
309.8	93.19
310.03	89.19
310.26	86.19
310.49	83.19
310.72	98.19
310.949	103.19
311.179	96.19
311.409	98.19
311.639	105.19
311.868	98.19
312.098	91.19
312.328	91.19
312.557	91.19
312.787	103.19
313.017	105.19
313.246	102.19
313.476	97.19
313.706	106.19
313.935	94.19
314.165	103.19
314.394	92.19
314.624	84.19
314.853	101.19
315.083	86.19
315.312	100.19
315.542	87.19
315.771	92.19
316.001	90.19
316.23	80.19
316.46	100.19
316.689	98.19
316.919	100.19
317.148	87.19
317.377	97.19
317.607	94.19
317.836	91.19
318.065	95.19
318.295	90.19
318.524	86.19
318.753	100.19
318.983	88.19
319.212	94.19
319.441	107.19
319.67	85.19
319.9	88.19
320.129	104.19
320.358	99.19
320.587	79.19
320.816	109.19
321.046	100.19
321.275	89.19
321.504	82.19
321.733	83.19
321.962	89.19
322.191	99.19
322.42	114.19
322.649	107.19
322.878	101.19
323.108	116.19
323.337	120.19
323.566	114.19
323.795	151.19
324.024	204.19
324.253	333.19
324.482	708.19
324.71	1498.19
324.939	1922.19
325.168	735.19
325.397	229.19
325.626	148.19
325.855	111.19
326.084	101.19
326.313	115.19
326.542	164.19
326.77	207.19
326.999	420.19
327.228	837.19
327.457	1495.19
327.686	1181.19
327.914	337.19
328.143	183.19
328.372	150.19
328.6	131.19
328.829	124.19
329.058	130.19
329.287	102.19
329.515	92.19
329.744	119.19
329.972	118.19
330.201	154.19
330.43	193.19
330.658	145.19
330.887	151.19
331.115	121.19
331.344	93.19
331.572	95.19
331.801	96.19
332.03	93.19
332.258	99.19
332.486	84.19
332.715	96.19
332.943	89.19
333.172	100.19
333.4	98.19
333.629	122.19
333.857	120.19
334.085	121.19
334.314	153.19
334.542	225.19
334.771	217.19
334.999	123.19
335.227	94.19
335.455	87.19
335.684	96.19
335.912	97.19
336.14	92.19
336.369	96.19
336.597	103.19
336.825	105.19
337.053	93.19
337.281	84.19
337.51	109.19
337.738	79.19
337.966	97.19
338.194	106.19
338.422	96.19
338.65	93.19
338.878	84.19
339.106	98.19
339.334	84.19
339.562	91.19
339.79	95.19
340.018	83.19
340.246	96.19
340.474	105.19
340.702	94.19
340.93	105.19
341.158	99.19
341.386	100.19
341.614	92.19
341.842	94.19
342.07	89.19
342.298	90.19
342.526	83.19
342.754	96.19
342.981	91.19
343.209	85.19
343.437	97.19
343.665	96.19
343.893	83.19
344.12	91.19
344.348	88.19
344.576	97.19
344.804	96.19
345.031	83.19
345.259	96.19
345.487	111.19
345.714	96.19
345.942	89.19
346.17	91.19
346.397	94.19
346.625	99.19
346.853	92.19
347.08	96.19
347.308	84.19
347.535	88.19
347.763	95.19
347.99	105.19
348.218	99.19
348.445	92.19
348.673	97.19
348.9	94.19
349.128	94.19
349.355	94.19
349.583	86.19
349.81	77.19
350.037	89.19
350.265	101.19
350.492	91.19
350.72	102.19
350.947	115.19
351.174	101.19
351.402	119.19
351.629	95.19
351.856	100.19
352.083	94.19
352.311	100.19
352.538	110.19
352.765	115.19
352.992	120.19
353.22	107.19
353.447	99.19
353.674	89.19
353.901	104.19
354.128	91.19
354.355	96.19
354.583	87.19
354.81	88.19
355.037	93.19
355.264	82.19
355.491	85.19
355.718	104.19
355.945	84.19
356.172	101.19
356.399	98.19
356.626	91.19
356.853	84.19
357.08	92.19
357.307	93.19
357.534	79.19
357.761	77.19
357.988	86.19
358.215	106.19
358.441	90.19
358.668	90.19
358.895	93.19
359.122	99.19
359.349	86.19
359.576	88.19
359.802	96.19
360.029	133.19
360.256	106.19
360.483	87.19
360.709	96.19
360.936	89.19
361.163	88.19
361.39	99.19
361.616	89.19
361.843	89.19
362.07	96.19
362.296	94.19
362.523	88.19
362.749	92.19
362.976	92.19
363.203	91.19
363.429	87.19
363.656	92.19
363.882	97.19
364.109	85.19
364.335	88.19
364.562	90.19
364.788	91.19
365.015	93.19
365.241	96.19
365.468	91.19
365.694	95.19
365.92	92.19
366.147	91.19
366.373	98.19
366.599	104.19
366.826	91.19
367.052	90.19
367.278	96.19
367.505	87.19
367.731	91.19
367.957	83.19
368.184	84.19
368.41	91.19
368.636	104.19
368.862	111.19
369.089	106.19
369.315	95.19
369.541	90.19
369.767	87.19
369.993	102.19
370.219	80.19
370.445	96.19
370.672	79.19
370.898	100.19
371.124	89.19
371.35	83.19
371.576	73.19
371.802	100.19
372.028	91.19
372.254	92.19
372.48	95.19
372.706	90.19
372.932	94.19
373.158	87.19
373.384	89.19
373.61	87.19
373.835	85.19
374.061	80.19
374.287	95.19
374.513	86.19
374.739	101.19
374.965	87.19
375.191	92.19
375.416	102.19
375.642	87.19
375.868	75.19
376.094	77.19
376.319	83.19
376.545	92.19
376.771	95.19
376.997	84.19
377.222	84.19
377.448	93.19
377.674	81.19
377.899	84.19
378.125	94.19
378.35	92.19
378.576	88.19
378.802	83.19
379.027	97.19
379.253	83.19
379.478	97.19
379.704	86.19
379.929	84.19
380.155	100.19
380.38	89.19
380.606	101.19
380.831	94.19
381.057	90.19
381.282	82.19
381.507	98.19
381.733	80.19
381.958	94.19
382.184	112.19
382.409	100.19
382.634	88.19
382.86	104.19
383.085	108.19
383.31	99.19
383.535	95.19
383.761	101.19
383.986	94.19
384.211	96.19
384.436	100.19
384.662	90.19
384.887	104.19
385.112	101.19
385.337	99.19
385.562	100.19
385.787	102.19
386.013	100.19
386.238	103.19
386.463	91.19
386.688	100.19
386.913	95.19
387.138	109.19
387.363	93.19
387.588	96.19
387.813	87.19
388.038	91.19
388.263	104.19
388.488	96.19
388.713	91.19
388.938	87.19
389.163	93.19
389.387	91.19
389.612	97.19
389.837	86.19
390.062	103.19
390.287	91.19
390.512	98.19
390.736	102.19
390.961	93.19
391.186	95.19
391.411	87.19
391.636	91.19
391.86	90.19
392.085	85.19
392.31	82.19
392.534	74.19
392.759	105.19
392.984	85.19
393.208	88.19
393.433	93.19
393.658	93.19
393.882	85.19
394.107	84.19
394.331	76.19
394.556	87.19
394.78	99.19
395.005	89.19
395.229	95.19
395.454	87.19
395.678	85.19
395.903	92.19
396.127	85.19
396.352	91.19
396.576	89.19
396.801	84.19
397.025	79.19
397.249	94.19
397.474	87.19
397.698	95.19
397.922	81.19
398.147	101.19
398.371	98.19
398.595	91.19
398.82	88.19
399.044	93.19
399.268	96.19
399.492	89.19
399.717	77.19
399.941	93.19
400.165	97.19
400.389	87.19
400.613	66.19
400.837	81.19
401.062	73.19
401.286	88.19
401.51	80.19
401.734	88.19
401.958	89.19
402.182	122.19
402.406	154.19
402.63	117.19
402.854	85.19
403.078	98.19
403.302	84.19
403.526	101.19
403.75	76.19
403.974	86.19
404.198	77.19
404.422	95.19
404.645	82.19
404.869	88.19
405.093	107.19
405.317	91.19
405.541	94.19
405.765	98.19
405.988	104.19
406.212	157.19
406.436	203.19
406.66	147.19
406.883	91.19
407.107	96.19
407.331	96.19
407.555	89.19
407.778	90.19
408.002	88.19
408.226	74.19
408.449	82.19
408.673	76.19
408.896	95.19
409.12	101.19
409.344	95.19
409.567	96.19
409.791	101.19
410.014	96.19
410.238	98.19
410.461	78.19
410.685	75.19
410.908	104.19
411.132	101.19
411.355	96.19
411.578	89.19
411.802	92.19
412.025	94.19
412.249	97.19
412.472	111.19
412.695	78.19
412.919	85.19
413.142	82.19
413.365	90.19
413.589	87.19
413.812	99.19
414.035	84.19
414.258	85.19
414.482	87.19
414.705	84.19
414.928	87.19
415.151	82.19
415.374	97.19
415.597	84.19
415.821	85.19
416.044	79.19
416.267	79.19
416.49	87.19
416.713	80.19
416.936	94.19
417.159	88.19
417.382	100.19
417.605	90.19
417.828	100.19
418.051	89.19
418.274	92.19
418.497	91.19
418.72	89.19
418.943	84.19
419.166	80.19
419.389	81.19
419.611	84.19
419.834	96.19
420.057	83.19
420.28	96.19
420.503	89.19
420.726	85.19
420.948	93.19
421.171	84.19
421.394	90.19
421.617	89.19
421.839	104.19
422.062	92.19
422.285	77.19
422.507	108.19
422.73	86.19
422.953	83.19
423.175	102.19
423.398	83.19
423.621	99.19
423.843	83.19
424.066	75.19
424.288	89.19
424.511	77.19
424.733	103.19
424.956	92.19
425.178	100.19
425.401	104.19
425.623	99.19
425.846	92.19
426.068	84.19
426.291	89.19
426.513	87.19
426.735	94.19
426.958	104.19
427.18	96.19
427.402	128.19
427.625	137.19
427.847	116.19
428.069	105.19
428.292	93.19
428.514	89.19
428.736	93.19
428.958	87.19
429.181	81.19
429.403	81.19
429.625	77.19
429.847	93.19
430.069	97.19
430.292	83.19
430.514	83.19
430.736	78.19
430.958	83.19
431.18	78.19
431.402	81.19
431.624	93.19
431.846	81.19
432.068	97.19
432.29	95.19
432.512	100.19
432.734	88.19
432.956	96.19
433.178	103.19
433.4	98.19
433.622	87.19
433.844	89.19
434.066	94.19
434.287	84.19
434.509	95.19
434.731	86.19
434.953	80.19
435.175	80.19
435.397	96.19
435.618	84.19
435.84	98.19
436.062	113.19
436.284	111.19
436.505	89.19
436.727	100.19
436.949	96.19
437.17	83.19
437.392	80.19
437.614	94.19
437.835	93.19
438.057	104.19
438.278	101.19
438.5	103.19
438.721	102.19
438.943	77.19
439.165	77.19
439.386	93.19
439.608	100.19
439.829	89.19
440.05	102.19
440.272	131.19
440.493	93.19
440.715	88.19
440.936	93.19
441.158	92.19
441.379	94.19
441.6	90.19
441.822	88.19
442.043	86.19
442.264	93.19
442.486	97.19
442.707	92.19
442.928	109.19
443.149	121.19
443.371	117.19
443.592	92.19
443.813	93.19
444.034	91.19
444.255	80.19
444.476	75.19
444.698	81.19
444.919	85.19
445.14	130.19
445.361	119.19
445.582	119.19
445.803	119.19
446.024	126.19
446.245	122.19
446.466	101.19
446.687	92.19
446.908	99.19
447.129	95.19
447.35	96.19
447.571	98.19
447.792	71.19
448.013	107.19
448.234	98.19
448.455	93.19
448.675	105.19
448.896	101.19
449.117	98.19
449.338	94.19
449.559	119.19
449.779	123.19
450	92.19
450.221	101.19
450.442	92.19
450.662	87.19
450.883	110.19
451.104	100.19
451.324	94.19
451.545	91.19
451.766	89.19
451.986	90.19
452.207	87.19
452.428	96.19
452.648	99.19
452.869	99.19
453.089	107.19
453.31	112.19
453.53	87.19
453.751	93.19
453.971	98.19
454.192	101.19
454.412	96.19
454.633	99.19
454.853	94.19
455.073	88.19
455.294	90.19
455.514	108.19
455.734	92.19
455.955	67.19
456.175	66.19
456.395	81.19
456.616	77.19
456.836	88.19
457.056	81.19
457.276	76.19
457.497	84.19
457.717	75.19
457.937	95.19
458.157	90.19
458.377	94.19
458.598	99.19
458.818	139.19
459.038	148.19
459.258	115.19
459.478	84.19
459.698	99.19
459.918	84.19
460.138	87.19
460.358	87.19
460.578	86.19
460.798	92.19
461.018	95.19
461.238	97.19
461.458	77.19
461.678	77.19
461.898	93.19
462.118	95.19
462.338	88.19
462.558	95.19
462.777	82.19
462.997	87.19
463.217	79.19
463.437	83.19
463.657	100.19
463.876	81.19
464.096	81.19
464.316	86.19
464.536	95.19
464.755	92.19
464.975	89.19
465.195	166.19
465.414	146.19
465.634	98.19
465.854	94.19
466.073	87.19
466.293	91.19
466.512	76.19
466.732	78.19
466.951	95.19
467.171	90.19
467.391	75.19
467.61	99.19
467.829	96.19
468.049	119.19
468.268	151.19
468.488	89.19
468.707	84.19
468.927	91.19
469.146	83.19
469.365	82.19
469.585	87.19
469.804	86.19
470.023	89.19
470.243	95.19
470.462	105.19
470.681	92.19
470.901	83.19
471.12	74.19
471.339	86.19
471.558	78.19
471.777	88.19
471.997	98.19
472.216	149.19
472.435	249.19
472.654	128.19
472.873	92.19
473.092	71.19
473.311	95.19
473.53	80.19
473.749	89.19
473.968	100.19
474.187	101.19
474.406	80.19
474.625	92.19
474.844	96.19
475.063	78.19
475.282	83.19
475.501	88.19
475.72	80.19
475.939	91.19
476.158	87.19
476.377	88.19
476.596	83.19
476.814	97.19
477.033	84.19
477.252	84.19
477.471	81.19
477.69	97.19
477.908	84.19
478.127	87.19
478.346	85.19
478.564	75.19
478.783	94.19
479.002	87.19
479.22	88.19
479.439	108.19
479.658	90.19
479.876	75.19
480.095	93.19
480.313	93.19
480.532	81.19
480.751	96.19
480.969	167.19
481.188	432.19
481.406	281.19
481.624	128.19
481.843	103.19
482.061	92.19
482.28	91.19
482.498	85.19
482.717	84.19
482.935	88.19
483.153	87.19
483.372	91.19
483.59	101.19
483.808	94.19
484.027	89.19
484.245	94.19
484.463	84.19
484.681	104.19
484.9	100.19
485.118	88.19
485.336	85.19
485.554	98.19
485.772	99.19
485.99	108.19
486.209	107.19
486.427	94.19
486.645	96.19
486.863	100.19
487.081	105.19
487.299	94.19
487.517	89.19
487.735	94.19
487.953	76.19
488.171	107.19
488.389	92.19
488.607	88.19
488.825	92.19
489.043	89.19
489.261	90.19
489.479	109.19
489.696	91.19
489.914	81.19
490.132	83.19
490.35	68.19
490.568	82.19
490.786	99.19
491.003	79.19
491.221	90.19
491.439	81.19
491.657	77.19
491.874	87.19
492.092	88.19
492.31	87.19
492.527	83.19
492.745	75.19
492.963	92.19
493.18	71.19
493.398	93.19
493.615	101.19
493.833	85.19
494.05	95.19
494.268	92.19
494.485	80.19
494.703	82.19
494.92	73.19
495.138	91.19
495.355	87.19
495.573	86.19
495.79	70.19
496.008	100.19
496.225	97.19
496.442	76.19
496.66	99.19
496.877	97.19
497.094	90.19
497.312	107.19
497.529	87.19
497.746	87.19
497.963	94.19
498.181	82.19
498.398	89.19
498.615	107.19
498.832	100.19
499.049	85.19
499.267	84.19
499.484	85.19
499.701	83.19
499.918	88.19
500.135	91.19
500.352	96.19
500.569	94.19
500.786	94.19
501.003	91.19
501.22	88.19
501.437	84.19
501.654	88.19
501.871	91.19
502.088	87.19
502.305	99.19
502.522	82.19
502.739	68.19
502.956	89.19
503.172	95.19
503.389	93.19
503.606	99.19
503.823	90.19
504.04	80.19
504.256	90.19
504.473	81.19
504.69	103.19
504.907	96.19
505.123	92.19
505.34	99.19
505.557	103.19
505.773	78.19
505.99	83.19
506.207	86.19
506.423	84.19
506.64	99.19
506.856	92.19
507.073	99.19
507.289	92.19
507.506	97.19
507.722	105.19
507.939	115.19
508.155	116.19
508.372	101.19
508.588	94.19
508.805	90.19
509.021	85.19
509.238	97.19
509.454	104.19
509.67	84.19
509.887	108.19
510.103	132.19
510.319	205.19
510.536	768.19
510.752	2370.19
510.968	621.19
511.184	161.19
511.401	99.19
511.617	87.19
511.833	91.19
512.049	93.19
512.265	90.19
512.481	91.19
512.698	96.19
512.914	91.19
513.13	81.19
513.346	89.19
513.562	92.19
513.778	88.19
513.994	98.19
514.21	78.19
514.426	105.19
514.642	122.19
514.858	125.19
515.074	152.19
515.29	402.19
515.506	1362.19
515.721	498.19
515.937	151.19
516.153	105.19
516.369	88.19
516.585	99.19
516.801	105.19
517.016	106.19
517.232	67.19
517.448	92.19
517.664	85.19
517.879	87.19
518.095	87.19
518.311	97.19
518.527	99.19
518.742	103.19
518.958	88.19
519.173	95.19
519.389	81.19
519.605	90.19
519.82	93.19
520.036	97.19
520.251	110.19
520.467	106.19
520.682	90.19
520.898	95.19
521.113	115.19
521.329	121.19
521.544	179.19
521.76	523.19
521.975	2271.19
522.19	1358.19
522.406	304.19
522.621	110.19
522.836	90.19
523.052	89.19
523.267	82.19
523.482	90.19
523.698	103.19
523.913	120.19
524.128	108.19
524.343	85.19
524.559	103.19
524.774	82.19
524.989	93.19
525.204	102.19
525.419	91.19
525.634	95.19
525.849	92.19
526.064	75.19
526.28	88.19
526.495	81.19
526.71	89.19
526.925	87.19
527.14	76.19
527.355	88.19
527.57	86.19
527.785	103.19
527.999	93.19
528.214	80.19
528.429	106.19
528.644	97.19
528.859	89.19
529.074	101.19
529.289	115.19
529.503	171.19
529.718	113.19
529.933	94.19
530.148	93.19
530.363	85.19
530.577	93.19
530.792	102.19
531.007	85.19
531.221	79.19
531.436	90.19
531.651	99.19
531.865	87.19
532.08	75.19
532.295	108.19
532.509	92.19
532.724	92.19
532.938	97.19
533.153	95.19
533.367	96.19
533.582	95.19
533.796	84.19
534.011	75.19
534.225	91.19
534.44	88.19
534.654	80.19
534.868	79.19
535.083	91.19
535.297	107.19
535.511	87.19
535.726	112.19
535.94	84.19
536.154	94.19
536.369	105.19
536.583	76.19
536.797	91.19
537.011	101.19
537.225	89.19
537.44	92.19
537.654	99.19
537.868	75.19
538.082	92.19
538.296	94.19
538.51	76.19
538.724	77.19
538.938	80.19
539.153	124.19
539.367	98.19
539.581	105.19
539.795	105.19
540.009	82.19
540.222	79.19
540.436	89.19
540.65	88.19
540.864	84.19
541.078	88.19
541.292	90.19
541.506	80.19
541.72	83.19
541.934	74.19
542.147	89.19
542.361	74.19
542.575	73.19
542.789	83.19
543.002	85.19
543.216	79.19
543.43	90.19
543.644	97.19
543.857	91.19
544.071	83.19
544.285	77.19
544.498	92.19
544.712	91.19
544.925	96.19
545.139	89.19
545.352	83.19
545.566	89.19
545.779	92.19
545.993	83.19
546.206	93.19
546.42	88.19
546.633	90.19
546.847	77.19
547.06	85.19
547.274	84.19
547.487	89.19
547.7	109.19
547.914	88.19
548.127	94.19
548.34	92.19
548.554	93.19
548.767	91.19
548.98	86.19
549.193	86.19
549.407	88.19
549.62	84.19
549.833	79.19
550.046	88.19
550.259	97.19
550.473	89.19
550.686	81.19
550.899	84.19
551.112	92.19
551.325	85.19
551.538	82.19
551.751	92.19
551.964	82.19
552.177	93.19
552.39	93.19
552.603	83.19
552.816	72.19
553.029	83.19
553.242	102.19
553.455	101.19
553.667	101.19
553.88	88.19
554.093	91.19
554.306	90.19
554.519	82.19
554.732	85.19
554.944	86.19
555.157	73.19
555.37	83.19
555.583	84.19
555.795	85.19
556.008	88.19
556.221	84.19
556.433	77.19
556.646	83.19
556.859	89.19
557.071	86.19
557.284	91.19
557.496	91.19
557.709	84.19
557.921	103.19
558.134	76.19
558.346	75.19
558.559	83.19
558.771	80.19
558.984	95.19
559.196	90.19
559.409	100.19
559.621	75.19
559.833	84.19
560.046	86.19
560.258	94.19
560.47	98.19
560.683	87.19
560.895	79.19
561.107	99.19
561.32	83.19
561.532	90.19
561.744	99.19
561.956	95.19
562.168	95.19
562.381	92.19
562.593	101.19
562.805	97.19
563.017	90.19
563.229	98.19
563.441	94.19
563.653	84.19
563.865	89.19
564.077	96.19
564.289	91.19
564.501	87.19
564.713	100.19
564.925	96.19
565.137	91.19
565.349	100.19
565.561	94.19
565.773	91.19
565.985	80.19
566.197	95.19
566.408	105.19
566.62	97.19
566.832	96.19
567.044	71.19
567.255	71.19
567.467	90.19
567.679	98.19
567.891	101.19
568.102	65.19
568.314	93.19
568.526	93.19
568.737	85.19
568.949	91.19
569.161	90.19
569.372	88.19
569.584	83.19
569.795	99.19
570.007	108.19
570.218	223.19
570.43	135.19
570.641	107.19
570.853	91.19
571.064	95.19
571.276	83.19
571.487	79.19
571.698	76.19
571.91	95.19
572.121	87.19
572.333	80.19
572.544	101.19
572.755	99.19
572.966	98.19
573.178	89.19
573.389	83.19
573.6	86.19
573.811	82.19
574.023	97.19
574.234	101.19
574.445	92.19
574.656	83.19
574.867	94.19
575.078	102.19
575.289	80.19
575.501	90.19
575.712	71.19
575.923	81.19
576.134	85.19
576.345	84.19
576.556	81.19
576.767	88.19
576.978	94.19
577.188	83.19
577.399	98.19
577.61	92.19
577.821	82.19
578.032	124.19
578.243	233.19
578.454	702.19
578.665	211.19
578.875	100.19
579.086	79.19
579.297	79.19
579.508	84.19
579.718	99.19
579.929	107.19
580.14	95.19
580.35	89.19
580.561	81.19
580.772	91.19
580.982	69.19
581.193	86.19
581.403	93.19
581.614	94.19
581.825	113.19
582.035	91.19
582.246	86.19
582.456	78.19
582.667	82.19
582.877	79.19
583.087	92.19
583.298	92.19
583.508	84.19
583.719	96.19
583.929	93.19
584.139	87.19
584.35	79.19
584.56	109.19
584.77	91.19
584.981	77.19
585.191	91.19
585.401	83.19
585.611	73.19
585.821	75.19
586.032	93.19
586.242	85.19
586.452	81.19
586.662	81.19
586.872	87.19
587.082	85.19
587.292	83.19
587.502	89.19
587.713	80.19
587.923	82.19
588.133	92.19
588.343	90.19
588.553	97.19
588.762	95.19
588.972	104.19
589.182	165.19
589.392	118.19
589.602	100.19
589.812	144.19
590.022	89.19
590.232	96.19
590.441	91.19
590.651	84.19
590.861	78.19
591.071	98.19
591.281	90.19
591.49	100.19
591.7	87.19
591.91	90.19
592.119	74.19
592.329	94.19
592.539	91.19
592.748	83.19
592.958	75.19
593.167	85.19
593.377	83.19
593.587	100.19
593.796	76.19
594.006	95.19
594.215	79.19
594.424	82.19
594.634	102.19
594.843	83.19
595.053	83.19
595.262	95.19
595.472	98.19
595.681	86.19
595.89	87.19
596.1	74.19
596.309	94.19
596.518	79.19
596.727	89.19
596.937	83.19
597.146	94.19
597.355	94.19
597.564	90.19
597.774	87.19
597.983	83.19
598.192	72.19
598.401	84.19
598.61	76.19
598.819	67.19
599.028	87.19
599.237	86.19
599.446	72.19
599.655	79.19
599.864	79.19
600.073	80.19
600.282	91.19
600.491	97.19
600.7	77.19
600.909	74.19
601.118	90.19
601.327	89.19
601.536	80.19
601.745	93.19
601.953	89.19
602.162	81.19
602.371	69.19
602.58	92.19
602.789	78.19
602.997	87.19
603.206	92.19
603.415	74.19
603.623	85.19
603.832	78.19
604.041	77.19
604.249	84.19
604.458	84.19
604.666	64.19
604.875	80.19
605.084	87.19
605.292	86.19
605.501	87.19
605.709	94.19
605.918	78.19
606.126	88.19
606.334	92.19
606.543	78.19
606.751	85.19
606.96	81.19
607.168	92.19
607.376	90.19
607.585	85.19
607.793	71.19
608.001	95.19
608.21	84.19
608.418	92.19
608.626	81.19
608.834	92.19
609.043	90.19
609.251	93.19
609.459	89.19
609.667	92.19
609.875	73.19
610.083	83.19
610.291	81.19
610.499	99.19
610.707	105.19
610.916	96.19
611.124	92.19
611.332	90.19
611.54	79.19
611.748	87.19
611.955	93.19
612.163	91.19
612.371	91.19
612.579	87.19
612.787	76.19
612.995	79.19
613.203	91.19
613.411	84.19
613.618	84.19
613.826	86.19
614.034	95.19
614.242	90.19
614.449	84.19
614.657	86.19
614.865	81.19
615.072	81.19
615.28	88.19
615.488	98.19
615.695	100.19
615.903	108.19
616.111	87.19
616.318	91.19
616.526	99.19
616.733	97.19
616.941	94.19
617.148	102.19
617.356	100.19
617.563	77.19
617.771	97.19
617.978	86.19
618.185	92.19
618.393	93.19
618.6	71.19
618.807	79.19
619.015	84.19
619.222	79.19
619.429	83.19
619.637	91.19
619.844	81.19
620.051	87.19
620.258	84.19
620.466	76.19
620.673	87.19
620.88	90.19
621.087	83.19
621.294	79.19
621.501	87.19
621.708	86.19
621.915	77.19
622.122	73.19
622.329	80.19
622.536	89.19
622.743	93.19
622.95	84.19
623.157	83.19
623.364	94.19
623.571	77.19
623.778	79.19
623.985	83.19
624.192	78.19
624.399	74.19
624.606	91.19
624.812	93.19
625.019	85.19
625.226	76.19
625.433	84.19
625.639	92.19
625.846	81.19
626.053	80.19
626.259	83.19
626.466	95.19
626.673	84.19
626.879	79.19
627.086	83.19
627.293	80.19
627.499	74.19
627.706	96.19
627.912	76.19
628.119	79.19
628.325	87.19
628.532	94.19
628.738	75.19
628.945	81.19
629.151	74.19
629.357	92.19
629.564	76.19
629.77	82.19
629.976	80.19
630.183	96.19
630.389	92.19
630.595	82.19
630.802	91.19
631.008	88.19
631.214	79.19
631.42	94.19
631.627	86.19
631.833	89.19
632.039	85.19
632.245	90.19
632.451	89.19
632.657	74.19
632.863	78.19
633.069	88.19
633.275	86.19
633.481	83.19
633.688	90.19
633.893	85.19
634.099	87.19
634.305	81.19
634.511	87.19
634.717	74.19
634.923	76.19
635.129	87.19
635.335	85.19
635.541	81.19
635.747	88.19
635.952	80.19
636.158	84.19
636.364	106.19
636.57	101.19
636.775	86.19
636.981	82.19
637.187	101.19
637.392	85.19
637.598	81.19
637.804	92.19
638.009	91.19
638.215	84.19
638.421	99.19
638.626	85.19
638.832	84.19
639.037	71.19
639.243	78.19
639.448	75.19
639.654	98.19
639.859	87.19
640.065	89.19
640.27	83.19
640.475	71.19
640.681	79.19
640.886	73.19
641.091	80.19
641.297	90.19
641.502	90.19
641.707	83.19
641.913	87.19
642.118	75.19
642.323	92.19
642.528	93.19
642.733	76.19
642.939	91.19
643.144	91.19
643.349	79.19
643.554	105.19
643.759	94.19
643.964	93.19
644.169	84.19
644.374	99.19
644.579	91.19
644.784	89.19
644.989	91.19
645.194	84.19
645.399	95.19
645.604	87.19
645.809	90.19
646.014	94.19
646.219	91.19
646.423	82.19
646.628	71.19
646.833	107.19
647.038	88.19
647.243	96.19
647.447	88.19
647.652	95.19
647.857	88.19
648.062	91.19
648.266	86.19
648.471	99.19
648.676	88.19
648.88	91.19
649.085	91.19
649.289	95.19
649.494	99.19
649.698	132.19
649.903	95.19
650.107	96.19
650.312	63.19
650.516	83.19
650.721	84.19
650.925	91.19
651.13	78.19
651.334	84.19
651.539	81.19
651.743	90.19
651.947	78.19
652.152	76.19
652.356	79.19
652.56	73.19
652.764	68.19
652.969	77.19
653.173	76.19
653.377	81.19
653.581	83.19
653.785	74.19
653.99	83.19
654.194	93.19
654.398	90.19
654.602	89.19
654.806	86.19
655.01	103.19
655.214	85.19
655.418	88.19
655.622	90.19
655.826	88.19
656.03	94.19
656.234	99.19
656.438	99.19
656.642	95.19
656.846	90.19
657.049	89.19
657.253	95.19
657.457	91.19
657.661	95.19
657.865	87.19
658.068	87.19
658.272	81.19
658.476	75.19
658.68	75.19
658.883	89.19
659.087	82.19
659.291	83.19
659.494	91.19
659.698	73.19
659.901	88.19
660.105	77.19
660.309	83.19
660.512	93.19
660.716	84.19
660.919	79.19
661.123	73.19
661.326	93.19
661.53	98.19
661.733	78.19
661.936	81.19
662.14	63.19
662.343	75.19
662.546	95.19
662.75	84.19
662.953	87.19
663.156	70.19
663.36	81.19
663.563	64.19
663.766	74.19
663.969	82.19
664.173	81.19
664.376	88.19
664.579	100.19
664.782	73.19
664.985	79.19
665.188	81.19
665.391	83.19
665.594	77.19
665.797	77.19
666	76.19
666.203	74.19
666.406	87.19
666.609	77.19
666.812	79.19
667.015	92.19
667.218	83.19
667.421	95.19
667.624	80.19
667.827	69.19
668.03	90.19
668.232	79.19
668.435	68.19
668.638	67.19
668.841	84.19
669.043	85.19
669.246	80.19
669.449	87.19
669.651	85.19
669.854	77.19
670.057	82.19
670.259	92.19
670.462	80.19
670.665	89.19
670.867	82.19
671.07	83.19
671.272	80.19
671.475	91.19
671.677	76.19
671.88	90.19
672.082	90.19
672.284	65.19
672.487	86.19
672.689	77.19
672.892	90.19
