Data from Lead_25_2_HRD10591_00031.txt Node
Date: Fri Feb 20 11:02:06 EST 2026
User: Yrep
Spectrometer: HR+D1059
Trigger mode: 1
Integration Time (sec): 1.000000E-1
Scans to average: 1
Electric dark correction enabled: true
Nonlinearity correction enabled: false
Boxcar width: 0
XAxis mode: Wavelengths
Number of Pixels in Spectrum: 2048
>>>>>Begin Spectral Data<<<<<
223.165	-0.12
223.4	-0.12
223.635	-0.12
223.869	-20.12
224.104	-33.12
224.338	-2.12
224.573	-4.12
224.808	-12.12
225.042	0.88
225.277	-1.12
225.511	-3.12
225.746	2.88
225.98	3.88
226.215	8.88
226.449	12.88
226.683	14.88
226.918	10.88
227.152	20.88
227.387	40.88
227.621	37.88
227.856	40.88
228.09	48.88
228.324	48.88
228.559	51.88
228.793	59.88
229.027	73.88
229.262	54.88
229.496	58.88
229.73	72.88
229.964	71.88
230.199	82.88
230.433	78.88
230.667	69.88
230.901	71.88
231.136	82.88
231.37	80.88
231.604	76.88
231.838	82.88
232.072	86.88
232.306	68.88
232.541	95.88
232.775	70.88
233.009	84.88
233.243	83.88
233.477	69.88
233.711	85.88
233.945	78.88
234.179	76.88
234.413	74.88
234.647	73.88
234.881	71.88
235.115	79.88
235.349	74.88
235.583	76.88
235.817	75.88
236.051	63.88
236.285	71.88
236.519	76.88
236.753	70.88
236.987	54.88
237.221	72.88
237.455	80.88
237.689	69.88
237.922	82.88
238.156	79.88
238.39	58.88
238.624	72.88
238.858	69.88
239.091	72.88
239.325	58.88
239.559	87.88
239.793	82.88
240.027	80.88
240.26	82.88
240.494	82.88
240.728	76.88
240.961	79.88
241.195	75.88
241.429	61.88
241.662	68.88
241.896	72.88
242.13	86.88
242.363	72.88
242.597	76.88
242.83	83.88
243.064	84.88
243.298	69.88
243.531	71.88
243.765	75.88
243.998	74.88
244.232	80.88
244.465	83.88
244.699	72.88
244.932	77.88
245.166	64.88
245.399	77.88
245.633	81.88
245.866	88.88
246.099	70.88
246.333	79.88
246.566	81.88
246.8	67.88
247.033	78.88
247.266	73.88
247.5	73.88
247.733	71.88
247.966	76.88
248.2	76.88
248.433	73.88
248.666	87.88
248.899	74.88
249.133	93.88
249.366	81.88
249.599	65.88
249.832	75.88
250.066	73.88
250.299	47.88
250.532	88.88
250.765	66.88
250.998	72.88
251.231	80.88
251.465	66.88
251.698	76.88
251.931	83.88
252.164	84.88
252.397	73.88
252.63	85.88
252.863	78.88
253.096	80.88
253.329	61.88
253.562	82.88
253.795	85.88
254.028	90.88
254.261	78.88
254.494	74.88
254.727	83.88
254.96	70.88
255.193	72.88
255.426	79.88
255.659	67.88
255.892	76.88
256.124	70.88
256.357	83.88
256.59	79.88
256.823	76.88
257.056	80.88
257.289	74.88
257.521	72.88
257.754	78.88
257.987	84.88
258.22	81.88
258.452	77.88
258.685	81.88
258.918	80.88
259.151	87.88
259.383	92.88
259.616	77.88
259.849	75.88
260.081	79.88
260.314	81.88
260.547	80.88
260.779	80.88
261.012	79.88
261.244	83.88
261.477	82.88
261.71	84.88
261.942	68.88
262.175	72.88
262.407	94.88
262.64	80.88
262.872	68.88
263.105	85.88
263.337	74.88
263.57	81.88
263.802	89.88
264.035	73.88
264.267	90.88
264.499	79.88
264.732	95.88
264.964	78.88
265.197	78.88
265.429	84.88
265.661	78.88
265.894	70.88
266.126	69.88
266.358	69.88
266.591	87.88
266.823	78.88
267.055	76.88
267.287	73.88
267.52	89.88
267.752	75.88
267.984	86.88
268.216	69.88
268.448	67.88
268.681	95.88
268.913	80.88
269.145	84.88
269.377	68.88
269.609	79.88
269.841	92.88
270.073	81.88
270.306	68.88
270.538	79.88
270.77	85.88
271.002	82.88
271.234	88.88
271.466	87.88
271.698	85.88
271.93	90.88
272.162	76.88
272.394	84.88
272.626	79.88
272.858	83.88
273.09	92.88
273.322	78.88
273.553	76.88
273.785	83.88
274.017	79.88
274.249	82.88
274.481	79.88
274.713	83.88
274.945	84.88
275.176	63.88
275.408	87.88
275.64	76.88
275.872	77.88
276.104	96.88
276.335	83.88
276.567	79.88
276.799	80.88
277.031	71.88
277.262	65.88
277.494	70.88
277.726	71.88
277.957	70.88
278.189	82.88
278.421	68.88
278.652	93.88
278.884	85.88
279.115	77.88
279.347	73.88
279.579	88.88
279.81	81.88
280.042	89.88
280.273	79.88
280.505	86.88
280.736	87.88
280.968	108.88
281.199	100.88
281.431	64.88
281.662	86.88
281.894	83.88
282.125	81.88
282.356	88.88
282.588	94.88
282.819	74.88
283.051	81.88
283.282	80.88
283.513	71.88
283.745	82.88
283.976	84.88
284.207	98.88
284.439	69.88
284.67	74.88
284.901	86.88
285.132	82.88
285.364	73.88
285.595	92.88
285.826	81.88
286.057	87.88
286.288	72.88
286.52	82.88
286.751	92.88
286.982	72.88
287.213	84.88
287.444	77.88
287.675	80.88
287.906	90.88
288.138	80.88
288.369	85.88
288.6	82.88
288.831	76.88
289.062	78.88
289.293	87.88
289.524	83.88
289.755	79.88
289.986	72.88
290.217	83.88
290.448	78.88
290.679	79.88
290.91	79.88
291.141	75.88
291.371	82.88
291.602	88.88
291.833	77.88
292.064	91.88
292.295	86.88
292.526	84.88
292.757	76.88
292.987	94.88
293.218	68.88
293.449	92.88
293.68	81.88
293.91	83.88
294.141	86.88
294.372	91.88
294.603	90.88
294.833	73.88
295.064	77.88
295.295	86.88
295.525	87.88
295.756	83.88
295.987	92.88
296.217	66.88
296.448	72.88
296.679	77.88
296.909	86.88
297.14	76.88
297.37	82.88
297.601	80.88
297.831	84.88
298.062	82.88
298.292	91.88
298.523	70.88
298.753	89.88
298.984	80.88
299.214	85.88
299.445	73.88
299.675	85.88
299.905	73.88
300.136	87.88
300.366	89.88
300.597	72.88
300.827	86.88
301.057	78.88
301.288	78.88
301.518	69.88
301.748	81.88
301.979	111.88
302.209	92.88
302.439	84.88
302.669	59.88
302.9	86.88
303.13	90.88
303.36	73.88
303.59	83.88
303.82	84.88
304.051	73.88
304.281	74.88
304.511	81.88
304.741	69.88
304.971	85.88
305.201	71.88
305.431	81.88
305.661	83.88
305.891	78.88
306.121	77.88
306.352	96.88
306.582	68.88
306.812	68.88
307.042	83.88
307.272	75.88
307.502	69.88
307.731	68.88
307.961	74.88
308.191	78.88
308.421	87.88
308.651	77.88
308.881	82.88
309.111	79.88
309.341	82.88
309.571	70.88
309.8	86.88
310.03	85.88
310.26	81.88
310.49	86.88
310.72	84.88
310.949	75.88
311.179	89.88
311.409	85.88
311.639	77.88
311.868	99.88
312.098	85.88
312.328	100.88
312.557	84.88
312.787	77.88
313.017	80.88
313.246	82.88
313.476	84.88
313.706	75.88
313.935	77.88
314.165	72.88
314.394	76.88
314.624	69.88
314.853	84.88
315.083	92.88
315.312	75.88
315.542	85.88
315.771	92.88
316.001	72.88
316.23	88.88
316.46	80.88
316.689	76.88
316.919	73.88
317.148	80.88
317.377	85.88
317.607	81.88
317.836	79.88
318.065	79.88
318.295	70.88
318.524	64.88
318.753	62.88
318.983	89.88
319.212	75.88
319.441	61.88
319.67	79.88
319.9	86.88
320.129	97.88
320.358	96.88
320.587	90.88
320.816	83.88
321.046	79.88
321.275	91.88
321.504	76.88
321.733	79.88
321.962	67.88
322.191	82.88
322.42	80.88
322.649	79.88
322.878	89.88
323.108	94.88
323.337	84.88
323.566	78.88
323.795	78.88
324.024	69.88
324.253	80.88
324.482	89.88
324.71	81.88
324.939	102.88
325.168	79.88
325.397	90.88
325.626	82.88
325.855	78.88
326.084	85.88
326.313	64.88
326.542	84.88
326.77	64.88
326.999	87.88
327.228	82.88
327.457	75.88
327.686	80.88
327.914	94.88
328.143	90.88
328.372	90.88
328.6	82.88
328.829	84.88
329.058	95.88
329.287	77.88
329.515	94.88
329.744	72.88
329.972	67.88
330.201	68.88
330.43	70.88
330.658	81.88
330.887	89.88
331.115	80.88
331.344	79.88
331.572	77.88
331.801	67.88
332.03	79.88
332.258	97.88
332.486	89.88
332.715	71.88
332.943	84.88
333.172	87.88
333.4	78.88
333.629	90.88
333.857	79.88
334.085	84.88
334.314	77.88
334.542	82.88
334.771	73.88
334.999	73.88
335.227	82.88
335.455	77.88
335.684	75.88
335.912	88.88
336.14	96.88
336.369	77.88
336.597	74.88
336.825	71.88
337.053	93.88
337.281	93.88
337.51	104.88
337.738	86.88
337.966	75.88
338.194	54.88
338.422	76.88
338.65	86.88
338.878	91.88
339.106	76.88
339.334	80.88
339.562	71.88
339.79	80.88
340.018	68.88
340.246	86.88
340.474	84.88
340.702	92.88
340.93	78.88
341.158	90.88
341.386	78.88
341.614	75.88
341.842	73.88
342.07	78.88
342.298	79.88
342.526	108.88
342.754	102.88
342.981	85.88
343.209	87.88
343.437	91.88
343.665	75.88
343.893	70.88
344.12	90.88
344.348	80.88
344.576	61.88
344.804	92.88
345.031	74.88
345.259	76.88
345.487	90.88
345.714	95.88
345.942	94.88
346.17	74.88
346.397	97.88
346.625	95.88
346.853	77.88
347.08	87.88
347.308	89.88
347.535	71.88
347.763	79.88
347.99	88.88
348.218	82.88
348.445	71.88
348.673	86.88
348.9	78.88
349.128	80.88
349.355	81.88
349.583	85.88
349.81	67.88
350.037	76.88
350.265	75.88
350.492	77.88
350.72	93.88
350.947	91.88
351.174	88.88
351.402	66.88
351.629	78.88
351.856	79.88
352.083	73.88
352.311	79.88
352.538	73.88
352.765	74.88
352.992	82.88
353.22	72.88
353.447	80.88
353.674	74.88
353.901	77.88
354.128	87.88
354.355	94.88
354.583	77.88
354.81	74.88
355.037	81.88
355.264	71.88
355.491	91.88
355.718	99.88
355.945	84.88
356.172	93.88
356.399	95.88
356.626	90.88
356.853	74.88
357.08	78.88
357.307	87.88
357.534	74.88
357.761	82.88
357.988	92.88
358.215	77.88
358.441	70.88
358.668	58.88
358.895	64.88
359.122	72.88
359.349	81.88
359.576	85.88
359.802	81.88
360.029	85.88
360.256	75.88
360.483	82.88
360.709	72.88
360.936	72.88
361.163	80.88
361.39	85.88
361.616	72.88
361.843	94.88
362.07	89.88
362.296	98.88
362.523	91.88
362.749	69.88
362.976	77.88
363.203	85.88
363.429	94.88
363.656	88.88
363.882	84.88
364.109	76.88
364.335	84.88
364.562	85.88
364.788	80.88
365.015	92.88
365.241	78.88
365.468	73.88
365.694	74.88
365.92	73.88
366.147	85.88
366.373	80.88
366.599	73.88
366.826	66.88
367.052	77.88
367.278	91.88
367.505	85.88
367.731	91.88
367.957	96.88
368.184	78.88
368.41	82.88
368.636	76.88
368.862	79.88
369.089	91.88
369.315	74.88
369.541	82.88
369.767	83.88
369.993	71.88
370.219	78.88
370.445	74.88
370.672	84.88
370.898	91.88
371.124	87.88
371.35	82.88
371.576	90.88
371.802	82.88
372.028	82.88
372.254	71.88
372.48	70.88
372.706	75.88
372.932	93.88
373.158	87.88
373.384	70.88
373.61	88.88
373.835	94.88
374.061	82.88
374.287	81.88
374.513	82.88
374.739	73.88
374.965	70.88
375.191	80.88
375.416	80.88
375.642	95.88
375.868	83.88
376.094	82.88
376.319	86.88
376.545	73.88
376.771	90.88
376.997	76.88
377.222	93.88
377.448	59.88
377.674	74.88
377.899	86.88
378.125	85.88
378.35	75.88
378.576	78.88
378.802	84.88
379.027	70.88
379.253	78.88
379.478	96.88
379.704	87.88
379.929	86.88
380.155	70.88
380.38	78.88
380.606	74.88
380.831	80.88
381.057	92.88
381.282	81.88
381.507	70.88
381.733	86.88
381.958	73.88
382.184	64.88
382.409	79.88
382.634	86.88
382.86	59.88
383.085	71.88
383.31	88.88
383.535	66.88
383.761	91.88
383.986	82.88
384.211	84.88
384.436	90.88
384.662	80.88
384.887	79.88
385.112	90.88
385.337	83.88
385.562	82.88
385.787	76.88
386.013	69.88
386.238	81.88
386.463	74.88
386.688	97.88
386.913	78.88
387.138	80.88
387.363	74.88
387.588	84.88
387.813	102.88
388.038	83.88
388.263	95.88
388.488	93.88
388.713	91.88
388.938	79.88
389.163	81.88
389.387	82.88
389.612	86.88
389.837	78.88
390.062	78.88
390.287	85.88
390.512	86.88
390.736	76.88
390.961	74.88
391.186	81.88
391.411	80.88
391.636	78.88
391.86	87.88
392.085	78.88
392.31	70.88
392.534	77.88
392.759	80.88
392.984	72.88
393.208	82.88
393.433	77.88
393.658	70.88
393.882	78.88
394.107	84.88
394.331	81.88
394.556	88.88
394.78	78.88
395.005	82.88
395.229	86.88
395.454	98.88
395.678	76.88
395.903	95.88
396.127	76.88
396.352	77.88
396.576	83.88
396.801	83.88
397.025	83.88
397.249	85.88
397.474	78.88
397.698	73.88
397.922	75.88
398.147	77.88
398.371	68.88
398.595	83.88
398.82	76.88
399.044	75.88
399.268	81.88
399.492	91.88
399.717	79.88
399.941	76.88
400.165	81.88
400.389	75.88
400.613	101.88
400.837	83.88
401.062	79.88
401.286	75.88
401.51	78.88
401.734	86.88
401.958	82.88
402.182	56.88
402.406	67.88
402.63	77.88
402.854	88.88
403.078	74.88
403.302	85.88
403.526	84.88
403.75	78.88
403.974	88.88
404.198	76.88
404.422	83.88
404.645	90.88
404.869	71.88
405.093	70.88
405.317	82.88
405.541	83.88
405.765	86.88
405.988	82.88
406.212	91.88
406.436	78.88
406.66	71.88
406.883	79.88
407.107	81.88
407.331	87.88
407.555	84.88
407.778	84.88
408.002	85.88
408.226	75.88
408.449	91.88
408.673	65.88
408.896	76.88
409.12	70.88
409.344	90.88
409.567	81.88
409.791	82.88
410.014	71.88
410.238	80.88
410.461	82.88
410.685	82.88
410.908	75.88
411.132	66.88
411.355	86.88
411.578	72.88
411.802	82.88
412.025	87.88
412.249	72.88
412.472	78.88
412.695	90.88
412.919	80.88
413.142	86.88
413.365	73.88
413.589	72.88
413.812	77.88
414.035	88.88
414.258	90.88
414.482	76.88
414.705	85.88
414.928	95.88
415.151	86.88
415.374	75.88
415.597	78.88
415.821	81.88
416.044	77.88
416.267	79.88
416.49	83.88
416.713	63.88
416.936	80.88
417.159	77.88
417.382	83.88
417.605	71.88
417.828	84.88
418.051	80.88
418.274	87.88
418.497	89.88
418.72	82.88
418.943	83.88
419.166	88.88
419.389	79.88
419.611	74.88
419.834	78.88
420.057	81.88
420.28	76.88
420.503	76.88
420.726	93.88
420.948	78.88
421.171	88.88
421.394	76.88
421.617	75.88
421.839	80.88
422.062	82.88
422.285	83.88
422.507	79.88
422.73	83.88
422.953	94.88
423.175	77.88
423.398	79.88
423.621	69.88
423.843	75.88
424.066	83.88
424.288	74.88
424.511	79.88
424.733	86.88
424.956	95.88
425.178	81.88
425.401	84.88
425.623	82.88
425.846	76.88
426.068	85.88
426.291	82.88
426.513	82.88
426.735	96.88
426.958	71.88
427.18	76.88
427.402	72.88
427.625	78.88
427.847	94.88
428.069	81.88
428.292	85.88
428.514	77.88
428.736	71.88
428.958	77.88
429.181	76.88
429.403	84.88
429.625	78.88
429.847	81.88
430.069	87.88
430.292	81.88
430.514	77.88
430.736	68.88
430.958	78.88
431.18	89.88
431.402	82.88
431.624	83.88
431.846	87.88
432.068	79.88
432.29	87.88
432.512	86.88
432.734	88.88
432.956	78.88
433.178	86.88
433.4	73.88
433.622	84.88
433.844	83.88
434.066	78.88
434.287	86.88
434.509	88.88
434.731	73.88
434.953	81.88
435.175	77.88
435.397	82.88
435.618	90.88
435.84	80.88
436.062	82.88
436.284	82.88
436.505	93.88
436.727	74.88
436.949	91.88
437.17	82.88
437.392	77.88
437.614	82.88
437.835	73.88
438.057	84.88
438.278	72.88
438.5	77.88
438.721	64.88
438.943	81.88
439.165	72.88
439.386	66.88
439.608	87.88
439.829	68.88
440.05	80.88
440.272	66.88
440.493	74.88
440.715	73.88
440.936	77.88
441.158	91.88
441.379	66.88
441.6	83.88
441.822	87.88
442.043	101.88
442.264	93.88
442.486	79.88
442.707	68.88
442.928	85.88
443.149	80.88
443.371	80.88
443.592	72.88
443.813	73.88
444.034	72.88
444.255	81.88
444.476	79.88
444.698	77.88
444.919	79.88
445.14	149.88
445.361	114.88
445.582	76.88
445.803	70.88
446.024	84.88
446.245	74.88
446.466	79.88
446.687	66.88
446.908	74.88
447.129	79.88
447.35	86.88
447.571	85.88
447.792	96.88
448.013	71.88
448.234	70.88
448.455	94.88
448.675	81.88
448.896	70.88
449.117	68.88
449.338	69.88
449.559	80.88
449.779	79.88
450	77.88
450.221	86.88
450.442	82.88
450.662	62.88
450.883	65.88
451.104	75.88
451.324	84.88
451.545	68.88
451.766	80.88
451.986	82.88
452.207	69.88
452.428	63.88
452.648	81.88
452.869	73.88
453.089	88.88
453.31	90.88
453.53	84.88
453.751	68.88
453.971	85.88
454.192	88.88
454.412	65.88
454.633	64.88
454.853	79.88
455.073	77.88
455.294	88.88
455.514	76.88
455.734	72.88
455.955	72.88
456.175	92.88
456.395	80.88
456.616	67.88
456.836	85.88
457.056	67.88
457.276	82.88
457.497	82.88
457.717	69.88
457.937	88.88
458.157	75.88
458.377	85.88
458.598	84.88
458.818	82.88
459.038	77.88
459.258	79.88
459.478	95.88
459.698	88.88
459.918	84.88
460.138	86.88
460.358	80.88
460.578	84.88
460.798	87.88
461.018	73.88
461.238	82.88
461.458	77.88
461.678	84.88
461.898	88.88
462.118	104.88
462.338	88.88
462.558	79.88
462.777	68.88
462.997	82.88
463.217	82.88
463.437	78.88
463.657	77.88
463.876	75.88
464.096	78.88
464.316	66.88
464.536	65.88
464.755	83.88
464.975	71.88
465.195	84.88
465.414	78.88
465.634	83.88
465.854	60.88
466.073	77.88
466.293	97.88
466.512	77.88
466.732	80.88
466.951	99.88
467.171	76.88
467.391	76.88
467.61	92.88
467.829	93.88
468.049	89.88
468.268	90.88
468.488	76.88
468.707	75.88
468.927	64.88
469.146	79.88
469.365	89.88
469.585	85.88
469.804	86.88
470.023	73.88
470.243	81.88
470.462	74.88
470.681	73.88
470.901	67.88
471.12	71.88
471.339	76.88
471.558	69.88
471.777	91.88
471.997	84.88
472.216	76.88
472.435	82.88
472.654	86.88
472.873	75.88
473.092	80.88
473.311	72.88
473.53	85.88
473.749	89.88
473.968	78.88
474.187	83.88
474.406	86.88
474.625	89.88
474.844	84.88
475.063	79.88
475.282	78.88
475.501	77.88
475.72	78.88
475.939	80.88
476.158	71.88
476.377	90.88
476.596	82.88
476.814	82.88
477.033	75.88
477.252	70.88
477.471	83.88
477.69	74.88
477.908	95.88
478.127	64.88
478.346	82.88
478.564	84.88
478.783	73.88
479.002	86.88
479.22	71.88
479.439	100.88
479.658	85.88
479.876	83.88
480.095	74.88
480.313	86.88
480.532	86.88
480.751	70.88
480.969	79.88
481.188	82.88
481.406	78.88
481.624	81.88
481.843	85.88
482.061	85.88
482.28	85.88
482.498	79.88
482.717	84.88
482.935	83.88
483.153	78.88
483.372	82.88
483.59	81.88
483.808	82.88
484.027	81.88
484.245	81.88
484.463	80.88
484.681	84.88
484.9	79.88
485.118	78.88
485.336	83.88
485.554	69.88
485.772	91.88
485.99	70.88
486.209	85.88
486.427	96.88
486.645	86.88
486.863	82.88
487.081	84.88
487.299	85.88
487.517	86.88
487.735	69.88
487.953	70.88
488.171	83.88
488.389	70.88
488.607	66.88
488.825	68.88
489.043	92.88
489.261	80.88
489.479	76.88
489.696	84.88
489.914	71.88
490.132	82.88
490.35	80.88
490.568	88.88
490.786	82.88
491.003	73.88
491.221	79.88
491.439	74.88
491.657	83.88
491.874	73.88
492.092	81.88
492.31	83.88
492.527	92.88
492.745	84.88
492.963	79.88
493.18	82.88
493.398	76.88
493.615	67.88
493.833	85.88
494.05	83.88
494.268	92.88
494.485	81.88
494.703	79.88
494.92	85.88
495.138	84.88
495.355	83.88
495.573	77.88
495.79	70.88
496.008	88.88
496.225	82.88
496.442	76.88
496.66	72.88
496.877	72.88
497.094	83.88
497.312	68.88
497.529	92.88
497.746	84.88
497.963	86.88
498.181	85.88
498.398	90.88
498.615	71.88
498.832	78.88
499.049	85.88
499.267	84.88
499.484	83.88
499.701	81.88
499.918	79.88
500.135	83.88
500.352	73.88
500.569	76.88
500.786	82.88
501.003	77.88
501.22	85.88
501.437	92.88
501.654	81.88
501.871	90.88
502.088	83.88
502.305	80.88
502.522	84.88
502.739	74.88
502.956	78.88
503.172	75.88
503.389	75.88
503.606	80.88
503.823	92.88
504.04	84.88
504.256	81.88
504.473	87.88
504.69	101.88
504.907	91.88
505.123	73.88
505.34	73.88
505.557	83.88
505.773	92.88
505.99	86.88
506.207	86.88
506.423	67.88
506.64	82.88
506.856	68.88
507.073	94.88
507.289	74.88
507.506	76.88
507.722	85.88
507.939	75.88
508.155	78.88
508.372	91.88
508.588	87.88
508.805	102.88
509.021	85.88
509.238	94.88
509.454	88.88
509.67	83.88
509.887	83.88
510.103	83.88
510.319	83.88
510.536	69.88
510.752	93.88
510.968	85.88
511.184	77.88
511.401	86.88
511.617	73.88
511.833	77.88
512.049	79.88
512.265	79.88
512.481	76.88
512.698	96.88
512.914	93.88
513.13	96.88
513.346	99.88
513.562	80.88
513.778	70.88
513.994	81.88
514.21	80.88
514.426	80.88
514.642	67.88
514.858	78.88
515.074	98.88
515.29	83.88
515.506	88.88
515.721	77.88
515.937	83.88
516.153	86.88
516.369	79.88
516.585	75.88
516.801	75.88
517.016	84.88
517.232	84.88
517.448	82.88
517.664	92.88
517.879	89.88
518.095	75.88
518.311	82.88
518.527	86.88
518.742	84.88
518.958	80.88
519.173	80.88
519.389	92.88
519.605	81.88
519.82	72.88
520.036	84.88
520.251	77.88
520.467	78.88
520.682	91.88
520.898	82.88
521.113	85.88
521.329	79.88
521.544	94.88
521.76	72.88
521.975	84.88
522.19	82.88
522.406	66.88
522.621	74.88
522.836	96.88
523.052	72.88
523.267	81.88
523.482	88.88
523.698	96.88
523.913	78.88
524.128	90.88
524.343	69.88
524.559	77.88
524.774	85.88
524.989	85.88
525.204	88.88
525.419	84.88
525.634	73.88
525.849	77.88
526.064	73.88
526.28	76.88
526.495	78.88
526.71	88.88
526.925	85.88
527.14	71.88
527.355	85.88
527.57	88.88
527.785	74.88
527.999	64.88
528.214	70.88
528.429	81.88
528.644	76.88
528.859	80.88
529.074	67.88
529.289	92.88
529.503	78.88
529.718	96.88
529.933	81.88
530.148	78.88
530.363	74.88
530.577	83.88
530.792	89.88
531.007	80.88
531.221	77.88
531.436	77.88
531.651	71.88
531.865	87.88
532.08	86.88
532.295	90.88
532.509	62.88
532.724	81.88
532.938	79.88
533.153	91.88
533.367	79.88
533.582	84.88
533.796	76.88
534.011	82.88
534.225	86.88
534.44	77.88
534.654	73.88
534.868	55.88
535.083	79.88
535.297	79.88
535.511	75.88
535.726	84.88
535.94	60.88
536.154	71.88
536.369	70.88
536.583	84.88
536.797	91.88
537.011	85.88
537.225	88.88
537.44	88.88
537.654	72.88
537.868	77.88
538.082	94.88
538.296	84.88
538.51	92.88
538.724	87.88
538.938	84.88
539.153	94.88
539.367	99.88
539.581	86.88
539.795	92.88
540.009	71.88
540.222	87.88
540.436	92.88
540.65	86.88
540.864	72.88
541.078	91.88
541.292	84.88
541.506	88.88
541.72	103.88
541.934	84.88
542.147	86.88
542.361	76.88
542.575	91.88
542.789	67.88
543.002	88.88
543.216	82.88
543.43	94.88
543.644	94.88
543.857	90.88
544.071	93.88
544.285	80.88
544.498	85.88
544.712	91.88
544.925	69.88
545.139	88.88
545.352	94.88
545.566	91.88
545.779	73.88
545.993	87.88
546.206	55.88
546.42	60.88
546.633	75.88
546.847	95.88
547.06	95.88
547.274	97.88
547.487	81.88
547.7	78.88
547.914	60.88
548.127	80.88
548.34	96.88
548.554	81.88
548.767	82.88
548.98	83.88
549.193	93.88
549.407	81.88
549.62	81.88
549.833	92.88
550.046	80.88
550.259	72.88
550.473	72.88
550.686	74.88
550.899	104.88
551.112	94.88
551.325	84.88
551.538	84.88
551.751	77.88
551.964	79.88
552.177	81.88
552.39	69.88
552.603	82.88
552.816	85.88
553.029	77.88
553.242	72.88
553.455	82.88
553.667	89.88
553.88	73.88
554.093	82.88
554.306	84.88
554.519	85.88
554.732	88.88
554.944	78.88
555.157	81.88
555.37	74.88
555.583	77.88
555.795	84.88
556.008	91.88
556.221	95.88
556.433	84.88
556.646	90.88
556.859	85.88
557.071	88.88
557.284	78.88
557.496	83.88
557.709	94.88
557.921	73.88
558.134	60.88
558.346	84.88
558.559	71.88
558.771	86.88
558.984	79.88
559.196	87.88
559.409	65.88
559.621	89.88
559.833	93.88
560.046	90.88
560.258	88.88
560.47	78.88
560.683	84.88
560.895	80.88
561.107	87.88
561.32	87.88
561.532	81.88
561.744	76.88
561.956	79.88
562.168	92.88
562.381	78.88
562.593	84.88
562.805	78.88
563.017	68.88
563.229	91.88
563.441	91.88
563.653	84.88
563.865	84.88
564.077	73.88
564.289	94.88
564.501	78.88
564.713	79.88
564.925	87.88
565.137	93.88
565.349	75.88
565.561	62.88
565.773	82.88
565.985	88.88
566.197	88.88
566.408	82.88
566.62	83.88
566.832	70.88
567.044	78.88
567.255	84.88
567.467	83.88
567.679	71.88
567.891	72.88
568.102	85.88
568.314	92.88
568.526	86.88
568.737	74.88
568.949	87.88
569.161	74.88
569.372	73.88
569.584	78.88
569.795	81.88
570.007	79.88
570.218	84.88
570.43	76.88
570.641	77.88
570.853	90.88
571.064	87.88
571.276	90.88
571.487	92.88
571.698	82.88
571.91	81.88
572.121	89.88
572.333	80.88
572.544	74.88
572.755	81.88
572.966	74.88
573.178	90.88
573.389	78.88
573.6	80.88
573.811	85.88
574.023	89.88
574.234	78.88
574.445	73.88
574.656	80.88
574.867	70.88
575.078	89.88
575.289	84.88
575.501	93.88
575.712	82.88
575.923	82.88
576.134	93.88
576.345	86.88
576.556	84.88
576.767	79.88
576.978	88.88
577.188	84.88
577.399	93.88
577.61	94.88
577.821	79.88
578.032	78.88
578.243	77.88
578.454	79.88
578.665	68.88
578.875	97.88
579.086	80.88
579.297	70.88
579.508	88.88
579.718	90.88
579.929	98.88
580.14	91.88
580.35	79.88
580.561	64.88
580.772	79.88
580.982	74.88
581.193	80.88
581.403	87.88
581.614	77.88
581.825	75.88
582.035	78.88
582.246	67.88
582.456	80.88
582.667	87.88
582.877	80.88
583.087	91.88
583.298	89.88
583.508	83.88
583.719	90.88
583.929	89.88
584.139	90.88
584.35	82.88
584.56	87.88
584.77	80.88
584.981	76.88
585.191	82.88
585.401	73.88
585.611	81.88
585.821	85.88
586.032	91.88
586.242	84.88
586.452	82.88
586.662	86.88
586.872	76.88
587.082	65.88
587.292	78.88
587.502	89.88
587.713	81.88
587.923	88.88
588.133	90.88
588.343	89.88
588.553	72.88
588.762	92.88
588.972	101.88
589.182	98.88
589.392	83.88
589.602	93.88
589.812	94.88
590.022	81.88
590.232	87.88
590.441	77.88
590.651	86.88
590.861	66.88
591.071	90.88
591.281	86.88
591.49	80.88
591.7	76.88
591.91	82.88
592.119	84.88
592.329	80.88
592.539	76.88
592.748	84.88
592.958	74.88
593.167	85.88
593.377	80.88
593.587	77.88
593.796	67.88
594.006	80.88
594.215	75.88
594.424	83.88
594.634	75.88
594.843	83.88
595.053	86.88
595.262	91.88
595.472	80.88
595.681	80.88
595.89	82.88
596.1	86.88
596.309	65.88
596.518	76.88
596.727	83.88
596.937	84.88
597.146	83.88
597.355	75.88
597.564	73.88
597.774	79.88
597.983	92.88
598.192	80.88
598.401	78.88
598.61	73.88
598.819	82.88
599.028	75.88
599.237	86.88
599.446	76.88
599.655	84.88
599.864	78.88
600.073	82.88
600.282	79.88
600.491	82.88
600.7	86.88
600.909	98.88
601.118	85.88
601.327	79.88
601.536	72.88
601.745	68.88
601.953	76.88
602.162	69.88
602.371	70.88
602.58	80.88
602.789	96.88
602.997	85.88
603.206	94.88
603.415	87.88
603.623	84.88
603.832	108.88
604.041	80.88
604.249	80.88
604.458	86.88
604.666	87.88
604.875	98.88
605.084	68.88
605.292	83.88
605.501	79.88
605.709	75.88
605.918	79.88
606.126	94.88
606.334	83.88
606.543	79.88
606.751	91.88
606.96	93.88
607.168	95.88
607.376	74.88
607.585	86.88
607.793	88.88
608.001	81.88
608.21	86.88
608.418	84.88
608.626	76.88
608.834	76.88
609.043	83.88
609.251	76.88
609.459	84.88
609.667	79.88
609.875	78.88
610.083	92.88
610.291	93.88
610.499	72.88
610.707	74.88
610.916	78.88
611.124	73.88
611.332	82.88
611.54	91.88
611.748	86.88
611.955	90.88
612.163	88.88
612.371	73.88
612.579	66.88
612.787	80.88
612.995	71.88
613.203	84.88
613.411	80.88
613.618	76.88
613.826	88.88
614.034	80.88
614.242	91.88
614.449	72.88
614.657	96.88
614.865	94.88
615.072	85.88
615.28	75.88
615.488	83.88
615.695	83.88
615.903	76.88
616.111	93.88
616.318	103.88
616.526	83.88
616.733	74.88
616.941	66.88
617.148	85.88
617.356	78.88
617.563	76.88
617.771	98.88
617.978	86.88
618.185	90.88
618.393	81.88
618.6	84.88
618.807	70.88
619.015	86.88
619.222	91.88
619.429	86.88
619.637	92.88
619.844	70.88
620.051	87.88
620.258	84.88
620.466	96.88
620.673	84.88
620.88	74.88
621.087	80.88
621.294	95.88
621.501	90.88
621.708	77.88
621.915	71.88
622.122	77.88
622.329	82.88
622.536	79.88
622.743	83.88
622.95	65.88
623.157	80.88
623.364	86.88
623.571	97.88
623.778	78.88
623.985	87.88
624.192	80.88
624.399	73.88
624.606	91.88
624.812	76.88
625.019	102.88
625.226	87.88
625.433	79.88
625.639	86.88
625.846	82.88
626.053	86.88
626.259	76.88
626.466	89.88
626.673	70.88
626.879	84.88
627.086	70.88
627.293	97.88
627.499	80.88
627.706	86.88
627.912	82.88
628.119	80.88
628.325	94.88
628.532	72.88
628.738	87.88
628.945	90.88
629.151	84.88
629.357	83.88
629.564	92.88
629.77	85.88
629.976	84.88
630.183	68.88
630.389	65.88
630.595	72.88
630.802	99.88
631.008	77.88
631.214	82.88
631.42	75.88
631.627	94.88
631.833	86.88
632.039	88.88
632.245	81.88
632.451	75.88
632.657	83.88
632.863	79.88
633.069	83.88
633.275	83.88
633.481	76.88
633.688	100.88
633.893	69.88
634.099	62.88
634.305	82.88
634.511	90.88
634.717	77.88
634.923	72.88
635.129	78.88
635.335	94.88
635.541	99.88
635.747	69.88
635.952	78.88
636.158	83.88
636.364	74.88
636.57	92.88
636.775	87.88
636.981	90.88
637.187	90.88
637.392	77.88
637.598	71.88
637.804	73.88
638.009	82.88
638.215	79.88
638.421	74.88
638.626	84.88
638.832	76.88
639.037	71.88
639.243	75.88
639.448	62.88
639.654	88.88
639.859	72.88
640.065	87.88
640.27	95.88
640.475	85.88
640.681	92.88
640.886	84.88
641.091	77.88
641.297	90.88
641.502	73.88
641.707	77.88
641.913	75.88
642.118	82.88
642.323	73.88
642.528	73.88
642.733	82.88
642.939	83.88
643.144	79.88
643.349	82.88
643.554	82.88
643.759	79.88
643.964	90.88
644.169	78.88
644.374	83.88
644.579	88.88
644.784	74.88
644.989	65.88
645.194	76.88
645.399	80.88
645.604	74.88
645.809	81.88
646.014	75.88
646.219	78.88
646.423	82.88
646.628	77.88
646.833	80.88
647.038	86.88
647.243	85.88
647.447	76.88
647.652	82.88
647.857	81.88
648.062	80.88
648.266	78.88
648.471	101.88
648.676	87.88
648.88	90.88
649.085	78.88
649.289	67.88
649.494	76.88
649.698	83.88
649.903	86.88
650.107	73.88
650.312	99.88
650.516	72.88
650.721	81.88
650.925	74.88
651.13	85.88
651.334	78.88
651.539	76.88
651.743	95.88
651.947	83.88
652.152	88.88
652.356	85.88
652.56	88.88
652.764	67.88
652.969	78.88
653.173	75.88
653.377	90.88
653.581	73.88
653.785	75.88
653.99	88.88
654.194	106.88
654.398	89.88
654.602	73.88
654.806	86.88
655.01	92.88
655.214	90.88
655.418	96.88
655.622	82.88
655.826	83.88
656.03	75.88
656.234	78.88
656.438	79.88
656.642	75.88
656.846	94.88
657.049	82.88
657.253	79.88
657.457	77.88
657.661	66.88
657.865	76.88
658.068	87.88
658.272	77.88
658.476	71.88
658.68	86.88
658.883	86.88
659.087	74.88
659.291	82.88
659.494	83.88
659.698	79.88
659.901	75.88
660.105	78.88
660.309	89.88
660.512	73.88
660.716	84.88
660.919	82.88
661.123	93.88
661.326	79.88
661.53	70.88
661.733	90.88
661.936	83.88
662.14	82.88
662.343	90.88
662.546	73.88
662.75	87.88
662.953	81.88
663.156	78.88
663.36	75.88
663.563	98.88
663.766	72.88
663.969	73.88
664.173	82.88
664.376	80.88
664.579	67.88
664.782	90.88
664.985	84.88
665.188	79.88
665.391	74.88
665.594	71.88
665.797	77.88
666	82.88
666.203	88.88
666.406	73.88
666.609	74.88
666.812	81.88
667.015	92.88
667.218	78.88
667.421	71.88
667.624	73.88
667.827	84.88
668.03	87.88
668.232	85.88
668.435	76.88
668.638	86.88
668.841	72.88
669.043	71.88
669.246	66.88
669.449	78.88
669.651	81.88
669.854	86.88
670.057	91.88
670.259	68.88
670.462	84.88
670.665	72.88
670.867	78.88
671.07	86.88
671.272	85.88
671.475	84.88
671.677	81.88
671.88	73.88
672.082	75.88
672.284	81.88
672.487	91.88
672.689	86.88
672.892	46.88
