Data from Lead_25_2_HRD10591_00092.txt Node
Date: Fri Feb 20 11:02:26 EST 2026
User: Yrep
Spectrometer: HR+D1059
Trigger mode: 1
Integration Time (sec): 1.000000E-1
Scans to average: 1
Electric dark correction enabled: true
Nonlinearity correction enabled: false
Boxcar width: 0
XAxis mode: Wavelengths
Number of Pixels in Spectrum: 2048
>>>>>Begin Spectral Data<<<<<
223.165	-20.31
223.4	-20.31
223.635	-20.31
223.869	-15.31
224.104	-33.31
224.338	-11.31
224.573	-17.31
224.808	-15.31
225.042	2.69
225.277	-13.31
225.511	6.69
225.746	-6.31
225.98	-4.31
226.215	25.69
226.449	19.69
226.683	14.69
226.918	28.69
227.152	38.69
227.387	27.69
227.621	22.69
227.856	45.69
228.09	53.69
228.324	56.69
228.559	62.69
228.793	66.69
229.027	51.69
229.262	62.69
229.496	51.69
229.73	60.69
229.964	69.69
230.199	66.69
230.433	69.69
230.667	80.69
230.901	77.69
231.136	80.69
231.37	67.69
231.604	70.69
231.838	73.69
232.072	82.69
232.306	68.69
232.541	71.69
232.775	82.69
233.009	88.69
233.243	84.69
233.477	68.69
233.711	90.69
233.945	82.69
234.179	70.69
234.413	66.69
234.647	83.69
234.881	82.69
235.115	84.69
235.349	83.69
235.583	73.69
235.817	62.69
236.051	76.69
236.285	59.69
236.519	90.69
236.753	72.69
236.987	63.69
237.221	78.69
237.455	70.69
237.689	85.69
237.922	96.69
238.156	80.69
238.39	73.69
238.624	78.69
238.858	72.69
239.091	72.69
239.325	85.69
239.559	80.69
239.793	72.69
240.027	65.69
240.26	79.69
240.494	55.69
240.728	74.69
240.961	64.69
241.195	91.69
241.429	80.69
241.662	71.69
241.896	76.69
242.13	74.69
242.363	77.69
242.597	75.69
242.83	86.69
243.064	74.69
243.298	77.69
243.531	70.69
243.765	82.69
243.998	76.69
244.232	73.69
244.465	67.69
244.699	72.69
244.932	58.69
245.166	75.69
245.399	79.69
245.633	77.69
245.866	73.69
246.099	62.69
246.333	87.69
246.566	76.69
246.8	80.69
247.033	79.69
247.266	85.69
247.5	69.69
247.733	73.69
247.966	77.69
248.2	71.69
248.433	58.69
248.666	54.69
248.899	60.69
249.133	61.69
249.366	71.69
249.599	80.69
249.832	82.69
250.066	78.69
250.299	71.69
250.532	79.69
250.765	75.69
250.998	92.69
251.231	67.69
251.465	58.69
251.698	73.69
251.931	83.69
252.164	93.69
252.397	83.69
252.63	79.69
252.863	73.69
253.096	73.69
253.329	94.69
253.562	80.69
253.795	67.69
254.028	68.69
254.261	87.69
254.494	74.69
254.727	87.69
254.96	83.69
255.193	78.69
255.426	82.69
255.659	76.69
255.892	80.69
256.124	83.69
256.357	82.69
256.59	80.69
256.823	73.69
257.056	72.69
257.289	71.69
257.521	68.69
257.754	67.69
257.987	68.69
258.22	73.69
258.452	78.69
258.685	74.69
258.918	73.69
259.151	81.69
259.383	75.69
259.616	68.69
259.849	82.69
260.081	81.69
260.314	73.69
260.547	74.69
260.779	69.69
261.012	75.69
261.244	72.69
261.477	72.69
261.71	83.69
261.942	78.69
262.175	87.69
262.407	93.69
262.64	64.69
262.872	73.69
263.105	86.69
263.337	78.69
263.57	71.69
263.802	64.69
264.035	67.69
264.267	74.69
264.499	78.69
264.732	89.69
264.964	80.69
265.197	92.69
265.429	64.69
265.661	82.69
265.894	86.69
266.126	65.69
266.358	77.69
266.591	81.69
266.823	80.69
267.055	80.69
267.287	73.69
267.52	81.69
267.752	63.69
267.984	79.69
268.216	92.69
268.448	80.69
268.681	82.69
268.913	101.69
269.145	77.69
269.377	82.69
269.609	75.69
269.841	88.69
270.073	75.69
270.306	86.69
270.538	86.69
270.77	86.69
271.002	90.69
271.234	86.69
271.466	76.69
271.698	78.69
271.93	88.69
272.162	85.69
272.394	78.69
272.626	84.69
272.858	72.69
273.09	65.69
273.322	73.69
273.553	76.69
273.785	87.69
274.017	78.69
274.249	81.69
274.481	74.69
274.713	70.69
274.945	76.69
275.176	74.69
275.408	82.69
275.64	81.69
275.872	71.69
276.104	76.69
276.335	82.69
276.567	90.69
276.799	83.69
277.031	90.69
277.262	78.69
277.494	80.69
277.726	84.69
277.957	74.69
278.189	86.69
278.421	76.69
278.652	81.69
278.884	85.69
279.115	81.69
279.347	85.69
279.579	82.69
279.81	95.69
280.042	85.69
280.273	86.69
280.505	91.69
280.736	85.69
280.968	92.69
281.199	84.69
281.431	68.69
281.662	76.69
281.894	85.69
282.125	69.69
282.356	79.69
282.588	87.69
282.819	80.69
283.051	82.69
283.282	87.69
283.513	78.69
283.745	70.69
283.976	72.69
284.207	79.69
284.439	76.69
284.67	90.69
284.901	80.69
285.132	78.69
285.364	86.69
285.595	65.69
285.826	65.69
286.057	77.69
286.288	80.69
286.52	76.69
286.751	86.69
286.982	83.69
287.213	85.69
287.444	77.69
287.675	77.69
287.906	95.69
288.138	83.69
288.369	88.69
288.6	70.69
288.831	77.69
289.062	84.69
289.293	92.69
289.524	87.69
289.755	70.69
289.986	76.69
290.217	80.69
290.448	91.69
290.679	88.69
290.91	75.69
291.141	86.69
291.371	93.69
291.602	87.69
291.833	74.69
292.064	84.69
292.295	81.69
292.526	99.69
292.757	89.69
292.987	73.69
293.218	86.69
293.449	89.69
293.68	95.69
293.91	79.69
294.141	88.69
294.372	79.69
294.603	82.69
294.833	80.69
295.064	81.69
295.295	83.69
295.525	83.69
295.756	91.69
295.987	90.69
296.217	80.69
296.448	78.69
296.679	80.69
296.909	90.69
297.14	87.69
297.37	81.69
297.601	77.69
297.831	96.69
298.062	73.69
298.292	88.69
298.523	93.69
298.753	81.69
298.984	84.69
299.214	67.69
299.445	78.69
299.675	78.69
299.905	81.69
300.136	84.69
300.366	94.69
300.597	86.69
300.827	72.69
301.057	79.69
301.288	80.69
301.518	81.69
301.748	82.69
301.979	93.69
302.209	77.69
302.439	79.69
302.669	69.69
302.9	85.69
303.13	91.69
303.36	84.69
303.59	68.69
303.82	82.69
304.051	74.69
304.281	84.69
304.511	81.69
304.741	73.69
304.971	73.69
305.201	85.69
305.431	67.69
305.661	92.69
305.891	85.69
306.121	79.69
306.352	94.69
306.582	72.69
306.812	72.69
307.042	88.69
307.272	90.69
307.502	79.69
307.731	82.69
307.961	106.69
308.191	101.69
308.421	98.69
308.651	88.69
308.881	82.69
309.111	72.69
309.341	87.69
309.571	83.69
309.8	85.69
310.03	85.69
310.26	72.69
310.49	93.69
310.72	85.69
310.949	90.69
311.179	78.69
311.409	88.69
311.639	94.69
311.868	68.69
312.098	83.69
312.328	96.69
312.557	79.69
312.787	86.69
313.017	83.69
313.246	80.69
313.476	92.69
313.706	86.69
313.935	80.69
314.165	71.69
314.394	72.69
314.624	72.69
314.853	76.69
315.083	75.69
315.312	95.69
315.542	76.69
315.771	76.69
316.001	89.69
316.23	84.69
316.46	77.69
316.689	89.69
316.919	78.69
317.148	72.69
317.377	85.69
317.607	82.69
317.836	82.69
318.065	85.69
318.295	70.69
318.524	75.69
318.753	68.69
318.983	80.69
319.212	78.69
319.441	79.69
319.67	81.69
319.9	79.69
320.129	75.69
320.358	94.69
320.587	88.69
320.816	90.69
321.046	93.69
321.275	82.69
321.504	84.69
321.733	98.69
321.962	85.69
322.191	80.69
322.42	85.69
322.649	88.69
322.878	78.69
323.108	79.69
323.337	84.69
323.566	79.69
323.795	78.69
324.024	83.69
324.253	80.69
324.482	97.69
324.71	78.69
324.939	84.69
325.168	90.69
325.397	59.69
325.626	72.69
325.855	90.69
326.084	90.69
326.313	79.69
326.542	86.69
326.77	83.69
326.999	76.69
327.228	76.69
327.457	78.69
327.686	82.69
327.914	100.69
328.143	95.69
328.372	69.69
328.6	94.69
328.829	87.69
329.058	74.69
329.287	76.69
329.515	65.69
329.744	81.69
329.972	77.69
330.201	79.69
330.43	83.69
330.658	82.69
330.887	72.69
331.115	90.69
331.344	79.69
331.572	84.69
331.801	76.69
332.03	79.69
332.258	85.69
332.486	88.69
332.715	76.69
332.943	71.69
333.172	87.69
333.4	74.69
333.629	66.69
333.857	83.69
334.085	73.69
334.314	87.69
334.542	69.69
334.771	78.69
334.999	75.69
335.227	71.69
335.455	75.69
335.684	83.69
335.912	79.69
336.14	91.69
336.369	89.69
336.597	78.69
336.825	85.69
337.053	72.69
337.281	82.69
337.51	68.69
337.738	70.69
337.966	75.69
338.194	74.69
338.422	83.69
338.65	82.69
338.878	84.69
339.106	78.69
339.334	87.69
339.562	71.69
339.79	78.69
340.018	83.69
340.246	92.69
340.474	73.69
340.702	80.69
340.93	65.69
341.158	77.69
341.386	72.69
341.614	84.69
341.842	79.69
342.07	82.69
342.298	69.69
342.526	87.69
342.754	68.69
342.981	86.69
343.209	78.69
343.437	107.69
343.665	73.69
343.893	76.69
344.12	75.69
344.348	73.69
344.576	75.69
344.804	79.69
345.031	94.69
345.259	82.69
345.487	74.69
345.714	81.69
345.942	86.69
346.17	78.69
346.397	86.69
346.625	79.69
346.853	80.69
347.08	83.69
347.308	91.69
347.535	93.69
347.763	78.69
347.99	85.69
348.218	79.69
348.445	75.69
348.673	90.69
348.9	91.69
349.128	88.69
349.355	94.69
349.583	76.69
349.81	71.69
350.037	79.69
350.265	71.69
350.492	85.69
350.72	89.69
350.947	88.69
351.174	93.69
351.402	84.69
351.629	79.69
351.856	70.69
352.083	80.69
352.311	68.69
352.538	82.69
352.765	64.69
352.992	70.69
353.22	86.69
353.447	80.69
353.674	75.69
353.901	64.69
354.128	83.69
354.355	89.69
354.583	72.69
354.81	69.69
355.037	79.69
355.264	69.69
355.491	72.69
355.718	85.69
355.945	92.69
356.172	76.69
356.399	76.69
356.626	78.69
356.853	80.69
357.08	81.69
357.307	84.69
357.534	85.69
357.761	85.69
357.988	98.69
358.215	68.69
358.441	70.69
358.668	82.69
358.895	86.69
359.122	78.69
359.349	82.69
359.576	76.69
359.802	88.69
360.029	85.69
360.256	84.69
360.483	88.69
360.709	77.69
360.936	72.69
361.163	74.69
361.39	94.69
361.616	82.69
361.843	62.69
362.07	84.69
362.296	79.69
362.523	90.69
362.749	84.69
362.976	73.69
363.203	80.69
363.429	78.69
363.656	83.69
363.882	92.69
364.109	95.69
364.335	87.69
364.562	82.69
364.788	70.69
365.015	76.69
365.241	68.69
365.468	73.69
365.694	88.69
365.92	86.69
366.147	87.69
366.373	79.69
366.599	94.69
366.826	93.69
367.052	90.69
367.278	87.69
367.505	78.69
367.731	88.69
367.957	87.69
368.184	77.69
368.41	83.69
368.636	92.69
368.862	80.69
369.089	89.69
369.315	78.69
369.541	84.69
369.767	78.69
369.993	80.69
370.219	82.69
370.445	80.69
370.672	88.69
370.898	76.69
371.124	78.69
371.35	68.69
371.576	76.69
371.802	93.69
372.028	83.69
372.254	83.69
372.48	78.69
372.706	74.69
372.932	71.69
373.158	80.69
373.384	86.69
373.61	86.69
373.835	90.69
374.061	71.69
374.287	66.69
374.513	87.69
374.739	81.69
374.965	83.69
375.191	84.69
375.416	94.69
375.642	77.69
375.868	74.69
376.094	87.69
376.319	103.69
376.545	95.69
376.771	94.69
376.997	87.69
377.222	91.69
377.448	82.69
377.674	58.69
377.899	92.69
378.125	82.69
378.35	80.69
378.576	76.69
378.802	93.69
379.027	78.69
379.253	91.69
379.478	76.69
379.704	83.69
379.929	90.69
380.155	70.69
380.38	76.69
380.606	80.69
380.831	60.69
381.057	74.69
381.282	76.69
381.507	86.69
381.733	77.69
381.958	86.69
382.184	75.69
382.409	70.69
382.634	91.69
382.86	79.69
383.085	88.69
383.31	90.69
383.535	76.69
383.761	82.69
383.986	79.69
384.211	64.69
384.436	79.69
384.662	58.69
384.887	76.69
385.112	75.69
385.337	72.69
385.562	73.69
385.787	86.69
386.013	78.69
386.238	73.69
386.463	86.69
386.688	94.69
386.913	83.69
387.138	62.69
387.363	88.69
387.588	83.69
387.813	77.69
388.038	95.69
388.263	78.69
388.488	79.69
388.713	79.69
388.938	76.69
389.163	80.69
389.387	83.69
389.612	79.69
389.837	84.69
390.062	76.69
390.287	75.69
390.512	66.69
390.736	88.69
390.961	87.69
391.186	67.69
391.411	81.69
391.636	72.69
391.86	81.69
392.085	90.69
392.31	64.69
392.534	79.69
392.759	81.69
392.984	73.69
393.208	87.69
393.433	76.69
393.658	72.69
393.882	85.69
394.107	67.69
394.331	85.69
394.556	69.69
394.78	86.69
395.005	78.69
395.229	79.69
395.454	81.69
395.678	66.69
395.903	75.69
396.127	70.69
396.352	92.69
396.576	82.69
396.801	83.69
397.025	80.69
397.249	78.69
397.474	70.69
397.698	76.69
397.922	82.69
398.147	80.69
398.371	76.69
398.595	91.69
398.82	85.69
399.044	86.69
399.268	76.69
399.492	85.69
399.717	59.69
399.941	71.69
400.165	80.69
400.389	87.69
400.613	85.69
400.837	78.69
401.062	80.69
401.286	86.69
401.51	73.69
401.734	82.69
401.958	78.69
402.182	68.69
402.406	62.69
402.63	67.69
402.854	86.69
403.078	92.69
403.302	81.69
403.526	94.69
403.75	64.69
403.974	73.69
404.198	76.69
404.422	88.69
404.645	73.69
404.869	73.69
405.093	71.69
405.317	68.69
405.541	77.69
405.765	68.69
405.988	80.69
406.212	82.69
406.436	80.69
406.66	96.69
406.883	67.69
407.107	67.69
407.331	89.69
407.555	88.69
407.778	87.69
408.002	74.69
408.226	78.69
408.449	76.69
408.673	80.69
408.896	67.69
409.12	78.69
409.344	82.69
409.567	69.69
409.791	85.69
410.014	74.69
410.238	73.69
410.461	78.69
410.685	82.69
410.908	87.69
411.132	73.69
411.355	78.69
411.578	80.69
411.802	71.69
412.025	68.69
412.249	69.69
412.472	73.69
412.695	85.69
412.919	80.69
413.142	67.69
413.365	73.69
413.589	77.69
413.812	77.69
414.035	68.69
414.258	87.69
414.482	82.69
414.705	85.69
414.928	80.69
415.151	78.69
415.374	71.69
415.597	84.69
415.821	73.69
416.044	74.69
416.267	69.69
416.49	67.69
416.713	79.69
416.936	85.69
417.159	64.69
417.382	92.69
417.605	77.69
417.828	84.69
418.051	84.69
418.274	73.69
418.497	79.69
418.72	67.69
418.943	76.69
419.166	87.69
419.389	79.69
419.611	78.69
419.834	76.69
420.057	79.69
420.28	76.69
420.503	83.69
420.726	65.69
420.948	68.69
421.171	68.69
421.394	95.69
421.617	94.69
421.839	77.69
422.062	78.69
422.285	82.69
422.507	76.69
422.73	72.69
422.953	66.69
423.175	82.69
423.398	71.69
423.621	71.69
423.843	77.69
424.066	79.69
424.288	69.69
424.511	65.69
424.733	78.69
424.956	71.69
425.178	76.69
425.401	78.69
425.623	68.69
425.846	76.69
426.068	89.69
426.291	67.69
426.513	75.69
426.735	85.69
426.958	90.69
427.18	80.69
427.402	84.69
427.625	86.69
427.847	77.69
428.069	75.69
428.292	70.69
428.514	71.69
428.736	74.69
428.958	66.69
429.181	60.69
429.403	86.69
429.625	91.69
429.847	91.69
430.069	80.69
430.292	86.69
430.514	83.69
430.736	92.69
430.958	72.69
431.18	69.69
431.402	81.69
431.624	76.69
431.846	71.69
432.068	73.69
432.29	78.69
432.512	82.69
432.734	82.69
432.956	98.69
433.178	91.69
433.4	86.69
433.622	77.69
433.844	73.69
434.066	74.69
434.287	75.69
434.509	74.69
434.731	84.69
434.953	79.69
435.175	80.69
435.397	67.69
435.618	76.69
435.84	79.69
436.062	68.69
436.284	78.69
436.505	76.69
436.727	74.69
436.949	87.69
437.17	90.69
437.392	71.69
437.614	71.69
437.835	73.69
438.057	75.69
438.278	69.69
438.5	63.69
438.721	71.69
438.943	80.69
439.165	86.69
439.386	87.69
439.608	70.69
439.829	61.69
440.05	77.69
440.272	76.69
440.493	87.69
440.715	81.69
440.936	71.69
441.158	88.69
441.379	79.69
441.6	90.69
441.822	81.69
442.043	78.69
442.264	87.69
442.486	76.69
442.707	70.69
442.928	76.69
443.149	68.69
443.371	72.69
443.592	66.69
443.813	73.69
444.034	71.69
444.255	85.69
444.476	75.69
444.698	85.69
444.919	74.69
445.14	166.69
445.361	120.69
445.582	80.69
445.803	82.69
446.024	82.69
446.245	76.69
446.466	83.69
446.687	78.69
446.908	80.69
447.129	76.69
447.35	79.69
447.571	67.69
447.792	89.69
448.013	82.69
448.234	87.69
448.455	78.69
448.675	72.69
448.896	72.69
449.117	85.69
449.338	76.69
449.559	82.69
449.779	87.69
450	68.69
450.221	63.69
450.442	73.69
450.662	80.69
450.883	94.69
451.104	81.69
451.324	82.69
451.545	76.69
451.766	72.69
451.986	85.69
452.207	90.69
452.428	72.69
452.648	78.69
452.869	71.69
453.089	74.69
453.31	70.69
453.53	78.69
453.751	92.69
453.971	73.69
454.192	64.69
454.412	88.69
454.633	72.69
454.853	80.69
455.073	82.69
455.294	91.69
455.514	64.69
455.734	86.69
455.955	83.69
456.175	72.69
456.395	73.69
456.616	74.69
456.836	83.69
457.056	82.69
457.276	67.69
457.497	86.69
457.717	71.69
457.937	78.69
458.157	67.69
458.377	71.69
458.598	59.69
458.818	64.69
459.038	73.69
459.258	70.69
459.478	74.69
459.698	82.69
459.918	87.69
460.138	73.69
460.358	72.69
460.578	78.69
460.798	94.69
461.018	74.69
461.238	62.69
461.458	72.69
461.678	79.69
461.898	74.69
462.118	71.69
462.338	68.69
462.558	78.69
462.777	69.69
462.997	78.69
463.217	70.69
463.437	78.69
463.657	75.69
463.876	65.69
464.096	71.69
464.316	70.69
464.536	70.69
464.755	65.69
464.975	72.69
465.195	71.69
465.414	77.69
465.634	83.69
465.854	82.69
466.073	59.69
466.293	92.69
466.512	77.69
466.732	86.69
466.951	96.69
467.171	79.69
467.391	84.69
467.61	87.69
467.829	80.69
468.049	92.69
468.268	78.69
468.488	77.69
468.707	79.69
468.927	71.69
469.146	85.69
469.365	84.69
469.585	75.69
469.804	82.69
470.023	84.69
470.243	77.69
470.462	72.69
470.681	87.69
470.901	76.69
471.12	83.69
471.339	82.69
471.558	73.69
471.777	84.69
471.997	64.69
472.216	78.69
472.435	79.69
472.654	78.69
472.873	79.69
473.092	74.69
473.311	93.69
473.53	94.69
473.749	72.69
473.968	80.69
474.187	80.69
474.406	88.69
474.625	82.69
474.844	72.69
475.063	71.69
475.282	85.69
475.501	75.69
475.72	82.69
475.939	90.69
476.158	83.69
476.377	90.69
476.596	77.69
476.814	76.69
477.033	73.69
477.252	86.69
477.471	66.69
477.69	79.69
477.908	74.69
478.127	75.69
478.346	91.69
478.564	86.69
478.783	72.69
479.002	82.69
479.22	91.69
479.439	94.69
479.658	76.69
479.876	90.69
480.095	90.69
480.313	79.69
480.532	83.69
480.751	90.69
480.969	93.69
481.188	88.69
481.406	87.69
481.624	80.69
481.843	79.69
482.061	63.69
482.28	79.69
482.498	87.69
482.717	79.69
482.935	55.69
483.153	85.69
483.372	73.69
483.59	83.69
483.808	75.69
484.027	86.69
484.245	93.69
484.463	80.69
484.681	87.69
484.9	82.69
485.118	67.69
485.336	77.69
485.554	82.69
485.772	72.69
485.99	80.69
486.209	75.69
486.427	80.69
486.645	79.69
486.863	74.69
487.081	80.69
487.299	79.69
487.517	76.69
487.735	69.69
487.953	83.69
488.171	72.69
488.389	90.69
488.607	87.69
488.825	75.69
489.043	85.69
489.261	94.69
489.479	80.69
489.696	84.69
489.914	68.69
490.132	76.69
490.35	83.69
490.568	79.69
490.786	62.69
491.003	88.69
491.221	66.69
491.439	85.69
491.657	78.69
491.874	83.69
492.092	74.69
492.31	90.69
492.527	76.69
492.745	74.69
492.963	87.69
493.18	86.69
493.398	57.69
493.615	86.69
493.833	88.69
494.05	76.69
494.268	81.69
494.485	70.69
494.703	60.69
494.92	78.69
495.138	72.69
495.355	85.69
495.573	83.69
495.79	72.69
496.008	96.69
496.225	94.69
496.442	89.69
496.66	89.69
496.877	71.69
497.094	80.69
497.312	82.69
497.529	78.69
497.746	83.69
497.963	73.69
498.181	70.69
498.398	74.69
498.615	76.69
498.832	93.69
499.049	83.69
499.267	80.69
499.484	93.69
499.701	78.69
499.918	82.69
500.135	76.69
500.352	67.69
500.569	91.69
500.786	77.69
501.003	80.69
501.22	91.69
501.437	83.69
501.654	82.69
501.871	75.69
502.088	88.69
502.305	70.69
502.522	83.69
502.739	90.69
502.956	73.69
503.172	69.69
503.389	86.69
503.606	66.69
503.823	73.69
504.04	88.69
504.256	86.69
504.473	79.69
504.69	75.69
504.907	80.69
505.123	104.69
505.34	86.69
505.557	75.69
505.773	63.69
505.99	73.69
506.207	84.69
506.423	70.69
506.64	69.69
506.856	88.69
507.073	78.69
507.289	82.69
507.506	79.69
507.722	79.69
507.939	79.69
508.155	81.69
508.372	83.69
508.588	80.69
508.805	77.69
509.021	94.69
509.238	83.69
509.454	88.69
509.67	82.69
509.887	79.69
510.103	70.69
510.319	79.69
510.536	84.69
510.752	90.69
510.968	88.69
511.184	79.69
511.401	59.69
511.617	80.69
511.833	74.69
512.049	86.69
512.265	82.69
512.481	69.69
512.698	83.69
512.914	77.69
513.13	87.69
513.346	80.69
513.562	80.69
513.778	69.69
513.994	79.69
514.21	77.69
514.426	67.69
514.642	68.69
514.858	82.69
515.074	79.69
515.29	83.69
515.506	73.69
515.721	77.69
515.937	75.69
516.153	74.69
516.369	71.69
516.585	78.69
516.801	70.69
517.016	70.69
517.232	74.69
517.448	92.69
517.664	77.69
517.879	103.69
518.095	82.69
518.311	85.69
518.527	91.69
518.742	84.69
518.958	85.69
519.173	90.69
519.389	84.69
519.605	72.69
519.82	78.69
520.036	67.69
520.251	71.69
520.467	91.69
520.682	89.69
520.898	85.69
521.113	84.69
521.329	69.69
521.544	80.69
521.76	85.69
521.975	82.69
522.19	72.69
522.406	77.69
522.621	75.69
522.836	87.69
523.052	81.69
523.267	82.69
523.482	78.69
523.698	78.69
523.913	77.69
524.128	68.69
524.343	71.69
524.559	71.69
524.774	85.69
524.989	86.69
525.204	91.69
525.419	66.69
525.634	73.69
525.849	76.69
526.064	74.69
526.28	91.69
526.495	81.69
526.71	101.69
526.925	74.69
527.14	86.69
527.355	67.69
527.57	85.69
527.785	87.69
527.999	70.69
528.214	78.69
528.429	68.69
528.644	75.69
528.859	78.69
529.074	91.69
529.289	83.69
529.503	84.69
529.718	73.69
529.933	86.69
530.148	82.69
530.363	101.69
530.577	88.69
530.792	82.69
531.007	77.69
531.221	84.69
531.436	78.69
531.651	93.69
531.865	60.69
532.08	89.69
532.295	93.69
532.509	88.69
532.724	75.69
532.938	89.69
533.153	76.69
533.367	78.69
533.582	90.69
533.796	85.69
534.011	82.69
534.225	80.69
534.44	81.69
534.654	83.69
534.868	79.69
535.083	77.69
535.297	91.69
535.511	91.69
535.726	85.69
535.94	62.69
536.154	85.69
536.369	86.69
536.583	78.69
536.797	95.69
537.011	83.69
537.225	92.69
537.44	82.69
537.654	72.69
537.868	76.69
538.082	91.69
538.296	80.69
538.51	89.69
538.724	88.69
538.938	62.69
539.153	84.69
539.367	79.69
539.581	74.69
539.795	70.69
540.009	90.69
540.222	86.69
540.436	68.69
540.65	82.69
540.864	85.69
541.078	74.69
541.292	87.69
541.506	84.69
541.72	86.69
541.934	75.69
542.147	84.69
542.361	82.69
542.575	80.69
542.789	84.69
543.002	82.69
543.216	76.69
543.43	83.69
543.644	84.69
543.857	91.69
544.071	89.69
544.285	92.69
544.498	83.69
544.712	81.69
544.925	99.69
545.139	82.69
545.352	79.69
545.566	87.69
545.779	91.69
545.993	92.69
546.206	82.69
546.42	77.69
546.633	90.69
546.847	86.69
547.06	83.69
547.274	82.69
547.487	88.69
547.7	87.69
547.914	97.69
548.127	75.69
548.34	64.69
548.554	74.69
548.767	92.69
548.98	84.69
549.193	99.69
549.407	86.69
549.62	80.69
549.833	89.69
550.046	94.69
550.259	79.69
550.473	86.69
550.686	92.69
550.899	94.69
551.112	76.69
551.325	79.69
551.538	78.69
551.751	82.69
551.964	91.69
552.177	87.69
552.39	82.69
552.603	87.69
552.816	91.69
553.029	81.69
553.242	90.69
553.455	78.69
553.667	81.69
553.88	81.69
554.093	63.69
554.306	75.69
554.519	90.69
554.732	86.69
554.944	84.69
555.157	91.69
555.37	83.69
555.583	83.69
555.795	91.69
556.008	104.69
556.221	70.69
556.433	82.69
556.646	95.69
556.859	76.69
557.071	90.69
557.284	85.69
557.496	73.69
557.709	71.69
557.921	81.69
558.134	91.69
558.346	87.69
558.559	83.69
558.771	69.69
558.984	84.69
559.196	79.69
559.409	85.69
559.621	80.69
559.833	76.69
560.046	90.69
560.258	90.69
560.47	74.69
560.683	88.69
560.895	93.69
561.107	86.69
561.32	70.69
561.532	78.69
561.744	79.69
561.956	67.69
562.168	70.69
562.381	74.69
562.593	94.69
562.805	83.69
563.017	80.69
563.229	80.69
563.441	84.69
563.653	70.69
563.865	70.69
564.077	87.69
564.289	86.69
564.501	87.69
564.713	75.69
564.925	71.69
565.137	75.69
565.349	76.69
565.561	85.69
565.773	96.69
565.985	80.69
566.197	88.69
566.408	93.69
566.62	69.69
566.832	84.69
567.044	83.69
567.255	86.69
567.467	70.69
567.679	83.69
567.891	79.69
568.102	89.69
568.314	82.69
568.526	79.69
568.737	76.69
568.949	88.69
569.161	83.69
569.372	93.69
569.584	88.69
569.795	90.69
570.007	77.69
570.218	93.69
570.43	93.69
570.641	94.69
570.853	86.69
571.064	78.69
571.276	84.69
571.487	87.69
571.698	83.69
571.91	80.69
572.121	78.69
572.333	73.69
572.544	68.69
572.755	82.69
572.966	78.69
573.178	77.69
573.389	87.69
573.6	75.69
573.811	73.69
574.023	88.69
574.234	80.69
574.445	66.69
574.656	90.69
574.867	75.69
575.078	64.69
575.289	80.69
575.501	84.69
575.712	78.69
575.923	93.69
576.134	84.69
576.345	80.69
576.556	87.69
576.767	79.69
576.978	89.69
577.188	77.69
577.399	80.69
577.61	77.69
577.821	79.69
578.032	95.69
578.243	76.69
578.454	82.69
578.665	87.69
578.875	93.69
579.086	74.69
579.297	87.69
579.508	86.69
579.718	87.69
579.929	98.69
580.14	78.69
580.35	92.69
580.561	92.69
580.772	74.69
580.982	76.69
581.193	75.69
581.403	85.69
581.614	97.69
581.825	83.69
582.035	79.69
582.246	98.69
582.456	82.69
582.667	77.69
582.877	101.69
583.087	78.69
583.298	88.69
583.508	91.69
583.719	86.69
583.929	76.69
584.139	94.69
584.35	89.69
584.56	72.69
584.77	72.69
584.981	79.69
585.191	73.69
585.401	84.69
585.611	83.69
585.821	94.69
586.032	73.69
586.242	79.69
586.452	86.69
586.662	80.69
586.872	70.69
587.082	79.69
587.292	74.69
587.502	93.69
587.713	71.69
587.923	85.69
588.133	78.69
588.343	77.69
588.553	80.69
588.762	86.69
588.972	83.69
589.182	86.69
589.392	95.69
589.602	70.69
589.812	84.69
590.022	75.69
590.232	72.69
590.441	77.69
590.651	88.69
590.861	78.69
591.071	92.69
591.281	82.69
591.49	78.69
591.7	75.69
591.91	77.69
592.119	74.69
592.329	75.69
592.539	90.69
592.748	86.69
592.958	84.69
593.167	72.69
593.377	85.69
593.587	100.69
593.796	75.69
594.006	78.69
594.215	82.69
594.424	74.69
594.634	85.69
594.843	72.69
595.053	96.69
595.262	79.69
595.472	65.69
595.681	87.69
595.89	83.69
596.1	85.69
596.309	76.69
596.518	90.69
596.727	83.69
596.937	103.69
597.146	86.69
597.355	79.69
597.564	72.69
597.774	87.69
597.983	87.69
598.192	92.69
598.401	96.69
598.61	85.69
598.819	80.69
599.028	77.69
599.237	88.69
599.446	81.69
599.655	83.69
599.864	98.69
600.073	71.69
600.282	83.69
600.491	92.69
600.7	75.69
600.909	82.69
601.118	92.69
601.327	84.69
601.536	73.69
601.745	79.69
601.953	84.69
602.162	98.69
602.371	81.69
602.58	78.69
602.789	77.69
602.997	72.69
603.206	90.69
603.415	81.69
603.623	94.69
603.832	82.69
604.041	84.69
604.249	84.69
604.458	93.69
604.666	86.69
604.875	85.69
605.084	80.69
605.292	86.69
605.501	88.69
605.709	62.69
605.918	82.69
606.126	70.69
606.334	74.69
606.543	86.69
606.751	81.69
606.96	84.69
607.168	67.69
607.376	72.69
607.585	87.69
607.793	76.69
608.001	82.69
608.21	72.69
608.418	83.69
608.626	76.69
608.834	70.69
609.043	84.69
609.251	78.69
609.459	84.69
609.667	70.69
609.875	90.69
610.083	83.69
610.291	75.69
610.499	79.69
610.707	77.69
610.916	88.69
611.124	76.69
611.332	84.69
611.54	87.69
611.748	86.69
611.955	82.69
612.163	87.69
612.371	77.69
612.579	91.69
612.787	85.69
612.995	83.69
613.203	80.69
613.411	84.69
613.618	79.69
613.826	76.69
614.034	89.69
614.242	84.69
614.449	80.69
614.657	90.69
614.865	90.69
615.072	73.69
615.28	82.69
615.488	83.69
615.695	61.69
615.903	84.69
616.111	79.69
616.318	76.69
616.526	90.69
616.733	86.69
616.941	78.69
617.148	79.69
617.356	70.69
617.563	68.69
617.771	77.69
617.978	86.69
618.185	80.69
618.393	90.69
618.6	66.69
618.807	87.69
619.015	82.69
619.222	74.69
619.429	91.69
619.637	88.69
619.844	84.69
620.051	90.69
620.258	78.69
620.466	77.69
620.673	78.69
620.88	76.69
621.087	81.69
621.294	73.69
621.501	78.69
621.708	78.69
621.915	79.69
622.122	80.69
622.329	67.69
622.536	72.69
622.743	92.69
622.95	85.69
623.157	87.69
623.364	83.69
623.571	88.69
623.778	85.69
623.985	92.69
624.192	86.69
624.399	81.69
624.606	89.69
624.812	79.69
625.019	69.69
625.226	86.69
625.433	87.69
625.639	71.69
625.846	79.69
626.053	73.69
626.259	69.69
626.466	88.69
626.673	80.69
626.879	95.69
627.086	83.69
627.293	81.69
627.499	77.69
627.706	79.69
627.912	85.69
628.119	86.69
628.325	96.69
628.532	83.69
628.738	82.69
628.945	81.69
629.151	82.69
629.357	71.69
629.564	80.69
629.77	62.69
629.976	88.69
630.183	79.69
630.389	78.69
630.595	91.69
630.802	69.69
631.008	92.69
631.214	84.69
631.42	86.69
631.627	72.69
631.833	71.69
632.039	82.69
632.245	76.69
632.451	83.69
632.657	94.69
632.863	74.69
633.069	71.69
633.275	84.69
633.481	72.69
633.688	83.69
633.893	85.69
634.099	87.69
634.305	98.69
634.511	79.69
634.717	77.69
634.923	93.69
635.129	94.69
635.335	83.69
635.541	82.69
635.747	91.69
635.952	82.69
636.158	76.69
636.364	89.69
636.57	86.69
636.775	95.69
636.981	82.69
637.187	80.69
637.392	80.69
637.598	90.69
637.804	85.69
638.009	76.69
638.215	78.69
638.421	74.69
638.626	80.69
638.832	71.69
639.037	78.69
639.243	90.69
639.448	86.69
639.654	80.69
639.859	97.69
640.065	76.69
640.27	88.69
640.475	89.69
640.681	68.69
640.886	81.69
641.091	85.69
641.297	83.69
641.502	93.69
641.707	82.69
641.913	83.69
642.118	77.69
642.323	72.69
642.528	89.69
642.733	92.69
642.939	86.69
643.144	86.69
643.349	74.69
643.554	83.69
643.759	80.69
643.964	90.69
644.169	96.69
644.374	85.69
644.579	80.69
644.784	78.69
644.989	75.69
645.194	77.69
645.399	83.69
645.604	81.69
645.809	84.69
646.014	66.69
646.219	65.69
646.423	81.69
646.628	78.69
646.833	81.69
647.038	91.69
647.243	66.69
647.447	79.69
647.652	69.69
647.857	82.69
648.062	84.69
648.266	92.69
648.471	90.69
648.676	86.69
648.88	78.69
649.085	76.69
649.289	70.69
649.494	79.69
649.698	82.69
649.903	71.69
650.107	71.69
650.312	79.69
650.516	76.69
650.721	77.69
650.925	71.69
651.13	75.69
651.334	74.69
651.539	93.69
651.743	74.69
651.947	76.69
652.152	83.69
652.356	90.69
652.56	72.69
652.764	92.69
652.969	72.69
653.173	72.69
653.377	86.69
653.581	78.69
653.785	82.69
653.99	76.69
654.194	80.69
654.398	69.69
654.602	72.69
654.806	71.69
655.01	78.69
655.214	79.69
655.418	86.69
655.622	90.69
655.826	80.69
656.03	68.69
656.234	86.69
656.438	87.69
656.642	69.69
656.846	77.69
657.049	85.69
657.253	79.69
657.457	79.69
657.661	84.69
657.865	74.69
658.068	78.69
658.272	66.69
658.476	71.69
658.68	80.69
658.883	82.69
659.087	68.69
659.291	88.69
659.494	79.69
659.698	86.69
659.901	87.69
660.105	81.69
660.309	75.69
660.512	62.69
660.716	72.69
660.919	70.69
661.123	75.69
661.326	82.69
661.53	68.69
661.733	83.69
661.936	87.69
662.14	71.69
662.343	95.69
662.546	73.69
662.75	89.69
662.953	83.69
663.156	76.69
663.36	84.69
663.563	72.69
663.766	80.69
663.969	81.69
664.173	84.69
664.376	78.69
664.579	70.69
664.782	82.69
664.985	72.69
665.188	69.69
665.391	83.69
665.594	71.69
665.797	78.69
666	84.69
666.203	83.69
666.406	81.69
666.609	74.69
666.812	85.69
667.015	82.69
667.218	79.69
667.421	75.69
667.624	82.69
667.827	83.69
668.03	71.69
668.232	83.69
668.435	90.69
668.638	78.69
668.841	77.69
669.043	91.69
669.246	80.69
669.449	92.69
669.651	78.69
669.854	92.69
670.057	66.69
670.259	80.69
670.462	80.69
670.665	75.69
670.867	90.69
671.07	79.69
671.272	66.69
671.475	77.69
671.677	91.69
671.88	89.69
672.082	82.69
672.284	73.69
672.487	71.69
672.689	83.69
672.892	79.69
