Data from Lead_25_2_HRD10591_00039.txt Node
Date: Fri Feb 20 11:02:09 EST 2026
User: Yrep
Spectrometer: HR+D1059
Trigger mode: 1
Integration Time (sec): 1.000000E-1
Scans to average: 1
Electric dark correction enabled: true
Nonlinearity correction enabled: false
Boxcar width: 0
XAxis mode: Wavelengths
Number of Pixels in Spectrum: 2048
>>>>>Begin Spectral Data<<<<<
223.165	-23.12
223.4	-23.12
223.635	-23.12
223.869	-19.12
224.104	-30.12
224.338	-25.12
224.573	-13.12
224.808	-14.12
225.042	-4.12
225.277	-10.12
225.511	-4.12
225.746	6.88
225.98	11.88
226.215	10.88
226.449	20.88
226.683	11.88
226.918	35.88
227.152	44.88
227.387	42.88
227.621	35.88
227.856	45.88
228.09	42.88
228.324	56.88
228.559	55.88
228.793	60.88
229.027	56.88
229.262	55.88
229.496	64.88
229.73	62.88
229.964	88.88
230.199	67.88
230.433	66.88
230.667	69.88
230.901	80.88
231.136	66.88
231.37	79.88
231.604	76.88
231.838	78.88
232.072	83.88
232.306	75.88
232.541	70.88
232.775	79.88
233.009	90.88
233.243	85.88
233.477	74.88
233.711	84.88
233.945	73.88
234.179	72.88
234.413	78.88
234.647	82.88
234.881	74.88
235.115	66.88
235.349	73.88
235.583	74.88
235.817	75.88
236.051	73.88
236.285	67.88
236.519	79.88
236.753	72.88
236.987	72.88
237.221	86.88
237.455	79.88
237.689	76.88
237.922	90.88
238.156	71.88
238.39	77.88
238.624	71.88
238.858	81.88
239.091	74.88
239.325	76.88
239.559	75.88
239.793	73.88
240.027	79.88
240.26	78.88
240.494	61.88
240.728	89.88
240.961	79.88
241.195	77.88
241.429	81.88
241.662	80.88
241.896	90.88
242.13	63.88
242.363	74.88
242.597	70.88
242.83	86.88
243.064	67.88
243.298	65.88
243.531	83.88
243.765	61.88
243.998	76.88
244.232	77.88
244.465	71.88
244.699	78.88
244.932	94.88
245.166	80.88
245.399	80.88
245.633	73.88
245.866	62.88
246.099	80.88
246.333	73.88
246.566	84.88
246.8	74.88
247.033	61.88
247.266	62.88
247.5	87.88
247.733	82.88
247.966	75.88
248.2	72.88
248.433	87.88
248.666	78.88
248.899	89.88
249.133	90.88
249.366	81.88
249.599	80.88
249.832	86.88
250.066	71.88
250.299	77.88
250.532	82.88
250.765	81.88
250.998	71.88
251.231	72.88
251.465	76.88
251.698	85.88
251.931	79.88
252.164	90.88
252.397	79.88
252.63	70.88
252.863	90.88
253.096	90.88
253.329	75.88
253.562	75.88
253.795	81.88
254.028	87.88
254.261	73.88
254.494	81.88
254.727	91.88
254.96	74.88
255.193	76.88
255.426	80.88
255.659	74.88
255.892	67.88
256.124	75.88
256.357	77.88
256.59	84.88
256.823	70.88
257.056	78.88
257.289	87.88
257.521	87.88
257.754	80.88
257.987	86.88
258.22	77.88
258.452	69.88
258.685	87.88
258.918	68.88
259.151	73.88
259.383	75.88
259.616	85.88
259.849	92.88
260.081	89.88
260.314	88.88
260.547	83.88
260.779	87.88
261.012	76.88
261.244	92.88
261.477	78.88
261.71	77.88
261.942	75.88
262.175	83.88
262.407	95.88
262.64	70.88
262.872	66.88
263.105	67.88
263.337	80.88
263.57	82.88
263.802	90.88
264.035	91.88
264.267	78.88
264.499	79.88
264.732	84.88
264.964	67.88
265.197	70.88
265.429	74.88
265.661	79.88
265.894	90.88
266.126	93.88
266.358	81.88
266.591	76.88
266.823	81.88
267.055	90.88
267.287	71.88
267.52	86.88
267.752	96.88
267.984	79.88
268.216	62.88
268.448	78.88
268.681	78.88
268.913	86.88
269.145	77.88
269.377	73.88
269.609	90.88
269.841	83.88
270.073	77.88
270.306	78.88
270.538	86.88
270.77	91.88
271.002	74.88
271.234	76.88
271.466	79.88
271.698	73.88
271.93	85.88
272.162	91.88
272.394	82.88
272.626	77.88
272.858	75.88
273.09	87.88
273.322	95.88
273.553	84.88
273.785	80.88
274.017	81.88
274.249	85.88
274.481	82.88
274.713	82.88
274.945	70.88
275.176	75.88
275.408	90.88
275.64	90.88
275.872	85.88
276.104	86.88
276.335	67.88
276.567	68.88
276.799	85.88
277.031	90.88
277.262	85.88
277.494	84.88
277.726	68.88
277.957	71.88
278.189	71.88
278.421	83.88
278.652	78.88
278.884	82.88
279.115	85.88
279.347	73.88
279.579	79.88
279.81	86.88
280.042	94.88
280.273	82.88
280.505	86.88
280.736	69.88
280.968	92.88
281.199	83.88
281.431	90.88
281.662	95.88
281.894	60.88
282.125	87.88
282.356	86.88
282.588	71.88
282.819	81.88
283.051	70.88
283.282	78.88
283.513	95.88
283.745	83.88
283.976	85.88
284.207	83.88
284.439	79.88
284.67	89.88
284.901	98.88
285.132	71.88
285.364	82.88
285.595	82.88
285.826	83.88
286.057	76.88
286.288	92.88
286.52	91.88
286.751	88.88
286.982	94.88
287.213	87.88
287.444	87.88
287.675	89.88
287.906	80.88
288.138	84.88
288.369	82.88
288.6	88.88
288.831	80.88
289.062	101.88
289.293	91.88
289.524	98.88
289.755	81.88
289.986	84.88
290.217	92.88
290.448	84.88
290.679	79.88
290.91	78.88
291.141	88.88
291.371	83.88
291.602	96.88
291.833	83.88
292.064	87.88
292.295	87.88
292.526	85.88
292.757	69.88
292.987	71.88
293.218	85.88
293.449	76.88
293.68	72.88
293.91	75.88
294.141	79.88
294.372	80.88
294.603	94.88
294.833	90.88
295.064	73.88
295.295	81.88
295.525	77.88
295.756	73.88
295.987	84.88
296.217	73.88
296.448	88.88
296.679	78.88
296.909	79.88
297.14	76.88
297.37	93.88
297.601	86.88
297.831	77.88
298.062	101.88
298.292	85.88
298.523	72.88
298.753	89.88
298.984	83.88
299.214	81.88
299.445	75.88
299.675	85.88
299.905	88.88
300.136	83.88
300.366	86.88
300.597	86.88
300.827	85.88
301.057	80.88
301.288	72.88
301.518	79.88
301.748	91.88
301.979	95.88
302.209	85.88
302.439	78.88
302.669	72.88
302.9	92.88
303.13	82.88
303.36	73.88
303.59	80.88
303.82	79.88
304.051	80.88
304.281	109.88
304.511	97.88
304.741	76.88
304.971	73.88
305.201	68.88
305.431	85.88
305.661	94.88
305.891	79.88
306.121	68.88
306.352	88.88
306.582	83.88
306.812	78.88
307.042	72.88
307.272	79.88
307.502	78.88
307.731	87.88
307.961	81.88
308.191	80.88
308.421	84.88
308.651	94.88
308.881	62.88
309.111	82.88
309.341	77.88
309.571	68.88
309.8	87.88
310.03	79.88
310.26	89.88
310.49	84.88
310.72	88.88
310.949	90.88
311.179	88.88
311.409	99.88
311.639	85.88
311.868	90.88
312.098	78.88
312.328	79.88
312.557	88.88
312.787	87.88
313.017	88.88
313.246	96.88
313.476	65.88
313.706	73.88
313.935	71.88
314.165	80.88
314.394	74.88
314.624	88.88
314.853	87.88
315.083	90.88
315.312	94.88
315.542	70.88
315.771	81.88
316.001	85.88
316.23	82.88
316.46	82.88
316.689	82.88
316.919	84.88
317.148	80.88
317.377	87.88
317.607	87.88
317.836	80.88
318.065	95.88
318.295	76.88
318.524	82.88
318.753	91.88
318.983	84.88
319.212	80.88
319.441	76.88
319.67	76.88
319.9	83.88
320.129	86.88
320.358	70.88
320.587	92.88
320.816	96.88
321.046	80.88
321.275	85.88
321.504	75.88
321.733	89.88
321.962	75.88
322.191	78.88
322.42	84.88
322.649	81.88
322.878	89.88
323.108	72.88
323.337	82.88
323.566	83.88
323.795	94.88
324.024	84.88
324.253	83.88
324.482	82.88
324.71	75.88
324.939	88.88
325.168	85.88
325.397	85.88
325.626	85.88
325.855	77.88
326.084	94.88
326.313	80.88
326.542	89.88
326.77	74.88
326.999	74.88
327.228	73.88
327.457	80.88
327.686	94.88
327.914	73.88
328.143	96.88
328.372	81.88
328.6	82.88
328.829	84.88
329.058	75.88
329.287	91.88
329.515	93.88
329.744	78.88
329.972	84.88
330.201	83.88
330.43	79.88
330.658	91.88
330.887	94.88
331.115	84.88
331.344	80.88
331.572	87.88
331.801	87.88
332.03	88.88
332.258	79.88
332.486	76.88
332.715	84.88
332.943	73.88
333.172	91.88
333.4	85.88
333.629	75.88
333.857	79.88
334.085	99.88
334.314	97.88
334.542	84.88
334.771	87.88
334.999	86.88
335.227	88.88
335.455	96.88
335.684	91.88
335.912	71.88
336.14	86.88
336.369	80.88
336.597	81.88
336.825	80.88
337.053	76.88
337.281	90.88
337.51	89.88
337.738	67.88
337.966	83.88
338.194	83.88
338.422	87.88
338.65	84.88
338.878	83.88
339.106	68.88
339.334	85.88
339.562	76.88
339.79	78.88
340.018	86.88
340.246	90.88
340.474	84.88
340.702	75.88
340.93	83.88
341.158	81.88
341.386	80.88
341.614	72.88
341.842	72.88
342.07	84.88
342.298	86.88
342.526	78.88
342.754	78.88
342.981	72.88
343.209	68.88
343.437	90.88
343.665	80.88
343.893	78.88
344.12	86.88
344.348	77.88
344.576	83.88
344.804	78.88
345.031	71.88
345.259	69.88
345.487	77.88
345.714	88.88
345.942	88.88
346.17	84.88
346.397	65.88
346.625	73.88
346.853	77.88
347.08	72.88
347.308	90.88
347.535	69.88
347.763	82.88
347.99	88.88
348.218	86.88
348.445	72.88
348.673	80.88
348.9	81.88
349.128	74.88
349.355	70.88
349.583	88.88
349.81	86.88
350.037	81.88
350.265	78.88
350.492	74.88
350.72	93.88
350.947	82.88
351.174	88.88
351.402	82.88
351.629	90.88
351.856	93.88
352.083	90.88
352.311	85.88
352.538	76.88
352.765	72.88
352.992	79.88
353.22	86.88
353.447	81.88
353.674	83.88
353.901	79.88
354.128	90.88
354.355	83.88
354.583	82.88
354.81	99.88
355.037	76.88
355.264	71.88
355.491	74.88
355.718	87.88
355.945	78.88
356.172	93.88
356.399	98.88
356.626	91.88
356.853	84.88
357.08	78.88
357.307	83.88
357.534	85.88
357.761	81.88
357.988	84.88
358.215	91.88
358.441	80.88
358.668	86.88
358.895	66.88
359.122	85.88
359.349	71.88
359.576	87.88
359.802	81.88
360.029	85.88
360.256	97.88
360.483	84.88
360.709	77.88
360.936	71.88
361.163	80.88
361.39	88.88
361.616	96.88
361.843	95.88
362.07	75.88
362.296	78.88
362.523	82.88
362.749	87.88
362.976	84.88
363.203	88.88
363.429	96.88
363.656	83.88
363.882	78.88
364.109	82.88
364.335	87.88
364.562	94.88
364.788	84.88
365.015	84.88
365.241	63.88
365.468	84.88
365.694	83.88
365.92	79.88
366.147	73.88
366.373	73.88
366.599	82.88
366.826	94.88
367.052	92.88
367.278	84.88
367.505	83.88
367.731	75.88
367.957	92.88
368.184	75.88
368.41	96.88
368.636	88.88
368.862	83.88
369.089	78.88
369.315	63.88
369.541	88.88
369.767	87.88
369.993	98.88
370.219	94.88
370.445	87.88
370.672	95.88
370.898	85.88
371.124	88.88
371.35	91.88
371.576	88.88
371.802	90.88
372.028	76.88
372.254	98.88
372.48	87.88
372.706	88.88
372.932	80.88
373.158	65.88
373.384	73.88
373.61	78.88
373.835	87.88
374.061	78.88
374.287	76.88
374.513	85.88
374.739	88.88
374.965	99.88
375.191	87.88
375.416	83.88
375.642	93.88
375.868	93.88
376.094	79.88
376.319	66.88
376.545	82.88
376.771	91.88
376.997	79.88
377.222	93.88
377.448	82.88
377.674	87.88
377.899	88.88
378.125	82.88
378.35	99.88
378.576	73.88
378.802	77.88
379.027	80.88
379.253	86.88
379.478	76.88
379.704	86.88
379.929	75.88
380.155	78.88
380.38	83.88
380.606	81.88
380.831	88.88
381.057	78.88
381.282	84.88
381.507	94.88
381.733	74.88
381.958	83.88
382.184	76.88
382.409	87.88
382.634	74.88
382.86	84.88
383.085	88.88
383.31	82.88
383.535	64.88
383.761	76.88
383.986	66.88
384.211	74.88
384.436	93.88
384.662	92.88
384.887	88.88
385.112	84.88
385.337	86.88
385.562	85.88
385.787	92.88
386.013	86.88
386.238	76.88
386.463	74.88
386.688	93.88
386.913	71.88
387.138	88.88
387.363	88.88
387.588	88.88
387.813	83.88
388.038	66.88
388.263	92.88
388.488	76.88
388.713	76.88
388.938	84.88
389.163	85.88
389.387	87.88
389.612	86.88
389.837	73.88
390.062	68.88
390.287	79.88
390.512	92.88
390.736	73.88
390.961	92.88
391.186	91.88
391.411	77.88
391.636	68.88
391.86	78.88
392.085	79.88
392.31	65.88
392.534	79.88
392.759	83.88
392.984	88.88
393.208	88.88
393.433	71.88
393.658	78.88
393.882	86.88
394.107	95.88
394.331	86.88
394.556	91.88
394.78	85.88
395.005	98.88
395.229	72.88
395.454	81.88
395.678	86.88
395.903	87.88
396.127	82.88
396.352	85.88
396.576	69.88
396.801	81.88
397.025	71.88
397.249	82.88
397.474	80.88
397.698	84.88
397.922	77.88
398.147	66.88
398.371	78.88
398.595	69.88
398.82	70.88
399.044	76.88
399.268	74.88
399.492	92.88
399.717	79.88
399.941	70.88
400.165	81.88
400.389	78.88
400.613	76.88
400.837	81.88
401.062	85.88
401.286	79.88
401.51	76.88
401.734	84.88
401.958	91.88
402.182	80.88
402.406	88.88
402.63	75.88
402.854	78.88
403.078	71.88
403.302	83.88
403.526	79.88
403.75	73.88
403.974	75.88
404.198	75.88
404.422	75.88
404.645	82.88
404.869	85.88
405.093	86.88
405.317	89.88
405.541	88.88
405.765	85.88
405.988	84.88
406.212	77.88
406.436	90.88
406.66	69.88
406.883	75.88
407.107	90.88
407.331	73.88
407.555	75.88
407.778	86.88
408.002	78.88
408.226	67.88
408.449	65.88
408.673	84.88
408.896	83.88
409.12	83.88
409.344	77.88
409.567	75.88
409.791	68.88
410.014	85.88
410.238	73.88
410.461	90.88
410.685	80.88
410.908	84.88
411.132	83.88
411.355	83.88
411.578	80.88
411.802	79.88
412.025	79.88
412.249	87.88
412.472	78.88
412.695	91.88
412.919	72.88
413.142	80.88
413.365	82.88
413.589	77.88
413.812	81.88
414.035	76.88
414.258	90.88
414.482	82.88
414.705	87.88
414.928	86.88
415.151	82.88
415.374	73.88
415.597	90.88
415.821	86.88
416.044	90.88
416.267	81.88
416.49	79.88
416.713	76.88
416.936	83.88
417.159	86.88
417.382	87.88
417.605	80.88
417.828	72.88
418.051	85.88
418.274	93.88
418.497	86.88
418.72	74.88
418.943	86.88
419.166	88.88
419.389	72.88
419.611	93.88
419.834	78.88
420.057	89.88
420.28	93.88
420.503	79.88
420.726	78.88
420.948	82.88
421.171	78.88
421.394	79.88
421.617	60.88
421.839	81.88
422.062	95.88
422.285	84.88
422.507	86.88
422.73	83.88
422.953	79.88
423.175	74.88
423.398	90.88
423.621	85.88
423.843	85.88
424.066	82.88
424.288	74.88
424.511	90.88
424.733	82.88
424.956	87.88
425.178	78.88
425.401	79.88
425.623	80.88
425.846	66.88
426.068	80.88
426.291	84.88
426.513	83.88
426.735	70.88
426.958	96.88
427.18	80.88
427.402	81.88
427.625	92.88
427.847	81.88
428.069	76.88
428.292	80.88
428.514	66.88
428.736	82.88
428.958	72.88
429.181	78.88
429.403	92.88
429.625	79.88
429.847	77.88
430.069	82.88
430.292	67.88
430.514	83.88
430.736	85.88
430.958	80.88
431.18	74.88
431.402	79.88
431.624	81.88
431.846	84.88
432.068	68.88
432.29	63.88
432.512	89.88
432.734	86.88
432.956	73.88
433.178	71.88
433.4	68.88
433.622	76.88
433.844	84.88
434.066	82.88
434.287	75.88
434.509	74.88
434.731	86.88
434.953	84.88
435.175	88.88
435.397	76.88
435.618	87.88
435.84	66.88
436.062	84.88
436.284	94.88
436.505	80.88
436.727	83.88
436.949	75.88
437.17	78.88
437.392	78.88
437.614	93.88
437.835	76.88
438.057	91.88
438.278	69.88
438.5	64.88
438.721	82.88
438.943	66.88
439.165	92.88
439.386	80.88
439.608	83.88
439.829	78.88
440.05	72.88
440.272	84.88
440.493	83.88
440.715	88.88
440.936	91.88
441.158	84.88
441.379	67.88
441.6	84.88
441.822	79.88
442.043	93.88
442.264	78.88
442.486	68.88
442.707	80.88
442.928	86.88
443.149	79.88
443.371	90.88
443.592	83.88
443.813	80.88
444.034	82.88
444.255	85.88
444.476	68.88
444.698	69.88
444.919	84.88
445.14	145.88
445.361	116.88
445.582	84.88
445.803	77.88
446.024	68.88
446.245	82.88
446.466	91.88
446.687	79.88
446.908	92.88
447.129	79.88
447.35	78.88
447.571	88.88
447.792	71.88
448.013	78.88
448.234	79.88
448.455	69.88
448.675	82.88
448.896	79.88
449.117	78.88
449.338	79.88
449.559	77.88
449.779	73.88
450	86.88
450.221	71.88
450.442	85.88
450.662	66.88
450.883	74.88
451.104	86.88
451.324	76.88
451.545	86.88
451.766	80.88
451.986	71.88
452.207	70.88
452.428	86.88
452.648	75.88
452.869	86.88
453.089	76.88
453.31	65.88
453.53	82.88
453.751	84.88
453.971	80.88
454.192	80.88
454.412	66.88
454.633	87.88
454.853	79.88
455.073	88.88
455.294	84.88
455.514	87.88
455.734	86.88
455.955	77.88
456.175	85.88
456.395	95.88
456.616	87.88
456.836	87.88
457.056	73.88
457.276	71.88
457.497	80.88
457.717	83.88
457.937	88.88
458.157	76.88
458.377	83.88
458.598	66.88
458.818	76.88
459.038	83.88
459.258	79.88
459.478	78.88
459.698	65.88
459.918	82.88
460.138	72.88
460.358	88.88
460.578	94.88
460.798	92.88
461.018	67.88
461.238	77.88
461.458	61.88
461.678	74.88
461.898	79.88
462.118	82.88
462.338	64.88
462.558	87.88
462.777	77.88
462.997	78.88
463.217	68.88
463.437	83.88
463.657	77.88
463.876	63.88
464.096	63.88
464.316	83.88
464.536	73.88
464.755	72.88
464.975	66.88
465.195	80.88
465.414	66.88
465.634	59.88
465.854	84.88
466.073	79.88
466.293	83.88
466.512	78.88
466.732	84.88
466.951	79.88
467.171	71.88
467.391	82.88
467.61	78.88
467.829	93.88
468.049	92.88
468.268	86.88
468.488	76.88
468.707	81.88
468.927	78.88
469.146	81.88
469.365	85.88
469.585	79.88
469.804	86.88
470.023	71.88
470.243	67.88
470.462	86.88
470.681	88.88
470.901	76.88
471.12	77.88
471.339	97.88
471.558	86.88
471.777	76.88
471.997	71.88
472.216	76.88
472.435	85.88
472.654	88.88
472.873	82.88
473.092	73.88
473.311	67.88
473.53	87.88
473.749	87.88
473.968	82.88
474.187	73.88
474.406	68.88
474.625	74.88
474.844	68.88
475.063	82.88
475.282	84.88
475.501	75.88
475.72	82.88
475.939	84.88
476.158	70.88
476.377	82.88
476.596	66.88
476.814	70.88
477.033	79.88
477.252	70.88
477.471	87.88
477.69	78.88
477.908	67.88
478.127	76.88
478.346	81.88
478.564	70.88
478.783	71.88
479.002	82.88
479.22	85.88
479.439	95.88
479.658	84.88
479.876	86.88
480.095	73.88
480.313	85.88
480.532	84.88
480.751	86.88
480.969	87.88
481.188	77.88
481.406	83.88
481.624	85.88
481.843	86.88
482.061	75.88
482.28	87.88
482.498	68.88
482.717	79.88
482.935	86.88
483.153	65.88
483.372	84.88
483.59	82.88
483.808	70.88
484.027	78.88
484.245	97.88
484.463	76.88
484.681	90.88
484.9	80.88
485.118	75.88
485.336	102.88
485.554	87.88
485.772	80.88
485.99	71.88
486.209	86.88
486.427	77.88
486.645	61.88
486.863	59.88
487.081	65.88
487.299	76.88
487.517	85.88
487.735	96.88
487.953	96.88
488.171	87.88
488.389	79.88
488.607	83.88
488.825	85.88
489.043	88.88
489.261	75.88
489.479	87.88
489.696	76.88
489.914	91.88
490.132	82.88
490.35	74.88
490.568	78.88
490.786	87.88
491.003	82.88
491.221	67.88
491.439	90.88
491.657	65.88
491.874	92.88
492.092	95.88
492.31	83.88
492.527	84.88
492.745	85.88
492.963	78.88
493.18	68.88
493.398	79.88
493.615	78.88
493.833	74.88
494.05	68.88
494.268	73.88
494.485	89.88
494.703	72.88
494.92	56.88
495.138	77.88
495.355	81.88
495.573	80.88
495.79	76.88
496.008	95.88
496.225	86.88
496.442	74.88
496.66	79.88
496.877	87.88
497.094	68.88
497.312	77.88
497.529	86.88
497.746	80.88
497.963	85.88
498.181	65.88
498.398	84.88
498.615	73.88
498.832	74.88
499.049	86.88
499.267	75.88
499.484	73.88
499.701	91.88
499.918	90.88
500.135	72.88
500.352	91.88
500.569	77.88
500.786	75.88
501.003	87.88
501.22	84.88
501.437	71.88
501.654	88.88
501.871	75.88
502.088	78.88
502.305	91.88
502.522	76.88
502.739	82.88
502.956	84.88
503.172	79.88
503.389	80.88
503.606	68.88
503.823	80.88
504.04	80.88
504.256	80.88
504.473	76.88
504.69	63.88
504.907	88.88
505.123	82.88
505.34	86.88
505.557	85.88
505.773	82.88
505.99	80.88
506.207	87.88
506.423	85.88
506.64	81.88
506.856	72.88
507.073	78.88
507.289	86.88
507.506	86.88
507.722	84.88
507.939	67.88
508.155	85.88
508.372	88.88
508.588	65.88
508.805	92.88
509.021	72.88
509.238	81.88
509.454	70.88
509.67	84.88
509.887	84.88
510.103	88.88
510.319	75.88
510.536	80.88
510.752	83.88
510.968	66.88
511.184	86.88
511.401	86.88
511.617	83.88
511.833	79.88
512.049	99.88
512.265	68.88
512.481	78.88
512.698	75.88
512.914	87.88
513.13	72.88
513.346	76.88
513.562	83.88
513.778	79.88
513.994	89.88
514.21	84.88
514.426	95.88
514.642	80.88
514.858	79.88
515.074	72.88
515.29	78.88
515.506	96.88
515.721	86.88
515.937	83.88
516.153	76.88
516.369	84.88
516.585	97.88
516.801	76.88
517.016	90.88
517.232	78.88
517.448	79.88
517.664	86.88
517.879	94.88
518.095	82.88
518.311	78.88
518.527	82.88
518.742	77.88
518.958	67.88
519.173	68.88
519.389	79.88
519.605	70.88
519.82	72.88
520.036	85.88
520.251	70.88
520.467	75.88
520.682	71.88
520.898	82.88
521.113	70.88
521.329	84.88
521.544	70.88
521.76	85.88
521.975	76.88
522.19	90.88
522.406	75.88
522.621	76.88
522.836	89.88
523.052	86.88
523.267	83.88
523.482	86.88
523.698	88.88
523.913	91.88
524.128	87.88
524.343	95.88
524.559	81.88
524.774	73.88
524.989	81.88
525.204	76.88
525.419	76.88
525.634	63.88
525.849	76.88
526.064	76.88
526.28	92.88
526.495	81.88
526.71	77.88
526.925	90.88
527.14	94.88
527.355	87.88
527.57	80.88
527.785	81.88
527.999	78.88
528.214	82.88
528.429	76.88
528.644	75.88
528.859	83.88
529.074	96.88
529.289	83.88
529.503	94.88
529.718	76.88
529.933	84.88
530.148	77.88
530.363	88.88
530.577	78.88
530.792	89.88
531.007	85.88
531.221	84.88
531.436	85.88
531.651	87.88
531.865	83.88
532.08	79.88
532.295	68.88
532.509	87.88
532.724	92.88
532.938	86.88
533.153	64.88
533.367	80.88
533.582	88.88
533.796	73.88
534.011	83.88
534.225	84.88
534.44	76.88
534.654	89.88
534.868	80.88
535.083	74.88
535.297	82.88
535.511	86.88
535.726	87.88
535.94	80.88
536.154	84.88
536.369	90.88
536.583	86.88
536.797	69.88
537.011	88.88
537.225	73.88
537.44	81.88
537.654	83.88
537.868	81.88
538.082	69.88
538.296	71.88
538.51	95.88
538.724	82.88
538.938	82.88
539.153	91.88
539.367	85.88
539.581	82.88
539.795	67.88
540.009	87.88
540.222	73.88
540.436	83.88
540.65	80.88
540.864	79.88
541.078	81.88
541.292	80.88
541.506	74.88
541.72	70.88
541.934	88.88
542.147	80.88
542.361	75.88
542.575	90.88
542.789	86.88
543.002	79.88
543.216	85.88
543.43	75.88
543.644	78.88
543.857	79.88
544.071	85.88
544.285	87.88
544.498	92.88
544.712	84.88
544.925	76.88
545.139	78.88
545.352	81.88
545.566	97.88
545.779	80.88
545.993	106.88
546.206	82.88
546.42	77.88
546.633	83.88
546.847	77.88
547.06	83.88
547.274	91.88
547.487	82.88
547.7	78.88
547.914	88.88
548.127	77.88
548.34	97.88
548.554	83.88
548.767	72.88
548.98	92.88
549.193	90.88
549.407	77.88
549.62	83.88
549.833	75.88
550.046	79.88
550.259	92.88
550.473	94.88
550.686	84.88
550.899	86.88
551.112	83.88
551.325	72.88
551.538	85.88
551.751	82.88
551.964	83.88
552.177	86.88
552.39	83.88
552.603	86.88
552.816	72.88
553.029	72.88
553.242	67.88
553.455	82.88
553.667	92.88
553.88	68.88
554.093	95.88
554.306	82.88
554.519	87.88
554.732	85.88
554.944	96.88
555.157	83.88
555.37	82.88
555.583	93.88
555.795	74.88
556.008	82.88
556.221	81.88
556.433	87.88
556.646	87.88
556.859	90.88
557.071	100.88
557.284	76.88
557.496	88.88
557.709	67.88
557.921	92.88
558.134	87.88
558.346	90.88
558.559	80.88
558.771	65.88
558.984	98.88
559.196	76.88
559.409	76.88
559.621	84.88
559.833	81.88
560.046	78.88
560.258	78.88
560.47	86.88
560.683	77.88
560.895	88.88
561.107	95.88
561.32	66.88
561.532	82.88
561.744	72.88
561.956	78.88
562.168	74.88
562.381	83.88
562.593	69.88
562.805	86.88
563.017	110.88
563.229	107.88
563.441	94.88
563.653	87.88
563.865	83.88
564.077	70.88
564.289	84.88
564.501	89.88
564.713	92.88
564.925	82.88
565.137	72.88
565.349	82.88
565.561	75.88
565.773	78.88
565.985	86.88
566.197	72.88
566.408	82.88
566.62	87.88
566.832	76.88
567.044	84.88
567.255	84.88
567.467	96.88
567.679	82.88
567.891	82.88
568.102	81.88
568.314	98.88
568.526	88.88
568.737	100.88
568.949	75.88
569.161	80.88
569.372	80.88
569.584	79.88
569.795	98.88
570.007	72.88
570.218	79.88
570.43	73.88
570.641	90.88
570.853	84.88
571.064	90.88
571.276	84.88
571.487	77.88
571.698	70.88
571.91	75.88
572.121	74.88
572.333	86.88
572.544	82.88
572.755	84.88
572.966	76.88
573.178	72.88
573.389	88.88
573.6	70.88
573.811	82.88
574.023	85.88
574.234	77.88
574.445	82.88
574.656	76.88
574.867	77.88
575.078	71.88
575.289	90.88
575.501	77.88
575.712	84.88
575.923	82.88
576.134	86.88
576.345	79.88
576.556	85.88
576.767	109.88
576.978	83.88
577.188	96.88
577.399	80.88
577.61	83.88
577.821	73.88
578.032	94.88
578.243	88.88
578.454	82.88
578.665	97.88
578.875	72.88
579.086	83.88
579.297	91.88
579.508	73.88
579.718	74.88
579.929	85.88
580.14	86.88
580.35	80.88
580.561	92.88
580.772	73.88
580.982	80.88
581.193	79.88
581.403	71.88
581.614	82.88
581.825	82.88
582.035	78.88
582.246	90.88
582.456	87.88
582.667	83.88
582.877	78.88
583.087	81.88
583.298	76.88
583.508	90.88
583.719	83.88
583.929	88.88
584.139	100.88
584.35	75.88
584.56	90.88
584.77	68.88
584.981	87.88
585.191	87.88
585.401	95.88
585.611	88.88
585.821	67.88
586.032	97.88
586.242	88.88
586.452	85.88
586.662	82.88
586.872	95.88
587.082	68.88
587.292	76.88
587.502	93.88
587.713	83.88
587.923	74.88
588.133	91.88
588.343	74.88
588.553	80.88
588.762	83.88
588.972	91.88
589.182	101.88
589.392	84.88
589.602	90.88
589.812	118.88
590.022	94.88
590.232	78.88
590.441	80.88
590.651	80.88
590.861	67.88
591.071	86.88
591.281	86.88
591.49	83.88
591.7	76.88
591.91	91.88
592.119	93.88
592.329	94.88
592.539	89.88
592.748	75.88
592.958	69.88
593.167	80.88
593.377	94.88
593.587	80.88
593.796	86.88
594.006	79.88
594.215	85.88
594.424	81.88
594.634	78.88
594.843	81.88
595.053	91.88
595.262	86.88
595.472	84.88
595.681	76.88
595.89	83.88
596.1	82.88
596.309	90.88
596.518	91.88
596.727	79.88
596.937	74.88
597.146	87.88
597.355	95.88
597.564	86.88
597.774	77.88
597.983	72.88
598.192	86.88
598.401	82.88
598.61	87.88
598.819	94.88
599.028	92.88
599.237	80.88
599.446	79.88
599.655	96.88
599.864	99.88
600.073	85.88
600.282	78.88
600.491	99.88
600.7	72.88
600.909	84.88
601.118	81.88
601.327	90.88
601.536	73.88
601.745	83.88
601.953	90.88
602.162	84.88
602.371	71.88
602.58	93.88
602.789	78.88
602.997	76.88
603.206	96.88
603.415	85.88
603.623	82.88
603.832	78.88
604.041	84.88
604.249	84.88
604.458	94.88
604.666	87.88
604.875	78.88
605.084	81.88
605.292	89.88
605.501	72.88
605.709	86.88
605.918	80.88
606.126	70.88
606.334	82.88
606.543	66.88
606.751	78.88
606.96	72.88
607.168	79.88
607.376	76.88
607.585	84.88
607.793	85.88
608.001	82.88
608.21	81.88
608.418	69.88
608.626	87.88
608.834	85.88
609.043	83.88
609.251	85.88
609.459	85.88
609.667	91.88
609.875	68.88
610.083	96.88
610.291	79.88
610.499	88.88
610.707	64.88
610.916	72.88
611.124	75.88
611.332	90.88
611.54	82.88
611.748	78.88
611.955	73.88
612.163	78.88
612.371	97.88
612.579	79.88
612.787	88.88
612.995	98.88
613.203	95.88
613.411	77.88
613.618	84.88
613.826	92.88
614.034	86.88
614.242	86.88
614.449	79.88
614.657	89.88
614.865	89.88
615.072	71.88
615.28	92.88
615.488	90.88
615.695	99.88
615.903	88.88
616.111	97.88
616.318	85.88
616.526	86.88
616.733	62.88
616.941	80.88
617.148	83.88
617.356	79.88
617.563	76.88
617.771	76.88
617.978	101.88
618.185	92.88
618.393	83.88
618.6	88.88
618.807	70.88
619.015	62.88
619.222	67.88
619.429	85.88
619.637	80.88
619.844	80.88
620.051	94.88
620.258	81.88
620.466	77.88
620.673	80.88
620.88	77.88
621.087	89.88
621.294	82.88
621.501	90.88
621.708	91.88
621.915	84.88
622.122	87.88
622.329	83.88
622.536	83.88
622.743	76.88
622.95	83.88
623.157	80.88
623.364	94.88
623.571	85.88
623.778	94.88
623.985	82.88
624.192	81.88
624.399	91.88
624.606	84.88
624.812	96.88
625.019	76.88
625.226	76.88
625.433	97.88
625.639	82.88
625.846	69.88
626.053	80.88
626.259	89.88
626.466	87.88
626.673	97.88
626.879	83.88
627.086	89.88
627.293	91.88
627.499	85.88
627.706	81.88
627.912	90.88
628.119	77.88
628.325	73.88
628.532	85.88
628.738	87.88
628.945	81.88
629.151	76.88
629.357	77.88
629.564	84.88
629.77	72.88
629.976	83.88
630.183	76.88
630.389	78.88
630.595	81.88
630.802	86.88
631.008	85.88
631.214	84.88
631.42	76.88
631.627	86.88
631.833	85.88
632.039	87.88
632.245	83.88
632.451	93.88
632.657	58.88
632.863	73.88
633.069	83.88
633.275	82.88
633.481	78.88
633.688	83.88
633.893	90.88
634.099	85.88
634.305	79.88
634.511	75.88
634.717	89.88
634.923	79.88
635.129	69.88
635.335	82.88
635.541	79.88
635.747	86.88
635.952	87.88
636.158	76.88
636.364	84.88
636.57	71.88
636.775	84.88
636.981	98.88
637.187	94.88
637.392	83.88
637.598	73.88
637.804	90.88
638.009	79.88
638.215	86.88
638.421	84.88
638.626	85.88
638.832	82.88
639.037	91.88
639.243	81.88
639.448	87.88
639.654	78.88
639.859	80.88
640.065	70.88
640.27	83.88
640.475	80.88
640.681	67.88
640.886	78.88
641.091	88.88
641.297	86.88
641.502	82.88
641.707	71.88
641.913	84.88
642.118	80.88
642.323	75.88
642.528	82.88
642.733	103.88
642.939	103.88
643.144	99.88
643.349	81.88
643.554	89.88
643.759	78.88
643.964	82.88
644.169	100.88
644.374	82.88
644.579	88.88
644.784	80.88
644.989	82.88
645.194	73.88
645.399	84.88
645.604	62.88
645.809	84.88
646.014	79.88
646.219	86.88
646.423	91.88
646.628	87.88
646.833	82.88
647.038	91.88
647.243	70.88
647.447	77.88
647.652	80.88
647.857	82.88
648.062	78.88
648.266	73.88
648.471	82.88
648.676	99.88
648.88	76.88
649.085	74.88
649.289	86.88
649.494	82.88
649.698	82.88
649.903	86.88
650.107	83.88
650.312	82.88
650.516	86.88
650.721	79.88
650.925	76.88
651.13	78.88
651.334	82.88
651.539	83.88
651.743	96.88
651.947	80.88
652.152	81.88
652.356	82.88
652.56	74.88
652.764	75.88
652.969	83.88
653.173	77.88
653.377	95.88
653.581	93.88
653.785	83.88
653.99	80.88
654.194	71.88
654.398	87.88
654.602	85.88
654.806	70.88
655.01	82.88
655.214	80.88
655.418	101.88
655.622	87.88
655.826	80.88
656.03	79.88
656.234	85.88
656.438	77.88
656.642	71.88
656.846	71.88
657.049	73.88
657.253	106.88
657.457	75.88
657.661	69.88
657.865	84.88
658.068	75.88
658.272	66.88
658.476	96.88
658.68	83.88
658.883	87.88
659.087	91.88
659.291	86.88
659.494	84.88
659.698	67.88
659.901	76.88
660.105	81.88
660.309	82.88
660.512	88.88
660.716	69.88
660.919	89.88
661.123	72.88
661.326	79.88
661.53	86.88
661.733	77.88
661.936	93.88
662.14	78.88
662.343	82.88
662.546	72.88
662.75	72.88
662.953	89.88
663.156	82.88
663.36	100.88
663.563	82.88
663.766	73.88
663.969	85.88
664.173	82.88
664.376	76.88
664.579	68.88
664.782	78.88
664.985	87.88
665.188	78.88
665.391	92.88
665.594	62.88
665.797	80.88
666	80.88
666.203	72.88
666.406	79.88
666.609	90.88
666.812	71.88
667.015	71.88
667.218	85.88
667.421	77.88
667.624	87.88
667.827	77.88
668.03	83.88
668.232	89.88
668.435	91.88
668.638	77.88
668.841	81.88
669.043	97.88
669.246	77.88
669.449	80.88
669.651	72.88
669.854	79.88
670.057	82.88
670.259	88.88
670.462	77.88
670.665	72.88
670.867	85.88
671.07	87.88
671.272	85.88
671.475	84.88
671.677	80.88
671.88	88.88
672.082	78.88
672.284	79.88
672.487	85.88
672.689	91.88
672.892	78.88
