Data from Lead_25_2_HRD10591_00087.txt Node
Date: Fri Feb 20 11:02:25 EST 2026
User: Yrep
Spectrometer: HR+D1059
Trigger mode: 1
Integration Time (sec): 1.000000E-1
Scans to average: 1
Electric dark correction enabled: true
Nonlinearity correction enabled: false
Boxcar width: 0
XAxis mode: Wavelengths
Number of Pixels in Spectrum: 2048
>>>>>Begin Spectral Data<<<<<
223.165	-14.81
223.4	-14.81
223.635	-14.81
223.869	-20.81
224.104	-23.81
224.338	-17.81
224.573	-14.81
224.808	-13.81
225.042	-3.81
225.277	-7.81
225.511	6.19
225.746	-2.81
225.98	4.19
226.215	19.19
226.449	18.19
226.683	20.19
226.918	17.19
227.152	35.19
227.387	47.19
227.621	36.19
227.856	34.19
228.09	42.19
228.324	62.19
228.559	52.19
228.793	69.19
229.027	72.19
229.262	61.19
229.496	68.19
229.73	64.19
229.964	64.19
230.199	86.19
230.433	70.19
230.667	65.19
230.901	71.19
231.136	97.19
231.37	84.19
231.604	70.19
231.838	72.19
232.072	68.19
232.306	83.19
232.541	83.19
232.775	87.19
233.009	79.19
233.243	106.19
233.477	90.19
233.711	70.19
233.945	76.19
234.179	77.19
234.413	68.19
234.647	85.19
234.881	86.19
235.115	75.19
235.349	70.19
235.583	79.19
235.817	64.19
236.051	78.19
236.285	70.19
236.519	66.19
236.753	78.19
236.987	80.19
237.221	80.19
237.455	75.19
237.689	57.19
237.922	72.19
238.156	78.19
238.39	86.19
238.624	78.19
238.858	76.19
239.091	72.19
239.325	62.19
239.559	64.19
239.793	64.19
240.027	72.19
240.26	68.19
240.494	76.19
240.728	75.19
240.961	81.19
241.195	76.19
241.429	82.19
241.662	79.19
241.896	69.19
242.13	71.19
242.363	77.19
242.597	69.19
242.83	78.19
243.064	55.19
243.298	83.19
243.531	73.19
243.765	71.19
243.998	77.19
244.232	90.19
244.465	78.19
244.699	77.19
244.932	65.19
245.166	79.19
245.399	68.19
245.633	82.19
245.866	94.19
246.099	75.19
246.333	68.19
246.566	78.19
246.8	52.19
247.033	86.19
247.266	59.19
247.5	69.19
247.733	61.19
247.966	71.19
248.2	86.19
248.433	84.19
248.666	79.19
248.899	80.19
249.133	80.19
249.366	85.19
249.599	86.19
249.832	77.19
250.066	78.19
250.299	92.19
250.532	87.19
250.765	84.19
250.998	76.19
251.231	88.19
251.465	78.19
251.698	76.19
251.931	71.19
252.164	78.19
252.397	81.19
252.63	83.19
252.863	85.19
253.096	62.19
253.329	81.19
253.562	78.19
253.795	94.19
254.028	73.19
254.261	79.19
254.494	64.19
254.727	82.19
254.96	83.19
255.193	73.19
255.426	82.19
255.659	98.19
255.892	77.19
256.124	64.19
256.357	87.19
256.59	75.19
256.823	77.19
257.056	83.19
257.289	73.19
257.521	57.19
257.754	74.19
257.987	76.19
258.22	81.19
258.452	73.19
258.685	76.19
258.918	81.19
259.151	79.19
259.383	72.19
259.616	87.19
259.849	95.19
260.081	64.19
260.314	86.19
260.547	79.19
260.779	90.19
261.012	66.19
261.244	70.19
261.477	83.19
261.71	70.19
261.942	71.19
262.175	77.19
262.407	61.19
262.64	72.19
262.872	97.19
263.105	83.19
263.337	86.19
263.57	74.19
263.802	78.19
264.035	94.19
264.267	78.19
264.499	79.19
264.732	80.19
264.964	74.19
265.197	79.19
265.429	73.19
265.661	71.19
265.894	82.19
266.126	76.19
266.358	76.19
266.591	85.19
266.823	103.19
267.055	82.19
267.287	76.19
267.52	74.19
267.752	80.19
267.984	85.19
268.216	79.19
268.448	61.19
268.681	86.19
268.913	94.19
269.145	74.19
269.377	72.19
269.609	66.19
269.841	70.19
270.073	78.19
270.306	82.19
270.538	78.19
270.77	79.19
271.002	65.19
271.234	70.19
271.466	81.19
271.698	78.19
271.93	84.19
272.162	102.19
272.394	84.19
272.626	85.19
272.858	101.19
273.09	79.19
273.322	81.19
273.553	86.19
273.785	81.19
274.017	78.19
274.249	71.19
274.481	76.19
274.713	70.19
274.945	94.19
275.176	78.19
275.408	71.19
275.64	70.19
275.872	88.19
276.104	81.19
276.335	92.19
276.567	77.19
276.799	84.19
277.031	86.19
277.262	88.19
277.494	88.19
277.726	85.19
277.957	98.19
278.189	93.19
278.421	75.19
278.652	71.19
278.884	80.19
279.115	80.19
279.347	73.19
279.579	78.19
279.81	76.19
280.042	80.19
280.273	98.19
280.505	90.19
280.736	90.19
280.968	72.19
281.199	76.19
281.431	93.19
281.662	76.19
281.894	88.19
282.125	82.19
282.356	66.19
282.588	83.19
282.819	89.19
283.051	94.19
283.282	89.19
283.513	95.19
283.745	91.19
283.976	88.19
284.207	78.19
284.439	86.19
284.67	86.19
284.901	78.19
285.132	85.19
285.364	77.19
285.595	78.19
285.826	84.19
286.057	87.19
286.288	83.19
286.52	85.19
286.751	82.19
286.982	94.19
287.213	80.19
287.444	84.19
287.675	64.19
287.906	81.19
288.138	72.19
288.369	84.19
288.6	92.19
288.831	82.19
289.062	82.19
289.293	71.19
289.524	85.19
289.755	87.19
289.986	99.19
290.217	86.19
290.448	73.19
290.679	91.19
290.91	86.19
291.141	78.19
291.371	79.19
291.602	83.19
291.833	95.19
292.064	92.19
292.295	105.19
292.526	73.19
292.757	86.19
292.987	67.19
293.218	92.19
293.449	94.19
293.68	73.19
293.91	72.19
294.141	82.19
294.372	84.19
294.603	87.19
294.833	101.19
295.064	96.19
295.295	70.19
295.525	78.19
295.756	82.19
295.987	74.19
296.217	85.19
296.448	78.19
296.679	102.19
296.909	84.19
297.14	89.19
297.37	61.19
297.601	84.19
297.831	78.19
298.062	81.19
298.292	96.19
298.523	98.19
298.753	69.19
298.984	99.19
299.214	96.19
299.445	84.19
299.675	69.19
299.905	95.19
300.136	87.19
300.366	86.19
300.597	90.19
300.827	93.19
301.057	78.19
301.288	72.19
301.518	84.19
301.748	78.19
301.979	97.19
302.209	87.19
302.439	86.19
302.669	66.19
302.9	91.19
303.13	91.19
303.36	95.19
303.59	88.19
303.82	74.19
304.051	75.19
304.281	91.19
304.511	99.19
304.741	82.19
304.971	92.19
305.201	87.19
305.431	80.19
305.661	93.19
305.891	85.19
306.121	84.19
306.352	90.19
306.582	78.19
306.812	83.19
307.042	78.19
307.272	78.19
307.502	83.19
307.731	87.19
307.961	92.19
308.191	90.19
308.421	82.19
308.651	75.19
308.881	88.19
309.111	84.19
309.341	86.19
309.571	76.19
309.8	68.19
310.03	86.19
310.26	68.19
310.49	77.19
310.72	84.19
310.949	83.19
311.179	83.19
311.409	81.19
311.639	78.19
311.868	84.19
312.098	77.19
312.328	69.19
312.557	78.19
312.787	94.19
313.017	74.19
313.246	84.19
313.476	87.19
313.706	85.19
313.935	93.19
314.165	91.19
314.394	84.19
314.624	73.19
314.853	79.19
315.083	78.19
315.312	90.19
315.542	77.19
315.771	68.19
316.001	83.19
316.23	92.19
316.46	93.19
316.689	62.19
316.919	76.19
317.148	84.19
317.377	86.19
317.607	96.19
317.836	90.19
318.065	97.19
318.295	83.19
318.524	85.19
318.753	94.19
318.983	86.19
319.212	86.19
319.441	73.19
319.67	81.19
319.9	92.19
320.129	73.19
320.358	97.19
320.587	99.19
320.816	83.19
321.046	93.19
321.275	65.19
321.504	77.19
321.733	79.19
321.962	92.19
322.191	83.19
322.42	86.19
322.649	90.19
322.878	86.19
323.108	87.19
323.337	80.19
323.566	69.19
323.795	86.19
324.024	88.19
324.253	79.19
324.482	89.19
324.71	80.19
324.939	70.19
325.168	83.19
325.397	82.19
325.626	74.19
325.855	91.19
326.084	92.19
326.313	88.19
326.542	75.19
326.77	72.19
326.999	90.19
327.228	83.19
327.457	82.19
327.686	86.19
327.914	90.19
328.143	97.19
328.372	84.19
328.6	85.19
328.829	67.19
329.058	77.19
329.287	82.19
329.515	75.19
329.744	86.19
329.972	81.19
330.201	74.19
330.43	87.19
330.658	85.19
330.887	87.19
331.115	87.19
331.344	88.19
331.572	83.19
331.801	81.19
332.03	96.19
332.258	90.19
332.486	68.19
332.715	75.19
332.943	75.19
333.172	82.19
333.4	75.19
333.629	84.19
333.857	87.19
334.085	74.19
334.314	65.19
334.542	80.19
334.771	68.19
334.999	82.19
335.227	84.19
335.455	75.19
335.684	86.19
335.912	92.19
336.14	97.19
336.369	71.19
336.597	80.19
336.825	70.19
337.053	75.19
337.281	86.19
337.51	80.19
337.738	89.19
337.966	85.19
338.194	86.19
338.422	85.19
338.65	90.19
338.878	80.19
339.106	71.19
339.334	78.19
339.562	84.19
339.79	84.19
340.018	83.19
340.246	80.19
340.474	72.19
340.702	86.19
340.93	80.19
341.158	85.19
341.386	88.19
341.614	103.19
341.842	86.19
342.07	87.19
342.298	85.19
342.526	92.19
342.754	85.19
342.981	80.19
343.209	76.19
343.437	82.19
343.665	81.19
343.893	65.19
344.12	76.19
344.348	88.19
344.576	91.19
344.804	86.19
345.031	77.19
345.259	98.19
345.487	68.19
345.714	79.19
345.942	86.19
346.17	75.19
346.397	70.19
346.625	82.19
346.853	90.19
347.08	93.19
347.308	84.19
347.535	87.19
347.763	79.19
347.99	93.19
348.218	84.19
348.445	76.19
348.673	70.19
348.9	82.19
349.128	93.19
349.355	84.19
349.583	91.19
349.81	70.19
350.037	92.19
350.265	88.19
350.492	77.19
350.72	66.19
350.947	74.19
351.174	87.19
351.402	81.19
351.629	85.19
351.856	79.19
352.083	86.19
352.311	82.19
352.538	75.19
352.765	76.19
352.992	94.19
353.22	87.19
353.447	72.19
353.674	91.19
353.901	78.19
354.128	78.19
354.355	86.19
354.583	82.19
354.81	85.19
355.037	76.19
355.264	90.19
355.491	88.19
355.718	88.19
355.945	73.19
356.172	77.19
356.399	82.19
356.626	82.19
356.853	88.19
357.08	72.19
357.307	81.19
357.534	86.19
357.761	91.19
357.988	77.19
358.215	97.19
358.441	74.19
358.668	78.19
358.895	73.19
359.122	79.19
359.349	75.19
359.576	80.19
359.802	75.19
360.029	69.19
360.256	70.19
360.483	79.19
360.709	72.19
360.936	84.19
361.163	78.19
361.39	75.19
361.616	84.19
361.843	83.19
362.07	80.19
362.296	85.19
362.523	92.19
362.749	87.19
362.976	89.19
363.203	88.19
363.429	97.19
363.656	88.19
363.882	98.19
364.109	83.19
364.335	81.19
364.562	76.19
364.788	77.19
365.015	84.19
365.241	84.19
365.468	71.19
365.694	86.19
365.92	76.19
366.147	72.19
366.373	76.19
366.599	87.19
366.826	71.19
367.052	94.19
367.278	83.19
367.505	80.19
367.731	80.19
367.957	73.19
368.184	86.19
368.41	94.19
368.636	72.19
368.862	71.19
369.089	86.19
369.315	70.19
369.541	79.19
369.767	85.19
369.993	73.19
370.219	93.19
370.445	91.19
370.672	94.19
370.898	96.19
371.124	76.19
371.35	73.19
371.576	78.19
371.802	75.19
372.028	66.19
372.254	90.19
372.48	78.19
372.706	77.19
372.932	79.19
373.158	81.19
373.384	82.19
373.61	84.19
373.835	88.19
374.061	95.19
374.287	78.19
374.513	92.19
374.739	77.19
374.965	71.19
375.191	72.19
375.416	93.19
375.642	71.19
375.868	84.19
376.094	82.19
376.319	75.19
376.545	91.19
376.771	77.19
376.997	78.19
377.222	94.19
377.448	94.19
377.674	86.19
377.899	82.19
378.125	81.19
378.35	96.19
378.576	74.19
378.802	74.19
379.027	77.19
379.253	76.19
379.478	78.19
379.704	81.19
379.929	74.19
380.155	83.19
380.38	77.19
380.606	86.19
380.831	78.19
381.057	64.19
381.282	79.19
381.507	71.19
381.733	72.19
381.958	97.19
382.184	72.19
382.409	84.19
382.634	75.19
382.86	76.19
383.085	71.19
383.31	86.19
383.535	93.19
383.761	81.19
383.986	94.19
384.211	61.19
384.436	76.19
384.662	78.19
384.887	81.19
385.112	75.19
385.337	67.19
385.562	84.19
385.787	73.19
386.013	80.19
386.238	85.19
386.463	86.19
386.688	80.19
386.913	82.19
387.138	85.19
387.363	82.19
387.588	92.19
387.813	87.19
388.038	77.19
388.263	89.19
388.488	88.19
388.713	62.19
388.938	84.19
389.163	78.19
389.387	82.19
389.612	82.19
389.837	81.19
390.062	88.19
390.287	90.19
390.512	76.19
390.736	78.19
390.961	79.19
391.186	88.19
391.411	87.19
391.636	83.19
391.86	78.19
392.085	78.19
392.31	83.19
392.534	83.19
392.759	82.19
392.984	78.19
393.208	86.19
393.433	91.19
393.658	84.19
393.882	86.19
394.107	74.19
394.331	83.19
394.556	80.19
394.78	74.19
395.005	64.19
395.229	96.19
395.454	90.19
395.678	70.19
395.903	82.19
396.127	83.19
396.352	75.19
396.576	82.19
396.801	72.19
397.025	85.19
397.249	71.19
397.474	89.19
397.698	82.19
397.922	83.19
398.147	79.19
398.371	92.19
398.595	90.19
398.82	78.19
399.044	76.19
399.268	84.19
399.492	92.19
399.717	80.19
399.941	77.19
400.165	82.19
400.389	60.19
400.613	84.19
400.837	87.19
401.062	76.19
401.286	76.19
401.51	73.19
401.734	74.19
401.958	72.19
402.182	84.19
402.406	69.19
402.63	78.19
402.854	70.19
403.078	69.19
403.302	73.19
403.526	83.19
403.75	80.19
403.974	62.19
404.198	98.19
404.422	84.19
404.645	76.19
404.869	73.19
405.093	80.19
405.317	106.19
405.541	87.19
405.765	90.19
405.988	110.19
406.212	91.19
406.436	62.19
406.66	84.19
406.883	80.19
407.107	80.19
407.331	74.19
407.555	66.19
407.778	74.19
408.002	78.19
408.226	79.19
408.449	78.19
408.673	87.19
408.896	73.19
409.12	69.19
409.344	80.19
409.567	84.19
409.791	77.19
410.014	72.19
410.238	80.19
410.461	94.19
410.685	81.19
410.908	85.19
411.132	86.19
411.355	83.19
411.578	74.19
411.802	92.19
412.025	82.19
412.249	82.19
412.472	64.19
412.695	76.19
412.919	71.19
413.142	88.19
413.365	70.19
413.589	85.19
413.812	79.19
414.035	76.19
414.258	94.19
414.482	78.19
414.705	79.19
414.928	83.19
415.151	84.19
415.374	75.19
415.597	70.19
415.821	67.19
416.044	65.19
416.267	84.19
416.49	78.19
416.713	78.19
416.936	88.19
417.159	91.19
417.382	82.19
417.605	68.19
417.828	75.19
418.051	76.19
418.274	85.19
418.497	80.19
418.72	83.19
418.943	88.19
419.166	82.19
419.389	80.19
419.611	64.19
419.834	75.19
420.057	70.19
420.28	68.19
420.503	71.19
420.726	90.19
420.948	81.19
421.171	72.19
421.394	80.19
421.617	66.19
421.839	62.19
422.062	79.19
422.285	81.19
422.507	68.19
422.73	82.19
422.953	79.19
423.175	83.19
423.398	74.19
423.621	74.19
423.843	80.19
424.066	62.19
424.288	86.19
424.511	82.19
424.733	68.19
424.956	84.19
425.178	65.19
425.401	80.19
425.623	65.19
425.846	80.19
426.068	58.19
426.291	66.19
426.513	86.19
426.735	83.19
426.958	84.19
427.18	57.19
427.402	90.19
427.625	70.19
427.847	83.19
428.069	76.19
428.292	77.19
428.514	89.19
428.736	65.19
428.958	67.19
429.181	69.19
429.403	69.19
429.625	69.19
429.847	90.19
430.069	83.19
430.292	71.19
430.514	78.19
430.736	77.19
430.958	87.19
431.18	88.19
431.402	79.19
431.624	76.19
431.846	85.19
432.068	84.19
432.29	78.19
432.512	84.19
432.734	83.19
432.956	86.19
433.178	77.19
433.4	83.19
433.622	79.19
433.844	79.19
434.066	83.19
434.287	82.19
434.509	62.19
434.731	71.19
434.953	64.19
435.175	84.19
435.397	66.19
435.618	66.19
435.84	76.19
436.062	88.19
436.284	77.19
436.505	87.19
436.727	74.19
436.949	87.19
437.17	85.19
437.392	80.19
437.614	79.19
437.835	76.19
438.057	71.19
438.278	74.19
438.5	76.19
438.721	65.19
438.943	74.19
439.165	86.19
439.386	83.19
439.608	75.19
439.829	80.19
440.05	70.19
440.272	82.19
440.493	82.19
440.715	71.19
440.936	84.19
441.158	88.19
441.379	90.19
441.6	93.19
441.822	80.19
442.043	85.19
442.264	77.19
442.486	81.19
442.707	80.19
442.928	87.19
443.149	81.19
443.371	75.19
443.592	79.19
443.813	84.19
444.034	83.19
444.255	80.19
444.476	60.19
444.698	86.19
444.919	69.19
445.14	152.19
445.361	122.19
445.582	68.19
445.803	85.19
446.024	92.19
446.245	80.19
446.466	73.19
446.687	72.19
446.908	69.19
447.129	81.19
447.35	79.19
447.571	78.19
447.792	74.19
448.013	77.19
448.234	88.19
448.455	67.19
448.675	76.19
448.896	90.19
449.117	83.19
449.338	76.19
449.559	80.19
449.779	75.19
450	61.19
450.221	61.19
450.442	61.19
450.662	72.19
450.883	71.19
451.104	89.19
451.324	93.19
451.545	72.19
451.766	80.19
451.986	69.19
452.207	82.19
452.428	88.19
452.648	86.19
452.869	68.19
453.089	73.19
453.31	72.19
453.53	76.19
453.751	76.19
453.971	64.19
454.192	68.19
454.412	69.19
454.633	73.19
454.853	63.19
455.073	75.19
455.294	72.19
455.514	61.19
455.734	70.19
455.955	70.19
456.175	80.19
456.395	78.19
456.616	76.19
456.836	67.19
457.056	71.19
457.276	59.19
457.497	62.19
457.717	68.19
457.937	76.19
458.157	68.19
458.377	72.19
458.598	81.19
458.818	84.19
459.038	79.19
459.258	75.19
459.478	80.19
459.698	69.19
459.918	76.19
460.138	77.19
460.358	99.19
460.578	75.19
460.798	82.19
461.018	86.19
461.238	63.19
461.458	82.19
461.678	72.19
461.898	72.19
462.118	80.19
462.338	73.19
462.558	64.19
462.777	76.19
462.997	78.19
463.217	82.19
463.437	67.19
463.657	78.19
463.876	76.19
464.096	70.19
464.316	83.19
464.536	83.19
464.755	80.19
464.975	72.19
465.195	78.19
465.414	81.19
465.634	82.19
465.854	91.19
466.073	82.19
466.293	94.19
466.512	84.19
466.732	86.19
466.951	78.19
467.171	69.19
467.391	85.19
467.61	75.19
467.829	60.19
468.049	85.19
468.268	76.19
468.488	77.19
468.707	95.19
468.927	68.19
469.146	80.19
469.365	87.19
469.585	80.19
469.804	90.19
470.023	70.19
470.243	84.19
470.462	86.19
470.681	76.19
470.901	93.19
471.12	82.19
471.339	85.19
471.558	95.19
471.777	70.19
471.997	92.19
472.216	85.19
472.435	78.19
472.654	87.19
472.873	76.19
473.092	86.19
473.311	79.19
473.53	76.19
473.749	79.19
473.968	79.19
474.187	71.19
474.406	68.19
474.625	72.19
474.844	67.19
475.063	80.19
475.282	78.19
475.501	82.19
475.72	89.19
475.939	85.19
476.158	79.19
476.377	70.19
476.596	87.19
476.814	82.19
477.033	82.19
477.252	65.19
477.471	85.19
477.69	55.19
477.908	80.19
478.127	86.19
478.346	87.19
478.564	88.19
478.783	90.19
479.002	71.19
479.22	76.19
479.439	73.19
479.658	92.19
479.876	70.19
480.095	78.19
480.313	69.19
480.532	81.19
480.751	72.19
480.969	86.19
481.188	75.19
481.406	71.19
481.624	76.19
481.843	69.19
482.061	85.19
482.28	84.19
482.498	88.19
482.717	85.19
482.935	67.19
483.153	75.19
483.372	87.19
483.59	85.19
483.808	84.19
484.027	84.19
484.245	83.19
484.463	72.19
484.681	78.19
484.9	69.19
485.118	86.19
485.336	80.19
485.554	77.19
485.772	90.19
485.99	90.19
486.209	80.19
486.427	68.19
486.645	79.19
486.863	76.19
487.081	80.19
487.299	83.19
487.517	85.19
487.735	76.19
487.953	86.19
488.171	95.19
488.389	87.19
488.607	90.19
488.825	76.19
489.043	84.19
489.261	76.19
489.479	93.19
489.696	77.19
489.914	59.19
490.132	76.19
490.35	84.19
490.568	75.19
490.786	73.19
491.003	92.19
491.221	64.19
491.439	80.19
491.657	83.19
491.874	84.19
492.092	82.19
492.31	83.19
492.527	83.19
492.745	80.19
492.963	81.19
493.18	94.19
493.398	78.19
493.615	71.19
493.833	71.19
494.05	69.19
494.268	88.19
494.485	82.19
494.703	75.19
494.92	79.19
495.138	84.19
495.355	91.19
495.573	103.19
495.79	79.19
496.008	80.19
496.225	81.19
496.442	77.19
496.66	78.19
496.877	94.19
497.094	80.19
497.312	83.19
497.529	86.19
497.746	81.19
497.963	69.19
498.181	78.19
498.398	89.19
498.615	70.19
498.832	82.19
499.049	72.19
499.267	88.19
499.484	62.19
499.701	97.19
499.918	86.19
500.135	77.19
500.352	80.19
500.569	83.19
500.786	94.19
501.003	100.19
501.22	77.19
501.437	86.19
501.654	81.19
501.871	82.19
502.088	87.19
502.305	92.19
502.522	88.19
502.739	87.19
502.956	87.19
503.172	72.19
503.389	83.19
503.606	75.19
503.823	80.19
504.04	69.19
504.256	72.19
504.473	69.19
504.69	78.19
504.907	74.19
505.123	78.19
505.34	77.19
505.557	93.19
505.773	89.19
505.99	78.19
506.207	74.19
506.423	82.19
506.64	85.19
506.856	75.19
507.073	94.19
507.289	77.19
507.506	68.19
507.722	85.19
507.939	62.19
508.155	92.19
508.372	85.19
508.588	66.19
508.805	83.19
509.021	86.19
509.238	77.19
509.454	72.19
509.67	72.19
509.887	92.19
510.103	87.19
510.319	82.19
510.536	86.19
510.752	74.19
510.968	75.19
511.184	79.19
511.401	78.19
511.617	91.19
511.833	83.19
512.049	86.19
512.265	64.19
512.481	77.19
512.698	81.19
512.914	85.19
513.13	74.19
513.346	80.19
513.562	91.19
513.778	85.19
513.994	97.19
514.21	81.19
514.426	85.19
514.642	69.19
514.858	83.19
515.074	93.19
515.29	87.19
515.506	91.19
515.721	88.19
515.937	78.19
516.153	84.19
516.369	63.19
516.585	90.19
516.801	75.19
517.016	92.19
517.232	77.19
517.448	87.19
517.664	90.19
517.879	86.19
518.095	84.19
518.311	62.19
518.527	78.19
518.742	87.19
518.958	88.19
519.173	74.19
519.389	84.19
519.605	75.19
519.82	73.19
520.036	78.19
520.251	86.19
520.467	85.19
520.682	85.19
520.898	92.19
521.113	76.19
521.329	79.19
521.544	87.19
521.76	100.19
521.975	88.19
522.19	90.19
522.406	80.19
522.621	82.19
522.836	87.19
523.052	80.19
523.267	90.19
523.482	67.19
523.698	68.19
523.913	87.19
524.128	79.19
524.343	86.19
524.559	83.19
524.774	64.19
524.989	83.19
525.204	85.19
525.419	56.19
525.634	78.19
525.849	95.19
526.064	82.19
526.28	96.19
526.495	91.19
526.71	78.19
526.925	74.19
527.14	73.19
527.355	70.19
527.57	80.19
527.785	91.19
527.999	59.19
528.214	92.19
528.429	89.19
528.644	68.19
528.859	82.19
529.074	84.19
529.289	76.19
529.503	74.19
529.718	81.19
529.933	85.19
530.148	92.19
530.363	92.19
530.577	96.19
530.792	89.19
531.007	96.19
531.221	82.19
531.436	89.19
531.651	86.19
531.865	92.19
532.08	96.19
532.295	95.19
532.509	81.19
532.724	86.19
532.938	78.19
533.153	81.19
533.367	78.19
533.582	88.19
533.796	86.19
534.011	73.19
534.225	92.19
534.44	80.19
534.654	92.19
534.868	90.19
535.083	80.19
535.297	71.19
535.511	78.19
535.726	84.19
535.94	95.19
536.154	97.19
536.369	81.19
536.583	82.19
536.797	98.19
537.011	66.19
537.225	85.19
537.44	82.19
537.654	80.19
537.868	81.19
538.082	82.19
538.296	91.19
538.51	106.19
538.724	69.19
538.938	80.19
539.153	81.19
539.367	78.19
539.581	80.19
539.795	85.19
540.009	96.19
540.222	84.19
540.436	80.19
540.65	95.19
540.864	79.19
541.078	80.19
541.292	83.19
541.506	78.19
541.72	85.19
541.934	81.19
542.147	80.19
542.361	80.19
542.575	77.19
542.789	92.19
543.002	95.19
543.216	84.19
543.43	87.19
543.644	87.19
543.857	82.19
544.071	83.19
544.285	81.19
544.498	84.19
544.712	94.19
544.925	94.19
545.139	75.19
545.352	74.19
545.566	82.19
545.779	86.19
545.993	87.19
546.206	76.19
546.42	85.19
546.633	91.19
546.847	87.19
547.06	81.19
547.274	89.19
547.487	82.19
547.7	73.19
547.914	86.19
548.127	84.19
548.34	66.19
548.554	80.19
548.767	76.19
548.98	85.19
549.193	71.19
549.407	77.19
549.62	69.19
549.833	80.19
550.046	87.19
550.259	83.19
550.473	72.19
550.686	77.19
550.899	82.19
551.112	83.19
551.325	76.19
551.538	83.19
551.751	80.19
551.964	80.19
552.177	76.19
552.39	77.19
552.603	83.19
552.816	90.19
553.029	67.19
553.242	77.19
553.455	86.19
553.667	85.19
553.88	74.19
554.093	86.19
554.306	79.19
554.519	90.19
554.732	91.19
554.944	82.19
555.157	94.19
555.37	87.19
555.583	73.19
555.795	90.19
556.008	80.19
556.221	91.19
556.433	92.19
556.646	66.19
556.859	74.19
557.071	73.19
557.284	94.19
557.496	92.19
557.709	80.19
557.921	75.19
558.134	94.19
558.346	92.19
558.559	86.19
558.771	78.19
558.984	79.19
559.196	87.19
559.409	69.19
559.621	84.19
559.833	90.19
560.046	88.19
560.258	92.19
560.47	73.19
560.683	80.19
560.895	82.19
561.107	74.19
561.32	90.19
561.532	95.19
561.744	88.19
561.956	91.19
562.168	80.19
562.381	89.19
562.593	79.19
562.805	81.19
563.017	85.19
563.229	80.19
563.441	83.19
563.653	87.19
563.865	95.19
564.077	87.19
564.289	61.19
564.501	84.19
564.713	79.19
564.925	83.19
565.137	72.19
565.349	84.19
565.561	78.19
565.773	88.19
565.985	84.19
566.197	82.19
566.408	68.19
566.62	85.19
566.832	92.19
567.044	99.19
567.255	87.19
567.467	96.19
567.679	76.19
567.891	90.19
568.102	80.19
568.314	79.19
568.526	80.19
568.737	84.19
568.949	74.19
569.161	89.19
569.372	91.19
569.584	90.19
569.795	94.19
570.007	106.19
570.218	86.19
570.43	85.19
570.641	92.19
570.853	87.19
571.064	89.19
571.276	94.19
571.487	85.19
571.698	96.19
571.91	73.19
572.121	87.19
572.333	80.19
572.544	78.19
572.755	82.19
572.966	84.19
573.178	68.19
573.389	83.19
573.6	69.19
573.811	81.19
574.023	90.19
574.234	79.19
574.445	92.19
574.656	94.19
574.867	99.19
575.078	90.19
575.289	87.19
575.501	84.19
575.712	80.19
575.923	68.19
576.134	76.19
576.345	83.19
576.556	98.19
576.767	102.19
576.978	92.19
577.188	95.19
577.399	80.19
577.61	106.19
577.821	80.19
578.032	66.19
578.243	67.19
578.454	90.19
578.665	90.19
578.875	86.19
579.086	87.19
579.297	83.19
579.508	71.19
579.718	84.19
579.929	86.19
580.14	85.19
580.35	79.19
580.561	78.19
580.772	84.19
580.982	84.19
581.193	71.19
581.403	82.19
581.614	73.19
581.825	85.19
582.035	85.19
582.246	80.19
582.456	86.19
582.667	92.19
582.877	93.19
583.087	82.19
583.298	80.19
583.508	92.19
583.719	86.19
583.929	84.19
584.139	88.19
584.35	83.19
584.56	98.19
584.77	86.19
584.981	79.19
585.191	71.19
585.401	86.19
585.611	74.19
585.821	83.19
586.032	90.19
586.242	91.19
586.452	78.19
586.662	72.19
586.872	76.19
587.082	90.19
587.292	84.19
587.502	82.19
587.713	80.19
587.923	84.19
588.133	83.19
588.343	81.19
588.553	83.19
588.762	84.19
588.972	94.19
589.182	143.19
589.392	93.19
589.602	90.19
589.812	131.19
590.022	115.19
590.232	99.19
590.441	73.19
590.651	68.19
590.861	110.19
591.071	84.19
591.281	86.19
591.49	94.19
591.7	78.19
591.91	80.19
592.119	87.19
592.329	90.19
592.539	79.19
592.748	71.19
592.958	73.19
593.167	76.19
593.377	82.19
593.587	98.19
593.796	95.19
594.006	88.19
594.215	84.19
594.424	84.19
594.634	76.19
594.843	71.19
595.053	84.19
595.262	87.19
595.472	94.19
595.681	79.19
595.89	101.19
596.1	90.19
596.309	93.19
596.518	91.19
596.727	75.19
596.937	57.19
597.146	76.19
597.355	81.19
597.564	97.19
597.774	87.19
597.983	72.19
598.192	78.19
598.401	83.19
598.61	78.19
598.819	85.19
599.028	90.19
599.237	79.19
599.446	78.19
599.655	97.19
599.864	86.19
600.073	84.19
600.282	93.19
600.491	102.19
600.7	85.19
600.909	95.19
601.118	96.19
601.327	95.19
601.536	87.19
601.745	75.19
601.953	81.19
602.162	96.19
602.371	76.19
602.58	87.19
602.789	83.19
602.997	84.19
603.206	75.19
603.415	91.19
603.623	95.19
603.832	95.19
604.041	85.19
604.249	78.19
604.458	76.19
604.666	82.19
604.875	91.19
605.084	80.19
605.292	86.19
605.501	72.19
605.709	75.19
605.918	88.19
606.126	84.19
606.334	88.19
606.543	88.19
606.751	91.19
606.96	74.19
607.168	78.19
607.376	87.19
607.585	78.19
607.793	75.19
608.001	90.19
608.21	80.19
608.418	83.19
608.626	85.19
608.834	82.19
609.043	74.19
609.251	91.19
609.459	73.19
609.667	86.19
609.875	94.19
610.083	86.19
610.291	74.19
610.499	80.19
610.707	95.19
610.916	73.19
611.124	84.19
611.332	82.19
611.54	72.19
611.748	70.19
611.955	78.19
612.163	81.19
612.371	87.19
612.579	76.19
612.787	82.19
612.995	84.19
613.203	68.19
613.411	94.19
613.618	67.19
613.826	77.19
614.034	82.19
614.242	55.19
614.449	78.19
614.657	78.19
614.865	88.19
615.072	91.19
615.28	93.19
615.488	83.19
615.695	82.19
615.903	75.19
616.111	76.19
616.318	75.19
616.526	80.19
616.733	64.19
616.941	85.19
617.148	82.19
617.356	96.19
617.563	86.19
617.771	82.19
617.978	77.19
618.185	84.19
618.393	87.19
618.6	93.19
618.807	86.19
619.015	85.19
619.222	79.19
619.429	100.19
619.637	92.19
619.844	99.19
620.051	82.19
620.258	92.19
620.466	76.19
620.673	83.19
620.88	82.19
621.087	83.19
621.294	90.19
621.501	89.19
621.708	59.19
621.915	90.19
622.122	86.19
622.329	88.19
622.536	86.19
622.743	102.19
622.95	78.19
623.157	64.19
623.364	86.19
623.571	70.19
623.778	92.19
623.985	77.19
624.192	77.19
624.399	88.19
624.606	92.19
624.812	91.19
625.019	93.19
625.226	93.19
625.433	65.19
625.639	74.19
625.846	70.19
626.053	79.19
626.259	86.19
626.466	87.19
626.673	85.19
626.879	72.19
627.086	95.19
627.293	92.19
627.499	66.19
627.706	86.19
627.912	76.19
628.119	73.19
628.325	75.19
628.532	98.19
628.738	83.19
628.945	78.19
629.151	66.19
629.357	70.19
629.564	83.19
629.77	86.19
629.976	70.19
630.183	83.19
630.389	72.19
630.595	70.19
630.802	76.19
631.008	78.19
631.214	97.19
631.42	81.19
631.627	95.19
631.833	86.19
632.039	77.19
632.245	90.19
632.451	94.19
632.657	77.19
632.863	81.19
633.069	66.19
633.275	77.19
633.481	94.19
633.688	66.19
633.893	76.19
634.099	71.19
634.305	66.19
634.511	78.19
634.717	75.19
634.923	92.19
635.129	77.19
635.335	78.19
635.541	71.19
635.747	89.19
635.952	80.19
636.158	79.19
636.364	92.19
636.57	75.19
636.775	73.19
636.981	73.19
637.187	77.19
637.392	85.19
637.598	83.19
637.804	66.19
638.009	90.19
638.215	76.19
638.421	84.19
638.626	80.19
638.832	64.19
639.037	69.19
639.243	84.19
639.448	86.19
639.654	93.19
639.859	80.19
640.065	70.19
640.27	88.19
640.475	75.19
640.681	69.19
640.886	86.19
641.091	78.19
641.297	76.19
641.502	80.19
641.707	87.19
641.913	84.19
642.118	90.19
642.323	76.19
642.528	83.19
642.733	88.19
642.939	91.19
643.144	79.19
643.349	81.19
643.554	82.19
643.759	95.19
643.964	81.19
644.169	87.19
644.374	99.19
644.579	80.19
644.784	72.19
644.989	90.19
645.194	80.19
645.399	92.19
645.604	89.19
645.809	78.19
646.014	78.19
646.219	79.19
646.423	87.19
646.628	75.19
646.833	72.19
647.038	96.19
647.243	71.19
647.447	75.19
647.652	88.19
647.857	78.19
648.062	74.19
648.266	84.19
648.471	74.19
648.676	91.19
648.88	70.19
649.085	79.19
649.289	73.19
649.494	82.19
649.698	79.19
649.903	78.19
650.107	91.19
650.312	81.19
650.516	72.19
650.721	88.19
650.925	77.19
651.13	82.19
651.334	70.19
651.539	96.19
651.743	81.19
651.947	94.19
652.152	95.19
652.356	83.19
652.56	79.19
652.764	78.19
652.969	82.19
653.173	77.19
653.377	96.19
653.581	54.19
653.785	85.19
653.99	89.19
654.194	71.19
654.398	90.19
654.602	82.19
654.806	82.19
655.01	68.19
655.214	76.19
655.418	82.19
655.622	84.19
655.826	79.19
656.03	72.19
656.234	76.19
656.438	56.19
656.642	79.19
656.846	84.19
657.049	86.19
657.253	60.19
657.457	80.19
657.661	98.19
657.865	76.19
658.068	85.19
658.272	84.19
658.476	83.19
658.68	78.19
658.883	84.19
659.087	91.19
659.291	73.19
659.494	97.19
659.698	85.19
659.901	84.19
660.105	82.19
660.309	78.19
660.512	79.19
660.716	75.19
660.919	91.19
661.123	84.19
661.326	71.19
661.53	77.19
661.733	79.19
661.936	74.19
662.14	71.19
662.343	86.19
662.546	92.19
662.75	94.19
662.953	89.19
663.156	81.19
663.36	76.19
663.563	81.19
663.766	78.19
663.969	78.19
664.173	83.19
664.376	69.19
664.579	66.19
664.782	74.19
664.985	84.19
665.188	82.19
665.391	73.19
665.594	72.19
665.797	77.19
666	90.19
666.203	71.19
666.406	94.19
666.609	89.19
666.812	64.19
667.015	77.19
667.218	66.19
667.421	86.19
667.624	86.19
667.827	79.19
668.03	68.19
668.232	70.19
668.435	73.19
668.638	83.19
668.841	71.19
669.043	76.19
669.246	77.19
669.449	70.19
669.651	70.19
669.854	67.19
670.057	68.19
670.259	75.19
670.462	79.19
670.665	72.19
670.867	76.19
671.07	75.19
671.272	75.19
671.475	85.19
671.677	72.19
671.88	76.19
672.082	71.19
672.284	87.19
672.487	81.19
672.689	85.19
672.892	75.19
