Data from Lead_25_2_HRD10591_00018.txt Node
Date: Fri Feb 20 11:02:02 EST 2026
User: Yrep
Spectrometer: HR+D1059
Trigger mode: 1
Integration Time (sec): 1.000000E-1
Scans to average: 1
Electric dark correction enabled: true
Nonlinearity correction enabled: false
Boxcar width: 0
XAxis mode: Wavelengths
Number of Pixels in Spectrum: 2048
>>>>>Begin Spectral Data<<<<<
223.165	-15.75
223.4	-15.75
223.635	-15.75
223.869	-21.75
224.104	-19.75
224.338	-30.75
224.573	-8.75
224.808	-13.75
225.042	-15.75
225.277	-3.75
225.511	-4.75
225.746	11.25
225.98	26.25
226.215	12.25
226.449	9.25
226.683	28.25
226.918	23.25
227.152	24.25
227.387	26.25
227.621	56.25
227.856	54.25
228.09	58.25
228.324	55.25
228.559	64.25
228.793	57.25
229.027	59.25
229.262	76.25
229.496	72.25
229.73	58.25
229.964	77.25
230.199	72.25
230.433	66.25
230.667	79.25
230.901	75.25
231.136	65.25
231.37	83.25
231.604	81.25
231.838	89.25
232.072	86.25
232.306	84.25
232.541	93.25
232.775	83.25
233.009	90.25
233.243	74.25
233.477	79.25
233.711	74.25
233.945	82.25
234.179	95.25
234.413	93.25
234.647	83.25
234.881	75.25
235.115	59.25
235.349	83.25
235.583	69.25
235.817	80.25
236.051	82.25
236.285	74.25
236.519	73.25
236.753	79.25
236.987	95.25
237.221	82.25
237.455	69.25
237.689	82.25
237.922	66.25
238.156	74.25
238.39	73.25
238.624	67.25
238.858	84.25
239.091	74.25
239.325	66.25
239.559	71.25
239.793	80.25
240.027	90.25
240.26	66.25
240.494	74.25
240.728	72.25
240.961	76.25
241.195	83.25
241.429	68.25
241.662	65.25
241.896	82.25
242.13	79.25
242.363	70.25
242.597	81.25
242.83	73.25
243.064	83.25
243.298	73.25
243.531	74.25
243.765	83.25
243.998	81.25
244.232	69.25
244.465	72.25
244.699	99.25
244.932	90.25
245.166	73.25
245.399	77.25
245.633	72.25
245.866	84.25
246.099	79.25
246.333	92.25
246.566	76.25
246.8	97.25
247.033	78.25
247.266	78.25
247.5	82.25
247.733	61.25
247.966	70.25
248.2	81.25
248.433	85.25
248.666	68.25
248.899	87.25
249.133	83.25
249.366	89.25
249.599	90.25
249.832	69.25
250.066	91.25
250.299	68.25
250.532	65.25
250.765	81.25
250.998	75.25
251.231	81.25
251.465	87.25
251.698	84.25
251.931	87.25
252.164	65.25
252.397	78.25
252.63	79.25
252.863	92.25
253.096	92.25
253.329	74.25
253.562	72.25
253.795	83.25
254.028	85.25
254.261	75.25
254.494	75.25
254.727	78.25
254.96	83.25
255.193	82.25
255.426	85.25
255.659	95.25
255.892	90.25
256.124	69.25
256.357	90.25
256.59	98.25
256.823	81.25
257.056	79.25
257.289	79.25
257.521	72.25
257.754	83.25
257.987	80.25
258.22	87.25
258.452	86.25
258.685	85.25
258.918	95.25
259.151	77.25
259.383	79.25
259.616	86.25
259.849	81.25
260.081	71.25
260.314	72.25
260.547	80.25
260.779	92.25
261.012	84.25
261.244	90.25
261.477	97.25
261.71	86.25
261.942	95.25
262.175	77.25
262.407	75.25
262.64	69.25
262.872	71.25
263.105	81.25
263.337	96.25
263.57	86.25
263.802	90.25
264.035	86.25
264.267	88.25
264.499	68.25
264.732	90.25
264.964	71.25
265.197	86.25
265.429	78.25
265.661	82.25
265.894	84.25
266.126	76.25
266.358	76.25
266.591	100.25
266.823	85.25
267.055	71.25
267.287	80.25
267.52	76.25
267.752	94.25
267.984	77.25
268.216	85.25
268.448	86.25
268.681	81.25
268.913	61.25
269.145	88.25
269.377	98.25
269.609	94.25
269.841	87.25
270.073	67.25
270.306	82.25
270.538	64.25
270.77	90.25
271.002	81.25
271.234	93.25
271.466	97.25
271.698	81.25
271.93	89.25
272.162	92.25
272.394	80.25
272.626	89.25
272.858	89.25
273.09	80.25
273.322	66.25
273.553	82.25
273.785	95.25
274.017	89.25
274.249	89.25
274.481	85.25
274.713	88.25
274.945	88.25
275.176	85.25
275.408	75.25
275.64	76.25
275.872	70.25
276.104	86.25
276.335	78.25
276.567	65.25
276.799	96.25
277.031	80.25
277.262	83.25
277.494	87.25
277.726	94.25
277.957	100.25
278.189	81.25
278.421	77.25
278.652	91.25
278.884	77.25
279.115	90.25
279.347	80.25
279.579	81.25
279.81	80.25
280.042	85.25
280.273	84.25
280.505	91.25
280.736	76.25
280.968	80.25
281.199	82.25
281.431	80.25
281.662	80.25
281.894	91.25
282.125	94.25
282.356	85.25
282.588	81.25
282.819	66.25
283.051	94.25
283.282	88.25
283.513	91.25
283.745	77.25
283.976	94.25
284.207	92.25
284.439	88.25
284.67	90.25
284.901	89.25
285.132	86.25
285.364	95.25
285.595	92.25
285.826	80.25
286.057	81.25
286.288	73.25
286.52	86.25
286.751	83.25
286.982	83.25
287.213	91.25
287.444	79.25
287.675	84.25
287.906	92.25
288.138	90.25
288.369	85.25
288.6	86.25
288.831	80.25
289.062	81.25
289.293	98.25
289.524	91.25
289.755	90.25
289.986	70.25
290.217	81.25
290.448	86.25
290.679	76.25
290.91	90.25
291.141	86.25
291.371	83.25
291.602	89.25
291.833	76.25
292.064	79.25
292.295	84.25
292.526	89.25
292.757	88.25
292.987	84.25
293.218	95.25
293.449	85.25
293.68	86.25
293.91	83.25
294.141	82.25
294.372	84.25
294.603	85.25
294.833	69.25
295.064	81.25
295.295	76.25
295.525	78.25
295.756	95.25
295.987	74.25
296.217	74.25
296.448	92.25
296.679	78.25
296.909	75.25
297.14	91.25
297.37	87.25
297.601	91.25
297.831	99.25
298.062	95.25
298.292	91.25
298.523	84.25
298.753	64.25
298.984	100.25
299.214	83.25
299.445	101.25
299.675	94.25
299.905	91.25
300.136	83.25
300.366	89.25
300.597	90.25
300.827	80.25
301.057	86.25
301.288	86.25
301.518	83.25
301.748	85.25
301.979	111.25
302.209	82.25
302.439	94.25
302.669	78.25
302.9	74.25
303.13	87.25
303.36	82.25
303.59	97.25
303.82	89.25
304.051	94.25
304.281	78.25
304.511	98.25
304.741	68.25
304.971	70.25
305.201	88.25
305.431	92.25
305.661	75.25
305.891	88.25
306.121	87.25
306.352	87.25
306.582	95.25
306.812	93.25
307.042	79.25
307.272	86.25
307.502	88.25
307.731	67.25
307.961	76.25
308.191	87.25
308.421	91.25
308.651	76.25
308.881	98.25
309.111	84.25
309.341	96.25
309.571	100.25
309.8	73.25
310.03	105.25
310.26	82.25
310.49	79.25
310.72	80.25
310.949	76.25
311.179	91.25
311.409	89.25
311.639	79.25
311.868	90.25
312.098	80.25
312.328	93.25
312.557	86.25
312.787	86.25
313.017	92.25
313.246	86.25
313.476	86.25
313.706	100.25
313.935	77.25
314.165	80.25
314.394	84.25
314.624	82.25
314.853	95.25
315.083	79.25
315.312	80.25
315.542	83.25
315.771	74.25
316.001	73.25
316.23	92.25
316.46	73.25
316.689	86.25
316.919	84.25
317.148	82.25
317.377	81.25
317.607	100.25
317.836	85.25
318.065	74.25
318.295	85.25
318.524	78.25
318.753	99.25
318.983	72.25
319.212	87.25
319.441	89.25
319.67	91.25
319.9	82.25
320.129	80.25
320.358	88.25
320.587	90.25
320.816	80.25
321.046	80.25
321.275	86.25
321.504	87.25
321.733	78.25
321.962	88.25
322.191	85.25
322.42	89.25
322.649	103.25
322.878	93.25
323.108	101.25
323.337	92.25
323.566	80.25
323.795	98.25
324.024	98.25
324.253	87.25
324.482	82.25
324.71	84.25
324.939	79.25
325.168	95.25
325.397	86.25
325.626	90.25
325.855	81.25
326.084	83.25
326.313	80.25
326.542	92.25
326.77	74.25
326.999	91.25
327.228	76.25
327.457	84.25
327.686	90.25
327.914	96.25
328.143	88.25
328.372	81.25
328.6	92.25
328.829	83.25
329.058	90.25
329.287	84.25
329.515	96.25
329.744	88.25
329.972	98.25
330.201	88.25
330.43	84.25
330.658	89.25
330.887	80.25
331.115	86.25
331.344	93.25
331.572	102.25
331.801	86.25
332.03	94.25
332.258	76.25
332.486	78.25
332.715	94.25
332.943	86.25
333.172	87.25
333.4	102.25
333.629	94.25
333.857	97.25
334.085	96.25
334.314	71.25
334.542	86.25
334.771	76.25
334.999	88.25
335.227	97.25
335.455	96.25
335.684	98.25
335.912	91.25
336.14	102.25
336.369	87.25
336.597	96.25
336.825	84.25
337.053	76.25
337.281	78.25
337.51	82.25
337.738	111.25
337.966	99.25
338.194	76.25
338.422	64.25
338.65	76.25
338.878	88.25
339.106	86.25
339.334	82.25
339.562	80.25
339.79	80.25
340.018	94.25
340.246	86.25
340.474	87.25
340.702	76.25
340.93	91.25
341.158	83.25
341.386	89.25
341.614	80.25
341.842	79.25
342.07	86.25
342.298	88.25
342.526	73.25
342.754	70.25
342.981	86.25
343.209	79.25
343.437	112.25
343.665	88.25
343.893	70.25
344.12	94.25
344.348	87.25
344.576	80.25
344.804	81.25
345.031	83.25
345.259	83.25
345.487	88.25
345.714	71.25
345.942	75.25
346.17	96.25
346.397	75.25
346.625	88.25
346.853	90.25
347.08	86.25
347.308	96.25
347.535	80.25
347.763	76.25
347.99	91.25
348.218	87.25
348.445	88.25
348.673	94.25
348.9	74.25
349.128	94.25
349.355	97.25
349.583	86.25
349.81	75.25
350.037	89.25
350.265	74.25
350.492	76.25
350.72	70.25
350.947	80.25
351.174	87.25
351.402	75.25
351.629	91.25
351.856	88.25
352.083	86.25
352.311	75.25
352.538	94.25
352.765	88.25
352.992	82.25
353.22	83.25
353.447	89.25
353.674	100.25
353.901	80.25
354.128	85.25
354.355	88.25
354.583	88.25
354.81	79.25
355.037	82.25
355.264	89.25
355.491	96.25
355.718	94.25
355.945	90.25
356.172	86.25
356.399	88.25
356.626	88.25
356.853	98.25
357.08	88.25
357.307	79.25
357.534	92.25
357.761	84.25
357.988	82.25
358.215	75.25
358.441	74.25
358.668	90.25
358.895	75.25
359.122	72.25
359.349	72.25
359.576	89.25
359.802	66.25
360.029	84.25
360.256	70.25
360.483	93.25
360.709	80.25
360.936	89.25
361.163	82.25
361.39	85.25
361.616	82.25
361.843	86.25
362.07	81.25
362.296	77.25
362.523	85.25
362.749	73.25
362.976	90.25
363.203	90.25
363.429	79.25
363.656	95.25
363.882	96.25
364.109	98.25
364.335	91.25
364.562	91.25
364.788	88.25
365.015	81.25
365.241	80.25
365.468	84.25
365.694	94.25
365.92	86.25
366.147	90.25
366.373	86.25
366.599	82.25
366.826	82.25
367.052	87.25
367.278	88.25
367.505	77.25
367.731	103.25
367.957	102.25
368.184	102.25
368.41	114.25
368.636	102.25
368.862	102.25
369.089	94.25
369.315	86.25
369.541	84.25
369.767	82.25
369.993	77.25
370.219	70.25
370.445	76.25
370.672	88.25
370.898	90.25
371.124	94.25
371.35	77.25
371.576	91.25
371.802	91.25
372.028	87.25
372.254	86.25
372.48	73.25
372.706	81.25
372.932	78.25
373.158	85.25
373.384	100.25
373.61	92.25
373.835	94.25
374.061	86.25
374.287	76.25
374.513	65.25
374.739	84.25
374.965	80.25
375.191	73.25
375.416	80.25
375.642	94.25
375.868	82.25
376.094	76.25
376.319	82.25
376.545	76.25
376.771	95.25
376.997	98.25
377.222	91.25
377.448	89.25
377.674	86.25
377.899	87.25
378.125	80.25
378.35	86.25
378.576	94.25
378.802	86.25
379.027	80.25
379.253	78.25
379.478	74.25
379.704	80.25
379.929	73.25
380.155	85.25
380.38	89.25
380.606	86.25
380.831	81.25
381.057	92.25
381.282	96.25
381.507	83.25
381.733	80.25
381.958	91.25
382.184	84.25
382.409	82.25
382.634	88.25
382.86	99.25
383.085	91.25
383.31	85.25
383.535	82.25
383.761	90.25
383.986	76.25
384.211	90.25
384.436	77.25
384.662	87.25
384.887	88.25
385.112	85.25
385.337	88.25
385.562	79.25
385.787	91.25
386.013	91.25
386.238	68.25
386.463	87.25
386.688	104.25
386.913	94.25
387.138	91.25
387.363	98.25
387.588	91.25
387.813	85.25
388.038	85.25
388.263	95.25
388.488	87.25
388.713	88.25
388.938	74.25
389.163	76.25
389.387	78.25
389.612	82.25
389.837	85.25
390.062	90.25
390.287	80.25
390.512	81.25
390.736	70.25
390.961	70.25
391.186	72.25
391.411	81.25
391.636	76.25
391.86	76.25
392.085	88.25
392.31	72.25
392.534	87.25
392.759	85.25
392.984	92.25
393.208	90.25
393.433	92.25
393.658	76.25
393.882	78.25
394.107	75.25
394.331	78.25
394.556	88.25
394.78	99.25
395.005	72.25
395.229	80.25
395.454	87.25
395.678	78.25
395.903	88.25
396.127	92.25
396.352	90.25
396.576	79.25
396.801	89.25
397.025	89.25
397.249	96.25
397.474	89.25
397.698	76.25
397.922	77.25
398.147	75.25
398.371	96.25
398.595	79.25
398.82	96.25
399.044	82.25
399.268	78.25
399.492	80.25
399.717	83.25
399.941	63.25
400.165	83.25
400.389	69.25
400.613	76.25
400.837	85.25
401.062	64.25
401.286	92.25
401.51	78.25
401.734	78.25
401.958	106.25
402.182	88.25
402.406	76.25
402.63	80.25
402.854	70.25
403.078	80.25
403.302	78.25
403.526	93.25
403.75	95.25
403.974	66.25
404.198	82.25
404.422	80.25
404.645	83.25
404.869	88.25
405.093	84.25
405.317	74.25
405.541	102.25
405.765	128.25
405.988	124.25
406.212	88.25
406.436	95.25
406.66	100.25
406.883	77.25
407.107	86.25
407.331	92.25
407.555	71.25
407.778	82.25
408.002	92.25
408.226	81.25
408.449	72.25
408.673	68.25
408.896	86.25
409.12	72.25
409.344	76.25
409.567	84.25
409.791	83.25
410.014	75.25
410.238	83.25
410.461	75.25
410.685	92.25
410.908	89.25
411.132	85.25
411.355	75.25
411.578	88.25
411.802	77.25
412.025	84.25
412.249	70.25
412.472	59.25
412.695	60.25
412.919	89.25
413.142	89.25
413.365	80.25
413.589	73.25
413.812	67.25
414.035	94.25
414.258	85.25
414.482	75.25
414.705	76.25
414.928	83.25
415.151	66.25
415.374	89.25
415.597	76.25
415.821	93.25
416.044	87.25
416.267	79.25
416.49	75.25
416.713	94.25
416.936	86.25
417.159	73.25
417.382	70.25
417.605	70.25
417.828	85.25
418.051	86.25
418.274	75.25
418.497	81.25
418.72	87.25
418.943	89.25
419.166	82.25
419.389	88.25
419.611	73.25
419.834	76.25
420.057	94.25
420.28	75.25
420.503	86.25
420.726	82.25
420.948	73.25
421.171	76.25
421.394	98.25
421.617	88.25
421.839	92.25
422.062	85.25
422.285	82.25
422.507	89.25
422.73	77.25
422.953	77.25
423.175	81.25
423.398	81.25
423.621	94.25
423.843	81.25
424.066	75.25
424.288	62.25
424.511	81.25
424.733	88.25
424.956	79.25
425.178	74.25
425.401	88.25
425.623	84.25
425.846	82.25
426.068	79.25
426.291	89.25
426.513	81.25
426.735	76.25
426.958	82.25
427.18	78.25
427.402	87.25
427.625	94.25
427.847	85.25
428.069	84.25
428.292	91.25
428.514	100.25
428.736	82.25
428.958	83.25
429.181	94.25
429.403	88.25
429.625	86.25
429.847	76.25
430.069	83.25
430.292	84.25
430.514	91.25
430.736	72.25
430.958	83.25
431.18	66.25
431.402	74.25
431.624	83.25
431.846	82.25
432.068	88.25
432.29	86.25
432.512	74.25
432.734	93.25
432.956	68.25
433.178	86.25
433.4	74.25
433.622	79.25
433.844	85.25
434.066	83.25
434.287	82.25
434.509	76.25
434.731	76.25
434.953	86.25
435.175	68.25
435.397	91.25
435.618	70.25
435.84	84.25
436.062	76.25
436.284	70.25
436.505	82.25
436.727	90.25
436.949	74.25
437.17	74.25
437.392	84.25
437.614	85.25
437.835	92.25
438.057	84.25
438.278	90.25
438.5	72.25
438.721	81.25
438.943	80.25
439.165	84.25
439.386	91.25
439.608	91.25
439.829	68.25
440.05	78.25
440.272	93.25
440.493	84.25
440.715	80.25
440.936	73.25
441.158	82.25
441.379	70.25
441.6	78.25
441.822	76.25
442.043	77.25
442.264	88.25
442.486	79.25
442.707	72.25
442.928	88.25
443.149	86.25
443.371	79.25
443.592	83.25
443.813	79.25
444.034	86.25
444.255	87.25
444.476	77.25
444.698	83.25
444.919	87.25
445.14	161.25
445.361	95.25
445.582	76.25
445.803	75.25
446.024	85.25
446.245	76.25
446.466	74.25
446.687	80.25
446.908	72.25
447.129	88.25
447.35	79.25
447.571	77.25
447.792	104.25
448.013	81.25
448.234	76.25
448.455	74.25
448.675	75.25
448.896	84.25
449.117	84.25
449.338	75.25
449.559	81.25
449.779	82.25
450	71.25
450.221	78.25
450.442	66.25
450.662	82.25
450.883	82.25
451.104	98.25
451.324	78.25
451.545	75.25
451.766	73.25
451.986	76.25
452.207	78.25
452.428	76.25
452.648	82.25
452.869	81.25
453.089	100.25
453.31	73.25
453.53	80.25
453.751	90.25
453.971	89.25
454.192	88.25
454.412	84.25
454.633	82.25
454.853	69.25
455.073	76.25
455.294	72.25
455.514	95.25
455.734	80.25
455.955	73.25
456.175	81.25
456.395	90.25
456.616	75.25
456.836	76.25
457.056	81.25
457.276	96.25
457.497	89.25
457.717	86.25
457.937	94.25
458.157	80.25
458.377	91.25
458.598	77.25
458.818	77.25
459.038	83.25
459.258	70.25
459.478	90.25
459.698	75.25
459.918	81.25
460.138	72.25
460.358	86.25
460.578	83.25
460.798	73.25
461.018	75.25
461.238	88.25
461.458	85.25
461.678	74.25
461.898	77.25
462.118	64.25
462.338	84.25
462.558	87.25
462.777	87.25
462.997	87.25
463.217	81.25
463.437	78.25
463.657	84.25
463.876	92.25
464.096	82.25
464.316	70.25
464.536	88.25
464.755	71.25
464.975	79.25
465.195	78.25
465.414	95.25
465.634	79.25
465.854	83.25
466.073	94.25
466.293	83.25
466.512	86.25
466.732	75.25
466.951	77.25
467.171	73.25
467.391	64.25
467.61	86.25
467.829	83.25
468.049	82.25
468.268	91.25
468.488	74.25
468.707	107.25
468.927	85.25
469.146	88.25
469.365	86.25
469.585	87.25
469.804	94.25
470.023	82.25
470.243	81.25
470.462	74.25
470.681	72.25
470.901	80.25
471.12	77.25
471.339	84.25
471.558	80.25
471.777	77.25
471.997	81.25
472.216	72.25
472.435	82.25
472.654	65.25
472.873	86.25
473.092	64.25
473.311	76.25
473.53	66.25
473.749	81.25
473.968	91.25
474.187	89.25
474.406	81.25
474.625	80.25
474.844	87.25
475.063	88.25
475.282	86.25
475.501	76.25
475.72	79.25
475.939	98.25
476.158	92.25
476.377	79.25
476.596	77.25
476.814	79.25
477.033	77.25
477.252	81.25
477.471	83.25
477.69	79.25
477.908	91.25
478.127	84.25
478.346	74.25
478.564	87.25
478.783	88.25
479.002	91.25
479.22	83.25
479.439	81.25
479.658	74.25
479.876	82.25
480.095	93.25
480.313	94.25
480.532	73.25
480.751	90.25
480.969	72.25
481.188	86.25
481.406	83.25
481.624	80.25
481.843	85.25
482.061	80.25
482.28	94.25
482.498	83.25
482.717	86.25
482.935	73.25
483.153	72.25
483.372	81.25
483.59	83.25
483.808	91.25
484.027	98.25
484.245	92.25
484.463	80.25
484.681	71.25
484.9	74.25
485.118	95.25
485.336	81.25
485.554	72.25
485.772	66.25
485.99	68.25
486.209	83.25
486.427	85.25
486.645	89.25
486.863	83.25
487.081	77.25
487.299	89.25
487.517	89.25
487.735	90.25
487.953	83.25
488.171	83.25
488.389	89.25
488.607	71.25
488.825	87.25
489.043	77.25
489.261	81.25
489.479	81.25
489.696	76.25
489.914	83.25
490.132	82.25
490.35	74.25
490.568	80.25
490.786	82.25
491.003	89.25
491.221	88.25
491.439	83.25
491.657	86.25
491.874	89.25
492.092	80.25
492.31	82.25
492.527	73.25
492.745	84.25
492.963	74.25
493.18	80.25
493.398	73.25
493.615	79.25
493.833	93.25
494.05	87.25
494.268	73.25
494.485	85.25
494.703	79.25
494.92	83.25
495.138	70.25
495.355	92.25
495.573	84.25
495.79	81.25
496.008	90.25
496.225	86.25
496.442	84.25
496.66	85.25
496.877	83.25
497.094	89.25
497.312	88.25
497.529	92.25
497.746	84.25
497.963	69.25
498.181	87.25
498.398	80.25
498.615	98.25
498.832	91.25
499.049	88.25
499.267	73.25
499.484	77.25
499.701	97.25
499.918	86.25
500.135	79.25
500.352	72.25
500.569	90.25
500.786	87.25
501.003	84.25
501.22	78.25
501.437	81.25
501.654	96.25
501.871	86.25
502.088	83.25
502.305	77.25
502.522	94.25
502.739	94.25
502.956	89.25
503.172	87.25
503.389	74.25
503.606	90.25
503.823	88.25
504.04	94.25
504.256	87.25
504.473	85.25
504.69	82.25
504.907	86.25
505.123	72.25
505.34	82.25
505.557	82.25
505.773	76.25
505.99	70.25
506.207	111.25
506.423	76.25
506.64	76.25
506.856	76.25
507.073	82.25
507.289	87.25
507.506	80.25
507.722	81.25
507.939	88.25
508.155	88.25
508.372	91.25
508.588	94.25
508.805	74.25
509.021	84.25
509.238	99.25
509.454	95.25
509.67	92.25
509.887	86.25
510.103	84.25
510.319	78.25
510.536	84.25
510.752	72.25
510.968	92.25
511.184	87.25
511.401	83.25
511.617	96.25
511.833	95.25
512.049	76.25
512.265	78.25
512.481	88.25
512.698	95.25
512.914	87.25
513.13	93.25
513.346	79.25
513.562	81.25
513.778	94.25
513.994	78.25
514.21	83.25
514.426	91.25
514.642	78.25
514.858	82.25
515.074	83.25
515.29	85.25
515.506	90.25
515.721	85.25
515.937	95.25
516.153	80.25
516.369	86.25
516.585	78.25
516.801	86.25
517.016	89.25
517.232	80.25
517.448	89.25
517.664	83.25
517.879	73.25
518.095	61.25
518.311	79.25
518.527	84.25
518.742	81.25
518.958	70.25
519.173	97.25
519.389	86.25
519.605	95.25
519.82	82.25
520.036	71.25
520.251	82.25
520.467	79.25
520.682	99.25
520.898	89.25
521.113	79.25
521.329	96.25
521.544	77.25
521.76	96.25
521.975	89.25
522.19	88.25
522.406	94.25
522.621	89.25
522.836	74.25
523.052	90.25
523.267	82.25
523.482	82.25
523.698	87.25
523.913	83.25
524.128	94.25
524.343	77.25
524.559	90.25
524.774	84.25
524.989	95.25
525.204	76.25
525.419	96.25
525.634	81.25
525.849	85.25
526.064	79.25
526.28	82.25
526.495	80.25
526.71	66.25
526.925	92.25
527.14	90.25
527.355	83.25
527.57	66.25
527.785	82.25
527.999	86.25
528.214	90.25
528.429	87.25
528.644	71.25
528.859	93.25
529.074	78.25
529.289	91.25
529.503	87.25
529.718	100.25
529.933	92.25
530.148	80.25
530.363	84.25
530.577	93.25
530.792	90.25
531.007	66.25
531.221	82.25
531.436	90.25
531.651	83.25
531.865	104.25
532.08	81.25
532.295	94.25
532.509	67.25
532.724	82.25
532.938	76.25
533.153	91.25
533.367	68.25
533.582	87.25
533.796	76.25
534.011	96.25
534.225	83.25
534.44	67.25
534.654	85.25
534.868	73.25
535.083	80.25
535.297	86.25
535.511	85.25
535.726	87.25
535.94	95.25
536.154	86.25
536.369	79.25
536.583	84.25
536.797	94.25
537.011	87.25
537.225	92.25
537.44	87.25
537.654	81.25
537.868	78.25
538.082	71.25
538.296	90.25
538.51	97.25
538.724	87.25
538.938	91.25
539.153	85.25
539.367	90.25
539.581	77.25
539.795	96.25
540.009	102.25
540.222	90.25
540.436	91.25
540.65	82.25
540.864	82.25
541.078	96.25
541.292	84.25
541.506	79.25
541.72	100.25
541.934	90.25
542.147	88.25
542.361	76.25
542.575	80.25
542.789	85.25
543.002	72.25
543.216	82.25
543.43	90.25
543.644	86.25
543.857	77.25
544.071	90.25
544.285	86.25
544.498	86.25
544.712	92.25
544.925	96.25
545.139	71.25
545.352	80.25
545.566	87.25
545.779	90.25
545.993	96.25
546.206	83.25
546.42	84.25
546.633	88.25
546.847	91.25
547.06	94.25
547.274	82.25
547.487	86.25
547.7	88.25
547.914	89.25
548.127	88.25
548.34	86.25
548.554	81.25
548.767	90.25
548.98	71.25
549.193	82.25
549.407	77.25
549.62	74.25
549.833	75.25
550.046	95.25
550.259	88.25
550.473	95.25
550.686	91.25
550.899	95.25
551.112	82.25
551.325	95.25
551.538	83.25
551.751	75.25
551.964	84.25
552.177	86.25
552.39	94.25
552.603	88.25
552.816	99.25
553.029	91.25
553.242	84.25
553.455	90.25
553.667	86.25
553.88	86.25
554.093	90.25
554.306	83.25
554.519	89.25
554.732	81.25
554.944	94.25
555.157	89.25
555.37	83.25
555.583	81.25
555.795	77.25
556.008	80.25
556.221	83.25
556.433	85.25
556.646	80.25
556.859	82.25
557.071	90.25
557.284	111.25
557.496	82.25
557.709	103.25
557.921	84.25
558.134	81.25
558.346	82.25
558.559	93.25
558.771	83.25
558.984	89.25
559.196	86.25
559.409	83.25
559.621	94.25
559.833	77.25
560.046	81.25
560.258	96.25
560.47	80.25
560.683	90.25
560.895	94.25
561.107	85.25
561.32	82.25
561.532	83.25
561.744	81.25
561.956	88.25
562.168	90.25
562.381	88.25
562.593	87.25
562.805	100.25
563.017	86.25
563.229	74.25
563.441	85.25
563.653	84.25
563.865	74.25
564.077	91.25
564.289	96.25
564.501	78.25
564.713	86.25
564.925	87.25
565.137	93.25
565.349	82.25
565.561	85.25
565.773	92.25
565.985	90.25
566.197	94.25
566.408	100.25
566.62	94.25
566.832	87.25
567.044	77.25
567.255	97.25
567.467	77.25
567.679	72.25
567.891	82.25
568.102	88.25
568.314	82.25
568.526	89.25
568.737	76.25
568.949	81.25
569.161	89.25
569.372	88.25
569.584	102.25
569.795	94.25
570.007	84.25
570.218	62.25
570.43	88.25
570.641	73.25
570.853	82.25
571.064	75.25
571.276	83.25
571.487	85.25
571.698	91.25
571.91	82.25
572.121	82.25
572.333	70.25
572.544	79.25
572.755	74.25
572.966	72.25
573.178	83.25
573.389	88.25
573.6	87.25
573.811	85.25
574.023	82.25
574.234	77.25
574.445	88.25
574.656	82.25
574.867	82.25
575.078	83.25
575.289	95.25
575.501	88.25
575.712	81.25
575.923	72.25
576.134	88.25
576.345	82.25
576.556	81.25
576.767	98.25
576.978	80.25
577.188	75.25
577.399	73.25
577.61	87.25
577.821	71.25
578.032	81.25
578.243	88.25
578.454	91.25
578.665	74.25
578.875	96.25
579.086	74.25
579.297	80.25
579.508	104.25
579.718	75.25
579.929	82.25
580.14	88.25
580.35	87.25
580.561	94.25
580.772	99.25
580.982	77.25
581.193	72.25
581.403	84.25
581.614	84.25
581.825	90.25
582.035	90.25
582.246	83.25
582.456	76.25
582.667	80.25
582.877	83.25
583.087	96.25
583.298	76.25
583.508	91.25
583.719	102.25
583.929	94.25
584.139	86.25
584.35	89.25
584.56	75.25
584.77	78.25
584.981	86.25
585.191	75.25
585.401	86.25
585.611	88.25
585.821	81.25
586.032	68.25
586.242	77.25
586.452	78.25
586.662	83.25
586.872	91.25
587.082	79.25
587.292	88.25
587.502	80.25
587.713	101.25
587.923	87.25
588.133	88.25
588.343	79.25
588.553	96.25
588.762	94.25
588.972	111.25
589.182	187.25
589.392	141.25
589.602	107.25
589.812	182.25
590.022	126.25
590.232	86.25
590.441	88.25
590.651	66.25
590.861	89.25
591.071	98.25
591.281	78.25
591.49	92.25
591.7	95.25
591.91	93.25
592.119	96.25
592.329	88.25
592.539	76.25
592.748	75.25
592.958	94.25
593.167	88.25
593.377	70.25
593.587	88.25
593.796	74.25
594.006	87.25
594.215	75.25
594.424	68.25
594.634	85.25
594.843	94.25
595.053	91.25
595.262	86.25
595.472	84.25
595.681	90.25
595.89	80.25
596.1	94.25
596.309	98.25
596.518	90.25
596.727	70.25
596.937	83.25
597.146	85.25
597.355	90.25
597.564	77.25
597.774	89.25
597.983	81.25
598.192	87.25
598.401	90.25
598.61	77.25
598.819	100.25
599.028	86.25
599.237	81.25
599.446	85.25
599.655	87.25
599.864	77.25
600.073	72.25
600.282	93.25
600.491	84.25
600.7	77.25
600.909	84.25
601.118	80.25
601.327	76.25
601.536	97.25
601.745	95.25
601.953	83.25
602.162	80.25
602.371	91.25
602.58	94.25
602.789	86.25
602.997	73.25
603.206	79.25
603.415	97.25
603.623	82.25
603.832	80.25
604.041	77.25
604.249	96.25
604.458	98.25
604.666	97.25
604.875	87.25
605.084	102.25
605.292	80.25
605.501	76.25
605.709	81.25
605.918	89.25
606.126	79.25
606.334	86.25
606.543	89.25
606.751	102.25
606.96	92.25
607.168	78.25
607.376	81.25
607.585	70.25
607.793	84.25
608.001	78.25
608.21	84.25
608.418	85.25
608.626	90.25
608.834	79.25
609.043	97.25
609.251	82.25
609.459	87.25
609.667	89.25
609.875	86.25
610.083	100.25
610.291	90.25
610.499	76.25
610.707	76.25
610.916	88.25
611.124	84.25
611.332	87.25
611.54	99.25
611.748	87.25
611.955	82.25
612.163	86.25
612.371	73.25
612.579	82.25
612.787	73.25
612.995	82.25
613.203	94.25
613.411	84.25
613.618	86.25
613.826	79.25
614.034	82.25
614.242	89.25
614.449	73.25
614.657	76.25
614.865	89.25
615.072	81.25
615.28	83.25
615.488	76.25
615.695	88.25
615.903	88.25
616.111	87.25
616.318	95.25
616.526	78.25
616.733	97.25
616.941	80.25
617.148	70.25
617.356	78.25
617.563	90.25
617.771	87.25
617.978	88.25
618.185	69.25
618.393	89.25
618.6	81.25
618.807	104.25
619.015	92.25
619.222	81.25
619.429	87.25
619.637	99.25
619.844	84.25
620.051	92.25
620.258	79.25
620.466	76.25
620.673	78.25
620.88	80.25
621.087	78.25
621.294	82.25
621.501	83.25
621.708	83.25
621.915	84.25
622.122	96.25
622.329	87.25
622.536	83.25
622.743	75.25
622.95	78.25
623.157	87.25
623.364	85.25
623.571	89.25
623.778	88.25
623.985	95.25
624.192	90.25
624.399	74.25
624.606	76.25
624.812	83.25
625.019	89.25
625.226	97.25
625.433	83.25
625.639	79.25
625.846	74.25
626.053	76.25
626.259	90.25
626.466	75.25
626.673	84.25
626.879	88.25
627.086	93.25
627.293	83.25
627.499	85.25
627.706	84.25
627.912	80.25
628.119	87.25
628.325	87.25
628.532	89.25
628.738	79.25
628.945	95.25
629.151	81.25
629.357	76.25
629.564	89.25
629.77	82.25
629.976	80.25
630.183	91.25
630.389	91.25
630.595	91.25
630.802	86.25
631.008	89.25
631.214	86.25
631.42	81.25
631.627	86.25
631.833	90.25
632.039	83.25
632.245	76.25
632.451	99.25
632.657	98.25
632.863	79.25
633.069	84.25
633.275	85.25
633.481	75.25
633.688	71.25
633.893	86.25
634.099	102.25
634.305	87.25
634.511	86.25
634.717	83.25
634.923	93.25
635.129	94.25
635.335	75.25
635.541	84.25
635.747	91.25
635.952	84.25
636.158	77.25
636.364	87.25
636.57	71.25
636.775	86.25
636.981	92.25
637.187	84.25
637.392	83.25
637.598	75.25
637.804	86.25
638.009	73.25
638.215	88.25
638.421	87.25
638.626	90.25
638.832	74.25
639.037	88.25
639.243	81.25
639.448	89.25
639.654	85.25
639.859	76.25
640.065	87.25
640.27	96.25
640.475	75.25
640.681	69.25
640.886	86.25
641.091	84.25
641.297	99.25
641.502	76.25
641.707	85.25
641.913	79.25
642.118	95.25
642.323	89.25
642.528	82.25
642.733	86.25
642.939	87.25
643.144	74.25
643.349	86.25
643.554	82.25
643.759	78.25
643.964	94.25
644.169	78.25
644.374	99.25
644.579	98.25
644.784	85.25
644.989	91.25
645.194	64.25
645.399	80.25
645.604	81.25
645.809	100.25
646.014	80.25
646.219	85.25
646.423	87.25
646.628	74.25
646.833	76.25
647.038	77.25
647.243	83.25
647.447	87.25
647.652	76.25
647.857	76.25
648.062	87.25
648.266	96.25
648.471	76.25
648.676	79.25
648.88	78.25
649.085	77.25
649.289	65.25
649.494	84.25
649.698	86.25
649.903	82.25
650.107	86.25
650.312	96.25
650.516	83.25
650.721	87.25
650.925	88.25
651.13	79.25
651.334	88.25
651.539	86.25
651.743	85.25
651.947	82.25
652.152	83.25
652.356	80.25
652.56	72.25
652.764	85.25
652.969	82.25
653.173	75.25
653.377	94.25
653.581	78.25
653.785	86.25
653.99	88.25
654.194	83.25
654.398	84.25
654.602	78.25
654.806	74.25
655.01	98.25
655.214	77.25
655.418	96.25
655.622	90.25
655.826	90.25
656.03	90.25
656.234	83.25
656.438	74.25
656.642	81.25
656.846	79.25
657.049	62.25
657.253	79.25
657.457	85.25
657.661	98.25
657.865	92.25
658.068	93.25
658.272	81.25
658.476	76.25
658.68	85.25
658.883	76.25
659.087	88.25
659.291	86.25
659.494	89.25
659.698	71.25
659.901	85.25
660.105	82.25
660.309	87.25
660.512	86.25
660.716	91.25
660.919	74.25
661.123	91.25
661.326	78.25
661.53	72.25
661.733	82.25
661.936	72.25
662.14	79.25
662.343	83.25
662.546	68.25
662.75	83.25
662.953	78.25
663.156	88.25
663.36	85.25
663.563	81.25
663.766	74.25
663.969	82.25
664.173	72.25
664.376	82.25
664.579	84.25
664.782	64.25
664.985	74.25
665.188	86.25
665.391	82.25
665.594	92.25
665.797	99.25
666	73.25
666.203	76.25
666.406	82.25
666.609	70.25
666.812	84.25
667.015	81.25
667.218	81.25
667.421	91.25
667.624	84.25
667.827	98.25
668.03	97.25
668.232	62.25
668.435	94.25
668.638	81.25
668.841	92.25
669.043	84.25
669.246	88.25
669.449	75.25
669.651	76.25
669.854	91.25
670.057	82.25
670.259	72.25
670.462	76.25
670.665	82.25
670.867	92.25
671.07	80.25
671.272	90.25
671.475	91.25
671.677	84.25
671.88	82.25
672.082	74.25
672.284	101.25
672.487	79.25
672.689	73.25
672.892	89.25
