Data from Lead_25_2_HRD10591_00060.txt Node
Date: Fri Feb 20 11:02:16 EST 2026
User: Yrep
Spectrometer: HR+D1059
Trigger mode: 1
Integration Time (sec): 1.000000E-1
Scans to average: 1
Electric dark correction enabled: true
Nonlinearity correction enabled: false
Boxcar width: 0
XAxis mode: Wavelengths
Number of Pixels in Spectrum: 2048
>>>>>Begin Spectral Data<<<<<
223.165	-12
223.4	-12
223.635	-12
223.869	-30
224.104	-23
224.338	-11
224.573	-2
224.808	-13
225.042	-5
225.277	-20
225.511	-6
225.746	15
225.98	14
226.215	3
226.449	4
226.683	30
226.918	18
227.152	38
227.387	24
227.621	46
227.856	47
228.09	31
228.324	46
228.559	56
228.793	57
229.027	64
229.262	78
229.496	57
229.73	61
229.964	75
230.199	73
230.433	69
230.667	81
230.901	81
231.136	72
231.37	68
231.604	83
231.838	73
232.072	83
232.306	85
232.541	69
232.775	85
233.009	85
233.243	81
233.477	84
233.711	64
233.945	79
234.179	77
234.413	71
234.647	87
234.881	76
235.115	86
235.349	79
235.583	82
235.817	82
236.051	74
236.285	91
236.519	85
236.753	79
236.987	76
237.221	84
237.455	67
237.689	79
237.922	71
238.156	72
238.39	74
238.624	77
238.858	76
239.091	64
239.325	76
239.559	81
239.793	77
240.027	66
240.26	85
240.494	69
240.728	64
240.961	80
241.195	83
241.429	82
241.662	88
241.896	82
242.13	73
242.363	72
242.597	77
242.83	71
243.064	81
243.298	71
243.531	75
243.765	61
243.998	70
244.232	68
244.465	84
244.699	79
244.932	77
245.166	75
245.399	73
245.633	68
245.866	76
246.099	74
246.333	79
246.566	78
246.8	77
247.033	66
247.266	77
247.5	77
247.733	79
247.966	89
248.2	75
248.433	85
248.666	78
248.899	81
249.133	85
249.366	72
249.599	69
249.832	61
250.066	85
250.299	75
250.532	71
250.765	77
250.998	65
251.231	86
251.465	78
251.698	85
251.931	81
252.164	80
252.397	77
252.63	80
252.863	76
253.096	75
253.329	74
253.562	79
253.795	79
254.028	87
254.261	80
254.494	74
254.727	83
254.96	78
255.193	70
255.426	72
255.659	75
255.892	62
256.124	71
256.357	61
256.59	65
256.823	79
257.056	77
257.289	71
257.521	71
257.754	81
257.987	84
258.22	80
258.452	82
258.685	71
258.918	67
259.151	71
259.383	81
259.616	75
259.849	69
260.081	79
260.314	79
260.547	82
260.779	69
261.012	75
261.244	79
261.477	76
261.71	80
261.942	80
262.175	83
262.407	85
262.64	74
262.872	80
263.105	70
263.337	65
263.57	70
263.802	86
264.035	82
264.267	87
264.499	92
264.732	83
264.964	87
265.197	79
265.429	80
265.661	80
265.894	79
266.126	70
266.358	77
266.591	88
266.823	70
267.055	79
267.287	73
267.52	86
267.752	72
267.984	80
268.216	66
268.448	72
268.681	78
268.913	73
269.145	70
269.377	77
269.609	81
269.841	77
270.073	82
270.306	92
270.538	80
270.77	81
271.002	78
271.234	89
271.466	91
271.698	73
271.93	80
272.162	77
272.394	70
272.626	77
272.858	72
273.09	87
273.322	81
273.553	87
273.785	85
274.017	74
274.249	80
274.481	82
274.713	66
274.945	86
275.176	78
275.408	73
275.64	89
275.872	69
276.104	86
276.335	98
276.567	71
276.799	85
277.031	89
277.262	78
277.494	80
277.726	67
277.957	72
278.189	73
278.421	64
278.652	74
278.884	85
279.115	93
279.347	89
279.579	82
279.81	91
280.042	76
280.273	78
280.505	91
280.736	82
280.968	82
281.199	82
281.431	72
281.662	86
281.894	87
282.125	71
282.356	76
282.588	82
282.819	91
283.051	82
283.282	76
283.513	83
283.745	69
283.976	91
284.207	90
284.439	86
284.67	81
284.901	81
285.132	79
285.364	77
285.595	81
285.826	85
286.057	89
286.288	95
286.52	93
286.751	81
286.982	75
287.213	73
287.444	95
287.675	83
287.906	101
288.138	77
288.369	82
288.6	86
288.831	72
289.062	85
289.293	64
289.524	91
289.755	79
289.986	68
290.217	86
290.448	71
290.679	89
290.91	83
291.141	73
291.371	78
291.602	85
291.833	72
292.064	67
292.295	89
292.526	75
292.757	78
292.987	87
293.218	81
293.449	97
293.68	92
293.91	70
294.141	87
294.372	87
294.603	85
294.833	87
295.064	89
295.295	80
295.525	63
295.756	88
295.987	82
296.217	75
296.448	74
296.679	78
296.909	90
297.14	98
297.37	86
297.601	86
297.831	80
298.062	82
298.292	82
298.523	86
298.753	90
298.984	89
299.214	83
299.445	80
299.675	79
299.905	84
300.136	79
300.366	83
300.597	85
300.827	79
301.057	73
301.288	85
301.518	73
301.748	86
301.979	85
302.209	80
302.439	85
302.669	77
302.9	96
303.13	77
303.36	81
303.59	66
303.82	79
304.051	86
304.281	88
304.511	85
304.741	75
304.971	83
305.201	82
305.431	81
305.661	72
305.891	73
306.121	81
306.352	91
306.582	69
306.812	75
307.042	77
307.272	85
307.502	73
307.731	70
307.961	84
308.191	83
308.421	83
308.651	94
308.881	87
309.111	102
309.341	86
309.571	90
309.8	65
310.03	75
310.26	94
310.49	82
310.72	79
310.949	89
311.179	82
311.409	90
311.639	82
311.868	95
312.098	83
312.328	63
312.557	88
312.787	76
313.017	75
313.246	83
313.476	105
313.706	81
313.935	87
314.165	74
314.394	74
314.624	83
314.853	77
315.083	83
315.312	95
315.542	75
315.771	89
316.001	84
316.23	94
316.46	85
316.689	80
316.919	81
317.148	75
317.377	85
317.607	89
317.836	77
318.065	83
318.295	82
318.524	74
318.753	77
318.983	92
319.212	78
319.441	71
319.67	97
319.9	79
320.129	80
320.358	91
320.587	92
320.816	89
321.046	77
321.275	87
321.504	80
321.733	81
321.962	85
322.191	90
322.42	84
322.649	69
322.878	72
323.108	83
323.337	93
323.566	72
323.795	91
324.024	86
324.253	89
324.482	85
324.71	82
324.939	95
325.168	69
325.397	98
325.626	71
325.855	78
326.084	79
326.313	99
326.542	83
326.77	69
326.999	77
327.228	83
327.457	71
327.686	86
327.914	84
328.143	89
328.372	65
328.6	90
328.829	83
329.058	88
329.287	93
329.515	79
329.744	77
329.972	74
330.201	79
330.43	68
330.658	69
330.887	76
331.115	78
331.344	72
331.572	77
331.801	84
332.03	81
332.258	90
332.486	80
332.715	75
332.943	79
333.172	90
333.4	78
333.629	95
333.857	87
334.085	68
334.314	91
334.542	85
334.771	84
334.999	69
335.227	80
335.455	68
335.684	85
335.912	75
336.14	70
336.369	77
336.597	77
336.825	77
337.053	69
337.281	84
337.51	83
337.738	81
337.966	75
338.194	87
338.422	83
338.65	92
338.878	73
339.106	84
339.334	82
339.562	83
339.79	85
340.018	86
340.246	72
340.474	90
340.702	95
340.93	84
341.158	82
341.386	88
341.614	79
341.842	77
342.07	86
342.298	81
342.526	87
342.754	81
342.981	82
343.209	81
343.437	91
343.665	91
343.893	84
344.12	86
344.348	74
344.576	81
344.804	84
345.031	83
345.259	91
345.487	92
345.714	70
345.942	83
346.17	77
346.397	86
346.625	78
346.853	77
347.08	83
347.308	90
347.535	78
347.763	85
347.99	81
348.218	91
348.445	73
348.673	96
348.9	93
349.128	88
349.355	81
349.583	77
349.81	75
350.037	77
350.265	107
350.492	83
350.72	78
350.947	92
351.174	92
351.402	79
351.629	84
351.856	64
352.083	79
352.311	70
352.538	79
352.765	76
352.992	79
353.22	87
353.447	68
353.674	82
353.901	76
354.128	111
354.355	82
354.583	83
354.81	80
355.037	67
355.264	78
355.491	79
355.718	83
355.945	78
356.172	87
356.399	85
356.626	77
356.853	71
357.08	83
357.307	77
357.534	84
357.761	77
357.988	65
358.215	74
358.441	75
358.668	86
358.895	94
359.122	91
359.349	75
359.576	86
359.802	69
360.029	89
360.256	62
360.483	65
360.709	77
360.936	97
361.163	79
361.39	85
361.616	83
361.843	78
362.07	76
362.296	98
362.523	77
362.749	71
362.976	76
363.203	101
363.429	63
363.656	90
363.882	86
364.109	75
364.335	83
364.562	77
364.788	82
365.015	93
365.241	111
365.468	80
365.694	81
365.92	90
366.147	85
366.373	72
366.599	82
366.826	94
367.052	91
367.278	82
367.505	77
367.731	92
367.957	82
368.184	89
368.41	83
368.636	79
368.862	81
369.089	78
369.315	77
369.541	86
369.767	70
369.993	93
370.219	83
370.445	91
370.672	71
370.898	73
371.124	99
371.35	79
371.576	79
371.802	94
372.028	86
372.254	85
372.48	81
372.706	95
372.932	89
373.158	79
373.384	88
373.61	91
373.835	75
374.061	85
374.287	81
374.513	85
374.739	74
374.965	85
375.191	74
375.416	92
375.642	82
375.868	82
376.094	72
376.319	91
376.545	74
376.771	71
376.997	78
377.222	89
377.448	81
377.674	83
377.899	86
378.125	80
378.35	95
378.576	69
378.802	75
379.027	82
379.253	83
379.478	78
379.704	80
379.929	76
380.155	75
380.38	86
380.606	74
380.831	81
381.057	80
381.282	79
381.507	85
381.733	79
381.958	80
382.184	70
382.409	86
382.634	81
382.86	72
383.085	82
383.31	85
383.535	78
383.761	77
383.986	80
384.211	95
384.436	71
384.662	81
384.887	70
385.112	85
385.337	91
385.562	63
385.787	78
386.013	87
386.238	80
386.463	77
386.688	89
386.913	76
387.138	73
387.363	79
387.588	81
387.813	69
388.038	77
388.263	89
388.488	74
388.713	86
388.938	65
389.163	77
389.387	82
389.612	87
389.837	85
390.062	78
390.287	82
390.512	67
390.736	75
390.961	84
391.186	74
391.411	81
391.636	93
391.86	83
392.085	82
392.31	74
392.534	85
392.759	76
392.984	84
393.208	87
393.433	93
393.658	85
393.882	77
394.107	87
394.331	83
394.556	79
394.78	86
395.005	73
395.229	70
395.454	86
395.678	74
395.903	79
396.127	78
396.352	80
396.576	85
396.801	82
397.025	91
397.249	90
397.474	85
397.698	89
397.922	69
398.147	90
398.371	78
398.595	87
398.82	85
399.044	80
399.268	84
399.492	86
399.717	94
399.941	77
400.165	86
400.389	87
400.613	87
400.837	76
401.062	77
401.286	91
401.51	77
401.734	64
401.958	90
402.182	76
402.406	90
402.63	86
402.854	75
403.078	83
403.302	82
403.526	81
403.75	85
403.974	82
404.198	105
404.422	89
404.645	91
404.869	89
405.093	89
405.317	83
405.541	77
405.765	105
405.988	103
406.212	105
406.436	82
406.66	68
406.883	93
407.107	81
407.331	71
407.555	77
407.778	61
408.002	74
408.226	53
408.449	73
408.673	62
408.896	77
409.12	71
409.344	68
409.567	87
409.791	83
410.014	88
410.238	81
410.461	68
410.685	78
410.908	81
411.132	85
411.355	79
411.578	74
411.802	79
412.025	68
412.249	75
412.472	78
412.695	79
412.919	75
413.142	75
413.365	80
413.589	82
413.812	68
414.035	87
414.258	90
414.482	81
414.705	74
414.928	84
415.151	73
415.374	84
415.597	70
415.821	68
416.044	82
416.267	81
416.49	65
416.713	86
416.936	76
417.159	92
417.382	76
417.605	69
417.828	77
418.051	87
418.274	77
418.497	67
418.72	85
418.943	82
419.166	93
419.389	81
419.611	84
419.834	84
420.057	69
420.28	80
420.503	75
420.726	79
420.948	78
421.171	98
421.394	87
421.617	82
421.839	73
422.062	72
422.285	81
422.507	69
422.73	84
422.953	82
423.175	89
423.398	86
423.621	75
423.843	76
424.066	89
424.288	76
424.511	70
424.733	93
424.956	77
425.178	71
425.401	69
425.623	78
425.846	74
426.068	70
426.291	69
426.513	83
426.735	64
426.958	70
427.18	81
427.402	77
427.625	76
427.847	81
428.069	91
428.292	76
428.514	89
428.736	69
428.958	84
429.181	72
429.403	81
429.625	71
429.847	75
430.069	91
430.292	79
430.514	77
430.736	84
430.958	84
431.18	86
431.402	75
431.624	51
431.846	75
432.068	76
432.29	86
432.512	92
432.734	81
432.956	83
433.178	83
433.4	74
433.622	79
433.844	78
434.066	77
434.287	84
434.509	82
434.731	85
434.953	81
435.175	75
435.397	84
435.618	67
435.84	74
436.062	83
436.284	93
436.505	73
436.727	91
436.949	82
437.17	87
437.392	74
437.614	59
437.835	69
438.057	77
438.278	74
438.5	83
438.721	77
438.943	84
439.165	87
439.386	88
439.608	81
439.829	75
440.05	82
440.272	83
440.493	84
440.715	75
440.936	84
441.158	82
441.379	72
441.6	66
441.822	84
442.043	71
442.264	77
442.486	63
442.707	73
442.928	85
443.149	79
443.371	85
443.592	82
443.813	89
444.034	92
444.255	64
444.476	75
444.698	77
444.919	75
445.14	163
445.361	115
445.582	74
445.803	79
446.024	79
446.245	78
446.466	77
446.687	82
446.908	75
447.129	92
447.35	83
447.571	79
447.792	82
448.013	71
448.234	89
448.455	85
448.675	79
448.896	72
449.117	77
449.338	72
449.559	100
449.779	86
450	65
450.221	87
450.442	84
450.662	78
450.883	67
451.104	85
451.324	73
451.545	77
451.766	78
451.986	69
452.207	81
452.428	83
452.648	77
452.869	77
453.089	71
453.31	91
453.53	84
453.751	81
453.971	100
454.192	73
454.412	83
454.633	80
454.853	69
455.073	59
455.294	84
455.514	82
455.734	79
455.955	84
456.175	62
456.395	75
456.616	71
456.836	73
457.056	86
457.276	72
457.497	75
457.717	83
457.937	78
458.157	85
458.377	85
458.598	71
458.818	75
459.038	75
459.258	80
459.478	79
459.698	92
459.918	70
460.138	72
460.358	72
460.578	80
460.798	83
461.018	74
461.238	79
461.458	84
461.678	76
461.898	60
462.118	84
462.338	75
462.558	85
462.777	74
462.997	89
463.217	75
463.437	82
463.657	79
463.876	84
464.096	83
464.316	70
464.536	78
464.755	85
464.975	67
465.195	89
465.414	77
465.634	73
465.854	77
466.073	76
466.293	82
466.512	71
466.732	71
466.951	86
467.171	98
467.391	84
467.61	69
467.829	76
468.049	70
468.268	83
468.488	74
468.707	90
468.927	68
469.146	85
469.365	83
469.585	77
469.804	88
470.023	79
470.243	77
470.462	75
470.681	67
470.901	84
471.12	89
471.339	93
471.558	82
471.777	81
471.997	81
472.216	87
472.435	85
472.654	78
472.873	95
473.092	85
473.311	80
473.53	86
473.749	74
473.968	85
474.187	85
474.406	83
474.625	80
474.844	89
475.063	76
475.282	85
475.501	79
475.72	82
475.939	72
476.158	83
476.377	84
476.596	84
476.814	82
477.033	84
477.252	68
477.471	86
477.69	72
477.908	86
478.127	90
478.346	76
478.564	77
478.783	86
479.002	90
479.22	80
479.439	80
479.658	85
479.876	56
480.095	77
480.313	75
480.532	85
480.751	57
480.969	85
481.188	90
481.406	90
481.624	96
481.843	79
482.061	79
482.28	78
482.498	91
482.717	78
482.935	68
483.153	73
483.372	81
483.59	76
483.808	89
484.027	84
484.245	71
484.463	89
484.681	74
484.9	79
485.118	85
485.336	74
485.554	81
485.772	57
485.99	84
486.209	81
486.427	81
486.645	84
486.863	83
487.081	87
487.299	88
487.517	78
487.735	76
487.953	67
488.171	85
488.389	76
488.607	81
488.825	93
489.043	87
489.261	88
489.479	101
489.696	70
489.914	75
490.132	81
490.35	80
490.568	77
490.786	74
491.003	78
491.221	78
491.439	84
491.657	83
491.874	92
492.092	86
492.31	88
492.527	83
492.745	81
492.963	82
493.18	79
493.398	72
493.615	88
493.833	80
494.05	77
494.268	97
494.485	85
494.703	77
494.92	90
495.138	85
495.355	83
495.573	86
495.79	86
496.008	92
496.225	79
496.442	80
496.66	85
496.877	83
497.094	95
497.312	79
497.529	85
497.746	77
497.963	81
498.181	80
498.398	93
498.615	87
498.832	81
499.049	79
499.267	78
499.484	79
499.701	84
499.918	85
500.135	68
500.352	90
500.569	73
500.786	83
501.003	78
501.22	91
501.437	69
501.654	74
501.871	85
502.088	76
502.305	87
502.522	85
502.739	79
502.956	67
503.172	69
503.389	73
503.606	86
503.823	91
504.04	86
504.256	83
504.473	78
504.69	73
504.907	86
505.123	78
505.34	88
505.557	87
505.773	86
505.99	82
506.207	79
506.423	93
506.64	90
506.856	87
507.073	93
507.289	75
507.506	78
507.722	92
507.939	54
508.155	75
508.372	85
508.588	75
508.805	81
509.021	72
509.238	85
509.454	74
509.67	83
509.887	81
510.103	67
510.319	77
510.536	86
510.752	83
510.968	90
511.184	83
511.401	83
511.617	82
511.833	70
512.049	86
512.265	69
512.481	77
512.698	84
512.914	80
513.13	85
513.346	82
513.562	70
513.778	90
513.994	73
514.21	81
514.426	82
514.642	83
514.858	69
515.074	82
515.29	79
515.506	83
515.721	81
515.937	90
516.153	77
516.369	83
516.585	73
516.801	98
517.016	83
517.232	77
517.448	77
517.664	84
517.879	78
518.095	88
518.311	83
518.527	81
518.742	71
518.958	89
519.173	77
519.389	77
519.605	81
519.82	85
520.036	77
520.251	72
520.467	69
520.682	75
520.898	93
521.113	79
521.329	83
521.544	59
521.76	79
521.975	87
522.19	80
522.406	87
522.621	68
522.836	86
523.052	97
523.267	80
523.482	83
523.698	89
523.913	81
524.128	70
524.343	77
524.559	93
524.774	82
524.989	77
525.204	79
525.419	64
525.634	90
525.849	82
526.064	90
526.28	93
526.495	95
526.71	79
526.925	78
527.14	70
527.355	87
527.57	74
527.785	84
527.999	77
528.214	85
528.429	76
528.644	80
528.859	69
529.074	75
529.289	82
529.503	89
529.718	81
529.933	79
530.148	93
530.363	75
530.577	68
530.792	80
531.007	87
531.221	85
531.436	76
531.651	78
531.865	85
532.08	77
532.295	77
532.509	91
532.724	93
532.938	98
533.153	72
533.367	81
533.582	78
533.796	76
534.011	84
534.225	83
534.44	86
534.654	80
534.868	68
535.083	82
535.297	70
535.511	69
535.726	96
535.94	89
536.154	81
536.369	79
536.583	74
536.797	90
537.011	85
537.225	69
537.44	77
537.654	81
537.868	78
538.082	80
538.296	82
538.51	70
538.724	79
538.938	85
539.153	82
539.367	81
539.581	91
539.795	77
540.009	97
540.222	78
540.436	89
540.65	75
540.864	83
541.078	86
541.292	76
541.506	89
541.72	84
541.934	93
542.147	84
542.361	87
542.575	91
542.789	80
543.002	83
543.216	90
543.43	71
543.644	83
543.857	83
544.071	82
544.285	81
544.498	88
544.712	81
544.925	81
545.139	83
545.352	86
545.566	77
545.779	77
545.993	85
546.206	87
546.42	71
546.633	78
546.847	96
547.06	70
547.274	70
547.487	91
547.7	87
547.914	79
548.127	72
548.34	90
548.554	97
548.767	81
548.98	66
549.193	82
549.407	81
549.62	78
549.833	84
550.046	86
550.259	91
550.473	85
550.686	94
550.899	71
551.112	81
551.325	83
551.538	87
551.751	71
551.964	82
552.177	68
552.39	86
552.603	75
552.816	76
553.029	87
553.242	87
553.455	69
553.667	83
553.88	95
554.093	79
554.306	89
554.519	95
554.732	67
554.944	77
555.157	85
555.37	82
555.583	72
555.795	76
556.008	66
556.221	77
556.433	71
556.646	85
556.859	75
557.071	97
557.284	80
557.496	63
557.709	70
557.921	99
558.134	89
558.346	89
558.559	77
558.771	79
558.984	77
559.196	93
559.409	82
559.621	75
559.833	79
560.046	82
560.258	99
560.47	81
560.683	80
560.895	67
561.107	94
561.32	86
561.532	87
561.744	89
561.956	86
562.168	91
562.381	65
562.593	80
562.805	78
563.017	85
563.229	84
563.441	91
563.653	77
563.865	81
564.077	85
564.289	94
564.501	71
564.713	80
564.925	81
565.137	81
565.349	78
565.561	83
565.773	89
565.985	79
566.197	85
566.408	85
566.62	81
566.832	83
567.044	69
567.255	77
567.467	85
567.679	86
567.891	84
568.102	93
568.314	74
568.526	87
568.737	86
568.949	82
569.161	93
569.372	77
569.584	93
569.795	93
570.007	80
570.218	79
570.43	70
570.641	82
570.853	71
571.064	82
571.276	86
571.487	79
571.698	80
571.91	90
572.121	70
572.333	82
572.544	80
572.755	70
572.966	87
573.178	80
573.389	76
573.6	65
573.811	90
574.023	75
574.234	77
574.445	93
574.656	82
574.867	93
575.078	69
575.289	85
575.501	69
575.712	90
575.923	80
576.134	85
576.345	82
576.556	91
576.767	82
576.978	101
577.188	91
577.399	86
577.61	79
577.821	94
578.032	70
578.243	89
578.454	87
578.665	85
578.875	76
579.086	87
579.297	80
579.508	77
579.718	89
579.929	74
580.14	95
580.35	81
580.561	77
580.772	91
580.982	72
581.193	91
581.403	77
581.614	98
581.825	89
582.035	91
582.246	86
582.456	83
582.667	85
582.877	93
583.087	81
583.298	83
583.508	71
583.719	76
583.929	86
584.139	93
584.35	76
584.56	87
584.77	79
584.981	74
585.191	73
585.401	90
585.611	63
585.821	80
586.032	95
586.242	81
586.452	77
586.662	88
586.872	78
587.082	87
587.292	77
587.502	69
587.713	85
587.923	77
588.133	97
588.343	75
588.553	74
588.762	90
588.972	103
589.182	139
589.392	94
589.602	95
589.812	125
590.022	93
590.232	95
590.441	77
590.651	74
590.861	92
591.071	69
591.281	72
591.49	85
591.7	85
591.91	89
592.119	85
592.329	61
592.539	81
592.748	79
592.958	99
593.167	81
593.377	81
593.587	93
593.796	97
594.006	69
594.215	80
594.424	88
594.634	81
594.843	79
595.053	90
595.262	91
595.472	86
595.681	91
595.89	85
596.1	94
596.309	88
596.518	89
596.727	84
596.937	87
597.146	86
597.355	85
597.564	90
597.774	89
597.983	96
598.192	91
598.401	82
598.61	90
598.819	83
599.028	83
599.237	86
599.446	79
599.655	81
599.864	83
600.073	64
600.282	85
600.491	81
600.7	93
600.909	89
601.118	90
601.327	78
601.536	85
601.745	82
601.953	81
602.162	80
602.371	77
602.58	78
602.789	83
602.997	74
603.206	82
603.415	75
603.623	83
603.832	76
604.041	82
604.249	74
604.458	91
604.666	71
604.875	76
605.084	69
605.292	87
605.501	77
605.709	83
605.918	74
606.126	79
606.334	93
606.543	91
606.751	91
606.96	93
607.168	94
607.376	86
607.585	75
607.793	83
608.001	67
608.21	83
608.418	83
608.626	78
608.834	85
609.043	96
609.251	81
609.459	87
609.667	92
609.875	77
610.083	85
610.291	66
610.499	81
610.707	88
610.916	86
611.124	81
611.332	88
611.54	85
611.748	87
611.955	75
612.163	90
612.371	71
612.579	72
612.787	78
612.995	86
613.203	90
613.411	88
613.618	62
613.826	75
614.034	91
614.242	94
614.449	75
614.657	82
614.865	86
615.072	77
615.28	91
615.488	83
615.695	81
615.903	82
616.111	87
616.318	82
616.526	89
616.733	79
616.941	79
617.148	76
617.356	91
617.563	83
617.771	80
617.978	81
618.185	77
618.393	70
618.6	89
618.807	90
619.015	89
619.222	89
619.429	80
619.637	81
619.844	76
620.051	83
620.258	85
620.466	82
620.673	81
620.88	93
621.087	91
621.294	97
621.501	72
621.708	89
621.915	85
622.122	67
622.329	88
622.536	89
622.743	78
622.95	88
623.157	86
623.364	85
623.571	73
623.778	75
623.985	64
624.192	88
624.399	78
624.606	87
624.812	90
625.019	85
625.226	83
625.433	103
625.639	98
625.846	84
626.053	81
626.259	77
626.466	82
626.673	87
626.879	64
627.086	85
627.293	79
627.499	73
627.706	85
627.912	85
628.119	76
628.325	87
628.532	82
628.738	77
628.945	86
629.151	74
629.357	88
629.564	76
629.77	83
629.976	79
630.183	85
630.389	68
630.595	65
630.802	95
631.008	89
631.214	70
631.42	76
631.627	83
631.833	86
632.039	88
632.245	86
632.451	98
632.657	78
632.863	71
633.069	79
633.275	85
633.481	102
633.688	90
633.893	91
634.099	83
634.305	67
634.511	74
634.717	88
634.923	77
635.129	80
635.335	87
635.541	81
635.747	79
635.952	81
636.158	91
636.364	83
636.57	81
636.775	73
636.981	71
637.187	84
637.392	74
637.598	89
637.804	86
638.009	82
638.215	88
638.421	77
638.626	79
638.832	77
639.037	76
639.243	85
639.448	82
639.654	79
639.859	79
640.065	76
640.27	75
640.475	83
640.681	82
640.886	83
641.091	81
641.297	79
641.502	87
641.707	70
641.913	80
642.118	67
642.323	85
642.528	72
642.733	93
642.939	65
643.144	91
643.349	89
643.554	83
643.759	64
643.964	85
644.169	98
644.374	81
644.579	71
644.784	71
644.989	82
645.194	70
645.399	82
645.604	76
645.809	83
646.014	72
646.219	78
646.423	76
646.628	72
646.833	83
647.038	79
647.243	85
647.447	78
647.652	83
647.857	93
648.062	67
648.266	77
648.471	95
648.676	83
648.88	85
649.085	82
649.289	66
649.494	74
649.698	89
649.903	81
650.107	69
650.312	89
650.516	77
650.721	93
650.925	91
651.13	76
651.334	77
651.539	76
651.743	70
651.947	89
652.152	95
652.356	78
652.56	85
652.764	89
652.969	78
653.173	91
653.377	65
653.581	86
653.785	93
653.99	89
654.194	84
654.398	69
654.602	71
654.806	83
655.01	91
655.214	68
655.418	83
655.622	82
655.826	85
656.03	84
656.234	71
656.438	83
656.642	81
656.846	78
657.049	70
657.253	78
657.457	75
657.661	83
657.865	65
658.068	83
658.272	83
658.476	71
658.68	87
658.883	70
659.087	76
659.291	71
659.494	95
659.698	85
659.901	77
660.105	76
660.309	77
660.512	82
660.716	74
660.919	75
661.123	94
661.326	81
661.53	78
661.733	76
661.936	83
662.14	77
662.343	71
662.546	79
662.75	86
662.953	82
663.156	78
663.36	75
663.563	79
663.766	80
663.969	79
664.173	89
664.376	85
664.579	79
664.782	74
664.985	69
665.188	73
665.391	64
665.594	79
665.797	76
666	78
666.203	78
666.406	82
666.609	86
666.812	81
667.015	81
667.218	75
667.421	77
667.624	74
667.827	94
668.03	78
668.232	78
668.435	77
668.638	74
668.841	82
669.043	86
669.246	74
669.449	91
669.651	86
669.854	86
670.057	93
670.259	81
670.462	83
670.665	86
670.867	81
671.07	75
671.272	89
671.475	98
671.677	95
671.88	86
672.082	79
672.284	71
672.487	83
672.689	90
672.892	85
