Data from Lead_25_2_HRD10591_00100.txt Node
Date: Fri Feb 20 11:02:29 EST 2026
User: Yrep
Spectrometer: HR+D1059
Trigger mode: 1
Integration Time (sec): 1.000000E-1
Scans to average: 1
Electric dark correction enabled: true
Nonlinearity correction enabled: false
Boxcar width: 0
XAxis mode: Wavelengths
Number of Pixels in Spectrum: 2048
>>>>>Begin Spectral Data<<<<<
223.165	-16.56
223.4	-16.56
223.635	-16.56
223.869	-15.56
224.104	-15.56
224.338	-21.56
224.573	-25.56
224.808	-17.56
225.042	-16.56
225.277	2.44
225.511	-3.56
225.746	-0.56
225.98	13.44
226.215	17.44
226.449	1.44
226.683	31.44
226.918	35.44
227.152	31.44
227.387	31.44
227.621	37.44
227.856	43.44
228.09	43.44
228.324	51.44
228.559	54.44
228.793	54.44
229.027	57.44
229.262	61.44
229.496	60.44
229.73	65.44
229.964	80.44
230.199	70.44
230.433	65.44
230.667	74.44
230.901	74.44
231.136	79.44
231.37	88.44
231.604	74.44
231.838	81.44
232.072	70.44
232.306	78.44
232.541	70.44
232.775	72.44
233.009	73.44
233.243	81.44
233.477	76.44
233.711	80.44
233.945	81.44
234.179	61.44
234.413	83.44
234.647	74.44
234.881	66.44
235.115	77.44
235.349	71.44
235.583	87.44
235.817	72.44
236.051	73.44
236.285	67.44
236.519	77.44
236.753	79.44
236.987	64.44
237.221	72.44
237.455	59.44
237.689	70.44
237.922	78.44
238.156	60.44
238.39	65.44
238.624	77.44
238.858	73.44
239.091	62.44
239.325	77.44
239.559	73.44
239.793	75.44
240.027	87.44
240.26	75.44
240.494	75.44
240.728	70.44
240.961	68.44
241.195	77.44
241.429	63.44
241.662	71.44
241.896	60.44
242.13	62.44
242.363	65.44
242.597	79.44
242.83	72.44
243.064	63.44
243.298	81.44
243.531	72.44
243.765	69.44
243.998	71.44
244.232	67.44
244.465	70.44
244.699	65.44
244.932	67.44
245.166	64.44
245.399	65.44
245.633	81.44
245.866	82.44
246.099	70.44
246.333	70.44
246.566	83.44
246.8	65.44
247.033	77.44
247.266	66.44
247.5	75.44
247.733	81.44
247.966	75.44
248.2	89.44
248.433	80.44
248.666	86.44
248.899	64.44
249.133	81.44
249.366	84.44
249.599	83.44
249.832	79.44
250.066	81.44
250.299	68.44
250.532	69.44
250.765	84.44
250.998	78.44
251.231	86.44
251.465	74.44
251.698	74.44
251.931	76.44
252.164	67.44
252.397	63.44
252.63	86.44
252.863	83.44
253.096	70.44
253.329	86.44
253.562	84.44
253.795	84.44
254.028	87.44
254.261	78.44
254.494	84.44
254.727	82.44
254.96	81.44
255.193	72.44
255.426	83.44
255.659	72.44
255.892	76.44
256.124	75.44
256.357	84.44
256.59	76.44
256.823	87.44
257.056	84.44
257.289	84.44
257.521	71.44
257.754	76.44
257.987	65.44
258.22	66.44
258.452	83.44
258.685	93.44
258.918	87.44
259.151	73.44
259.383	87.44
259.616	72.44
259.849	75.44
260.081	76.44
260.314	72.44
260.547	71.44
260.779	66.44
261.012	85.44
261.244	82.44
261.477	93.44
261.71	86.44
261.942	63.44
262.175	80.44
262.407	70.44
262.64	89.44
262.872	81.44
263.105	76.44
263.337	64.44
263.57	69.44
263.802	58.44
264.035	76.44
264.267	69.44
264.499	74.44
264.732	68.44
264.964	63.44
265.197	93.44
265.429	81.44
265.661	85.44
265.894	86.44
266.126	81.44
266.358	73.44
266.591	74.44
266.823	84.44
267.055	70.44
267.287	81.44
267.52	75.44
267.752	95.44
267.984	80.44
268.216	74.44
268.448	77.44
268.681	73.44
268.913	72.44
269.145	96.44
269.377	84.44
269.609	75.44
269.841	75.44
270.073	76.44
270.306	70.44
270.538	75.44
270.77	79.44
271.002	65.44
271.234	83.44
271.466	78.44
271.698	65.44
271.93	68.44
272.162	67.44
272.394	79.44
272.626	91.44
272.858	80.44
273.09	75.44
273.322	63.44
273.553	85.44
273.785	85.44
274.017	83.44
274.249	76.44
274.481	81.44
274.713	69.44
274.945	72.44
275.176	88.44
275.408	78.44
275.64	76.44
275.872	91.44
276.104	88.44
276.335	75.44
276.567	89.44
276.799	83.44
277.031	77.44
277.262	80.44
277.494	92.44
277.726	85.44
277.957	80.44
278.189	89.44
278.421	64.44
278.652	83.44
278.884	79.44
279.115	82.44
279.347	80.44
279.579	88.44
279.81	66.44
280.042	75.44
280.273	86.44
280.505	67.44
280.736	65.44
280.968	90.44
281.199	78.44
281.431	99.44
281.662	81.44
281.894	86.44
282.125	89.44
282.356	84.44
282.588	63.44
282.819	73.44
283.051	77.44
283.282	72.44
283.513	79.44
283.745	93.44
283.976	84.44
284.207	94.44
284.439	86.44
284.67	92.44
284.901	81.44
285.132	73.44
285.364	83.44
285.595	84.44
285.826	71.44
286.057	86.44
286.288	83.44
286.52	76.44
286.751	91.44
286.982	95.44
287.213	70.44
287.444	89.44
287.675	76.44
287.906	100.44
288.138	81.44
288.369	80.44
288.6	85.44
288.831	80.44
289.062	83.44
289.293	74.44
289.524	89.44
289.755	85.44
289.986	88.44
290.217	77.44
290.448	83.44
290.679	94.44
290.91	75.44
291.141	78.44
291.371	95.44
291.602	81.44
291.833	76.44
292.064	77.44
292.295	79.44
292.526	95.44
292.757	94.44
292.987	78.44
293.218	64.44
293.449	66.44
293.68	76.44
293.91	78.44
294.141	89.44
294.372	72.44
294.603	76.44
294.833	80.44
295.064	60.44
295.295	84.44
295.525	80.44
295.756	87.44
295.987	78.44
296.217	78.44
296.448	64.44
296.679	77.44
296.909	92.44
297.14	77.44
297.37	80.44
297.601	77.44
297.831	80.44
298.062	80.44
298.292	83.44
298.523	70.44
298.753	85.44
298.984	81.44
299.214	71.44
299.445	80.44
299.675	91.44
299.905	73.44
300.136	93.44
300.366	87.44
300.597	82.44
300.827	79.44
301.057	82.44
301.288	86.44
301.518	80.44
301.748	77.44
301.979	102.44
302.209	88.44
302.439	73.44
302.669	81.44
302.9	67.44
303.13	87.44
303.36	77.44
303.59	77.44
303.82	77.44
304.051	85.44
304.281	83.44
304.511	99.44
304.741	77.44
304.971	79.44
305.201	73.44
305.431	74.44
305.661	94.44
305.891	76.44
306.121	78.44
306.352	68.44
306.582	77.44
306.812	83.44
307.042	79.44
307.272	82.44
307.502	83.44
307.731	85.44
307.961	88.44
308.191	86.44
308.421	83.44
308.651	83.44
308.881	71.44
309.111	87.44
309.341	80.44
309.571	77.44
309.8	79.44
310.03	72.44
310.26	69.44
310.49	89.44
310.72	96.44
310.949	82.44
311.179	80.44
311.409	87.44
311.639	78.44
311.868	81.44
312.098	78.44
312.328	80.44
312.557	89.44
312.787	71.44
313.017	73.44
313.246	70.44
313.476	93.44
313.706	80.44
313.935	89.44
314.165	80.44
314.394	77.44
314.624	72.44
314.853	76.44
315.083	74.44
315.312	77.44
315.542	70.44
315.771	78.44
316.001	63.44
316.23	87.44
316.46	78.44
316.689	91.44
316.919	71.44
317.148	87.44
317.377	83.44
317.607	96.44
317.836	82.44
318.065	76.44
318.295	76.44
318.524	69.44
318.753	85.44
318.983	69.44
319.212	62.44
319.441	83.44
319.67	79.44
319.9	84.44
320.129	84.44
320.358	80.44
320.587	74.44
320.816	84.44
321.046	69.44
321.275	81.44
321.504	75.44
321.733	92.44
321.962	82.44
322.191	89.44
322.42	66.44
322.649	87.44
322.878	81.44
323.108	88.44
323.337	86.44
323.566	79.44
323.795	91.44
324.024	95.44
324.253	83.44
324.482	82.44
324.71	81.44
324.939	77.44
325.168	82.44
325.397	87.44
325.626	92.44
325.855	73.44
326.084	85.44
326.313	85.44
326.542	67.44
326.77	79.44
326.999	80.44
327.228	79.44
327.457	86.44
327.686	75.44
327.914	91.44
328.143	78.44
328.372	85.44
328.6	69.44
328.829	68.44
329.058	74.44
329.287	85.44
329.515	77.44
329.744	80.44
329.972	73.44
330.201	94.44
330.43	76.44
330.658	96.44
330.887	95.44
331.115	85.44
331.344	84.44
331.572	93.44
331.801	82.44
332.03	72.44
332.258	80.44
332.486	84.44
332.715	84.44
332.943	81.44
333.172	78.44
333.4	66.44
333.629	87.44
333.857	88.44
334.085	79.44
334.314	90.44
334.542	83.44
334.771	86.44
334.999	82.44
335.227	87.44
335.455	77.44
335.684	78.44
335.912	86.44
336.14	74.44
336.369	86.44
336.597	77.44
336.825	76.44
337.053	84.44
337.281	65.44
337.51	81.44
337.738	76.44
337.966	87.44
338.194	83.44
338.422	88.44
338.65	79.44
338.878	75.44
339.106	93.44
339.334	74.44
339.562	68.44
339.79	89.44
340.018	76.44
340.246	76.44
340.474	86.44
340.702	84.44
340.93	85.44
341.158	91.44
341.386	71.44
341.614	77.44
341.842	95.44
342.07	78.44
342.298	81.44
342.526	72.44
342.754	81.44
342.981	92.44
343.209	76.44
343.437	99.44
343.665	72.44
343.893	85.44
344.12	85.44
344.348	92.44
344.576	95.44
344.804	99.44
345.031	105.44
345.259	91.44
345.487	75.44
345.714	85.44
345.942	76.44
346.17	95.44
346.397	96.44
346.625	87.44
346.853	87.44
347.08	78.44
347.308	84.44
347.535	89.44
347.763	91.44
347.99	79.44
348.218	82.44
348.445	89.44
348.673	79.44
348.9	81.44
349.128	91.44
349.355	87.44
349.583	78.44
349.81	74.44
350.037	87.44
350.265	85.44
350.492	92.44
350.72	84.44
350.947	73.44
351.174	73.44
351.402	71.44
351.629	80.44
351.856	77.44
352.083	73.44
352.311	79.44
352.538	71.44
352.765	77.44
352.992	84.44
353.22	82.44
353.447	91.44
353.674	74.44
353.901	85.44
354.128	67.44
354.355	83.44
354.583	77.44
354.81	81.44
355.037	84.44
355.264	92.44
355.491	73.44
355.718	75.44
355.945	81.44
356.172	67.44
356.399	73.44
356.626	91.44
356.853	85.44
357.08	76.44
357.307	76.44
357.534	78.44
357.761	99.44
357.988	87.44
358.215	88.44
358.441	82.44
358.668	73.44
358.895	80.44
359.122	83.44
359.349	79.44
359.576	79.44
359.802	84.44
360.029	79.44
360.256	82.44
360.483	83.44
360.709	81.44
360.936	79.44
361.163	79.44
361.39	82.44
361.616	81.44
361.843	82.44
362.07	85.44
362.296	85.44
362.523	81.44
362.749	84.44
362.976	79.44
363.203	81.44
363.429	92.44
363.656	83.44
363.882	87.44
364.109	89.44
364.335	74.44
364.562	79.44
364.788	87.44
365.015	87.44
365.241	84.44
365.468	84.44
365.694	81.44
365.92	92.44
366.147	91.44
366.373	74.44
366.599	87.44
366.826	88.44
367.052	85.44
367.278	71.44
367.505	83.44
367.731	83.44
367.957	76.44
368.184	93.44
368.41	99.44
368.636	78.44
368.862	64.44
369.089	81.44
369.315	71.44
369.541	85.44
369.767	80.44
369.993	73.44
370.219	72.44
370.445	73.44
370.672	84.44
370.898	80.44
371.124	79.44
371.35	92.44
371.576	96.44
371.802	92.44
372.028	79.44
372.254	76.44
372.48	87.44
372.706	77.44
372.932	89.44
373.158	69.44
373.384	85.44
373.61	78.44
373.835	83.44
374.061	100.44
374.287	59.44
374.513	73.44
374.739	77.44
374.965	79.44
375.191	89.44
375.416	87.44
375.642	81.44
375.868	88.44
376.094	77.44
376.319	69.44
376.545	74.44
376.771	90.44
376.997	78.44
377.222	92.44
377.448	82.44
377.674	71.44
377.899	83.44
378.125	78.44
378.35	77.44
378.576	89.44
378.802	80.44
379.027	88.44
379.253	77.44
379.478	87.44
379.704	71.44
379.929	68.44
380.155	95.44
380.38	96.44
380.606	85.44
380.831	91.44
381.057	79.44
381.282	81.44
381.507	78.44
381.733	78.44
381.958	63.44
382.184	69.44
382.409	95.44
382.634	87.44
382.86	75.44
383.085	77.44
383.31	84.44
383.535	84.44
383.761	75.44
383.986	86.44
384.211	81.44
384.436	70.44
384.662	83.44
384.887	79.44
385.112	92.44
385.337	94.44
385.562	100.44
385.787	83.44
386.013	64.44
386.238	76.44
386.463	88.44
386.688	79.44
386.913	83.44
387.138	78.44
387.363	65.44
387.588	96.44
387.813	83.44
388.038	79.44
388.263	73.44
388.488	88.44
388.713	77.44
388.938	78.44
389.163	91.44
389.387	78.44
389.612	83.44
389.837	83.44
390.062	87.44
390.287	78.44
390.512	82.44
390.736	74.44
390.961	74.44
391.186	74.44
391.411	74.44
391.636	84.44
391.86	87.44
392.085	78.44
392.31	66.44
392.534	78.44
392.759	76.44
392.984	84.44
393.208	83.44
393.433	77.44
393.658	77.44
393.882	88.44
394.107	85.44
394.331	93.44
394.556	96.44
394.78	83.44
395.005	77.44
395.229	82.44
395.454	82.44
395.678	83.44
395.903	81.44
396.127	87.44
396.352	89.44
396.576	73.44
396.801	72.44
397.025	89.44
397.249	83.44
397.474	78.44
397.698	76.44
397.922	71.44
398.147	88.44
398.371	91.44
398.595	81.44
398.82	79.44
399.044	89.44
399.268	76.44
399.492	79.44
399.717	73.44
399.941	84.44
400.165	77.44
400.389	85.44
400.613	67.44
400.837	84.44
401.062	80.44
401.286	71.44
401.51	67.44
401.734	81.44
401.958	88.44
402.182	91.44
402.406	85.44
402.63	86.44
402.854	64.44
403.078	75.44
403.302	59.44
403.526	70.44
403.75	87.44
403.974	72.44
404.198	86.44
404.422	83.44
404.645	91.44
404.869	88.44
405.093	84.44
405.317	76.44
405.541	85.44
405.765	108.44
405.988	103.44
406.212	79.44
406.436	94.44
406.66	79.44
406.883	79.44
407.107	77.44
407.331	73.44
407.555	87.44
407.778	85.44
408.002	71.44
408.226	85.44
408.449	72.44
408.673	80.44
408.896	91.44
409.12	78.44
409.344	78.44
409.567	86.44
409.791	76.44
410.014	84.44
410.238	83.44
410.461	70.44
410.685	73.44
410.908	81.44
411.132	77.44
411.355	91.44
411.578	90.44
411.802	74.44
412.025	85.44
412.249	75.44
412.472	82.44
412.695	72.44
412.919	74.44
413.142	84.44
413.365	77.44
413.589	83.44
413.812	69.44
414.035	74.44
414.258	75.44
414.482	86.44
414.705	71.44
414.928	93.44
415.151	76.44
415.374	86.44
415.597	79.44
415.821	71.44
416.044	77.44
416.267	74.44
416.49	69.44
416.713	71.44
416.936	79.44
417.159	87.44
417.382	84.44
417.605	78.44
417.828	78.44
418.051	64.44
418.274	86.44
418.497	83.44
418.72	78.44
418.943	85.44
419.166	79.44
419.389	83.44
419.611	93.44
419.834	82.44
420.057	66.44
420.28	80.44
420.503	75.44
420.726	75.44
420.948	81.44
421.171	78.44
421.394	70.44
421.617	74.44
421.839	83.44
422.062	65.44
422.285	83.44
422.507	91.44
422.73	89.44
422.953	83.44
423.175	74.44
423.398	81.44
423.621	86.44
423.843	75.44
424.066	72.44
424.288	81.44
424.511	79.44
424.733	79.44
424.956	60.44
425.178	81.44
425.401	75.44
425.623	86.44
425.846	80.44
426.068	83.44
426.291	80.44
426.513	92.44
426.735	76.44
426.958	99.44
427.18	70.44
427.402	82.44
427.625	77.44
427.847	74.44
428.069	66.44
428.292	76.44
428.514	70.44
428.736	73.44
428.958	86.44
429.181	87.44
429.403	91.44
429.625	63.44
429.847	75.44
430.069	85.44
430.292	81.44
430.514	70.44
430.736	102.44
430.958	81.44
431.18	71.44
431.402	78.44
431.624	75.44
431.846	77.44
432.068	83.44
432.29	80.44
432.512	78.44
432.734	76.44
432.956	68.44
433.178	73.44
433.4	66.44
433.622	88.44
433.844	77.44
434.066	72.44
434.287	83.44
434.509	93.44
434.731	84.44
434.953	88.44
435.175	81.44
435.397	82.44
435.618	64.44
435.84	74.44
436.062	90.44
436.284	72.44
436.505	87.44
436.727	67.44
436.949	76.44
437.17	78.44
437.392	81.44
437.614	69.44
437.835	88.44
438.057	91.44
438.278	81.44
438.5	78.44
438.721	76.44
438.943	91.44
439.165	94.44
439.386	91.44
439.608	86.44
439.829	89.44
440.05	83.44
440.272	80.44
440.493	80.44
440.715	90.44
440.936	74.44
441.158	87.44
441.379	81.44
441.6	82.44
441.822	82.44
442.043	84.44
442.264	80.44
442.486	85.44
442.707	86.44
442.928	82.44
443.149	77.44
443.371	82.44
443.592	78.44
443.813	70.44
444.034	82.44
444.255	91.44
444.476	71.44
444.698	64.44
444.919	72.44
445.14	165.44
445.361	124.44
445.582	93.44
445.803	82.44
446.024	81.44
446.245	73.44
446.466	87.44
446.687	75.44
446.908	68.44
447.129	85.44
447.35	75.44
447.571	88.44
447.792	72.44
448.013	78.44
448.234	83.44
448.455	81.44
448.675	101.44
448.896	81.44
449.117	78.44
449.338	81.44
449.559	72.44
449.779	73.44
450	80.44
450.221	58.44
450.442	81.44
450.662	79.44
450.883	87.44
451.104	85.44
451.324	86.44
451.545	90.44
451.766	94.44
451.986	79.44
452.207	88.44
452.428	66.44
452.648	97.44
452.869	65.44
453.089	80.44
453.31	76.44
453.53	76.44
453.751	79.44
453.971	72.44
454.192	85.44
454.412	75.44
454.633	69.44
454.853	81.44
455.073	79.44
455.294	78.44
455.514	71.44
455.734	70.44
455.955	94.44
456.175	80.44
456.395	85.44
456.616	74.44
456.836	85.44
457.056	79.44
457.276	83.44
457.497	74.44
457.717	58.44
457.937	80.44
458.157	81.44
458.377	88.44
458.598	77.44
458.818	73.44
459.038	81.44
459.258	83.44
459.478	79.44
459.698	94.44
459.918	73.44
460.138	79.44
460.358	75.44
460.578	86.44
460.798	82.44
461.018	81.44
461.238	77.44
461.458	74.44
461.678	80.44
461.898	89.44
462.118	89.44
462.338	89.44
462.558	93.44
462.777	75.44
462.997	83.44
463.217	90.44
463.437	89.44
463.657	79.44
463.876	88.44
464.096	72.44
464.316	71.44
464.536	79.44
464.755	92.44
464.975	84.44
465.195	83.44
465.414	83.44
465.634	80.44
465.854	72.44
466.073	93.44
466.293	86.44
466.512	83.44
466.732	81.44
466.951	81.44
467.171	68.44
467.391	81.44
467.61	79.44
467.829	88.44
468.049	79.44
468.268	82.44
468.488	68.44
468.707	78.44
468.927	88.44
469.146	74.44
469.365	76.44
469.585	77.44
469.804	87.44
470.023	82.44
470.243	90.44
470.462	75.44
470.681	78.44
470.901	69.44
471.12	77.44
471.339	76.44
471.558	74.44
471.777	80.44
471.997	74.44
472.216	81.44
472.435	73.44
472.654	80.44
472.873	90.44
473.092	78.44
473.311	91.44
473.53	83.44
473.749	69.44
473.968	73.44
474.187	73.44
474.406	78.44
474.625	85.44
474.844	73.44
475.063	81.44
475.282	62.44
475.501	80.44
475.72	80.44
475.939	74.44
476.158	71.44
476.377	77.44
476.596	81.44
476.814	79.44
477.033	71.44
477.252	78.44
477.471	89.44
477.69	77.44
477.908	80.44
478.127	81.44
478.346	83.44
478.564	77.44
478.783	84.44
479.002	79.44
479.22	82.44
479.439	86.44
479.658	69.44
479.876	79.44
480.095	73.44
480.313	83.44
480.532	65.44
480.751	71.44
480.969	73.44
481.188	85.44
481.406	87.44
481.624	88.44
481.843	85.44
482.061	73.44
482.28	83.44
482.498	63.44
482.717	69.44
482.935	80.44
483.153	71.44
483.372	91.44
483.59	77.44
483.808	81.44
484.027	78.44
484.245	84.44
484.463	85.44
484.681	103.44
484.9	83.44
485.118	73.44
485.336	97.44
485.554	90.44
485.772	73.44
485.99	94.44
486.209	92.44
486.427	70.44
486.645	84.44
486.863	84.44
487.081	89.44
487.299	81.44
487.517	77.44
487.735	85.44
487.953	82.44
488.171	85.44
488.389	89.44
488.607	68.44
488.825	75.44
489.043	85.44
489.261	78.44
489.479	79.44
489.696	84.44
489.914	74.44
490.132	86.44
490.35	93.44
490.568	79.44
490.786	87.44
491.003	91.44
491.221	82.44
491.439	77.44
491.657	70.44
491.874	87.44
492.092	78.44
492.31	80.44
492.527	91.44
492.745	76.44
492.963	80.44
493.18	80.44
493.398	86.44
493.615	80.44
493.833	81.44
494.05	82.44
494.268	87.44
494.485	86.44
494.703	59.44
494.92	86.44
495.138	86.44
495.355	91.44
495.573	68.44
495.79	86.44
496.008	62.44
496.225	90.44
496.442	66.44
496.66	72.44
496.877	84.44
497.094	89.44
497.312	79.44
497.529	89.44
497.746	90.44
497.963	57.44
498.181	72.44
498.398	85.44
498.615	67.44
498.832	79.44
499.049	93.44
499.267	86.44
499.484	81.44
499.701	87.44
499.918	87.44
500.135	75.44
500.352	93.44
500.569	88.44
500.786	88.44
501.003	69.44
501.22	88.44
501.437	86.44
501.654	87.44
501.871	69.44
502.088	89.44
502.305	71.44
502.522	73.44
502.739	84.44
502.956	73.44
503.172	83.44
503.389	88.44
503.606	77.44
503.823	76.44
504.04	91.44
504.256	77.44
504.473	80.44
504.69	82.44
504.907	75.44
505.123	80.44
505.34	71.44
505.557	85.44
505.773	86.44
505.99	81.44
506.207	101.44
506.423	69.44
506.64	81.44
506.856	74.44
507.073	86.44
507.289	76.44
507.506	79.44
507.722	74.44
507.939	82.44
508.155	74.44
508.372	64.44
508.588	98.44
508.805	85.44
509.021	87.44
509.238	84.44
509.454	74.44
509.67	85.44
509.887	60.44
510.103	68.44
510.319	87.44
510.536	91.44
510.752	69.44
510.968	79.44
511.184	81.44
511.401	82.44
511.617	93.44
511.833	81.44
512.049	74.44
512.265	77.44
512.481	87.44
512.698	80.44
512.914	79.44
513.13	89.44
513.346	74.44
513.562	77.44
513.778	88.44
513.994	72.44
514.21	70.44
514.426	84.44
514.642	69.44
514.858	68.44
515.074	88.44
515.29	79.44
515.506	75.44
515.721	88.44
515.937	87.44
516.153	76.44
516.369	72.44
516.585	79.44
516.801	85.44
517.016	68.44
517.232	82.44
517.448	80.44
517.664	84.44
517.879	72.44
518.095	84.44
518.311	74.44
518.527	80.44
518.742	72.44
518.958	69.44
519.173	86.44
519.389	88.44
519.605	76.44
519.82	70.44
520.036	82.44
520.251	81.44
520.467	76.44
520.682	88.44
520.898	77.44
521.113	85.44
521.329	79.44
521.544	84.44
521.76	88.44
521.975	98.44
522.19	76.44
522.406	72.44
522.621	80.44
522.836	75.44
523.052	77.44
523.267	80.44
523.482	83.44
523.698	83.44
523.913	78.44
524.128	79.44
524.343	81.44
524.559	96.44
524.774	81.44
524.989	85.44
525.204	84.44
525.419	98.44
525.634	80.44
525.849	71.44
526.064	84.44
526.28	89.44
526.495	78.44
526.71	81.44
526.925	88.44
527.14	83.44
527.355	75.44
527.57	86.44
527.785	92.44
527.999	79.44
528.214	78.44
528.429	89.44
528.644	84.44
528.859	79.44
529.074	75.44
529.289	69.44
529.503	80.44
529.718	86.44
529.933	71.44
530.148	87.44
530.363	86.44
530.577	78.44
530.792	82.44
531.007	88.44
531.221	83.44
531.436	67.44
531.651	67.44
531.865	92.44
532.08	92.44
532.295	87.44
532.509	77.44
532.724	80.44
532.938	80.44
533.153	77.44
533.367	80.44
533.582	77.44
533.796	86.44
534.011	68.44
534.225	90.44
534.44	73.44
534.654	83.44
534.868	92.44
535.083	73.44
535.297	75.44
535.511	73.44
535.726	74.44
535.94	72.44
536.154	94.44
536.369	74.44
536.583	82.44
536.797	88.44
537.011	94.44
537.225	63.44
537.44	81.44
537.654	90.44
537.868	77.44
538.082	107.44
538.296	74.44
538.51	85.44
538.724	72.44
538.938	95.44
539.153	79.44
539.367	76.44
539.581	71.44
539.795	73.44
540.009	90.44
540.222	80.44
540.436	95.44
540.65	80.44
540.864	76.44
541.078	76.44
541.292	84.44
541.506	79.44
541.72	61.44
541.934	87.44
542.147	75.44
542.361	62.44
542.575	83.44
542.789	88.44
543.002	91.44
543.216	79.44
543.43	69.44
543.644	86.44
543.857	93.44
544.071	83.44
544.285	92.44
544.498	84.44
544.712	77.44
544.925	77.44
545.139	67.44
545.352	73.44
545.566	75.44
545.779	74.44
545.993	78.44
546.206	86.44
546.42	74.44
546.633	80.44
546.847	80.44
547.06	73.44
547.274	79.44
547.487	91.44
547.7	94.44
547.914	84.44
548.127	85.44
548.34	64.44
548.554	76.44
548.767	84.44
548.98	73.44
549.193	85.44
549.407	80.44
549.62	70.44
549.833	64.44
550.046	78.44
550.259	92.44
550.473	91.44
550.686	82.44
550.899	79.44
551.112	75.44
551.325	85.44
551.538	71.44
551.751	86.44
551.964	66.44
552.177	85.44
552.39	71.44
552.603	84.44
552.816	79.44
553.029	80.44
553.242	84.44
553.455	82.44
553.667	86.44
553.88	74.44
554.093	75.44
554.306	81.44
554.519	79.44
554.732	84.44
554.944	81.44
555.157	80.44
555.37	92.44
555.583	83.44
555.795	89.44
556.008	84.44
556.221	74.44
556.433	88.44
556.646	77.44
556.859	71.44
557.071	77.44
557.284	87.44
557.496	85.44
557.709	82.44
557.921	94.44
558.134	91.44
558.346	91.44
558.559	97.44
558.771	68.44
558.984	76.44
559.196	81.44
559.409	83.44
559.621	85.44
559.833	73.44
560.046	78.44
560.258	74.44
560.47	83.44
560.683	70.44
560.895	79.44
561.107	69.44
561.32	83.44
561.532	77.44
561.744	81.44
561.956	78.44
562.168	90.44
562.381	82.44
562.593	79.44
562.805	87.44
563.017	81.44
563.229	70.44
563.441	86.44
563.653	89.44
563.865	86.44
564.077	80.44
564.289	78.44
564.501	72.44
564.713	84.44
564.925	81.44
565.137	91.44
565.349	90.44
565.561	84.44
565.773	100.44
565.985	89.44
566.197	72.44
566.408	79.44
566.62	80.44
566.832	77.44
567.044	83.44
567.255	82.44
567.467	85.44
567.679	88.44
567.891	97.44
568.102	75.44
568.314	86.44
568.526	66.44
568.737	92.44
568.949	92.44
569.161	80.44
569.372	73.44
569.584	88.44
569.795	84.44
570.007	94.44
570.218	77.44
570.43	96.44
570.641	85.44
570.853	84.44
571.064	91.44
571.276	83.44
571.487	81.44
571.698	89.44
571.91	86.44
572.121	77.44
572.333	81.44
572.544	82.44
572.755	81.44
572.966	81.44
573.178	84.44
573.389	73.44
573.6	79.44
573.811	87.44
574.023	88.44
574.234	84.44
574.445	84.44
574.656	64.44
574.867	84.44
575.078	86.44
575.289	84.44
575.501	90.44
575.712	71.44
575.923	85.44
576.134	91.44
576.345	74.44
576.556	79.44
576.767	80.44
576.978	85.44
577.188	79.44
577.399	80.44
577.61	79.44
577.821	76.44
578.032	88.44
578.243	76.44
578.454	78.44
578.665	85.44
578.875	83.44
579.086	81.44
579.297	78.44
579.508	70.44
579.718	86.44
579.929	79.44
580.14	74.44
580.35	77.44
580.561	86.44
580.772	83.44
580.982	87.44
581.193	79.44
581.403	87.44
581.614	80.44
581.825	93.44
582.035	82.44
582.246	80.44
582.456	73.44
582.667	101.44
582.877	106.44
583.087	97.44
583.298	80.44
583.508	92.44
583.719	73.44
583.929	72.44
584.139	72.44
584.35	81.44
584.56	95.44
584.77	77.44
584.981	95.44
585.191	78.44
585.401	69.44
585.611	91.44
585.821	82.44
586.032	83.44
586.242	78.44
586.452	85.44
586.662	88.44
586.872	88.44
587.082	84.44
587.292	97.44
587.502	82.44
587.713	76.44
587.923	83.44
588.133	73.44
588.343	79.44
588.553	84.44
588.762	80.44
588.972	91.44
589.182	119.44
589.392	98.44
589.602	89.44
589.812	108.44
590.022	92.44
590.232	78.44
590.441	88.44
590.651	81.44
590.861	86.44
591.071	97.44
591.281	90.44
591.49	89.44
591.7	83.44
591.91	98.44
592.119	86.44
592.329	83.44
592.539	90.44
592.748	72.44
592.958	79.44
593.167	77.44
593.377	72.44
593.587	71.44
593.796	85.44
594.006	80.44
594.215	88.44
594.424	94.44
594.634	83.44
594.843	88.44
595.053	84.44
595.262	90.44
595.472	87.44
595.681	81.44
595.89	93.44
596.1	93.44
596.309	92.44
596.518	76.44
596.727	78.44
596.937	78.44
597.146	81.44
597.355	87.44
597.564	74.44
597.774	78.44
597.983	77.44
598.192	79.44
598.401	83.44
598.61	82.44
598.819	89.44
599.028	74.44
599.237	96.44
599.446	91.44
599.655	73.44
599.864	84.44
600.073	92.44
600.282	88.44
600.491	76.44
600.7	90.44
600.909	83.44
601.118	91.44
601.327	79.44
601.536	82.44
601.745	74.44
601.953	93.44
602.162	81.44
602.371	87.44
602.58	88.44
602.789	81.44
602.997	92.44
603.206	75.44
603.415	78.44
603.623	74.44
603.832	74.44
604.041	86.44
604.249	81.44
604.458	79.44
604.666	71.44
604.875	91.44
605.084	92.44
605.292	71.44
605.501	93.44
605.709	87.44
605.918	93.44
606.126	77.44
606.334	68.44
606.543	80.44
606.751	86.44
606.96	77.44
607.168	79.44
607.376	69.44
607.585	87.44
607.793	72.44
608.001	89.44
608.21	87.44
608.418	81.44
608.626	79.44
608.834	87.44
609.043	63.44
609.251	87.44
609.459	70.44
609.667	89.44
609.875	87.44
610.083	69.44
610.291	67.44
610.499	91.44
610.707	96.44
610.916	76.44
611.124	76.44
611.332	86.44
611.54	86.44
611.748	82.44
611.955	83.44
612.163	71.44
612.371	86.44
612.579	85.44
612.787	87.44
612.995	77.44
613.203	74.44
613.411	87.44
613.618	89.44
613.826	86.44
614.034	80.44
614.242	72.44
614.449	83.44
614.657	86.44
614.865	90.44
615.072	90.44
615.28	94.44
615.488	78.44
615.695	81.44
615.903	69.44
616.111	71.44
616.318	100.44
616.526	87.44
616.733	88.44
616.941	71.44
617.148	92.44
617.356	98.44
617.563	84.44
617.771	85.44
617.978	87.44
618.185	68.44
618.393	73.44
618.6	87.44
618.807	78.44
619.015	68.44
619.222	87.44
619.429	81.44
619.637	86.44
619.844	87.44
620.051	81.44
620.258	74.44
620.466	89.44
620.673	79.44
620.88	94.44
621.087	83.44
621.294	71.44
621.501	79.44
621.708	77.44
621.915	77.44
622.122	82.44
622.329	73.44
622.536	92.44
622.743	90.44
622.95	64.44
623.157	88.44
623.364	88.44
623.571	73.44
623.778	84.44
623.985	89.44
624.192	87.44
624.399	90.44
624.606	95.44
624.812	77.44
625.019	83.44
625.226	81.44
625.433	85.44
625.639	86.44
625.846	77.44
626.053	82.44
626.259	87.44
626.466	86.44
626.673	94.44
626.879	63.44
627.086	81.44
627.293	84.44
627.499	86.44
627.706	88.44
627.912	78.44
628.119	77.44
628.325	99.44
628.532	93.44
628.738	86.44
628.945	72.44
629.151	85.44
629.357	68.44
629.564	72.44
629.77	65.44
629.976	85.44
630.183	75.44
630.389	59.44
630.595	84.44
630.802	79.44
631.008	84.44
631.214	91.44
631.42	77.44
631.627	87.44
631.833	81.44
632.039	73.44
632.245	73.44
632.451	73.44
632.657	70.44
632.863	89.44
633.069	90.44
633.275	81.44
633.481	83.44
633.688	91.44
633.893	84.44
634.099	87.44
634.305	70.44
634.511	83.44
634.717	83.44
634.923	71.44
635.129	77.44
635.335	78.44
635.541	79.44
635.747	95.44
635.952	84.44
636.158	91.44
636.364	88.44
636.57	83.44
636.775	73.44
636.981	75.44
637.187	91.44
637.392	83.44
637.598	80.44
637.804	88.44
638.009	88.44
638.215	89.44
638.421	84.44
638.626	73.44
638.832	84.44
639.037	80.44
639.243	85.44
639.448	95.44
639.654	98.44
639.859	73.44
640.065	97.44
640.27	79.44
640.475	87.44
640.681	90.44
640.886	75.44
641.091	64.44
641.297	79.44
641.502	81.44
641.707	72.44
641.913	83.44
642.118	90.44
642.323	83.44
642.528	91.44
642.733	86.44
642.939	85.44
643.144	80.44
643.349	85.44
643.554	99.44
643.759	79.44
643.964	98.44
644.169	102.44
644.374	73.44
644.579	84.44
644.784	85.44
644.989	78.44
645.194	76.44
645.399	83.44
645.604	78.44
645.809	84.44
646.014	88.44
646.219	76.44
646.423	65.44
646.628	77.44
646.833	85.44
647.038	98.44
647.243	83.44
647.447	76.44
647.652	96.44
647.857	72.44
648.062	94.44
648.266	73.44
648.471	76.44
648.676	85.44
648.88	75.44
649.085	82.44
649.289	95.44
649.494	88.44
649.698	76.44
649.903	85.44
650.107	77.44
650.312	83.44
650.516	76.44
650.721	89.44
650.925	79.44
651.13	81.44
651.334	81.44
651.539	76.44
651.743	91.44
651.947	86.44
652.152	69.44
652.356	81.44
652.56	89.44
652.764	74.44
652.969	64.44
653.173	88.44
653.377	71.44
653.581	82.44
653.785	78.44
653.99	69.44
654.194	78.44
654.398	88.44
654.602	88.44
654.806	85.44
655.01	82.44
655.214	89.44
655.418	88.44
655.622	81.44
655.826	88.44
656.03	83.44
656.234	66.44
656.438	77.44
656.642	79.44
656.846	73.44
657.049	88.44
657.253	87.44
657.457	93.44
657.661	77.44
657.865	76.44
658.068	70.44
658.272	83.44
658.476	85.44
658.68	83.44
658.883	83.44
659.087	81.44
659.291	92.44
659.494	87.44
659.698	80.44
659.901	74.44
660.105	75.44
660.309	84.44
660.512	88.44
660.716	80.44
660.919	80.44
661.123	77.44
661.326	84.44
661.53	62.44
661.733	96.44
661.936	87.44
662.14	75.44
662.343	75.44
662.546	90.44
662.75	92.44
662.953	81.44
663.156	91.44
663.36	77.44
663.563	81.44
663.766	76.44
663.969	74.44
664.173	85.44
664.376	85.44
664.579	87.44
664.782	91.44
664.985	86.44
665.188	79.44
665.391	79.44
665.594	80.44
665.797	74.44
666	81.44
666.203	85.44
666.406	76.44
666.609	80.44
666.812	77.44
667.015	78.44
667.218	94.44
667.421	88.44
667.624	88.44
667.827	95.44
668.03	72.44
668.232	83.44
668.435	79.44
668.638	78.44
668.841	82.44
669.043	77.44
669.246	65.44
669.449	84.44
669.651	93.44
669.854	81.44
670.057	79.44
670.259	63.44
670.462	74.44
670.665	81.44
670.867	80.44
671.07	64.44
671.272	70.44
671.475	79.44
671.677	74.44
671.88	86.44
672.082	78.44
672.284	90.44
672.487	83.44
672.689	74.44
672.892	66.44
