Data from Lead_25_2_HRD10591_00042.txt Node
Date: Fri Feb 20 11:02:10 EST 2026
User: Yrep
Spectrometer: HR+D1059
Trigger mode: 1
Integration Time (sec): 1.000000E-1
Scans to average: 1
Electric dark correction enabled: true
Nonlinearity correction enabled: false
Boxcar width: 0
XAxis mode: Wavelengths
Number of Pixels in Spectrum: 2048
>>>>>Begin Spectral Data<<<<<
223.165	-18.25
223.4	-18.25
223.635	-18.25
223.869	-7.25
224.104	-21.25
224.338	-8.25
224.573	-11.25
224.808	-17.25
225.042	-9.25
225.277	-12.25
225.511	-4.25
225.746	4.75
225.98	7.75
226.215	21.75
226.449	16.75
226.683	7.75
226.918	5.75
227.152	44.75
227.387	46.75
227.621	39.75
227.856	48.75
228.09	34.75
228.324	40.75
228.559	56.75
228.793	46.75
229.027	62.75
229.262	51.75
229.496	66.75
229.73	63.75
229.964	63.75
230.199	84.75
230.433	68.75
230.667	90.75
230.901	73.75
231.136	83.75
231.37	64.75
231.604	81.75
231.838	80.75
232.072	83.75
232.306	76.75
232.541	91.75
232.775	78.75
233.009	83.75
233.243	86.75
233.477	69.75
233.711	74.75
233.945	66.75
234.179	81.75
234.413	82.75
234.647	79.75
234.881	82.75
235.115	85.75
235.349	65.75
235.583	74.75
235.817	86.75
236.051	68.75
236.285	66.75
236.519	57.75
236.753	79.75
236.987	73.75
237.221	78.75
237.455	73.75
237.689	70.75
237.922	80.75
238.156	67.75
238.39	75.75
238.624	78.75
238.858	61.75
239.091	77.75
239.325	74.75
239.559	72.75
239.793	69.75
240.027	80.75
240.26	80.75
240.494	82.75
240.728	70.75
240.961	84.75
241.195	70.75
241.429	76.75
241.662	61.75
241.896	72.75
242.13	66.75
242.363	63.75
242.597	75.75
242.83	73.75
243.064	70.75
243.298	75.75
243.531	77.75
243.765	67.75
243.998	65.75
244.232	79.75
244.465	67.75
244.699	65.75
244.932	77.75
245.166	79.75
245.399	83.75
245.633	82.75
245.866	85.75
246.099	64.75
246.333	83.75
246.566	71.75
246.8	84.75
247.033	77.75
247.266	76.75
247.5	76.75
247.733	63.75
247.966	69.75
248.2	88.75
248.433	84.75
248.666	73.75
248.899	82.75
249.133	85.75
249.366	74.75
249.599	68.75
249.832	77.75
250.066	63.75
250.299	70.75
250.532	69.75
250.765	69.75
250.998	66.75
251.231	85.75
251.465	64.75
251.698	81.75
251.931	79.75
252.164	85.75
252.397	94.75
252.63	77.75
252.863	70.75
253.096	78.75
253.329	71.75
253.562	67.75
253.795	76.75
254.028	78.75
254.261	85.75
254.494	73.75
254.727	76.75
254.96	70.75
255.193	81.75
255.426	77.75
255.659	80.75
255.892	86.75
256.124	64.75
256.357	79.75
256.59	73.75
256.823	60.75
257.056	76.75
257.289	74.75
257.521	77.75
257.754	83.75
257.987	72.75
258.22	85.75
258.452	72.75
258.685	68.75
258.918	87.75
259.151	79.75
259.383	83.75
259.616	83.75
259.849	57.75
260.081	65.75
260.314	64.75
260.547	77.75
260.779	75.75
261.012	76.75
261.244	81.75
261.477	80.75
261.71	83.75
261.942	73.75
262.175	91.75
262.407	80.75
262.64	73.75
262.872	74.75
263.105	80.75
263.337	82.75
263.57	70.75
263.802	82.75
264.035	89.75
264.267	72.75
264.499	73.75
264.732	76.75
264.964	82.75
265.197	78.75
265.429	80.75
265.661	88.75
265.894	86.75
266.126	83.75
266.358	93.75
266.591	78.75
266.823	79.75
267.055	81.75
267.287	83.75
267.52	85.75
267.752	62.75
267.984	66.75
268.216	73.75
268.448	73.75
268.681	78.75
268.913	71.75
269.145	78.75
269.377	71.75
269.609	84.75
269.841	80.75
270.073	77.75
270.306	94.75
270.538	80.75
270.77	85.75
271.002	86.75
271.234	97.75
271.466	83.75
271.698	76.75
271.93	78.75
272.162	85.75
272.394	82.75
272.626	81.75
272.858	78.75
273.09	75.75
273.322	86.75
273.553	76.75
273.785	91.75
274.017	89.75
274.249	74.75
274.481	79.75
274.713	72.75
274.945	80.75
275.176	76.75
275.408	86.75
275.64	78.75
275.872	81.75
276.104	85.75
276.335	81.75
276.567	61.75
276.799	86.75
277.031	76.75
277.262	75.75
277.494	75.75
277.726	78.75
277.957	86.75
278.189	87.75
278.421	74.75
278.652	76.75
278.884	87.75
279.115	77.75
279.347	83.75
279.579	81.75
279.81	86.75
280.042	85.75
280.273	78.75
280.505	85.75
280.736	78.75
280.968	78.75
281.199	90.75
281.431	83.75
281.662	81.75
281.894	80.75
282.125	61.75
282.356	78.75
282.588	78.75
282.819	81.75
283.051	85.75
283.282	89.75
283.513	68.75
283.745	82.75
283.976	78.75
284.207	75.75
284.439	80.75
284.67	90.75
284.901	80.75
285.132	86.75
285.364	81.75
285.595	79.75
285.826	87.75
286.057	90.75
286.288	76.75
286.52	77.75
286.751	80.75
286.982	68.75
287.213	92.75
287.444	80.75
287.675	83.75
287.906	91.75
288.138	78.75
288.369	88.75
288.6	89.75
288.831	77.75
289.062	82.75
289.293	95.75
289.524	92.75
289.755	87.75
289.986	92.75
290.217	81.75
290.448	79.75
290.679	91.75
290.91	92.75
291.141	77.75
291.371	77.75
291.602	89.75
291.833	86.75
292.064	89.75
292.295	81.75
292.526	80.75
292.757	78.75
292.987	74.75
293.218	85.75
293.449	56.75
293.68	86.75
293.91	72.75
294.141	92.75
294.372	75.75
294.603	85.75
294.833	86.75
295.064	75.75
295.295	84.75
295.525	74.75
295.756	91.75
295.987	81.75
296.217	83.75
296.448	83.75
296.679	77.75
296.909	78.75
297.14	85.75
297.37	82.75
297.601	84.75
297.831	74.75
298.062	90.75
298.292	76.75
298.523	75.75
298.753	81.75
298.984	78.75
299.214	85.75
299.445	70.75
299.675	66.75
299.905	79.75
300.136	78.75
300.366	82.75
300.597	91.75
300.827	85.75
301.057	86.75
301.288	75.75
301.518	73.75
301.748	68.75
301.979	86.75
302.209	84.75
302.439	74.75
302.669	83.75
302.9	75.75
303.13	78.75
303.36	77.75
303.59	88.75
303.82	75.75
304.051	69.75
304.281	79.75
304.511	86.75
304.741	78.75
304.971	86.75
305.201	80.75
305.431	87.75
305.661	84.75
305.891	84.75
306.121	83.75
306.352	91.75
306.582	81.75
306.812	80.75
307.042	85.75
307.272	84.75
307.502	66.75
307.731	96.75
307.961	78.75
308.191	71.75
308.421	88.75
308.651	80.75
308.881	78.75
309.111	76.75
309.341	81.75
309.571	84.75
309.8	84.75
310.03	100.75
310.26	81.75
310.49	80.75
310.72	80.75
310.949	78.75
311.179	88.75
311.409	70.75
311.639	78.75
311.868	70.75
312.098	77.75
312.328	100.75
312.557	87.75
312.787	76.75
313.017	87.75
313.246	84.75
313.476	94.75
313.706	76.75
313.935	82.75
314.165	81.75
314.394	83.75
314.624	68.75
314.853	92.75
315.083	90.75
315.312	85.75
315.542	77.75
315.771	82.75
316.001	84.75
316.23	74.75
316.46	87.75
316.689	81.75
316.919	94.75
317.148	85.75
317.377	76.75
317.607	84.75
317.836	66.75
318.065	85.75
318.295	80.75
318.524	76.75
318.753	79.75
318.983	85.75
319.212	80.75
319.441	85.75
319.67	74.75
319.9	68.75
320.129	92.75
320.358	81.75
320.587	86.75
320.816	86.75
321.046	82.75
321.275	87.75
321.504	85.75
321.733	89.75
321.962	87.75
322.191	66.75
322.42	54.75
322.649	69.75
322.878	75.75
323.108	76.75
323.337	72.75
323.566	81.75
323.795	75.75
324.024	80.75
324.253	77.75
324.482	74.75
324.71	90.75
324.939	79.75
325.168	82.75
325.397	78.75
325.626	85.75
325.855	76.75
326.084	86.75
326.313	78.75
326.542	66.75
326.77	93.75
326.999	81.75
327.228	73.75
327.457	83.75
327.686	82.75
327.914	76.75
328.143	75.75
328.372	82.75
328.6	64.75
328.829	88.75
329.058	73.75
329.287	66.75
329.515	77.75
329.744	80.75
329.972	76.75
330.201	77.75
330.43	78.75
330.658	81.75
330.887	82.75
331.115	83.75
331.344	80.75
331.572	93.75
331.801	69.75
332.03	65.75
332.258	82.75
332.486	88.75
332.715	83.75
332.943	94.75
333.172	67.75
333.4	74.75
333.629	86.75
333.857	96.75
334.085	82.75
334.314	90.75
334.542	82.75
334.771	71.75
334.999	88.75
335.227	85.75
335.455	88.75
335.684	97.75
335.912	76.75
336.14	88.75
336.369	68.75
336.597	79.75
336.825	71.75
337.053	86.75
337.281	76.75
337.51	92.75
337.738	79.75
337.966	83.75
338.194	75.75
338.422	81.75
338.65	79.75
338.878	82.75
339.106	84.75
339.334	77.75
339.562	79.75
339.79	67.75
340.018	76.75
340.246	78.75
340.474	70.75
340.702	86.75
340.93	74.75
341.158	80.75
341.386	77.75
341.614	78.75
341.842	85.75
342.07	78.75
342.298	84.75
342.526	89.75
342.754	74.75
342.981	75.75
343.209	85.75
343.437	96.75
343.665	95.75
343.893	72.75
344.12	78.75
344.348	80.75
344.576	88.75
344.804	94.75
345.031	74.75
345.259	78.75
345.487	89.75
345.714	74.75
345.942	70.75
346.17	84.75
346.397	90.75
346.625	84.75
346.853	72.75
347.08	76.75
347.308	80.75
347.535	81.75
347.763	72.75
347.99	78.75
348.218	75.75
348.445	72.75
348.673	75.75
348.9	74.75
349.128	75.75
349.355	88.75
349.583	91.75
349.81	73.75
350.037	77.75
350.265	102.75
350.492	82.75
350.72	84.75
350.947	76.75
351.174	78.75
351.402	79.75
351.629	84.75
351.856	85.75
352.083	91.75
352.311	67.75
352.538	80.75
352.765	75.75
352.992	85.75
353.22	78.75
353.447	90.75
353.674	61.75
353.901	89.75
354.128	76.75
354.355	88.75
354.583	80.75
354.81	82.75
355.037	74.75
355.264	88.75
355.491	79.75
355.718	85.75
355.945	81.75
356.172	77.75
356.399	71.75
356.626	85.75
356.853	90.75
357.08	99.75
357.307	84.75
357.534	87.75
357.761	82.75
357.988	84.75
358.215	79.75
358.441	81.75
358.668	77.75
358.895	93.75
359.122	79.75
359.349	83.75
359.576	74.75
359.802	62.75
360.029	58.75
360.256	91.75
360.483	69.75
360.709	70.75
360.936	60.75
361.163	77.75
361.39	88.75
361.616	62.75
361.843	74.75
362.07	82.75
362.296	85.75
362.523	89.75
362.749	90.75
362.976	82.75
363.203	90.75
363.429	80.75
363.656	69.75
363.882	71.75
364.109	88.75
364.335	90.75
364.562	73.75
364.788	95.75
365.015	74.75
365.241	64.75
365.468	86.75
365.694	65.75
365.92	62.75
366.147	83.75
366.373	66.75
366.599	76.75
366.826	84.75
367.052	78.75
367.278	100.75
367.505	76.75
367.731	77.75
367.957	82.75
368.184	79.75
368.41	86.75
368.636	74.75
368.862	80.75
369.089	94.75
369.315	97.75
369.541	94.75
369.767	74.75
369.993	74.75
370.219	82.75
370.445	68.75
370.672	60.75
370.898	73.75
371.124	76.75
371.35	70.75
371.576	80.75
371.802	79.75
372.028	85.75
372.254	83.75
372.48	84.75
372.706	81.75
372.932	70.75
373.158	88.75
373.384	80.75
373.61	86.75
373.835	68.75
374.061	80.75
374.287	68.75
374.513	87.75
374.739	82.75
374.965	68.75
375.191	81.75
375.416	83.75
375.642	81.75
375.868	81.75
376.094	91.75
376.319	82.75
376.545	75.75
376.771	86.75
376.997	112.75
377.222	85.75
377.448	68.75
377.674	96.75
377.899	78.75
378.125	84.75
378.35	81.75
378.576	70.75
378.802	74.75
379.027	77.75
379.253	89.75
379.478	78.75
379.704	82.75
379.929	84.75
380.155	83.75
380.38	88.75
380.606	80.75
380.831	82.75
381.057	85.75
381.282	76.75
381.507	84.75
381.733	89.75
381.958	72.75
382.184	74.75
382.409	65.75
382.634	80.75
382.86	77.75
383.085	78.75
383.31	85.75
383.535	83.75
383.761	62.75
383.986	81.75
384.211	92.75
384.436	53.75
384.662	81.75
384.887	77.75
385.112	71.75
385.337	83.75
385.562	78.75
385.787	78.75
386.013	76.75
386.238	80.75
386.463	81.75
386.688	75.75
386.913	86.75
387.138	76.75
387.363	76.75
387.588	81.75
387.813	84.75
388.038	82.75
388.263	89.75
388.488	88.75
388.713	73.75
388.938	89.75
389.163	71.75
389.387	82.75
389.612	70.75
389.837	77.75
390.062	77.75
390.287	82.75
390.512	77.75
390.736	70.75
390.961	83.75
391.186	94.75
391.411	94.75
391.636	81.75
391.86	82.75
392.085	101.75
392.31	86.75
392.534	90.75
392.759	74.75
392.984	87.75
393.208	80.75
393.433	86.75
393.658	93.75
393.882	84.75
394.107	75.75
394.331	96.75
394.556	90.75
394.78	80.75
395.005	80.75
395.229	77.75
395.454	88.75
395.678	78.75
395.903	68.75
396.127	84.75
396.352	85.75
396.576	90.75
396.801	70.75
397.025	83.75
397.249	79.75
397.474	94.75
397.698	97.75
397.922	92.75
398.147	84.75
398.371	82.75
398.595	68.75
398.82	89.75
399.044	91.75
399.268	88.75
399.492	72.75
399.717	80.75
399.941	72.75
400.165	87.75
400.389	82.75
400.613	68.75
400.837	82.75
401.062	70.75
401.286	80.75
401.51	69.75
401.734	92.75
401.958	80.75
402.182	76.75
402.406	83.75
402.63	86.75
402.854	80.75
403.078	91.75
403.302	91.75
403.526	65.75
403.75	88.75
403.974	80.75
404.198	70.75
404.422	92.75
404.645	76.75
404.869	77.75
405.093	79.75
405.317	72.75
405.541	71.75
405.765	90.75
405.988	94.75
406.212	77.75
406.436	65.75
406.66	88.75
406.883	77.75
407.107	75.75
407.331	87.75
407.555	90.75
407.778	68.75
408.002	70.75
408.226	69.75
408.449	58.75
408.673	78.75
408.896	74.75
409.12	92.75
409.344	73.75
409.567	80.75
409.791	80.75
410.014	78.75
410.238	74.75
410.461	75.75
410.685	74.75
410.908	57.75
411.132	77.75
411.355	77.75
411.578	68.75
411.802	70.75
412.025	76.75
412.249	95.75
412.472	78.75
412.695	66.75
412.919	76.75
413.142	75.75
413.365	74.75
413.589	74.75
413.812	78.75
414.035	76.75
414.258	70.75
414.482	75.75
414.705	73.75
414.928	89.75
415.151	85.75
415.374	69.75
415.597	79.75
415.821	80.75
416.044	58.75
416.267	80.75
416.49	88.75
416.713	70.75
416.936	78.75
417.159	85.75
417.382	83.75
417.605	85.75
417.828	79.75
418.051	78.75
418.274	52.75
418.497	78.75
418.72	90.75
418.943	81.75
419.166	86.75
419.389	90.75
419.611	71.75
419.834	91.75
420.057	80.75
420.28	76.75
420.503	82.75
420.726	65.75
420.948	93.75
421.171	68.75
421.394	62.75
421.617	77.75
421.839	81.75
422.062	75.75
422.285	83.75
422.507	81.75
422.73	80.75
422.953	77.75
423.175	77.75
423.398	64.75
423.621	66.75
423.843	85.75
424.066	71.75
424.288	93.75
424.511	84.75
424.733	80.75
424.956	69.75
425.178	68.75
425.401	68.75
425.623	66.75
425.846	87.75
426.068	94.75
426.291	96.75
426.513	93.75
426.735	85.75
426.958	73.75
427.18	86.75
427.402	60.75
427.625	61.75
427.847	90.75
428.069	77.75
428.292	83.75
428.514	95.75
428.736	83.75
428.958	65.75
429.181	88.75
429.403	72.75
429.625	81.75
429.847	75.75
430.069	83.75
430.292	76.75
430.514	82.75
430.736	72.75
430.958	75.75
431.18	74.75
431.402	80.75
431.624	80.75
431.846	87.75
432.068	76.75
432.29	88.75
432.512	78.75
432.734	79.75
432.956	82.75
433.178	70.75
433.4	88.75
433.622	78.75
433.844	79.75
434.066	78.75
434.287	74.75
434.509	62.75
434.731	91.75
434.953	69.75
435.175	76.75
435.397	80.75
435.618	83.75
435.84	76.75
436.062	75.75
436.284	80.75
436.505	81.75
436.727	70.75
436.949	65.75
437.17	80.75
437.392	72.75
437.614	77.75
437.835	68.75
438.057	81.75
438.278	96.75
438.5	83.75
438.721	82.75
438.943	78.75
439.165	82.75
439.386	84.75
439.608	64.75
439.829	80.75
440.05	86.75
440.272	73.75
440.493	81.75
440.715	70.75
440.936	78.75
441.158	87.75
441.379	77.75
441.6	70.75
441.822	84.75
442.043	76.75
442.264	84.75
442.486	63.75
442.707	69.75
442.928	68.75
443.149	69.75
443.371	78.75
443.592	73.75
443.813	74.75
444.034	77.75
444.255	80.75
444.476	62.75
444.698	70.75
444.919	77.75
445.14	148.75
445.361	108.75
445.582	80.75
445.803	74.75
446.024	64.75
446.245	60.75
446.466	85.75
446.687	74.75
446.908	75.75
447.129	76.75
447.35	70.75
447.571	78.75
447.792	77.75
448.013	66.75
448.234	81.75
448.455	72.75
448.675	84.75
448.896	86.75
449.117	78.75
449.338	71.75
449.559	91.75
449.779	73.75
450	80.75
450.221	83.75
450.442	74.75
450.662	74.75
450.883	74.75
451.104	70.75
451.324	81.75
451.545	60.75
451.766	91.75
451.986	77.75
452.207	79.75
452.428	76.75
452.648	76.75
452.869	73.75
453.089	74.75
453.31	89.75
453.53	88.75
453.751	87.75
453.971	75.75
454.192	85.75
454.412	78.75
454.633	78.75
454.853	91.75
455.073	69.75
455.294	72.75
455.514	77.75
455.734	74.75
455.955	81.75
456.175	81.75
456.395	66.75
456.616	74.75
456.836	87.75
457.056	72.75
457.276	72.75
457.497	79.75
457.717	61.75
457.937	75.75
458.157	84.75
458.377	68.75
458.598	76.75
458.818	71.75
459.038	71.75
459.258	83.75
459.478	80.75
459.698	79.75
459.918	82.75
460.138	85.75
460.358	71.75
460.578	78.75
460.798	72.75
461.018	70.75
461.238	80.75
461.458	90.75
461.678	71.75
461.898	72.75
462.118	82.75
462.338	85.75
462.558	67.75
462.777	85.75
462.997	79.75
463.217	69.75
463.437	75.75
463.657	76.75
463.876	70.75
464.096	78.75
464.316	75.75
464.536	83.75
464.755	73.75
464.975	80.75
465.195	70.75
465.414	70.75
465.634	78.75
465.854	67.75
466.073	87.75
466.293	74.75
466.512	70.75
466.732	82.75
466.951	96.75
467.171	75.75
467.391	78.75
467.61	72.75
467.829	77.75
468.049	75.75
468.268	76.75
468.488	85.75
468.707	70.75
468.927	85.75
469.146	82.75
469.365	68.75
469.585	66.75
469.804	78.75
470.023	82.75
470.243	91.75
470.462	91.75
470.681	99.75
470.901	77.75
471.12	75.75
471.339	78.75
471.558	105.75
471.777	68.75
471.997	74.75
472.216	70.75
472.435	74.75
472.654	80.75
472.873	77.75
473.092	80.75
473.311	76.75
473.53	81.75
473.749	79.75
473.968	84.75
474.187	77.75
474.406	66.75
474.625	73.75
474.844	78.75
475.063	87.75
475.282	81.75
475.501	74.75
475.72	102.75
475.939	74.75
476.158	78.75
476.377	88.75
476.596	82.75
476.814	86.75
477.033	77.75
477.252	85.75
477.471	77.75
477.69	73.75
477.908	82.75
478.127	67.75
478.346	68.75
478.564	70.75
478.783	85.75
479.002	79.75
479.22	92.75
479.439	83.75
479.658	80.75
479.876	76.75
480.095	75.75
480.313	85.75
480.532	78.75
480.751	82.75
480.969	83.75
481.188	92.75
481.406	71.75
481.624	66.75
481.843	65.75
482.061	79.75
482.28	80.75
482.498	68.75
482.717	85.75
482.935	74.75
483.153	91.75
483.372	81.75
483.59	78.75
483.808	76.75
484.027	83.75
484.245	80.75
484.463	74.75
484.681	74.75
484.9	81.75
485.118	91.75
485.336	76.75
485.554	70.75
485.772	88.75
485.99	83.75
486.209	80.75
486.427	70.75
486.645	78.75
486.863	91.75
487.081	85.75
487.299	86.75
487.517	94.75
487.735	77.75
487.953	90.75
488.171	75.75
488.389	78.75
488.607	76.75
488.825	69.75
489.043	68.75
489.261	80.75
489.479	74.75
489.696	84.75
489.914	77.75
490.132	90.75
490.35	76.75
490.568	88.75
490.786	90.75
491.003	93.75
491.221	89.75
491.439	81.75
491.657	88.75
491.874	77.75
492.092	84.75
492.31	86.75
492.527	64.75
492.745	73.75
492.963	66.75
493.18	77.75
493.398	84.75
493.615	84.75
493.833	89.75
494.05	82.75
494.268	84.75
494.485	81.75
494.703	82.75
494.92	87.75
495.138	77.75
495.355	93.75
495.573	76.75
495.79	78.75
496.008	85.75
496.225	86.75
496.442	73.75
496.66	105.75
496.877	74.75
497.094	81.75
497.312	81.75
497.529	88.75
497.746	75.75
497.963	82.75
498.181	69.75
498.398	90.75
498.615	68.75
498.832	83.75
499.049	68.75
499.267	77.75
499.484	80.75
499.701	75.75
499.918	74.75
500.135	76.75
500.352	72.75
500.569	77.75
500.786	95.75
501.003	90.75
501.22	79.75
501.437	74.75
501.654	91.75
501.871	81.75
502.088	76.75
502.305	67.75
502.522	85.75
502.739	84.75
502.956	82.75
503.172	91.75
503.389	79.75
503.606	86.75
503.823	89.75
504.04	88.75
504.256	84.75
504.473	90.75
504.69	82.75
504.907	90.75
505.123	81.75
505.34	71.75
505.557	82.75
505.773	71.75
505.99	69.75
506.207	66.75
506.423	77.75
506.64	82.75
506.856	90.75
507.073	80.75
507.289	79.75
507.506	90.75
507.722	67.75
507.939	84.75
508.155	77.75
508.372	84.75
508.588	72.75
508.805	87.75
509.021	81.75
509.238	80.75
509.454	76.75
509.67	84.75
509.887	73.75
510.103	81.75
510.319	74.75
510.536	83.75
510.752	82.75
510.968	81.75
511.184	83.75
511.401	74.75
511.617	77.75
511.833	74.75
512.049	78.75
512.265	69.75
512.481	83.75
512.698	93.75
512.914	84.75
513.13	78.75
513.346	84.75
513.562	77.75
513.778	85.75
513.994	87.75
514.21	76.75
514.426	80.75
514.642	73.75
514.858	80.75
515.074	86.75
515.29	74.75
515.506	70.75
515.721	89.75
515.937	73.75
516.153	78.75
516.369	68.75
516.585	85.75
516.801	89.75
517.016	89.75
517.232	75.75
517.448	67.75
517.664	72.75
517.879	76.75
518.095	84.75
518.311	86.75
518.527	87.75
518.742	70.75
518.958	67.75
519.173	84.75
519.389	85.75
519.605	78.75
519.82	82.75
520.036	81.75
520.251	78.75
520.467	84.75
520.682	79.75
520.898	69.75
521.113	83.75
521.329	62.75
521.544	88.75
521.76	68.75
521.975	77.75
522.19	88.75
522.406	80.75
522.621	76.75
522.836	74.75
523.052	93.75
523.267	70.75
523.482	84.75
523.698	81.75
523.913	87.75
524.128	92.75
524.343	93.75
524.559	86.75
524.774	78.75
524.989	84.75
525.204	78.75
525.419	72.75
525.634	74.75
525.849	81.75
526.064	77.75
526.28	82.75
526.495	80.75
526.71	78.75
526.925	76.75
527.14	64.75
527.355	76.75
527.57	88.75
527.785	87.75
527.999	72.75
528.214	86.75
528.429	90.75
528.644	76.75
528.859	82.75
529.074	83.75
529.289	76.75
529.503	83.75
529.718	77.75
529.933	87.75
530.148	82.75
530.363	85.75
530.577	78.75
530.792	78.75
531.007	80.75
531.221	88.75
531.436	68.75
531.651	68.75
531.865	69.75
532.08	71.75
532.295	81.75
532.509	83.75
532.724	71.75
532.938	78.75
533.153	70.75
533.367	82.75
533.582	81.75
533.796	76.75
534.011	86.75
534.225	76.75
534.44	81.75
534.654	72.75
534.868	69.75
535.083	76.75
535.297	85.75
535.511	74.75
535.726	78.75
535.94	79.75
536.154	89.75
536.369	73.75
536.583	62.75
536.797	79.75
537.011	76.75
537.225	73.75
537.44	70.75
537.654	84.75
537.868	83.75
538.082	76.75
538.296	88.75
538.51	93.75
538.724	73.75
538.938	75.75
539.153	84.75
539.367	78.75
539.581	82.75
539.795	81.75
540.009	82.75
540.222	71.75
540.436	80.75
540.65	76.75
540.864	74.75
541.078	80.75
541.292	93.75
541.506	60.75
541.72	81.75
541.934	91.75
542.147	60.75
542.361	75.75
542.575	67.75
542.789	80.75
543.002	81.75
543.216	96.75
543.43	73.75
543.644	91.75
543.857	86.75
544.071	76.75
544.285	83.75
544.498	77.75
544.712	80.75
544.925	89.75
545.139	77.75
545.352	83.75
545.566	77.75
545.779	73.75
545.993	77.75
546.206	76.75
546.42	78.75
546.633	88.75
546.847	82.75
547.06	85.75
547.274	84.75
547.487	78.75
547.7	80.75
547.914	84.75
548.127	71.75
548.34	79.75
548.554	76.75
548.767	86.75
548.98	72.75
549.193	79.75
549.407	82.75
549.62	74.75
549.833	99.75
550.046	73.75
550.259	76.75
550.473	74.75
550.686	78.75
550.899	77.75
551.112	82.75
551.325	78.75
551.538	72.75
551.751	77.75
551.964	82.75
552.177	79.75
552.39	78.75
552.603	89.75
552.816	87.75
553.029	80.75
553.242	80.75
553.455	86.75
553.667	80.75
553.88	79.75
554.093	76.75
554.306	88.75
554.519	73.75
554.732	72.75
554.944	86.75
555.157	89.75
555.37	95.75
555.583	94.75
555.795	86.75
556.008	80.75
556.221	81.75
556.433	78.75
556.646	76.75
556.859	76.75
557.071	77.75
557.284	84.75
557.496	86.75
557.709	85.75
557.921	86.75
558.134	73.75
558.346	64.75
558.559	71.75
558.771	83.75
558.984	76.75
559.196	92.75
559.409	78.75
559.621	75.75
559.833	92.75
560.046	85.75
560.258	81.75
560.47	86.75
560.683	78.75
560.895	79.75
561.107	88.75
561.32	85.75
561.532	84.75
561.744	93.75
561.956	84.75
562.168	60.75
562.381	87.75
562.593	75.75
562.805	87.75
563.017	84.75
563.229	72.75
563.441	75.75
563.653	78.75
563.865	80.75
564.077	67.75
564.289	91.75
564.501	77.75
564.713	79.75
564.925	81.75
565.137	81.75
565.349	76.75
565.561	78.75
565.773	85.75
565.985	73.75
566.197	84.75
566.408	66.75
566.62	80.75
566.832	75.75
567.044	91.75
567.255	88.75
567.467	70.75
567.679	81.75
567.891	80.75
568.102	91.75
568.314	77.75
568.526	80.75
568.737	95.75
568.949	74.75
569.161	73.75
569.372	83.75
569.584	74.75
569.795	91.75
570.007	85.75
570.218	85.75
570.43	79.75
570.641	79.75
570.853	70.75
571.064	72.75
571.276	82.75
571.487	77.75
571.698	83.75
571.91	86.75
572.121	83.75
572.333	88.75
572.544	86.75
572.755	78.75
572.966	82.75
573.178	95.75
573.389	86.75
573.6	86.75
573.811	76.75
574.023	73.75
574.234	84.75
574.445	88.75
574.656	76.75
574.867	66.75
575.078	82.75
575.289	85.75
575.501	84.75
575.712	81.75
575.923	78.75
576.134	74.75
576.345	66.75
576.556	68.75
576.767	86.75
576.978	92.75
577.188	79.75
577.399	79.75
577.61	78.75
577.821	89.75
578.032	77.75
578.243	87.75
578.454	78.75
578.665	74.75
578.875	79.75
579.086	71.75
579.297	79.75
579.508	75.75
579.718	84.75
579.929	86.75
580.14	82.75
580.35	77.75
580.561	85.75
580.772	99.75
580.982	77.75
581.193	75.75
581.403	74.75
581.614	67.75
581.825	85.75
582.035	93.75
582.246	85.75
582.456	80.75
582.667	70.75
582.877	81.75
583.087	88.75
583.298	76.75
583.508	68.75
583.719	79.75
583.929	69.75
584.139	78.75
584.35	88.75
584.56	88.75
584.77	70.75
584.981	85.75
585.191	84.75
585.401	74.75
585.611	97.75
585.821	84.75
586.032	78.75
586.242	85.75
586.452	84.75
586.662	81.75
586.872	86.75
587.082	81.75
587.292	69.75
587.502	88.75
587.713	76.75
587.923	89.75
588.133	88.75
588.343	79.75
588.553	81.75
588.762	85.75
588.972	86.75
589.182	104.75
589.392	101.75
589.602	98.75
589.812	119.75
590.022	89.75
590.232	82.75
590.441	90.75
590.651	84.75
590.861	76.75
591.071	74.75
591.281	90.75
591.49	74.75
591.7	85.75
591.91	84.75
592.119	76.75
592.329	76.75
592.539	76.75
592.748	89.75
592.958	72.75
593.167	81.75
593.377	80.75
593.587	90.75
593.796	85.75
594.006	83.75
594.215	86.75
594.424	88.75
594.634	76.75
594.843	96.75
595.053	69.75
595.262	77.75
595.472	76.75
595.681	72.75
595.89	74.75
596.1	81.75
596.309	65.75
596.518	70.75
596.727	70.75
596.937	85.75
597.146	75.75
597.355	72.75
597.564	73.75
597.774	69.75
597.983	85.75
598.192	90.75
598.401	74.75
598.61	78.75
598.819	81.75
599.028	96.75
599.237	83.75
599.446	73.75
599.655	70.75
599.864	76.75
600.073	81.75
600.282	94.75
600.491	88.75
600.7	91.75
600.909	82.75
601.118	74.75
601.327	88.75
601.536	87.75
601.745	83.75
601.953	76.75
602.162	78.75
602.371	94.75
602.58	81.75
602.789	82.75
602.997	82.75
603.206	79.75
603.415	90.75
603.623	80.75
603.832	63.75
604.041	81.75
604.249	95.75
604.458	86.75
604.666	89.75
604.875	87.75
605.084	77.75
605.292	88.75
605.501	78.75
605.709	78.75
605.918	80.75
606.126	84.75
606.334	88.75
606.543	75.75
606.751	84.75
606.96	68.75
607.168	61.75
607.376	81.75
607.585	84.75
607.793	76.75
608.001	71.75
608.21	84.75
608.418	80.75
608.626	79.75
608.834	97.75
609.043	80.75
609.251	85.75
609.459	89.75
609.667	78.75
609.875	85.75
610.083	71.75
610.291	80.75
610.499	82.75
610.707	80.75
610.916	70.75
611.124	73.75
611.332	86.75
611.54	71.75
611.748	82.75
611.955	80.75
612.163	75.75
612.371	86.75
612.579	81.75
612.787	78.75
612.995	76.75
613.203	90.75
613.411	80.75
613.618	84.75
613.826	83.75
614.034	72.75
614.242	76.75
614.449	90.75
614.657	67.75
614.865	78.75
615.072	89.75
615.28	81.75
615.488	81.75
615.695	79.75
615.903	71.75
616.111	76.75
616.318	75.75
616.526	77.75
616.733	69.75
616.941	77.75
617.148	70.75
617.356	83.75
617.563	81.75
617.771	85.75
617.978	94.75
618.185	90.75
618.393	86.75
618.6	67.75
618.807	78.75
619.015	81.75
619.222	93.75
619.429	72.75
619.637	65.75
619.844	94.75
620.051	75.75
620.258	87.75
620.466	87.75
620.673	83.75
620.88	72.75
621.087	75.75
621.294	82.75
621.501	83.75
621.708	82.75
621.915	90.75
622.122	80.75
622.329	80.75
622.536	84.75
622.743	92.75
622.95	77.75
623.157	72.75
623.364	62.75
623.571	77.75
623.778	80.75
623.985	80.75
624.192	76.75
624.399	88.75
624.606	86.75
624.812	78.75
625.019	75.75
625.226	108.75
625.433	82.75
625.639	79.75
625.846	71.75
626.053	84.75
626.259	91.75
626.466	86.75
626.673	96.75
626.879	76.75
627.086	76.75
627.293	89.75
627.499	70.75
627.706	79.75
627.912	76.75
628.119	88.75
628.325	102.75
628.532	97.75
628.738	71.75
628.945	84.75
629.151	93.75
629.357	77.75
629.564	84.75
629.77	82.75
629.976	74.75
630.183	75.75
630.389	92.75
630.595	83.75
630.802	71.75
631.008	76.75
631.214	69.75
631.42	86.75
631.627	90.75
631.833	81.75
632.039	99.75
632.245	84.75
632.451	92.75
632.657	87.75
632.863	96.75
633.069	79.75
633.275	80.75
633.481	82.75
633.688	74.75
633.893	79.75
634.099	92.75
634.305	91.75
634.511	80.75
634.717	84.75
634.923	71.75
635.129	88.75
635.335	80.75
635.541	83.75
635.747	81.75
635.952	85.75
636.158	88.75
636.364	86.75
636.57	96.75
636.775	84.75
636.981	80.75
637.187	91.75
637.392	97.75
637.598	70.75
637.804	92.75
638.009	74.75
638.215	70.75
638.421	82.75
638.626	73.75
638.832	83.75
639.037	79.75
639.243	76.75
639.448	80.75
639.654	80.75
639.859	82.75
640.065	77.75
640.27	85.75
640.475	92.75
640.681	93.75
640.886	80.75
641.091	84.75
641.297	86.75
641.502	98.75
641.707	96.75
641.913	78.75
642.118	78.75
642.323	85.75
642.528	90.75
642.733	89.75
642.939	81.75
643.144	93.75
643.349	85.75
643.554	93.75
643.759	71.75
643.964	70.75
644.169	83.75
644.374	80.75
644.579	95.75
644.784	72.75
644.989	82.75
645.194	81.75
645.399	70.75
645.604	80.75
645.809	92.75
646.014	72.75
646.219	94.75
646.423	74.75
646.628	84.75
646.833	78.75
647.038	79.75
647.243	84.75
647.447	75.75
647.652	87.75
647.857	62.75
648.062	92.75
648.266	78.75
648.471	74.75
648.676	85.75
648.88	76.75
649.085	75.75
649.289	77.75
649.494	81.75
649.698	70.75
649.903	86.75
650.107	73.75
650.312	84.75
650.516	90.75
650.721	91.75
650.925	79.75
651.13	81.75
651.334	90.75
651.539	71.75
651.743	80.75
651.947	76.75
652.152	90.75
652.356	88.75
652.56	74.75
652.764	73.75
652.969	84.75
653.173	89.75
653.377	68.75
653.581	75.75
653.785	75.75
653.99	76.75
654.194	85.75
654.398	78.75
654.602	85.75
654.806	84.75
655.01	83.75
655.214	62.75
655.418	82.75
655.622	83.75
655.826	84.75
656.03	64.75
656.234	80.75
656.438	85.75
656.642	87.75
656.846	78.75
657.049	86.75
657.253	82.75
657.457	94.75
657.661	78.75
657.865	82.75
658.068	78.75
658.272	75.75
658.476	89.75
658.68	72.75
658.883	81.75
659.087	88.75
659.291	72.75
659.494	83.75
659.698	94.75
659.901	85.75
660.105	72.75
660.309	84.75
660.512	79.75
660.716	79.75
660.919	86.75
661.123	111.75
661.326	74.75
661.53	67.75
661.733	78.75
661.936	92.75
662.14	87.75
662.343	69.75
662.546	80.75
662.75	82.75
662.953	85.75
663.156	95.75
663.36	94.75
663.563	91.75
663.766	84.75
663.969	74.75
664.173	76.75
664.376	77.75
664.579	75.75
664.782	60.75
664.985	86.75
665.188	79.75
665.391	83.75
665.594	78.75
665.797	96.75
666	79.75
666.203	76.75
666.406	90.75
666.609	81.75
666.812	60.75
667.015	59.75
667.218	66.75
667.421	85.75
667.624	83.75
667.827	80.75
668.03	67.75
668.232	87.75
668.435	93.75
668.638	77.75
668.841	90.75
669.043	73.75
669.246	65.75
669.449	89.75
669.651	78.75
669.854	74.75
670.057	82.75
670.259	80.75
670.462	74.75
670.665	80.75
670.867	71.75
671.07	76.75
671.272	88.75
671.475	76.75
671.677	85.75
671.88	82.75
672.082	72.75
672.284	80.75
672.487	78.75
672.689	81.75
672.892	79.75
