Data from Lead_25_2_HRD10591_00051.txt Node
Date: Fri Feb 20 11:02:13 EST 2026
User: Yrep
Spectrometer: HR+D1059
Trigger mode: 1
Integration Time (sec): 1.000000E-1
Scans to average: 1
Electric dark correction enabled: true
Nonlinearity correction enabled: false
Boxcar width: 0
XAxis mode: Wavelengths
Number of Pixels in Spectrum: 2048
>>>>>Begin Spectral Data<<<<<
223.165	-10.5
223.4	-10.5
223.635	-10.5
223.869	-18.5
224.104	-26.5
224.338	-24.5
224.573	-12.5
224.808	-20.5
225.042	-0.5
225.277	-2.5
225.511	-11.5
225.746	9.5
225.98	18.5
226.215	6.5
226.449	33.5
226.683	3.5
226.918	30.5
227.152	25.5
227.387	37.5
227.621	46.5
227.856	52.5
228.09	37.5
228.324	52.5
228.559	60.5
228.793	60.5
229.027	45.5
229.262	68.5
229.496	78.5
229.73	74.5
229.964	61.5
230.199	79.5
230.433	78.5
230.667	82.5
230.901	78.5
231.136	71.5
231.37	78.5
231.604	73.5
231.838	75.5
232.072	86.5
232.306	71.5
232.541	72.5
232.775	84.5
233.009	72.5
233.243	85.5
233.477	78.5
233.711	93.5
233.945	78.5
234.179	91.5
234.413	78.5
234.647	69.5
234.881	82.5
235.115	78.5
235.349	79.5
235.583	72.5
235.817	77.5
236.051	63.5
236.285	82.5
236.519	76.5
236.753	73.5
236.987	74.5
237.221	84.5
237.455	90.5
237.689	67.5
237.922	77.5
238.156	72.5
238.39	74.5
238.624	67.5
238.858	91.5
239.091	86.5
239.325	84.5
239.559	68.5
239.793	64.5
240.027	68.5
240.26	83.5
240.494	83.5
240.728	78.5
240.961	73.5
241.195	52.5
241.429	74.5
241.662	82.5
241.896	60.5
242.13	63.5
242.363	74.5
242.597	82.5
242.83	79.5
243.064	78.5
243.298	80.5
243.531	75.5
243.765	68.5
243.998	82.5
244.232	75.5
244.465	84.5
244.699	65.5
244.932	84.5
245.166	75.5
245.399	70.5
245.633	70.5
245.866	87.5
246.099	86.5
246.333	91.5
246.566	81.5
246.8	70.5
247.033	74.5
247.266	79.5
247.5	82.5
247.733	85.5
247.966	70.5
248.2	78.5
248.433	82.5
248.666	78.5
248.899	76.5
249.133	73.5
249.366	88.5
249.599	75.5
249.832	60.5
250.066	78.5
250.299	87.5
250.532	83.5
250.765	91.5
250.998	88.5
251.231	69.5
251.465	80.5
251.698	90.5
251.931	88.5
252.164	85.5
252.397	78.5
252.63	67.5
252.863	72.5
253.096	85.5
253.329	84.5
253.562	81.5
253.795	79.5
254.028	55.5
254.261	86.5
254.494	70.5
254.727	80.5
254.96	74.5
255.193	79.5
255.426	78.5
255.659	81.5
255.892	86.5
256.124	78.5
256.357	77.5
256.59	87.5
256.823	88.5
257.056	85.5
257.289	86.5
257.521	90.5
257.754	82.5
257.987	82.5
258.22	84.5
258.452	79.5
258.685	92.5
258.918	83.5
259.151	80.5
259.383	71.5
259.616	87.5
259.849	72.5
260.081	88.5
260.314	78.5
260.547	78.5
260.779	79.5
261.012	71.5
261.244	83.5
261.477	84.5
261.71	98.5
261.942	86.5
262.175	100.5
262.407	85.5
262.64	84.5
262.872	80.5
263.105	103.5
263.337	89.5
263.57	89.5
263.802	81.5
264.035	87.5
264.267	76.5
264.499	87.5
264.732	80.5
264.964	90.5
265.197	81.5
265.429	90.5
265.661	96.5
265.894	87.5
266.126	91.5
266.358	78.5
266.591	93.5
266.823	75.5
267.055	73.5
267.287	82.5
267.52	94.5
267.752	76.5
267.984	92.5
268.216	90.5
268.448	94.5
268.681	99.5
268.913	84.5
269.145	97.5
269.377	96.5
269.609	73.5
269.841	84.5
270.073	81.5
270.306	88.5
270.538	91.5
270.77	76.5
271.002	71.5
271.234	90.5
271.466	82.5
271.698	88.5
271.93	91.5
272.162	87.5
272.394	87.5
272.626	88.5
272.858	81.5
273.09	88.5
273.322	91.5
273.553	84.5
273.785	77.5
274.017	91.5
274.249	85.5
274.481	91.5
274.713	78.5
274.945	58.5
275.176	74.5
275.408	83.5
275.64	76.5
275.872	82.5
276.104	91.5
276.335	85.5
276.567	99.5
276.799	90.5
277.031	75.5
277.262	84.5
277.494	77.5
277.726	85.5
277.957	87.5
278.189	94.5
278.421	98.5
278.652	71.5
278.884	79.5
279.115	80.5
279.347	88.5
279.579	95.5
279.81	94.5
280.042	92.5
280.273	86.5
280.505	86.5
280.736	87.5
280.968	77.5
281.199	84.5
281.431	84.5
281.662	85.5
281.894	83.5
282.125	92.5
282.356	80.5
282.588	90.5
282.819	78.5
283.051	76.5
283.282	83.5
283.513	98.5
283.745	102.5
283.976	69.5
284.207	91.5
284.439	90.5
284.67	81.5
284.901	91.5
285.132	86.5
285.364	78.5
285.595	99.5
285.826	66.5
286.057	86.5
286.288	78.5
286.52	97.5
286.751	104.5
286.982	111.5
287.213	87.5
287.444	85.5
287.675	92.5
287.906	94.5
288.138	81.5
288.369	87.5
288.6	90.5
288.831	74.5
289.062	96.5
289.293	94.5
289.524	87.5
289.755	88.5
289.986	91.5
290.217	92.5
290.448	85.5
290.679	84.5
290.91	96.5
291.141	90.5
291.371	82.5
291.602	101.5
291.833	89.5
292.064	93.5
292.295	111.5
292.526	94.5
292.757	82.5
292.987	84.5
293.218	85.5
293.449	76.5
293.68	82.5
293.91	86.5
294.141	92.5
294.372	86.5
294.603	83.5
294.833	77.5
295.064	80.5
295.295	78.5
295.525	81.5
295.756	98.5
295.987	93.5
296.217	74.5
296.448	108.5
296.679	86.5
296.909	102.5
297.14	93.5
297.37	88.5
297.601	93.5
297.831	83.5
298.062	75.5
298.292	84.5
298.523	91.5
298.753	84.5
298.984	104.5
299.214	100.5
299.445	86.5
299.675	81.5
299.905	100.5
300.136	86.5
300.366	82.5
300.597	94.5
300.827	90.5
301.057	87.5
301.288	82.5
301.518	76.5
301.748	80.5
301.979	108.5
302.209	80.5
302.439	78.5
302.669	94.5
302.9	88.5
303.13	86.5
303.36	113.5
303.59	79.5
303.82	86.5
304.051	88.5
304.281	81.5
304.511	96.5
304.741	87.5
304.971	86.5
305.201	82.5
305.431	96.5
305.661	91.5
305.891	90.5
306.121	97.5
306.352	104.5
306.582	98.5
306.812	93.5
307.042	84.5
307.272	91.5
307.502	82.5
307.731	72.5
307.961	92.5
308.191	95.5
308.421	97.5
308.651	86.5
308.881	94.5
309.111	72.5
309.341	98.5
309.571	83.5
309.8	72.5
310.03	98.5
310.26	97.5
310.49	87.5
310.72	92.5
310.949	76.5
311.179	85.5
311.409	76.5
311.639	87.5
311.868	100.5
312.098	90.5
312.328	103.5
312.557	88.5
312.787	100.5
313.017	88.5
313.246	94.5
313.476	87.5
313.706	92.5
313.935	98.5
314.165	98.5
314.394	92.5
314.624	102.5
314.853	91.5
315.083	80.5
315.312	87.5
315.542	90.5
315.771	95.5
316.001	78.5
316.23	90.5
316.46	79.5
316.689	110.5
316.919	98.5
317.148	87.5
317.377	94.5
317.607	98.5
317.836	80.5
318.065	99.5
318.295	94.5
318.524	92.5
318.753	90.5
318.983	86.5
319.212	83.5
319.441	87.5
319.67	74.5
319.9	89.5
320.129	99.5
320.358	83.5
320.587	85.5
320.816	102.5
321.046	96.5
321.275	90.5
321.504	91.5
321.733	80.5
321.962	94.5
322.191	83.5
322.42	80.5
322.649	88.5
322.878	85.5
323.108	107.5
323.337	100.5
323.566	80.5
323.795	80.5
324.024	94.5
324.253	91.5
324.482	105.5
324.71	85.5
324.939	105.5
325.168	96.5
325.397	82.5
325.626	85.5
325.855	95.5
326.084	78.5
326.313	94.5
326.542	88.5
326.77	98.5
326.999	87.5
327.228	108.5
327.457	89.5
327.686	84.5
327.914	97.5
328.143	102.5
328.372	90.5
328.6	86.5
328.829	98.5
329.058	92.5
329.287	101.5
329.515	89.5
329.744	94.5
329.972	90.5
330.201	96.5
330.43	100.5
330.658	85.5
330.887	72.5
331.115	96.5
331.344	85.5
331.572	102.5
331.801	84.5
332.03	88.5
332.258	91.5
332.486	83.5
332.715	93.5
332.943	92.5
333.172	85.5
333.4	96.5
333.629	98.5
333.857	87.5
334.085	96.5
334.314	88.5
334.542	91.5
334.771	90.5
334.999	81.5
335.227	93.5
335.455	102.5
335.684	96.5
335.912	98.5
336.14	96.5
336.369	78.5
336.597	82.5
336.825	106.5
337.053	89.5
337.281	91.5
337.51	90.5
337.738	94.5
337.966	91.5
338.194	92.5
338.422	95.5
338.65	95.5
338.878	90.5
339.106	99.5
339.334	97.5
339.562	103.5
339.79	97.5
340.018	87.5
340.246	96.5
340.474	96.5
340.702	77.5
340.93	71.5
341.158	86.5
341.386	100.5
341.614	88.5
341.842	102.5
342.07	88.5
342.298	87.5
342.526	92.5
342.754	90.5
342.981	100.5
343.209	89.5
343.437	98.5
343.665	85.5
343.893	104.5
344.12	98.5
344.348	100.5
344.576	92.5
344.804	85.5
345.031	88.5
345.259	106.5
345.487	91.5
345.714	84.5
345.942	90.5
346.17	93.5
346.397	93.5
346.625	85.5
346.853	95.5
347.08	80.5
347.308	95.5
347.535	79.5
347.763	95.5
347.99	97.5
348.218	83.5
348.445	90.5
348.673	86.5
348.9	99.5
349.128	90.5
349.355	80.5
349.583	85.5
349.81	75.5
350.037	94.5
350.265	90.5
350.492	88.5
350.72	83.5
350.947	100.5
351.174	100.5
351.402	91.5
351.629	100.5
351.856	85.5
352.083	93.5
352.311	100.5
352.538	90.5
352.765	69.5
352.992	95.5
353.22	96.5
353.447	82.5
353.674	86.5
353.901	81.5
354.128	86.5
354.355	82.5
354.583	91.5
354.81	84.5
355.037	94.5
355.264	98.5
355.491	92.5
355.718	93.5
355.945	106.5
356.172	107.5
356.399	87.5
356.626	80.5
356.853	86.5
357.08	90.5
357.307	90.5
357.534	100.5
357.761	93.5
357.988	96.5
358.215	86.5
358.441	101.5
358.668	93.5
358.895	100.5
359.122	87.5
359.349	79.5
359.576	81.5
359.802	90.5
360.029	82.5
360.256	80.5
360.483	82.5
360.709	82.5
360.936	99.5
361.163	111.5
361.39	98.5
361.616	94.5
361.843	85.5
362.07	92.5
362.296	77.5
362.523	95.5
362.749	91.5
362.976	87.5
363.203	95.5
363.429	91.5
363.656	99.5
363.882	93.5
364.109	93.5
364.335	107.5
364.562	86.5
364.788	95.5
365.015	88.5
365.241	96.5
365.468	90.5
365.694	80.5
365.92	88.5
366.147	91.5
366.373	86.5
366.599	88.5
366.826	95.5
367.052	107.5
367.278	112.5
367.505	94.5
367.731	109.5
367.957	108.5
368.184	107.5
368.41	106.5
368.636	108.5
368.862	96.5
369.089	81.5
369.315	81.5
369.541	82.5
369.767	102.5
369.993	106.5
370.219	90.5
370.445	75.5
370.672	84.5
370.898	80.5
371.124	78.5
371.35	96.5
371.576	86.5
371.802	91.5
372.028	86.5
372.254	100.5
372.48	90.5
372.706	95.5
372.932	95.5
373.158	93.5
373.384	97.5
373.61	96.5
373.835	102.5
374.061	90.5
374.287	88.5
374.513	83.5
374.739	102.5
374.965	87.5
375.191	97.5
375.416	94.5
375.642	106.5
375.868	95.5
376.094	96.5
376.319	93.5
376.545	103.5
376.771	81.5
376.997	78.5
377.222	93.5
377.448	99.5
377.674	106.5
377.899	98.5
378.125	98.5
378.35	108.5
378.576	86.5
378.802	108.5
379.027	93.5
379.253	78.5
379.478	94.5
379.704	99.5
379.929	94.5
380.155	95.5
380.38	82.5
380.606	98.5
380.831	95.5
381.057	91.5
381.282	110.5
381.507	98.5
381.733	88.5
381.958	78.5
382.184	102.5
382.409	95.5
382.634	97.5
382.86	104.5
383.085	101.5
383.31	97.5
383.535	79.5
383.761	91.5
383.986	90.5
384.211	86.5
384.436	87.5
384.662	88.5
384.887	94.5
385.112	76.5
385.337	104.5
385.562	88.5
385.787	90.5
386.013	95.5
386.238	85.5
386.463	92.5
386.688	110.5
386.913	110.5
387.138	86.5
387.363	99.5
387.588	85.5
387.813	100.5
388.038	98.5
388.263	92.5
388.488	82.5
388.713	84.5
388.938	106.5
389.163	88.5
389.387	99.5
389.612	91.5
389.837	91.5
390.062	100.5
390.287	107.5
390.512	96.5
390.736	98.5
390.961	97.5
391.186	99.5
391.411	98.5
391.636	84.5
391.86	92.5
392.085	94.5
392.31	95.5
392.534	94.5
392.759	92.5
392.984	86.5
393.208	97.5
393.433	100.5
393.658	107.5
393.882	98.5
394.107	98.5
394.331	98.5
394.556	93.5
394.78	94.5
395.005	89.5
395.229	92.5
395.454	89.5
395.678	96.5
395.903	85.5
396.127	94.5
396.352	92.5
396.576	108.5
396.801	89.5
397.025	94.5
397.249	95.5
397.474	96.5
397.698	83.5
397.922	98.5
398.147	108.5
398.371	99.5
398.595	110.5
398.82	93.5
399.044	94.5
399.268	117.5
399.492	115.5
399.717	103.5
399.941	114.5
400.165	110.5
400.389	90.5
400.613	95.5
400.837	100.5
401.062	112.5
401.286	98.5
401.51	95.5
401.734	92.5
401.958	110.5
402.182	101.5
402.406	81.5
402.63	97.5
402.854	90.5
403.078	92.5
403.302	96.5
403.526	102.5
403.75	101.5
403.974	98.5
404.198	114.5
404.422	115.5
404.645	104.5
404.869	93.5
405.093	106.5
405.317	95.5
405.541	103.5
405.765	101.5
405.988	110.5
406.212	122.5
406.436	107.5
406.66	96.5
406.883	87.5
407.107	96.5
407.331	106.5
407.555	110.5
407.778	107.5
408.002	100.5
408.226	106.5
408.449	87.5
408.673	96.5
408.896	103.5
409.12	119.5
409.344	103.5
409.567	110.5
409.791	99.5
410.014	101.5
410.238	107.5
410.461	100.5
410.685	103.5
410.908	96.5
411.132	99.5
411.355	111.5
411.578	120.5
411.802	95.5
412.025	88.5
412.249	103.5
412.472	92.5
412.695	91.5
412.919	98.5
413.142	95.5
413.365	98.5
413.589	102.5
413.812	92.5
414.035	91.5
414.258	114.5
414.482	95.5
414.705	112.5
414.928	96.5
415.151	98.5
415.374	94.5
415.597	102.5
415.821	106.5
416.044	91.5
416.267	90.5
416.49	105.5
416.713	94.5
416.936	103.5
417.159	95.5
417.382	93.5
417.605	91.5
417.828	101.5
418.051	109.5
418.274	98.5
418.497	80.5
418.72	95.5
418.943	93.5
419.166	109.5
419.389	98.5
419.611	97.5
419.834	95.5
420.057	114.5
420.28	110.5
420.503	102.5
420.726	101.5
420.948	102.5
421.171	94.5
421.394	95.5
421.617	101.5
421.839	98.5
422.062	94.5
422.285	106.5
422.507	106.5
422.73	110.5
422.953	91.5
423.175	103.5
423.398	100.5
423.621	115.5
423.843	98.5
424.066	94.5
424.288	102.5
424.511	82.5
424.733	103.5
424.956	90.5
425.178	92.5
425.401	109.5
425.623	104.5
425.846	88.5
426.068	104.5
426.291	107.5
426.513	95.5
426.735	88.5
426.958	102.5
427.18	85.5
427.402	88.5
427.625	110.5
427.847	100.5
428.069	89.5
428.292	88.5
428.514	90.5
428.736	82.5
428.958	91.5
429.181	100.5
429.403	99.5
429.625	96.5
429.847	102.5
430.069	94.5
430.292	102.5
430.514	96.5
430.736	98.5
430.958	102.5
431.18	83.5
431.402	92.5
431.624	110.5
431.846	104.5
432.068	82.5
432.29	103.5
432.512	102.5
432.734	95.5
432.956	88.5
433.178	102.5
433.4	83.5
433.622	92.5
433.844	108.5
434.066	98.5
434.287	101.5
434.509	84.5
434.731	99.5
434.953	92.5
435.175	93.5
435.397	93.5
435.618	95.5
435.84	92.5
436.062	91.5
436.284	98.5
436.505	92.5
436.727	94.5
436.949	88.5
437.17	114.5
437.392	94.5
437.614	86.5
437.835	98.5
438.057	91.5
438.278	84.5
438.5	93.5
438.721	95.5
438.943	99.5
439.165	91.5
439.386	88.5
439.608	90.5
439.829	94.5
440.05	91.5
440.272	102.5
440.493	105.5
440.715	96.5
440.936	106.5
441.158	111.5
441.379	98.5
441.6	95.5
441.822	90.5
442.043	115.5
442.264	98.5
442.486	116.5
442.707	118.5
442.928	96.5
443.149	86.5
443.371	90.5
443.592	95.5
443.813	103.5
444.034	90.5
444.255	103.5
444.476	107.5
444.698	101.5
444.919	88.5
445.14	162.5
445.361	130.5
445.582	99.5
445.803	100.5
446.024	95.5
446.245	96.5
446.466	87.5
446.687	106.5
446.908	90.5
447.129	91.5
447.35	108.5
447.571	104.5
447.792	101.5
448.013	100.5
448.234	100.5
448.455	95.5
448.675	103.5
448.896	85.5
449.117	99.5
449.338	83.5
449.559	99.5
449.779	97.5
450	102.5
450.221	95.5
450.442	92.5
450.662	92.5
450.883	88.5
451.104	94.5
451.324	106.5
451.545	107.5
451.766	93.5
451.986	96.5
452.207	96.5
452.428	78.5
452.648	91.5
452.869	88.5
453.089	82.5
453.31	71.5
453.53	91.5
453.751	92.5
453.971	104.5
454.192	93.5
454.412	94.5
454.633	100.5
454.853	95.5
455.073	93.5
455.294	83.5
455.514	78.5
455.734	94.5
455.955	100.5
456.175	91.5
456.395	105.5
456.616	95.5
456.836	77.5
457.056	94.5
457.276	90.5
457.497	100.5
457.717	99.5
457.937	84.5
458.157	77.5
458.377	97.5
458.598	100.5
458.818	85.5
459.038	93.5
459.258	88.5
459.478	84.5
459.698	92.5
459.918	103.5
460.138	92.5
460.358	100.5
460.578	94.5
460.798	101.5
461.018	115.5
461.238	94.5
461.458	90.5
461.678	96.5
461.898	104.5
462.118	119.5
462.338	100.5
462.558	86.5
462.777	99.5
462.997	96.5
463.217	97.5
463.437	86.5
463.657	83.5
463.876	89.5
464.096	101.5
464.316	97.5
464.536	110.5
464.755	107.5
464.975	104.5
465.195	112.5
465.414	90.5
465.634	93.5
465.854	109.5
466.073	88.5
466.293	108.5
466.512	106.5
466.732	101.5
466.951	98.5
467.171	96.5
467.391	97.5
467.61	85.5
467.829	107.5
468.049	99.5
468.268	91.5
468.488	92.5
468.707	92.5
468.927	97.5
469.146	93.5
469.365	87.5
469.585	94.5
469.804	84.5
470.023	92.5
470.243	92.5
470.462	105.5
470.681	88.5
470.901	94.5
471.12	98.5
471.339	97.5
471.558	82.5
471.777	94.5
471.997	97.5
472.216	90.5
472.435	96.5
472.654	83.5
472.873	98.5
473.092	94.5
473.311	90.5
473.53	94.5
473.749	109.5
473.968	112.5
474.187	116.5
474.406	87.5
474.625	82.5
474.844	88.5
475.063	82.5
475.282	100.5
475.501	93.5
475.72	84.5
475.939	86.5
476.158	82.5
476.377	73.5
476.596	86.5
476.814	115.5
477.033	91.5
477.252	110.5
477.471	108.5
477.69	84.5
477.908	103.5
478.127	109.5
478.346	94.5
478.564	102.5
478.783	101.5
479.002	87.5
479.22	106.5
479.439	106.5
479.658	103.5
479.876	90.5
480.095	108.5
480.313	113.5
480.532	110.5
480.751	95.5
480.969	110.5
481.188	92.5
481.406	105.5
481.624	110.5
481.843	101.5
482.061	94.5
482.28	104.5
482.498	106.5
482.717	112.5
482.935	93.5
483.153	93.5
483.372	105.5
483.59	103.5
483.808	108.5
484.027	102.5
484.245	100.5
484.463	90.5
484.681	102.5
484.9	106.5
485.118	117.5
485.336	84.5
485.554	101.5
485.772	103.5
485.99	97.5
486.209	104.5
486.427	87.5
486.645	101.5
486.863	92.5
487.081	97.5
487.299	87.5
487.517	105.5
487.735	107.5
487.953	112.5
488.171	96.5
488.389	100.5
488.607	97.5
488.825	110.5
489.043	110.5
489.261	101.5
489.479	100.5
489.696	94.5
489.914	89.5
490.132	109.5
490.35	109.5
490.568	105.5
490.786	103.5
491.003	108.5
491.221	116.5
491.439	115.5
491.657	95.5
491.874	109.5
492.092	102.5
492.31	98.5
492.527	112.5
492.745	102.5
492.963	108.5
493.18	91.5
493.398	109.5
493.615	112.5
493.833	112.5
494.05	101.5
494.268	106.5
494.485	97.5
494.703	89.5
494.92	101.5
495.138	110.5
495.355	96.5
495.573	98.5
495.79	101.5
496.008	114.5
496.225	104.5
496.442	102.5
496.66	107.5
496.877	107.5
497.094	91.5
497.312	105.5
497.529	93.5
497.746	110.5
497.963	97.5
498.181	108.5
498.398	92.5
498.615	106.5
498.832	101.5
499.049	112.5
499.267	135.5
499.484	134.5
499.701	119.5
499.918	127.5
500.135	133.5
500.352	134.5
500.569	142.5
500.786	151.5
501.003	137.5
501.22	134.5
501.437	119.5
501.654	121.5
501.871	116.5
502.088	116.5
502.305	106.5
502.522	95.5
502.739	99.5
502.956	114.5
503.172	116.5
503.389	110.5
503.606	97.5
503.823	96.5
504.04	110.5
504.256	125.5
504.473	107.5
504.69	114.5
504.907	93.5
505.123	120.5
505.34	100.5
505.557	110.5
505.773	114.5
505.99	119.5
506.207	110.5
506.423	101.5
506.64	106.5
506.856	96.5
507.073	111.5
507.289	90.5
507.506	92.5
507.722	94.5
507.939	102.5
508.155	110.5
508.372	101.5
508.588	91.5
508.805	85.5
509.021	94.5
509.238	106.5
509.454	113.5
509.67	88.5
509.887	98.5
510.103	95.5
510.319	103.5
510.536	100.5
510.752	103.5
510.968	90.5
511.184	112.5
511.401	98.5
511.617	90.5
511.833	91.5
512.049	80.5
512.265	96.5
512.481	97.5
512.698	90.5
512.914	108.5
513.13	98.5
513.346	92.5
513.562	106.5
513.778	96.5
513.994	106.5
514.21	99.5
514.426	102.5
514.642	106.5
514.858	98.5
515.074	91.5
515.29	93.5
515.506	100.5
515.721	83.5
515.937	97.5
516.153	97.5
516.369	98.5
516.585	96.5
516.801	94.5
517.016	107.5
517.232	102.5
517.448	116.5
517.664	90.5
517.879	106.5
518.095	110.5
518.311	104.5
518.527	112.5
518.742	99.5
518.958	95.5
519.173	98.5
519.389	108.5
519.605	94.5
519.82	104.5
520.036	114.5
520.251	103.5
520.467	94.5
520.682	101.5
520.898	110.5
521.113	96.5
521.329	103.5
521.544	88.5
521.76	102.5
521.975	106.5
522.19	98.5
522.406	101.5
522.621	108.5
522.836	101.5
523.052	90.5
523.267	102.5
523.482	111.5
523.698	85.5
523.913	105.5
524.128	97.5
524.343	90.5
524.559	111.5
524.774	97.5
524.989	96.5
525.204	92.5
525.419	110.5
525.634	110.5
525.849	95.5
526.064	104.5
526.28	96.5
526.495	93.5
526.71	109.5
526.925	98.5
527.14	110.5
527.355	90.5
527.57	105.5
527.785	97.5
527.999	91.5
528.214	90.5
528.429	101.5
528.644	105.5
528.859	99.5
529.074	100.5
529.289	103.5
529.503	90.5
529.718	96.5
529.933	96.5
530.148	111.5
530.363	112.5
530.577	90.5
530.792	98.5
531.007	110.5
531.221	108.5
531.436	92.5
531.651	94.5
531.865	87.5
532.08	100.5
532.295	101.5
532.509	90.5
532.724	85.5
532.938	97.5
533.153	84.5
533.367	92.5
533.582	106.5
533.796	106.5
534.011	101.5
534.225	87.5
534.44	87.5
534.654	104.5
534.868	88.5
535.083	103.5
535.297	100.5
535.511	96.5
535.726	93.5
535.94	104.5
536.154	98.5
536.369	101.5
536.583	96.5
536.797	103.5
537.011	99.5
537.225	90.5
537.44	88.5
537.654	100.5
537.868	111.5
538.082	101.5
538.296	94.5
538.51	108.5
538.724	76.5
538.938	96.5
539.153	94.5
539.367	95.5
539.581	95.5
539.795	98.5
540.009	98.5
540.222	92.5
540.436	106.5
540.65	94.5
540.864	104.5
541.078	106.5
541.292	92.5
541.506	88.5
541.72	107.5
541.934	86.5
542.147	104.5
542.361	95.5
542.575	103.5
542.789	102.5
543.002	80.5
543.216	104.5
543.43	94.5
543.644	99.5
543.857	101.5
544.071	99.5
544.285	98.5
544.498	86.5
544.712	88.5
544.925	118.5
545.139	108.5
545.352	109.5
545.566	110.5
545.779	99.5
545.993	86.5
546.206	90.5
546.42	112.5
546.633	102.5
546.847	100.5
547.06	91.5
547.274	90.5
547.487	96.5
547.7	108.5
547.914	110.5
548.127	94.5
548.34	115.5
548.554	101.5
548.767	103.5
548.98	92.5
549.193	104.5
549.407	112.5
549.62	103.5
549.833	95.5
550.046	96.5
550.259	102.5
550.473	97.5
550.686	104.5
550.899	104.5
551.112	84.5
551.325	103.5
551.538	112.5
551.751	102.5
551.964	92.5
552.177	95.5
552.39	86.5
552.603	97.5
552.816	111.5
553.029	94.5
553.242	111.5
553.455	94.5
553.667	114.5
553.88	96.5
554.093	103.5
554.306	103.5
554.519	92.5
554.732	90.5
554.944	95.5
555.157	92.5
555.37	108.5
555.583	98.5
555.795	100.5
556.008	87.5
556.221	84.5
556.433	87.5
556.646	91.5
556.859	90.5
557.071	90.5
557.284	97.5
557.496	98.5
557.709	91.5
557.921	88.5
558.134	97.5
558.346	102.5
558.559	79.5
558.771	90.5
558.984	97.5
559.196	83.5
559.409	107.5
559.621	75.5
559.833	85.5
560.046	92.5
560.258	94.5
560.47	96.5
560.683	104.5
560.895	110.5
561.107	83.5
561.32	96.5
561.532	86.5
561.744	77.5
561.956	99.5
562.168	94.5
562.381	109.5
562.593	94.5
562.805	101.5
563.017	110.5
563.229	83.5
563.441	96.5
563.653	88.5
563.865	93.5
564.077	94.5
564.289	106.5
564.501	90.5
564.713	103.5
564.925	99.5
565.137	83.5
565.349	90.5
565.561	78.5
565.773	110.5
565.985	104.5
566.197	93.5
566.408	93.5
566.62	98.5
566.832	115.5
567.044	102.5
567.255	102.5
567.467	110.5
567.679	120.5
567.891	122.5
568.102	114.5
568.314	94.5
568.526	112.5
568.737	105.5
568.949	100.5
569.161	108.5
569.372	103.5
569.584	116.5
569.795	101.5
570.007	99.5
570.218	95.5
570.43	87.5
570.641	92.5
570.853	83.5
571.064	90.5
571.276	94.5
571.487	99.5
571.698	86.5
571.91	97.5
572.121	100.5
572.333	86.5
572.544	100.5
572.755	106.5
572.966	102.5
573.178	95.5
573.389	86.5
573.6	104.5
573.811	103.5
574.023	104.5
574.234	94.5
574.445	103.5
574.656	94.5
574.867	94.5
575.078	84.5
575.289	88.5
575.501	97.5
575.712	86.5
575.923	97.5
576.134	90.5
576.345	96.5
576.556	100.5
576.767	108.5
576.978	96.5
577.188	88.5
577.399	96.5
577.61	91.5
577.821	109.5
578.032	98.5
578.243	87.5
578.454	100.5
578.665	90.5
578.875	79.5
579.086	91.5
579.297	82.5
579.508	93.5
579.718	102.5
579.929	100.5
580.14	94.5
580.35	104.5
580.561	88.5
580.772	106.5
580.982	102.5
581.193	90.5
581.403	90.5
581.614	107.5
581.825	98.5
582.035	80.5
582.246	102.5
582.456	94.5
582.667	94.5
582.877	85.5
583.087	91.5
583.298	103.5
583.508	101.5
583.719	94.5
583.929	93.5
584.139	97.5
584.35	96.5
584.56	88.5
584.77	94.5
584.981	108.5
585.191	95.5
585.401	88.5
585.611	78.5
585.821	106.5
586.032	84.5
586.242	70.5
586.452	99.5
586.662	95.5
586.872	85.5
587.082	93.5
587.292	83.5
587.502	94.5
587.713	81.5
587.923	90.5
588.133	96.5
588.343	79.5
588.553	101.5
588.762	94.5
588.972	114.5
589.182	117.5
589.392	107.5
589.602	109.5
589.812	95.5
590.022	96.5
590.232	92.5
590.441	91.5
590.651	83.5
590.861	76.5
591.071	102.5
591.281	88.5
591.49	87.5
591.7	88.5
591.91	92.5
592.119	93.5
592.329	102.5
592.539	91.5
592.748	88.5
592.958	94.5
593.167	99.5
593.377	101.5
593.587	100.5
593.796	98.5
594.006	90.5
594.215	102.5
594.424	92.5
594.634	86.5
594.843	90.5
595.053	99.5
595.262	104.5
595.472	99.5
595.681	89.5
595.89	99.5
596.1	82.5
596.309	101.5
596.518	82.5
596.727	94.5
596.937	98.5
597.146	94.5
597.355	90.5
597.564	99.5
597.774	95.5
597.983	102.5
598.192	95.5
598.401	93.5
598.61	77.5
598.819	84.5
599.028	92.5
599.237	88.5
599.446	102.5
599.655	88.5
599.864	87.5
600.073	83.5
600.282	100.5
600.491	84.5
600.7	79.5
600.909	91.5
601.118	97.5
601.327	84.5
601.536	81.5
601.745	95.5
601.953	104.5
602.162	89.5
602.371	94.5
602.58	96.5
602.789	90.5
602.997	87.5
603.206	87.5
603.415	92.5
603.623	85.5
603.832	92.5
604.041	84.5
604.249	94.5
604.458	93.5
604.666	81.5
604.875	97.5
605.084	79.5
605.292	96.5
605.501	108.5
605.709	97.5
605.918	81.5
606.126	83.5
606.334	87.5
606.543	97.5
606.751	108.5
606.96	85.5
607.168	82.5
607.376	84.5
607.585	82.5
607.793	88.5
608.001	96.5
608.21	94.5
608.418	91.5
608.626	78.5
608.834	103.5
609.043	99.5
609.251	92.5
609.459	77.5
609.667	88.5
609.875	84.5
610.083	90.5
610.291	85.5
610.499	108.5
610.707	92.5
610.916	80.5
611.124	78.5
611.332	78.5
611.54	90.5
611.748	104.5
611.955	91.5
612.163	82.5
612.371	81.5
612.579	99.5
612.787	71.5
612.995	90.5
613.203	99.5
613.411	88.5
613.618	102.5
613.826	80.5
614.034	82.5
614.242	95.5
614.449	92.5
614.657	91.5
614.865	79.5
615.072	85.5
615.28	84.5
615.488	87.5
615.695	83.5
615.903	87.5
616.111	95.5
616.318	105.5
616.526	103.5
616.733	101.5
616.941	91.5
617.148	95.5
617.356	98.5
617.563	96.5
617.771	76.5
617.978	84.5
618.185	86.5
618.393	90.5
618.6	86.5
618.807	84.5
619.015	93.5
619.222	94.5
619.429	104.5
619.637	97.5
619.844	93.5
620.051	82.5
620.258	76.5
620.466	103.5
620.673	86.5
620.88	86.5
621.087	103.5
621.294	96.5
621.501	95.5
621.708	70.5
621.915	94.5
622.122	93.5
622.329	83.5
622.536	79.5
622.743	87.5
622.95	83.5
623.157	90.5
623.364	86.5
623.571	86.5
623.778	99.5
623.985	92.5
624.192	93.5
624.399	82.5
624.606	72.5
624.812	79.5
625.019	74.5
625.226	85.5
625.433	98.5
625.639	95.5
625.846	86.5
626.053	75.5
626.259	74.5
626.466	78.5
626.673	87.5
626.879	92.5
627.086	95.5
627.293	90.5
627.499	95.5
627.706	84.5
627.912	103.5
628.119	85.5
628.325	87.5
628.532	59.5
628.738	97.5
628.945	96.5
629.151	96.5
629.357	104.5
629.564	80.5
629.77	78.5
629.976	94.5
630.183	91.5
630.389	100.5
630.595	79.5
630.802	71.5
631.008	88.5
631.214	82.5
631.42	85.5
631.627	87.5
631.833	89.5
632.039	87.5
632.245	88.5
632.451	93.5
632.657	85.5
632.863	87.5
633.069	89.5
633.275	90.5
633.481	76.5
633.688	96.5
633.893	101.5
634.099	79.5
634.305	87.5
634.511	79.5
634.717	86.5
634.923	95.5
635.129	78.5
635.335	87.5
635.541	79.5
635.747	89.5
635.952	85.5
636.158	84.5
636.364	93.5
636.57	90.5
636.775	85.5
636.981	93.5
637.187	80.5
637.392	92.5
637.598	77.5
637.804	77.5
638.009	89.5
638.215	90.5
638.421	91.5
638.626	83.5
638.832	89.5
639.037	98.5
639.243	90.5
639.448	76.5
639.654	87.5
639.859	85.5
640.065	90.5
640.27	98.5
640.475	100.5
640.681	90.5
640.886	78.5
641.091	95.5
641.297	88.5
641.502	89.5
641.707	86.5
641.913	89.5
642.118	100.5
642.323	87.5
642.528	85.5
642.733	95.5
642.939	86.5
643.144	77.5
643.349	82.5
643.554	86.5
643.759	77.5
643.964	83.5
644.169	86.5
644.374	87.5
644.579	85.5
644.784	72.5
644.989	98.5
645.194	82.5
645.399	62.5
645.604	88.5
645.809	79.5
646.014	90.5
646.219	88.5
646.423	94.5
646.628	86.5
646.833	96.5
647.038	87.5
647.243	96.5
647.447	92.5
647.652	91.5
647.857	89.5
648.062	72.5
648.266	86.5
648.471	90.5
648.676	99.5
648.88	93.5
649.085	92.5
649.289	79.5
649.494	71.5
649.698	87.5
649.903	76.5
650.107	96.5
650.312	98.5
650.516	86.5
650.721	87.5
650.925	89.5
651.13	84.5
651.334	78.5
651.539	90.5
651.743	85.5
651.947	81.5
652.152	85.5
652.356	86.5
652.56	78.5
652.764	91.5
652.969	72.5
653.173	75.5
653.377	97.5
653.581	90.5
653.785	84.5
653.99	89.5
654.194	88.5
654.398	87.5
654.602	73.5
654.806	82.5
655.01	83.5
655.214	81.5
655.418	79.5
655.622	73.5
655.826	102.5
656.03	83.5
656.234	68.5
656.438	90.5
656.642	82.5
656.846	89.5
657.049	81.5
657.253	91.5
657.457	86.5
657.661	94.5
657.865	87.5
658.068	72.5
658.272	77.5
658.476	79.5
658.68	97.5
658.883	90.5
659.087	85.5
659.291	79.5
659.494	76.5
659.698	87.5
659.901	72.5
660.105	86.5
660.309	65.5
660.512	96.5
660.716	85.5
660.919	86.5
661.123	87.5
661.326	77.5
661.53	100.5
661.733	93.5
661.936	74.5
662.14	90.5
662.343	74.5
662.546	75.5
662.75	70.5
662.953	99.5
663.156	90.5
663.36	94.5
663.563	81.5
663.766	64.5
663.969	90.5
664.173	81.5
664.376	78.5
664.579	78.5
664.782	80.5
664.985	97.5
665.188	89.5
665.391	83.5
665.594	70.5
665.797	81.5
666	82.5
666.203	84.5
666.406	66.5
666.609	88.5
666.812	67.5
667.015	70.5
667.218	79.5
667.421	81.5
667.624	72.5
667.827	79.5
668.03	78.5
668.232	98.5
668.435	93.5
668.638	91.5
668.841	78.5
669.043	95.5
669.246	87.5
669.449	93.5
669.651	87.5
669.854	84.5
670.057	81.5
670.259	85.5
670.462	83.5
670.665	85.5
670.867	77.5
671.07	84.5
671.272	74.5
671.475	76.5
671.677	71.5
671.88	78.5
672.082	76.5
672.284	77.5
672.487	75.5
672.689	85.5
672.892	88.5
