Data from Lead_25_2_HRD10591_00082.txt Node
Date: Fri Feb 20 11:02:23 EST 2026
User: Yrep
Spectrometer: HR+D1059
Trigger mode: 1
Integration Time (sec): 1.000000E-1
Scans to average: 1
Electric dark correction enabled: true
Nonlinearity correction enabled: false
Boxcar width: 0
XAxis mode: Wavelengths
Number of Pixels in Spectrum: 2048
>>>>>Begin Spectral Data<<<<<
223.165	-23.88
223.4	-23.88
223.635	-23.88
223.869	-6.88
224.104	-18.88
224.338	-31.88
224.573	-12.88
224.808	-14.88
225.042	-12.88
225.277	-3.88
225.511	-8.88
225.746	0.12
225.98	7.12
226.215	4.12
226.449	24.12
226.683	23.12
226.918	33.12
227.152	43.12
227.387	34.12
227.621	36.12
227.856	52.12
228.09	48.12
228.324	48.12
228.559	73.12
228.793	64.12
229.027	62.12
229.262	75.12
229.496	74.12
229.73	73.12
229.964	70.12
230.199	74.12
230.433	77.12
230.667	93.12
230.901	81.12
231.136	81.12
231.37	73.12
231.604	81.12
231.838	77.12
232.072	85.12
232.306	85.12
232.541	84.12
232.775	80.12
233.009	82.12
233.243	81.12
233.477	65.12
233.711	85.12
233.945	79.12
234.179	78.12
234.413	78.12
234.647	84.12
234.881	75.12
235.115	94.12
235.349	73.12
235.583	78.12
235.817	73.12
236.051	86.12
236.285	87.12
236.519	77.12
236.753	83.12
236.987	74.12
237.221	87.12
237.455	78.12
237.689	74.12
237.922	76.12
238.156	76.12
238.39	86.12
238.624	66.12
238.858	77.12
239.091	79.12
239.325	75.12
239.559	63.12
239.793	74.12
240.027	84.12
240.26	82.12
240.494	67.12
240.728	75.12
240.961	74.12
241.195	81.12
241.429	87.12
241.662	83.12
241.896	71.12
242.13	85.12
242.363	67.12
242.597	71.12
242.83	77.12
243.064	93.12
243.298	82.12
243.531	71.12
243.765	70.12
243.998	82.12
244.232	102.12
244.465	73.12
244.699	71.12
244.932	78.12
245.166	79.12
245.399	66.12
245.633	79.12
245.866	81.12
246.099	71.12
246.333	75.12
246.566	81.12
246.8	82.12
247.033	69.12
247.266	84.12
247.5	68.12
247.733	61.12
247.966	83.12
248.2	72.12
248.433	79.12
248.666	69.12
248.899	69.12
249.133	70.12
249.366	73.12
249.599	75.12
249.832	85.12
250.066	79.12
250.299	106.12
250.532	75.12
250.765	89.12
250.998	74.12
251.231	76.12
251.465	100.12
251.698	93.12
251.931	82.12
252.164	69.12
252.397	81.12
252.63	76.12
252.863	83.12
253.096	78.12
253.329	74.12
253.562	88.12
253.795	86.12
254.028	81.12
254.261	77.12
254.494	78.12
254.727	74.12
254.96	93.12
255.193	82.12
255.426	79.12
255.659	91.12
255.892	90.12
256.124	73.12
256.357	83.12
256.59	82.12
256.823	86.12
257.056	89.12
257.289	85.12
257.521	92.12
257.754	76.12
257.987	83.12
258.22	83.12
258.452	86.12
258.685	69.12
258.918	84.12
259.151	81.12
259.383	86.12
259.616	83.12
259.849	85.12
260.081	92.12
260.314	81.12
260.547	85.12
260.779	77.12
261.012	88.12
261.244	77.12
261.477	79.12
261.71	72.12
261.942	79.12
262.175	77.12
262.407	85.12
262.64	92.12
262.872	71.12
263.105	81.12
263.337	95.12
263.57	64.12
263.802	85.12
264.035	95.12
264.267	88.12
264.499	68.12
264.732	86.12
264.964	63.12
265.197	88.12
265.429	89.12
265.661	80.12
265.894	79.12
266.126	88.12
266.358	78.12
266.591	87.12
266.823	87.12
267.055	80.12
267.287	85.12
267.52	73.12
267.752	84.12
267.984	87.12
268.216	90.12
268.448	86.12
268.681	86.12
268.913	92.12
269.145	81.12
269.377	65.12
269.609	94.12
269.841	76.12
270.073	87.12
270.306	89.12
270.538	70.12
270.77	72.12
271.002	74.12
271.234	95.12
271.466	79.12
271.698	91.12
271.93	87.12
272.162	77.12
272.394	85.12
272.626	75.12
272.858	78.12
273.09	75.12
273.322	91.12
273.553	83.12
273.785	92.12
274.017	86.12
274.249	94.12
274.481	77.12
274.713	76.12
274.945	76.12
275.176	76.12
275.408	92.12
275.64	82.12
275.872	81.12
276.104	76.12
276.335	66.12
276.567	73.12
276.799	75.12
277.031	63.12
277.262	84.12
277.494	79.12
277.726	77.12
277.957	77.12
278.189	79.12
278.421	75.12
278.652	87.12
278.884	63.12
279.115	80.12
279.347	65.12
279.579	80.12
279.81	83.12
280.042	81.12
280.273	97.12
280.505	84.12
280.736	74.12
280.968	76.12
281.199	80.12
281.431	81.12
281.662	75.12
281.894	99.12
282.125	90.12
282.356	73.12
282.588	81.12
282.819	84.12
283.051	80.12
283.282	77.12
283.513	89.12
283.745	79.12
283.976	94.12
284.207	83.12
284.439	99.12
284.67	88.12
284.901	79.12
285.132	65.12
285.364	84.12
285.595	83.12
285.826	70.12
286.057	92.12
286.288	88.12
286.52	85.12
286.751	77.12
286.982	86.12
287.213	75.12
287.444	92.12
287.675	88.12
287.906	91.12
288.138	93.12
288.369	74.12
288.6	91.12
288.831	89.12
289.062	83.12
289.293	77.12
289.524	81.12
289.755	68.12
289.986	81.12
290.217	79.12
290.448	77.12
290.679	66.12
290.91	77.12
291.141	91.12
291.371	89.12
291.602	74.12
291.833	73.12
292.064	89.12
292.295	95.12
292.526	97.12
292.757	97.12
292.987	85.12
293.218	88.12
293.449	78.12
293.68	70.12
293.91	90.12
294.141	87.12
294.372	88.12
294.603	87.12
294.833	77.12
295.064	87.12
295.295	84.12
295.525	90.12
295.756	88.12
295.987	80.12
296.217	71.12
296.448	89.12
296.679	85.12
296.909	79.12
297.14	97.12
297.37	89.12
297.601	83.12
297.831	81.12
298.062	82.12
298.292	91.12
298.523	99.12
298.753	87.12
298.984	90.12
299.214	74.12
299.445	78.12
299.675	89.12
299.905	83.12
300.136	77.12
300.366	82.12
300.597	85.12
300.827	79.12
301.057	80.12
301.288	83.12
301.518	74.12
301.748	73.12
301.979	94.12
302.209	91.12
302.439	86.12
302.669	84.12
302.9	93.12
303.13	75.12
303.36	68.12
303.59	80.12
303.82	78.12
304.051	100.12
304.281	92.12
304.511	88.12
304.741	76.12
304.971	64.12
305.201	78.12
305.431	87.12
305.661	91.12
305.891	89.12
306.121	85.12
306.352	74.12
306.582	85.12
306.812	87.12
307.042	90.12
307.272	76.12
307.502	96.12
307.731	78.12
307.961	71.12
308.191	89.12
308.421	87.12
308.651	69.12
308.881	85.12
309.111	87.12
309.341	88.12
309.571	81.12
309.8	85.12
310.03	83.12
310.26	87.12
310.49	96.12
310.72	93.12
310.949	78.12
311.179	84.12
311.409	81.12
311.639	87.12
311.868	93.12
312.098	75.12
312.328	87.12
312.557	85.12
312.787	83.12
313.017	82.12
313.246	81.12
313.476	78.12
313.706	82.12
313.935	76.12
314.165	74.12
314.394	88.12
314.624	83.12
314.853	73.12
315.083	85.12
315.312	79.12
315.542	65.12
315.771	91.12
316.001	69.12
316.23	79.12
316.46	66.12
316.689	73.12
316.919	81.12
317.148	85.12
317.377	88.12
317.607	81.12
317.836	88.12
318.065	85.12
318.295	85.12
318.524	87.12
318.753	97.12
318.983	82.12
319.212	85.12
319.441	82.12
319.67	69.12
319.9	84.12
320.129	89.12
320.358	85.12
320.587	75.12
320.816	82.12
321.046	97.12
321.275	87.12
321.504	81.12
321.733	91.12
321.962	86.12
322.191	70.12
322.42	78.12
322.649	87.12
322.878	89.12
323.108	76.12
323.337	75.12
323.566	89.12
323.795	93.12
324.024	83.12
324.253	89.12
324.482	84.12
324.71	83.12
324.939	82.12
325.168	84.12
325.397	83.12
325.626	89.12
325.855	97.12
326.084	94.12
326.313	84.12
326.542	78.12
326.77	85.12
326.999	93.12
327.228	81.12
327.457	81.12
327.686	86.12
327.914	93.12
328.143	87.12
328.372	87.12
328.6	89.12
328.829	71.12
329.058	81.12
329.287	89.12
329.515	82.12
329.744	94.12
329.972	75.12
330.201	79.12
330.43	84.12
330.658	92.12
330.887	75.12
331.115	75.12
331.344	93.12
331.572	90.12
331.801	83.12
332.03	82.12
332.258	90.12
332.486	90.12
332.715	80.12
332.943	77.12
333.172	74.12
333.4	70.12
333.629	76.12
333.857	74.12
334.085	102.12
334.314	88.12
334.542	77.12
334.771	89.12
334.999	87.12
335.227	83.12
335.455	83.12
335.684	85.12
335.912	81.12
336.14	100.12
336.369	76.12
336.597	83.12
336.825	96.12
337.053	83.12
337.281	91.12
337.51	69.12
337.738	93.12
337.966	86.12
338.194	77.12
338.422	87.12
338.65	82.12
338.878	86.12
339.106	102.12
339.334	83.12
339.562	77.12
339.79	83.12
340.018	89.12
340.246	93.12
340.474	89.12
340.702	78.12
340.93	94.12
341.158	79.12
341.386	71.12
341.614	78.12
341.842	91.12
342.07	89.12
342.298	94.12
342.526	89.12
342.754	84.12
342.981	97.12
343.209	71.12
343.437	94.12
343.665	80.12
343.893	84.12
344.12	81.12
344.348	69.12
344.576	61.12
344.804	71.12
345.031	82.12
345.259	76.12
345.487	77.12
345.714	79.12
345.942	78.12
346.17	85.12
346.397	67.12
346.625	79.12
346.853	71.12
347.08	89.12
347.308	70.12
347.535	90.12
347.763	77.12
347.99	90.12
348.218	74.12
348.445	85.12
348.673	77.12
348.9	86.12
349.128	87.12
349.355	90.12
349.583	98.12
349.81	86.12
350.037	81.12
350.265	76.12
350.492	93.12
350.72	95.12
350.947	83.12
351.174	99.12
351.402	74.12
351.629	84.12
351.856	71.12
352.083	75.12
352.311	88.12
352.538	88.12
352.765	79.12
352.992	99.12
353.22	91.12
353.447	73.12
353.674	85.12
353.901	79.12
354.128	78.12
354.355	86.12
354.583	90.12
354.81	80.12
355.037	90.12
355.264	86.12
355.491	81.12
355.718	97.12
355.945	82.12
356.172	87.12
356.399	67.12
356.626	89.12
356.853	88.12
357.08	102.12
357.307	85.12
357.534	98.12
357.761	84.12
357.988	80.12
358.215	85.12
358.441	87.12
358.668	84.12
358.895	75.12
359.122	85.12
359.349	80.12
359.576	84.12
359.802	79.12
360.029	81.12
360.256	76.12
360.483	86.12
360.709	81.12
360.936	93.12
361.163	91.12
361.39	67.12
361.616	89.12
361.843	90.12
362.07	79.12
362.296	90.12
362.523	80.12
362.749	79.12
362.976	73.12
363.203	88.12
363.429	83.12
363.656	93.12
363.882	93.12
364.109	86.12
364.335	85.12
364.562	82.12
364.788	81.12
365.015	87.12
365.241	93.12
365.468	92.12
365.694	73.12
365.92	83.12
366.147	85.12
366.373	74.12
366.599	84.12
366.826	86.12
367.052	78.12
367.278	94.12
367.505	84.12
367.731	97.12
367.957	94.12
368.184	82.12
368.41	109.12
368.636	102.12
368.862	90.12
369.089	77.12
369.315	77.12
369.541	79.12
369.767	97.12
369.993	93.12
370.219	73.12
370.445	74.12
370.672	80.12
370.898	88.12
371.124	84.12
371.35	79.12
371.576	87.12
371.802	69.12
372.028	88.12
372.254	91.12
372.48	74.12
372.706	80.12
372.932	75.12
373.158	83.12
373.384	86.12
373.61	81.12
373.835	96.12
374.061	98.12
374.287	85.12
374.513	84.12
374.739	72.12
374.965	76.12
375.191	73.12
375.416	76.12
375.642	88.12
375.868	97.12
376.094	81.12
376.319	78.12
376.545	84.12
376.771	90.12
376.997	81.12
377.222	81.12
377.448	84.12
377.674	89.12
377.899	82.12
378.125	109.12
378.35	87.12
378.576	93.12
378.802	85.12
379.027	67.12
379.253	68.12
379.478	73.12
379.704	79.12
379.929	88.12
380.155	79.12
380.38	83.12
380.606	80.12
380.831	85.12
381.057	88.12
381.282	77.12
381.507	83.12
381.733	84.12
381.958	83.12
382.184	72.12
382.409	79.12
382.634	84.12
382.86	86.12
383.085	86.12
383.31	82.12
383.535	85.12
383.761	88.12
383.986	80.12
384.211	101.12
384.436	79.12
384.662	85.12
384.887	88.12
385.112	79.12
385.337	83.12
385.562	83.12
385.787	75.12
386.013	80.12
386.238	81.12
386.463	85.12
386.688	95.12
386.913	85.12
387.138	65.12
387.363	80.12
387.588	78.12
387.813	83.12
388.038	75.12
388.263	82.12
388.488	69.12
388.713	85.12
388.938	88.12
389.163	68.12
389.387	86.12
389.612	87.12
389.837	94.12
390.062	88.12
390.287	81.12
390.512	82.12
390.736	83.12
390.961	91.12
391.186	79.12
391.411	75.12
391.636	86.12
391.86	88.12
392.085	82.12
392.31	86.12
392.534	95.12
392.759	99.12
392.984	93.12
393.208	91.12
393.433	83.12
393.658	88.12
393.882	86.12
394.107	81.12
394.331	74.12
394.556	85.12
394.78	73.12
395.005	79.12
395.229	74.12
395.454	76.12
395.678	88.12
395.903	79.12
396.127	88.12
396.352	90.12
396.576	81.12
396.801	87.12
397.025	75.12
397.249	83.12
397.474	91.12
397.698	92.12
397.922	82.12
398.147	89.12
398.371	85.12
398.595	94.12
398.82	87.12
399.044	73.12
399.268	87.12
399.492	91.12
399.717	88.12
399.941	83.12
400.165	97.12
400.389	90.12
400.613	83.12
400.837	80.12
401.062	85.12
401.286	75.12
401.51	87.12
401.734	81.12
401.958	81.12
402.182	75.12
402.406	70.12
402.63	84.12
402.854	91.12
403.078	88.12
403.302	64.12
403.526	79.12
403.75	83.12
403.974	93.12
404.198	98.12
404.422	86.12
404.645	91.12
404.869	75.12
405.093	73.12
405.317	92.12
405.541	91.12
405.765	113.12
405.988	97.12
406.212	97.12
406.436	87.12
406.66	78.12
406.883	86.12
407.107	56.12
407.331	86.12
407.555	89.12
407.778	86.12
408.002	81.12
408.226	75.12
408.449	77.12
408.673	70.12
408.896	99.12
409.12	95.12
409.344	77.12
409.567	92.12
409.791	73.12
410.014	81.12
410.238	87.12
410.461	86.12
410.685	89.12
410.908	80.12
411.132	89.12
411.355	88.12
411.578	88.12
411.802	74.12
412.025	85.12
412.249	79.12
412.472	79.12
412.695	88.12
412.919	85.12
413.142	79.12
413.365	83.12
413.589	90.12
413.812	74.12
414.035	88.12
414.258	81.12
414.482	87.12
414.705	81.12
414.928	80.12
415.151	73.12
415.374	69.12
415.597	84.12
415.821	80.12
416.044	77.12
416.267	85.12
416.49	63.12
416.713	89.12
416.936	89.12
417.159	85.12
417.382	69.12
417.605	75.12
417.828	67.12
418.051	79.12
418.274	88.12
418.497	83.12
418.72	85.12
418.943	79.12
419.166	77.12
419.389	80.12
419.611	91.12
419.834	78.12
420.057	81.12
420.28	77.12
420.503	81.12
420.726	96.12
420.948	90.12
421.171	71.12
421.394	84.12
421.617	79.12
421.839	65.12
422.062	73.12
422.285	85.12
422.507	69.12
422.73	95.12
422.953	83.12
423.175	85.12
423.398	78.12
423.621	85.12
423.843	93.12
424.066	74.12
424.288	85.12
424.511	85.12
424.733	89.12
424.956	93.12
425.178	96.12
425.401	72.12
425.623	85.12
425.846	94.12
426.068	99.12
426.291	70.12
426.513	87.12
426.735	86.12
426.958	87.12
427.18	76.12
427.402	85.12
427.625	82.12
427.847	84.12
428.069	75.12
428.292	82.12
428.514	80.12
428.736	90.12
428.958	96.12
429.181	89.12
429.403	87.12
429.625	89.12
429.847	89.12
430.069	77.12
430.292	82.12
430.514	73.12
430.736	74.12
430.958	77.12
431.18	61.12
431.402	77.12
431.624	74.12
431.846	63.12
432.068	87.12
432.29	77.12
432.512	91.12
432.734	85.12
432.956	91.12
433.178	96.12
433.4	97.12
433.622	63.12
433.844	98.12
434.066	85.12
434.287	87.12
434.509	80.12
434.731	89.12
434.953	85.12
435.175	88.12
435.397	72.12
435.618	97.12
435.84	90.12
436.062	94.12
436.284	62.12
436.505	70.12
436.727	82.12
436.949	103.12
437.17	84.12
437.392	92.12
437.614	86.12
437.835	74.12
438.057	83.12
438.278	79.12
438.5	80.12
438.721	91.12
438.943	81.12
439.165	87.12
439.386	70.12
439.608	83.12
439.829	93.12
440.05	87.12
440.272	66.12
440.493	75.12
440.715	82.12
440.936	82.12
441.158	85.12
441.379	79.12
441.6	70.12
441.822	84.12
442.043	84.12
442.264	82.12
442.486	80.12
442.707	88.12
442.928	93.12
443.149	66.12
443.371	96.12
443.592	89.12
443.813	69.12
444.034	64.12
444.255	85.12
444.476	81.12
444.698	86.12
444.919	87.12
445.14	161.12
445.361	133.12
445.582	79.12
445.803	80.12
446.024	80.12
446.245	82.12
446.466	84.12
446.687	75.12
446.908	83.12
447.129	73.12
447.35	83.12
447.571	91.12
447.792	78.12
448.013	89.12
448.234	81.12
448.455	75.12
448.675	79.12
448.896	85.12
449.117	84.12
449.338	93.12
449.559	96.12
449.779	89.12
450	76.12
450.221	74.12
450.442	80.12
450.662	83.12
450.883	69.12
451.104	89.12
451.324	83.12
451.545	69.12
451.766	87.12
451.986	96.12
452.207	85.12
452.428	76.12
452.648	96.12
452.869	100.12
453.089	73.12
453.31	95.12
453.53	80.12
453.751	87.12
453.971	72.12
454.192	77.12
454.412	87.12
454.633	79.12
454.853	86.12
455.073	74.12
455.294	75.12
455.514	81.12
455.734	95.12
455.955	89.12
456.175	71.12
456.395	87.12
456.616	85.12
456.836	80.12
457.056	93.12
457.276	101.12
457.497	79.12
457.717	83.12
457.937	79.12
458.157	90.12
458.377	96.12
458.598	71.12
458.818	65.12
459.038	81.12
459.258	85.12
459.478	82.12
459.698	81.12
459.918	70.12
460.138	77.12
460.358	88.12
460.578	79.12
460.798	81.12
461.018	86.12
461.238	84.12
461.458	85.12
461.678	88.12
461.898	89.12
462.118	81.12
462.338	89.12
462.558	83.12
462.777	88.12
462.997	84.12
463.217	75.12
463.437	65.12
463.657	75.12
463.876	75.12
464.096	75.12
464.316	89.12
464.536	75.12
464.755	83.12
464.975	85.12
465.195	83.12
465.414	89.12
465.634	79.12
465.854	77.12
466.073	71.12
466.293	91.12
466.512	83.12
466.732	84.12
466.951	78.12
467.171	75.12
467.391	84.12
467.61	96.12
467.829	92.12
468.049	74.12
468.268	71.12
468.488	86.12
468.707	85.12
468.927	83.12
469.146	74.12
469.365	90.12
469.585	79.12
469.804	85.12
470.023	87.12
470.243	84.12
470.462	94.12
470.681	83.12
470.901	85.12
471.12	83.12
471.339	91.12
471.558	78.12
471.777	80.12
471.997	87.12
472.216	89.12
472.435	82.12
472.654	85.12
472.873	92.12
473.092	74.12
473.311	79.12
473.53	83.12
473.749	83.12
473.968	85.12
474.187	73.12
474.406	86.12
474.625	75.12
474.844	85.12
475.063	89.12
475.282	86.12
475.501	89.12
475.72	85.12
475.939	80.12
476.158	97.12
476.377	87.12
476.596	81.12
476.814	70.12
477.033	81.12
477.252	88.12
477.471	90.12
477.69	91.12
477.908	80.12
478.127	72.12
478.346	86.12
478.564	79.12
478.783	87.12
479.002	87.12
479.22	88.12
479.439	84.12
479.658	84.12
479.876	76.12
480.095	79.12
480.313	75.12
480.532	89.12
480.751	90.12
480.969	97.12
481.188	85.12
481.406	100.12
481.624	94.12
481.843	76.12
482.061	74.12
482.28	75.12
482.498	90.12
482.717	88.12
482.935	74.12
483.153	73.12
483.372	86.12
483.59	91.12
483.808	86.12
484.027	89.12
484.245	81.12
484.463	84.12
484.681	85.12
484.9	79.12
485.118	85.12
485.336	62.12
485.554	80.12
485.772	89.12
485.99	85.12
486.209	67.12
486.427	76.12
486.645	87.12
486.863	86.12
487.081	72.12
487.299	81.12
487.517	84.12
487.735	97.12
487.953	66.12
488.171	73.12
488.389	90.12
488.607	79.12
488.825	65.12
489.043	91.12
489.261	75.12
489.479	90.12
489.696	88.12
489.914	95.12
490.132	62.12
490.35	79.12
490.568	88.12
490.786	94.12
491.003	75.12
491.221	79.12
491.439	81.12
491.657	88.12
491.874	87.12
492.092	85.12
492.31	90.12
492.527	82.12
492.745	80.12
492.963	77.12
493.18	79.12
493.398	77.12
493.615	88.12
493.833	76.12
494.05	76.12
494.268	89.12
494.485	88.12
494.703	87.12
494.92	76.12
495.138	91.12
495.355	76.12
495.573	80.12
495.79	89.12
496.008	89.12
496.225	87.12
496.442	95.12
496.66	82.12
496.877	89.12
497.094	85.12
497.312	82.12
497.529	75.12
497.746	87.12
497.963	78.12
498.181	96.12
498.398	79.12
498.615	93.12
498.832	93.12
499.049	79.12
499.267	74.12
499.484	78.12
499.701	91.12
499.918	93.12
500.135	88.12
500.352	79.12
500.569	89.12
500.786	80.12
501.003	75.12
501.22	85.12
501.437	86.12
501.654	73.12
501.871	88.12
502.088	74.12
502.305	83.12
502.522	91.12
502.739	76.12
502.956	85.12
503.172	74.12
503.389	78.12
503.606	81.12
503.823	83.12
504.04	89.12
504.256	88.12
504.473	89.12
504.69	87.12
504.907	87.12
505.123	93.12
505.34	88.12
505.557	89.12
505.773	76.12
505.99	86.12
506.207	73.12
506.423	73.12
506.64	86.12
506.856	95.12
507.073	85.12
507.289	93.12
507.506	73.12
507.722	92.12
507.939	90.12
508.155	72.12
508.372	101.12
508.588	83.12
508.805	73.12
509.021	77.12
509.238	93.12
509.454	82.12
509.67	79.12
509.887	85.12
510.103	87.12
510.319	79.12
510.536	94.12
510.752	91.12
510.968	76.12
511.184	75.12
511.401	86.12
511.617	86.12
511.833	86.12
512.049	79.12
512.265	87.12
512.481	82.12
512.698	67.12
512.914	82.12
513.13	82.12
513.346	62.12
513.562	69.12
513.778	89.12
513.994	74.12
514.21	87.12
514.426	83.12
514.642	87.12
514.858	78.12
515.074	82.12
515.29	102.12
515.506	84.12
515.721	84.12
515.937	72.12
516.153	75.12
516.369	76.12
516.585	81.12
516.801	95.12
517.016	87.12
517.232	95.12
517.448	82.12
517.664	78.12
517.879	79.12
518.095	88.12
518.311	85.12
518.527	87.12
518.742	90.12
518.958	79.12
519.173	98.12
519.389	85.12
519.605	91.12
519.82	85.12
520.036	73.12
520.251	83.12
520.467	89.12
520.682	84.12
520.898	94.12
521.113	93.12
521.329	86.12
521.544	96.12
521.76	83.12
521.975	81.12
522.19	75.12
522.406	82.12
522.621	91.12
522.836	88.12
523.052	81.12
523.267	89.12
523.482	78.12
523.698	79.12
523.913	73.12
524.128	79.12
524.343	80.12
524.559	81.12
524.774	81.12
524.989	90.12
525.204	79.12
525.419	85.12
525.634	84.12
525.849	96.12
526.064	78.12
526.28	91.12
526.495	86.12
526.71	90.12
526.925	73.12
527.14	75.12
527.355	94.12
527.57	81.12
527.785	84.12
527.999	90.12
528.214	80.12
528.429	88.12
528.644	91.12
528.859	81.12
529.074	87.12
529.289	81.12
529.503	77.12
529.718	89.12
529.933	78.12
530.148	79.12
530.363	85.12
530.577	89.12
530.792	80.12
531.007	78.12
531.221	86.12
531.436	67.12
531.651	79.12
531.865	75.12
532.08	93.12
532.295	83.12
532.509	88.12
532.724	82.12
532.938	83.12
533.153	91.12
533.367	79.12
533.582	89.12
533.796	82.12
534.011	85.12
534.225	95.12
534.44	85.12
534.654	93.12
534.868	90.12
535.083	82.12
535.297	76.12
535.511	89.12
535.726	91.12
535.94	85.12
536.154	99.12
536.369	81.12
536.583	88.12
536.797	88.12
537.011	94.12
537.225	73.12
537.44	87.12
537.654	73.12
537.868	88.12
538.082	75.12
538.296	87.12
538.51	97.12
538.724	90.12
538.938	88.12
539.153	94.12
539.367	90.12
539.581	87.12
539.795	67.12
540.009	85.12
540.222	86.12
540.436	79.12
540.65	81.12
540.864	80.12
541.078	90.12
541.292	86.12
541.506	71.12
541.72	81.12
541.934	79.12
542.147	82.12
542.361	91.12
542.575	83.12
542.789	83.12
543.002	67.12
543.216	74.12
543.43	95.12
543.644	83.12
543.857	79.12
544.071	75.12
544.285	69.12
544.498	82.12
544.712	86.12
544.925	76.12
545.139	80.12
545.352	82.12
545.566	81.12
545.779	86.12
545.993	76.12
546.206	81.12
546.42	85.12
546.633	97.12
546.847	97.12
547.06	92.12
547.274	69.12
547.487	101.12
547.7	92.12
547.914	89.12
548.127	93.12
548.34	82.12
548.554	86.12
548.767	85.12
548.98	88.12
549.193	65.12
549.407	87.12
549.62	88.12
549.833	87.12
550.046	87.12
550.259	84.12
550.473	83.12
550.686	83.12
550.899	92.12
551.112	80.12
551.325	86.12
551.538	91.12
551.751	82.12
551.964	87.12
552.177	88.12
552.39	87.12
552.603	89.12
552.816	91.12
553.029	72.12
553.242	93.12
553.455	77.12
553.667	84.12
553.88	84.12
554.093	94.12
554.306	92.12
554.519	92.12
554.732	88.12
554.944	72.12
555.157	75.12
555.37	79.12
555.583	76.12
555.795	80.12
556.008	79.12
556.221	79.12
556.433	85.12
556.646	90.12
556.859	75.12
557.071	84.12
557.284	82.12
557.496	101.12
557.709	75.12
557.921	87.12
558.134	76.12
558.346	75.12
558.559	93.12
558.771	82.12
558.984	89.12
559.196	83.12
559.409	79.12
559.621	84.12
559.833	81.12
560.046	95.12
560.258	86.12
560.47	81.12
560.683	92.12
560.895	90.12
561.107	90.12
561.32	89.12
561.532	72.12
561.744	81.12
561.956	83.12
562.168	97.12
562.381	90.12
562.593	81.12
562.805	103.12
563.017	90.12
563.229	75.12
563.441	81.12
563.653	93.12
563.865	97.12
564.077	87.12
564.289	87.12
564.501	74.12
564.713	94.12
564.925	89.12
565.137	85.12
565.349	102.12
565.561	82.12
565.773	86.12
565.985	76.12
566.197	83.12
566.408	81.12
566.62	82.12
566.832	80.12
567.044	86.12
567.255	84.12
567.467	82.12
567.679	85.12
567.891	107.12
568.102	82.12
568.314	73.12
568.526	87.12
568.737	79.12
568.949	82.12
569.161	70.12
569.372	89.12
569.584	71.12
569.795	85.12
570.007	86.12
570.218	85.12
570.43	97.12
570.641	76.12
570.853	88.12
571.064	94.12
571.276	89.12
571.487	77.12
571.698	94.12
571.91	88.12
572.121	83.12
572.333	85.12
572.544	78.12
572.755	79.12
572.966	88.12
573.178	87.12
573.389	86.12
573.6	81.12
573.811	87.12
574.023	81.12
574.234	69.12
574.445	70.12
574.656	81.12
574.867	84.12
575.078	82.12
575.289	89.12
575.501	73.12
575.712	69.12
575.923	81.12
576.134	81.12
576.345	72.12
576.556	93.12
576.767	81.12
576.978	88.12
577.188	97.12
577.399	86.12
577.61	81.12
577.821	90.12
578.032	86.12
578.243	86.12
578.454	92.12
578.665	73.12
578.875	94.12
579.086	98.12
579.297	98.12
579.508	70.12
579.718	94.12
579.929	76.12
580.14	80.12
580.35	95.12
580.561	71.12
580.772	86.12
580.982	85.12
581.193	88.12
581.403	93.12
581.614	79.12
581.825	81.12
582.035	72.12
582.246	105.12
582.456	83.12
582.667	103.12
582.877	88.12
583.087	86.12
583.298	88.12
583.508	85.12
583.719	78.12
583.929	81.12
584.139	81.12
584.35	85.12
584.56	95.12
584.77	95.12
584.981	94.12
585.191	82.12
585.401	86.12
585.611	75.12
585.821	96.12
586.032	92.12
586.242	84.12
586.452	95.12
586.662	78.12
586.872	81.12
587.082	79.12
587.292	74.12
587.502	81.12
587.713	81.12
587.923	84.12
588.133	92.12
588.343	80.12
588.553	85.12
588.762	93.12
588.972	121.12
589.182	128.12
589.392	111.12
589.602	112.12
589.812	123.12
590.022	112.12
590.232	99.12
590.441	83.12
590.651	82.12
590.861	72.12
591.071	89.12
591.281	91.12
591.49	88.12
591.7	89.12
591.91	77.12
592.119	82.12
592.329	78.12
592.539	97.12
592.748	88.12
592.958	91.12
593.167	77.12
593.377	89.12
593.587	86.12
593.796	81.12
594.006	96.12
594.215	83.12
594.424	80.12
594.634	85.12
594.843	90.12
595.053	89.12
595.262	84.12
595.472	82.12
595.681	91.12
595.89	99.12
596.1	91.12
596.309	88.12
596.518	81.12
596.727	94.12
596.937	79.12
597.146	80.12
597.355	73.12
597.564	80.12
597.774	89.12
597.983	85.12
598.192	93.12
598.401	72.12
598.61	81.12
598.819	86.12
599.028	86.12
599.237	76.12
599.446	80.12
599.655	81.12
599.864	81.12
600.073	71.12
600.282	73.12
600.491	85.12
600.7	99.12
600.909	83.12
601.118	73.12
601.327	76.12
601.536	91.12
601.745	84.12
601.953	81.12
602.162	85.12
602.371	91.12
602.58	83.12
602.789	82.12
602.997	88.12
603.206	90.12
603.415	86.12
603.623	82.12
603.832	95.12
604.041	89.12
604.249	86.12
604.458	90.12
604.666	90.12
604.875	78.12
605.084	79.12
605.292	87.12
605.501	80.12
605.709	75.12
605.918	84.12
606.126	78.12
606.334	78.12
606.543	74.12
606.751	88.12
606.96	75.12
607.168	69.12
607.376	86.12
607.585	98.12
607.793	92.12
608.001	87.12
608.21	79.12
608.418	83.12
608.626	83.12
608.834	75.12
609.043	89.12
609.251	85.12
609.459	80.12
609.667	98.12
609.875	83.12
610.083	90.12
610.291	90.12
610.499	92.12
610.707	70.12
610.916	82.12
611.124	90.12
611.332	89.12
611.54	99.12
611.748	87.12
611.955	94.12
612.163	90.12
612.371	93.12
612.579	75.12
612.787	79.12
612.995	75.12
613.203	71.12
613.411	85.12
613.618	74.12
613.826	79.12
614.034	86.12
614.242	76.12
614.449	78.12
614.657	72.12
614.865	74.12
615.072	71.12
615.28	94.12
615.488	75.12
615.695	82.12
615.903	89.12
616.111	96.12
616.318	79.12
616.526	90.12
616.733	98.12
616.941	98.12
617.148	96.12
617.356	68.12
617.563	79.12
617.771	80.12
617.978	83.12
618.185	94.12
618.393	84.12
618.6	81.12
618.807	80.12
619.015	85.12
619.222	93.12
619.429	69.12
619.637	76.12
619.844	77.12
620.051	92.12
620.258	94.12
620.466	87.12
620.673	75.12
620.88	74.12
621.087	97.12
621.294	72.12
621.501	97.12
621.708	80.12
621.915	83.12
622.122	85.12
622.329	89.12
622.536	86.12
622.743	79.12
622.95	79.12
623.157	87.12
623.364	83.12
623.571	83.12
623.778	82.12
623.985	88.12
624.192	79.12
624.399	87.12
624.606	73.12
624.812	96.12
625.019	77.12
625.226	76.12
625.433	90.12
625.639	71.12
625.846	85.12
626.053	87.12
626.259	71.12
626.466	85.12
626.673	82.12
626.879	84.12
627.086	84.12
627.293	81.12
627.499	90.12
627.706	85.12
627.912	77.12
628.119	94.12
628.325	74.12
628.532	81.12
628.738	91.12
628.945	82.12
629.151	83.12
629.357	98.12
629.564	76.12
629.77	83.12
629.976	84.12
630.183	84.12
630.389	69.12
630.595	80.12
630.802	76.12
631.008	82.12
631.214	81.12
631.42	97.12
631.627	87.12
631.833	76.12
632.039	83.12
632.245	85.12
632.451	86.12
632.657	89.12
632.863	82.12
633.069	83.12
633.275	82.12
633.481	89.12
633.688	74.12
633.893	97.12
634.099	91.12
634.305	82.12
634.511	87.12
634.717	85.12
634.923	90.12
635.129	82.12
635.335	73.12
635.541	82.12
635.747	77.12
635.952	80.12
636.158	93.12
636.364	90.12
636.57	84.12
636.775	92.12
636.981	90.12
637.187	95.12
637.392	87.12
637.598	90.12
637.804	93.12
638.009	89.12
638.215	73.12
638.421	93.12
638.626	82.12
638.832	78.12
639.037	83.12
639.243	73.12
639.448	83.12
639.654	81.12
639.859	101.12
640.065	83.12
640.27	91.12
640.475	91.12
640.681	68.12
640.886	80.12
641.091	81.12
641.297	96.12
641.502	88.12
641.707	88.12
641.913	81.12
642.118	81.12
642.323	71.12
642.528	88.12
642.733	76.12
642.939	92.12
643.144	83.12
643.349	79.12
643.554	80.12
643.759	87.12
643.964	73.12
644.169	78.12
644.374	81.12
644.579	81.12
644.784	85.12
644.989	71.12
645.194	96.12
645.399	74.12
645.604	93.12
645.809	92.12
646.014	82.12
646.219	73.12
646.423	82.12
646.628	77.12
646.833	95.12
647.038	96.12
647.243	98.12
647.447	90.12
647.652	79.12
647.857	89.12
648.062	82.12
648.266	90.12
648.471	85.12
648.676	88.12
648.88	84.12
649.085	87.12
649.289	85.12
649.494	85.12
649.698	86.12
649.903	92.12
650.107	90.12
650.312	87.12
650.516	87.12
650.721	87.12
650.925	92.12
651.13	81.12
651.334	66.12
651.539	71.12
651.743	77.12
651.947	75.12
652.152	84.12
652.356	86.12
652.56	83.12
652.764	80.12
652.969	73.12
653.173	83.12
653.377	82.12
653.581	65.12
653.785	79.12
653.99	74.12
654.194	69.12
654.398	70.12
654.602	74.12
654.806	87.12
655.01	84.12
655.214	85.12
655.418	89.12
655.622	88.12
655.826	82.12
656.03	72.12
656.234	87.12
656.438	81.12
656.642	90.12
656.846	94.12
657.049	88.12
657.253	90.12
657.457	71.12
657.661	87.12
657.865	74.12
658.068	71.12
658.272	86.12
658.476	87.12
658.68	75.12
658.883	89.12
659.087	90.12
659.291	72.12
659.494	88.12
659.698	74.12
659.901	81.12
660.105	61.12
660.309	64.12
660.512	69.12
660.716	79.12
660.919	89.12
661.123	90.12
661.326	78.12
661.53	79.12
661.733	87.12
661.936	72.12
662.14	83.12
662.343	84.12
662.546	84.12
662.75	84.12
662.953	93.12
663.156	93.12
663.36	80.12
663.563	78.12
663.766	71.12
663.969	85.12
664.173	81.12
664.376	79.12
664.579	82.12
664.782	87.12
664.985	81.12
665.188	77.12
665.391	93.12
665.594	88.12
665.797	76.12
666	80.12
666.203	82.12
666.406	82.12
666.609	76.12
666.812	77.12
667.015	100.12
667.218	83.12
667.421	71.12
667.624	93.12
667.827	85.12
668.03	79.12
668.232	87.12
668.435	84.12
668.638	94.12
668.841	95.12
669.043	86.12
669.246	80.12
669.449	96.12
669.651	84.12
669.854	89.12
670.057	90.12
670.259	87.12
670.462	83.12
670.665	86.12
670.867	84.12
671.07	80.12
671.272	88.12
671.475	90.12
671.677	95.12
671.88	84.12
672.082	84.12
672.284	80.12
672.487	84.12
672.689	70.12
672.892	87.12
