Data from Lead_25_2_HRD10591_00067.txt Node
Date: Fri Feb 20 11:02:18 EST 2026
User: Yrep
Spectrometer: HR+D1059
Trigger mode: 1
Integration Time (sec): 1.000000E-1
Scans to average: 1
Electric dark correction enabled: true
Nonlinearity correction enabled: false
Boxcar width: 0
XAxis mode: Wavelengths
Number of Pixels in Spectrum: 2048
>>>>>Begin Spectral Data<<<<<
223.165	-9.94
223.4	-9.94
223.635	-9.94
223.869	-31.94
224.104	-21.94
224.338	-26.94
224.573	-21.94
224.808	-25.94
225.042	-4.94
225.277	-12.94
225.511	0.06
225.746	8.06
225.98	17.06
226.215	23.06
226.449	21.06
226.683	23.06
226.918	25.06
227.152	39.06
227.387	29.06
227.621	40.06
227.856	45.06
228.09	60.06
228.324	66.06
228.559	64.06
228.793	53.06
229.027	71.06
229.262	62.06
229.496	63.06
229.73	71.06
229.964	80.06
230.199	72.06
230.433	72.06
230.667	82.06
230.901	84.06
231.136	89.06
231.37	82.06
231.604	66.06
231.838	75.06
232.072	82.06
232.306	90.06
232.541	68.06
232.775	86.06
233.009	82.06
233.243	92.06
233.477	79.06
233.711	92.06
233.945	94.06
234.179	89.06
234.413	90.06
234.647	79.06
234.881	83.06
235.115	92.06
235.349	75.06
235.583	83.06
235.817	83.06
236.051	86.06
236.285	74.06
236.519	91.06
236.753	80.06
236.987	82.06
237.221	81.06
237.455	90.06
237.689	83.06
237.922	71.06
238.156	84.06
238.39	81.06
238.624	66.06
238.858	78.06
239.091	91.06
239.325	72.06
239.559	85.06
239.793	86.06
240.027	82.06
240.26	84.06
240.494	78.06
240.728	87.06
240.961	87.06
241.195	80.06
241.429	69.06
241.662	87.06
241.896	80.06
242.13	88.06
242.363	87.06
242.597	80.06
242.83	84.06
243.064	84.06
243.298	85.06
243.531	83.06
243.765	75.06
243.998	77.06
244.232	92.06
244.465	72.06
244.699	83.06
244.932	83.06
245.166	82.06
245.399	75.06
245.633	80.06
245.866	87.06
246.099	64.06
246.333	90.06
246.566	78.06
246.8	79.06
247.033	78.06
247.266	88.06
247.5	87.06
247.733	79.06
247.966	86.06
248.2	81.06
248.433	77.06
248.666	68.06
248.899	73.06
249.133	71.06
249.366	85.06
249.599	80.06
249.832	85.06
250.066	86.06
250.299	81.06
250.532	82.06
250.765	66.06
250.998	76.06
251.231	89.06
251.465	75.06
251.698	82.06
251.931	76.06
252.164	82.06
252.397	84.06
252.63	86.06
252.863	65.06
253.096	86.06
253.329	76.06
253.562	90.06
253.795	81.06
254.028	73.06
254.261	88.06
254.494	75.06
254.727	72.06
254.96	72.06
255.193	77.06
255.426	93.06
255.659	78.06
255.892	79.06
256.124	75.06
256.357	80.06
256.59	84.06
256.823	74.06
257.056	80.06
257.289	80.06
257.521	86.06
257.754	84.06
257.987	87.06
258.22	71.06
258.452	76.06
258.685	80.06
258.918	77.06
259.151	83.06
259.383	84.06
259.616	90.06
259.849	75.06
260.081	74.06
260.314	89.06
260.547	95.06
260.779	76.06
261.012	82.06
261.244	89.06
261.477	89.06
261.71	96.06
261.942	93.06
262.175	68.06
262.407	88.06
262.64	92.06
262.872	77.06
263.105	84.06
263.337	81.06
263.57	87.06
263.802	80.06
264.035	90.06
264.267	92.06
264.499	86.06
264.732	94.06
264.964	79.06
265.197	75.06
265.429	81.06
265.661	96.06
265.894	89.06
266.126	80.06
266.358	69.06
266.591	94.06
266.823	82.06
267.055	85.06
267.287	98.06
267.52	88.06
267.752	89.06
267.984	74.06
268.216	83.06
268.448	81.06
268.681	88.06
268.913	82.06
269.145	90.06
269.377	76.06
269.609	76.06
269.841	88.06
270.073	85.06
270.306	76.06
270.538	75.06
270.77	76.06
271.002	83.06
271.234	77.06
271.466	90.06
271.698	87.06
271.93	88.06
272.162	87.06
272.394	91.06
272.626	86.06
272.858	95.06
273.09	82.06
273.322	75.06
273.553	90.06
273.785	83.06
274.017	80.06
274.249	63.06
274.481	88.06
274.713	80.06
274.945	89.06
275.176	78.06
275.408	95.06
275.64	88.06
275.872	62.06
276.104	77.06
276.335	84.06
276.567	89.06
276.799	84.06
277.031	90.06
277.262	89.06
277.494	79.06
277.726	89.06
277.957	80.06
278.189	80.06
278.421	98.06
278.652	91.06
278.884	84.06
279.115	83.06
279.347	86.06
279.579	80.06
279.81	73.06
280.042	82.06
280.273	83.06
280.505	77.06
280.736	92.06
280.968	97.06
281.199	90.06
281.431	75.06
281.662	92.06
281.894	84.06
282.125	86.06
282.356	95.06
282.588	95.06
282.819	83.06
283.051	76.06
283.282	91.06
283.513	95.06
283.745	91.06
283.976	94.06
284.207	87.06
284.439	84.06
284.67	83.06
284.901	79.06
285.132	77.06
285.364	91.06
285.595	73.06
285.826	94.06
286.057	91.06
286.288	77.06
286.52	84.06
286.751	86.06
286.982	86.06
287.213	82.06
287.444	87.06
287.675	80.06
287.906	78.06
288.138	77.06
288.369	83.06
288.6	91.06
288.831	83.06
289.062	98.06
289.293	90.06
289.524	88.06
289.755	75.06
289.986	80.06
290.217	78.06
290.448	91.06
290.679	75.06
290.91	89.06
291.141	89.06
291.371	83.06
291.602	83.06
291.833	98.06
292.064	87.06
292.295	86.06
292.526	98.06
292.757	88.06
292.987	88.06
293.218	81.06
293.449	99.06
293.68	81.06
293.91	77.06
294.141	98.06
294.372	82.06
294.603	99.06
294.833	86.06
295.064	84.06
295.295	102.06
295.525	75.06
295.756	81.06
295.987	84.06
296.217	86.06
296.448	87.06
296.679	83.06
296.909	86.06
297.14	84.06
297.37	80.06
297.601	82.06
297.831	80.06
298.062	80.06
298.292	80.06
298.523	97.06
298.753	80.06
298.984	90.06
299.214	81.06
299.445	78.06
299.675	80.06
299.905	78.06
300.136	77.06
300.366	84.06
300.597	94.06
300.827	76.06
301.057	85.06
301.288	93.06
301.518	83.06
301.748	80.06
301.979	96.06
302.209	85.06
302.439	90.06
302.669	81.06
302.9	73.06
303.13	104.06
303.36	78.06
303.59	79.06
303.82	82.06
304.051	84.06
304.281	94.06
304.511	85.06
304.741	83.06
304.971	72.06
305.201	76.06
305.431	86.06
305.661	70.06
305.891	83.06
306.121	103.06
306.352	86.06
306.582	88.06
306.812	95.06
307.042	70.06
307.272	82.06
307.502	86.06
307.731	103.06
307.961	96.06
308.191	73.06
308.421	96.06
308.651	80.06
308.881	95.06
309.111	99.06
309.341	85.06
309.571	74.06
309.8	85.06
310.03	89.06
310.26	90.06
310.49	83.06
310.72	94.06
310.949	86.06
311.179	85.06
311.409	86.06
311.639	90.06
311.868	83.06
312.098	77.06
312.328	81.06
312.557	92.06
312.787	79.06
313.017	87.06
313.246	79.06
313.476	96.06
313.706	80.06
313.935	77.06
314.165	83.06
314.394	77.06
314.624	97.06
314.853	89.06
315.083	84.06
315.312	85.06
315.542	99.06
315.771	87.06
316.001	80.06
316.23	83.06
316.46	94.06
316.689	88.06
316.919	99.06
317.148	90.06
317.377	86.06
317.607	92.06
317.836	69.06
318.065	94.06
318.295	87.06
318.524	87.06
318.753	91.06
318.983	84.06
319.212	82.06
319.441	70.06
319.67	86.06
319.9	71.06
320.129	79.06
320.358	92.06
320.587	87.06
320.816	91.06
321.046	104.06
321.275	85.06
321.504	91.06
321.733	80.06
321.962	98.06
322.191	88.06
322.42	94.06
322.649	75.06
322.878	86.06
323.108	87.06
323.337	98.06
323.566	85.06
323.795	81.06
324.024	84.06
324.253	92.06
324.482	73.06
324.71	86.06
324.939	93.06
325.168	96.06
325.397	98.06
325.626	91.06
325.855	89.06
326.084	79.06
326.313	81.06
326.542	77.06
326.77	83.06
326.999	91.06
327.228	73.06
327.457	81.06
327.686	81.06
327.914	76.06
328.143	82.06
328.372	85.06
328.6	80.06
328.829	83.06
329.058	100.06
329.287	80.06
329.515	89.06
329.744	80.06
329.972	88.06
330.201	82.06
330.43	75.06
330.658	87.06
330.887	95.06
331.115	88.06
331.344	93.06
331.572	82.06
331.801	96.06
332.03	81.06
332.258	72.06
332.486	94.06
332.715	84.06
332.943	89.06
333.172	91.06
333.4	84.06
333.629	86.06
333.857	81.06
334.085	72.06
334.314	88.06
334.542	84.06
334.771	82.06
334.999	76.06
335.227	82.06
335.455	82.06
335.684	79.06
335.912	90.06
336.14	84.06
336.369	100.06
336.597	81.06
336.825	88.06
337.053	95.06
337.281	80.06
337.51	89.06
337.738	82.06
337.966	84.06
338.194	73.06
338.422	72.06
338.65	86.06
338.878	97.06
339.106	76.06
339.334	97.06
339.562	95.06
339.79	90.06
340.018	78.06
340.246	84.06
340.474	75.06
340.702	93.06
340.93	95.06
341.158	95.06
341.386	95.06
341.614	81.06
341.842	93.06
342.07	92.06
342.298	75.06
342.526	83.06
342.754	90.06
342.981	86.06
343.209	80.06
343.437	98.06
343.665	73.06
343.893	93.06
344.12	79.06
344.348	81.06
344.576	85.06
344.804	56.06
345.031	86.06
345.259	74.06
345.487	89.06
345.714	92.06
345.942	85.06
346.17	86.06
346.397	89.06
346.625	82.06
346.853	84.06
347.08	81.06
347.308	95.06
347.535	93.06
347.763	76.06
347.99	90.06
348.218	80.06
348.445	83.06
348.673	84.06
348.9	87.06
349.128	91.06
349.355	85.06
349.583	89.06
349.81	82.06
350.037	78.06
350.265	92.06
350.492	88.06
350.72	91.06
350.947	89.06
351.174	87.06
351.402	89.06
351.629	81.06
351.856	80.06
352.083	89.06
352.311	91.06
352.538	74.06
352.765	88.06
352.992	98.06
353.22	82.06
353.447	95.06
353.674	91.06
353.901	94.06
354.128	83.06
354.355	86.06
354.583	100.06
354.81	89.06
355.037	94.06
355.264	90.06
355.491	84.06
355.718	81.06
355.945	80.06
356.172	96.06
356.399	107.06
356.626	75.06
356.853	85.06
357.08	92.06
357.307	87.06
357.534	82.06
357.761	82.06
357.988	90.06
358.215	90.06
358.441	72.06
358.668	89.06
358.895	82.06
359.122	76.06
359.349	76.06
359.576	85.06
359.802	81.06
360.029	83.06
360.256	88.06
360.483	80.06
360.709	78.06
360.936	75.06
361.163	95.06
361.39	74.06
361.616	84.06
361.843	74.06
362.07	86.06
362.296	78.06
362.523	82.06
362.749	78.06
362.976	73.06
363.203	78.06
363.429	75.06
363.656	87.06
363.882	88.06
364.109	103.06
364.335	97.06
364.562	83.06
364.788	80.06
365.015	87.06
365.241	84.06
365.468	76.06
365.694	73.06
365.92	85.06
366.147	86.06
366.373	82.06
366.599	78.06
366.826	78.06
367.052	93.06
367.278	94.06
367.505	71.06
367.731	94.06
367.957	105.06
368.184	105.06
368.41	88.06
368.636	91.06
368.862	81.06
369.089	93.06
369.315	91.06
369.541	90.06
369.767	84.06
369.993	86.06
370.219	88.06
370.445	88.06
370.672	79.06
370.898	86.06
371.124	91.06
371.35	88.06
371.576	69.06
371.802	88.06
372.028	83.06
372.254	94.06
372.48	87.06
372.706	85.06
372.932	91.06
373.158	88.06
373.384	95.06
373.61	91.06
373.835	94.06
374.061	87.06
374.287	78.06
374.513	90.06
374.739	87.06
374.965	75.06
375.191	84.06
375.416	94.06
375.642	97.06
375.868	70.06
376.094	83.06
376.319	78.06
376.545	86.06
376.771	74.06
376.997	95.06
377.222	79.06
377.448	73.06
377.674	95.06
377.899	82.06
378.125	86.06
378.35	94.06
378.576	88.06
378.802	79.06
379.027	76.06
379.253	90.06
379.478	82.06
379.704	66.06
379.929	84.06
380.155	83.06
380.38	85.06
380.606	86.06
380.831	72.06
381.057	97.06
381.282	85.06
381.507	87.06
381.733	91.06
381.958	73.06
382.184	92.06
382.409	78.06
382.634	87.06
382.86	69.06
383.085	81.06
383.31	82.06
383.535	77.06
383.761	76.06
383.986	94.06
384.211	75.06
384.436	91.06
384.662	81.06
384.887	87.06
385.112	87.06
385.337	73.06
385.562	70.06
385.787	75.06
386.013	84.06
386.238	83.06
386.463	88.06
386.688	88.06
386.913	77.06
387.138	91.06
387.363	91.06
387.588	90.06
387.813	80.06
388.038	97.06
388.263	93.06
388.488	82.06
388.713	76.06
388.938	85.06
389.163	78.06
389.387	78.06
389.612	84.06
389.837	65.06
390.062	89.06
390.287	80.06
390.512	77.06
390.736	79.06
390.961	91.06
391.186	91.06
391.411	84.06
391.636	88.06
391.86	97.06
392.085	96.06
392.31	90.06
392.534	78.06
392.759	90.06
392.984	90.06
393.208	90.06
393.433	85.06
393.658	94.06
393.882	84.06
394.107	90.06
394.331	80.06
394.556	84.06
394.78	82.06
395.005	84.06
395.229	83.06
395.454	92.06
395.678	95.06
395.903	80.06
396.127	85.06
396.352	95.06
396.576	102.06
396.801	99.06
397.025	80.06
397.249	67.06
397.474	92.06
397.698	92.06
397.922	79.06
398.147	73.06
398.371	78.06
398.595	78.06
398.82	79.06
399.044	93.06
399.268	79.06
399.492	90.06
399.717	80.06
399.941	77.06
400.165	86.06
400.389	75.06
400.613	80.06
400.837	76.06
401.062	86.06
401.286	86.06
401.51	81.06
401.734	101.06
401.958	91.06
402.182	94.06
402.406	82.06
402.63	86.06
402.854	87.06
403.078	67.06
403.302	77.06
403.526	92.06
403.75	84.06
403.974	85.06
404.198	86.06
404.422	85.06
404.645	90.06
404.869	80.06
405.093	92.06
405.317	103.06
405.541	97.06
405.765	112.06
405.988	105.06
406.212	101.06
406.436	93.06
406.66	86.06
406.883	68.06
407.107	82.06
407.331	83.06
407.555	88.06
407.778	95.06
408.002	84.06
408.226	73.06
408.449	78.06
408.673	80.06
408.896	83.06
409.12	85.06
409.344	90.06
409.567	82.06
409.791	97.06
410.014	104.06
410.238	78.06
410.461	81.06
410.685	90.06
410.908	88.06
411.132	95.06
411.355	81.06
411.578	84.06
411.802	78.06
412.025	86.06
412.249	76.06
412.472	86.06
412.695	73.06
412.919	91.06
413.142	76.06
413.365	83.06
413.589	94.06
413.812	86.06
414.035	98.06
414.258	89.06
414.482	86.06
414.705	79.06
414.928	96.06
415.151	83.06
415.374	87.06
415.597	90.06
415.821	83.06
416.044	78.06
416.267	79.06
416.49	80.06
416.713	80.06
416.936	79.06
417.159	90.06
417.382	64.06
417.605	76.06
417.828	83.06
418.051	86.06
418.274	76.06
418.497	86.06
418.72	82.06
418.943	78.06
419.166	81.06
419.389	71.06
419.611	65.06
419.834	86.06
420.057	101.06
420.28	92.06
420.503	85.06
420.726	84.06
420.948	101.06
421.171	70.06
421.394	72.06
421.617	84.06
421.839	88.06
422.062	75.06
422.285	84.06
422.507	86.06
422.73	84.06
422.953	94.06
423.175	72.06
423.398	78.06
423.621	74.06
423.843	72.06
424.066	70.06
424.288	72.06
424.511	80.06
424.733	78.06
424.956	81.06
425.178	91.06
425.401	98.06
425.623	70.06
425.846	81.06
426.068	86.06
426.291	89.06
426.513	86.06
426.735	76.06
426.958	87.06
427.18	80.06
427.402	83.06
427.625	93.06
427.847	75.06
428.069	87.06
428.292	81.06
428.514	95.06
428.736	74.06
428.958	70.06
429.181	81.06
429.403	89.06
429.625	89.06
429.847	100.06
430.069	82.06
430.292	85.06
430.514	73.06
430.736	64.06
430.958	89.06
431.18	96.06
431.402	83.06
431.624	88.06
431.846	76.06
432.068	83.06
432.29	95.06
432.512	80.06
432.734	87.06
432.956	70.06
433.178	70.06
433.4	80.06
433.622	74.06
433.844	77.06
434.066	75.06
434.287	84.06
434.509	87.06
434.731	79.06
434.953	72.06
435.175	74.06
435.397	86.06
435.618	86.06
435.84	88.06
436.062	75.06
436.284	75.06
436.505	81.06
436.727	84.06
436.949	85.06
437.17	83.06
437.392	82.06
437.614	96.06
437.835	91.06
438.057	75.06
438.278	73.06
438.5	81.06
438.721	70.06
438.943	81.06
439.165	86.06
439.386	82.06
439.608	84.06
439.829	88.06
440.05	96.06
440.272	81.06
440.493	79.06
440.715	81.06
440.936	81.06
441.158	79.06
441.379	75.06
441.6	75.06
441.822	87.06
442.043	103.06
442.264	80.06
442.486	74.06
442.707	89.06
442.928	83.06
443.149	79.06
443.371	80.06
443.592	77.06
443.813	91.06
444.034	83.06
444.255	90.06
444.476	84.06
444.698	67.06
444.919	81.06
445.14	166.06
445.361	108.06
445.582	84.06
445.803	74.06
446.024	102.06
446.245	72.06
446.466	79.06
446.687	90.06
446.908	78.06
447.129	86.06
447.35	75.06
447.571	92.06
447.792	83.06
448.013	87.06
448.234	93.06
448.455	80.06
448.675	89.06
448.896	85.06
449.117	90.06
449.338	73.06
449.559	83.06
449.779	82.06
450	90.06
450.221	76.06
450.442	77.06
450.662	80.06
450.883	89.06
451.104	91.06
451.324	69.06
451.545	86.06
451.766	88.06
451.986	83.06
452.207	102.06
452.428	87.06
452.648	87.06
452.869	79.06
453.089	77.06
453.31	75.06
453.53	74.06
453.751	78.06
453.971	83.06
454.192	70.06
454.412	75.06
454.633	83.06
454.853	88.06
455.073	69.06
455.294	82.06
455.514	91.06
455.734	82.06
455.955	91.06
456.175	85.06
456.395	66.06
456.616	84.06
456.836	83.06
457.056	81.06
457.276	85.06
457.497	84.06
457.717	90.06
457.937	96.06
458.157	90.06
458.377	84.06
458.598	75.06
458.818	74.06
459.038	72.06
459.258	69.06
459.478	66.06
459.698	74.06
459.918	66.06
460.138	97.06
460.358	87.06
460.578	79.06
460.798	76.06
461.018	97.06
461.238	79.06
461.458	78.06
461.678	64.06
461.898	76.06
462.118	91.06
462.338	98.06
462.558	92.06
462.777	88.06
462.997	74.06
463.217	76.06
463.437	82.06
463.657	91.06
463.876	73.06
464.096	94.06
464.316	81.06
464.536	80.06
464.755	83.06
464.975	86.06
465.195	90.06
465.414	86.06
465.634	88.06
465.854	73.06
466.073	65.06
466.293	78.06
466.512	76.06
466.732	89.06
466.951	87.06
467.171	73.06
467.391	87.06
467.61	87.06
467.829	87.06
468.049	79.06
468.268	81.06
468.488	81.06
468.707	82.06
468.927	80.06
469.146	79.06
469.365	81.06
469.585	84.06
469.804	75.06
470.023	77.06
470.243	84.06
470.462	76.06
470.681	71.06
470.901	86.06
471.12	79.06
471.339	85.06
471.558	82.06
471.777	90.06
471.997	93.06
472.216	77.06
472.435	62.06
472.654	74.06
472.873	74.06
473.092	82.06
473.311	83.06
473.53	80.06
473.749	86.06
473.968	93.06
474.187	79.06
474.406	76.06
474.625	76.06
474.844	75.06
475.063	77.06
475.282	83.06
475.501	83.06
475.72	86.06
475.939	74.06
476.158	77.06
476.377	80.06
476.596	89.06
476.814	89.06
477.033	94.06
477.252	80.06
477.471	79.06
477.69	83.06
477.908	79.06
478.127	100.06
478.346	78.06
478.564	82.06
478.783	72.06
479.002	86.06
479.22	91.06
479.439	82.06
479.658	67.06
479.876	72.06
480.095	86.06
480.313	72.06
480.532	79.06
480.751	101.06
480.969	89.06
481.188	78.06
481.406	94.06
481.624	83.06
481.843	92.06
482.061	81.06
482.28	90.06
482.498	89.06
482.717	87.06
482.935	92.06
483.153	71.06
483.372	88.06
483.59	88.06
483.808	86.06
484.027	83.06
484.245	82.06
484.463	83.06
484.681	97.06
484.9	71.06
485.118	81.06
485.336	78.06
485.554	91.06
485.772	74.06
485.99	84.06
486.209	86.06
486.427	82.06
486.645	76.06
486.863	95.06
487.081	86.06
487.299	88.06
487.517	88.06
487.735	77.06
487.953	72.06
488.171	89.06
488.389	84.06
488.607	75.06
488.825	80.06
489.043	76.06
489.261	82.06
489.479	80.06
489.696	86.06
489.914	90.06
490.132	83.06
490.35	98.06
490.568	79.06
490.786	76.06
491.003	86.06
491.221	79.06
491.439	75.06
491.657	87.06
491.874	88.06
492.092	82.06
492.31	98.06
492.527	89.06
492.745	91.06
492.963	88.06
493.18	78.06
493.398	82.06
493.615	84.06
493.833	72.06
494.05	76.06
494.268	77.06
494.485	82.06
494.703	93.06
494.92	83.06
495.138	81.06
495.355	94.06
495.573	91.06
495.79	84.06
496.008	84.06
496.225	104.06
496.442	89.06
496.66	87.06
496.877	90.06
497.094	72.06
497.312	72.06
497.529	89.06
497.746	72.06
497.963	98.06
498.181	91.06
498.398	88.06
498.615	86.06
498.832	89.06
499.049	83.06
499.267	84.06
499.484	88.06
499.701	78.06
499.918	97.06
500.135	81.06
500.352	82.06
500.569	81.06
500.786	92.06
501.003	84.06
501.22	85.06
501.437	88.06
501.654	80.06
501.871	91.06
502.088	88.06
502.305	87.06
502.522	95.06
502.739	85.06
502.956	84.06
503.172	83.06
503.389	79.06
503.606	76.06
503.823	89.06
504.04	79.06
504.256	92.06
504.473	82.06
504.69	71.06
504.907	107.06
505.123	91.06
505.34	84.06
505.557	88.06
505.773	81.06
505.99	95.06
506.207	67.06
506.423	96.06
506.64	95.06
506.856	79.06
507.073	77.06
507.289	94.06
507.506	78.06
507.722	96.06
507.939	85.06
508.155	80.06
508.372	82.06
508.588	96.06
508.805	94.06
509.021	88.06
509.238	79.06
509.454	85.06
509.67	92.06
509.887	82.06
510.103	87.06
510.319	94.06
510.536	88.06
510.752	83.06
510.968	88.06
511.184	79.06
511.401	71.06
511.617	93.06
511.833	83.06
512.049	91.06
512.265	88.06
512.481	87.06
512.698	86.06
512.914	69.06
513.13	85.06
513.346	76.06
513.562	75.06
513.778	80.06
513.994	70.06
514.21	82.06
514.426	80.06
514.642	76.06
514.858	98.06
515.074	83.06
515.29	85.06
515.506	64.06
515.721	80.06
515.937	82.06
516.153	89.06
516.369	72.06
516.585	74.06
516.801	97.06
517.016	83.06
517.232	88.06
517.448	94.06
517.664	92.06
517.879	88.06
518.095	86.06
518.311	83.06
518.527	80.06
518.742	87.06
518.958	74.06
519.173	96.06
519.389	84.06
519.605	70.06
519.82	93.06
520.036	75.06
520.251	86.06
520.467	69.06
520.682	66.06
520.898	81.06
521.113	82.06
521.329	76.06
521.544	87.06
521.76	74.06
521.975	81.06
522.19	76.06
522.406	77.06
522.621	84.06
522.836	85.06
523.052	87.06
523.267	91.06
523.482	98.06
523.698	82.06
523.913	100.06
524.128	88.06
524.343	77.06
524.559	87.06
524.774	85.06
524.989	97.06
525.204	89.06
525.419	84.06
525.634	87.06
525.849	74.06
526.064	73.06
526.28	81.06
526.495	95.06
526.71	94.06
526.925	85.06
527.14	93.06
527.355	77.06
527.57	82.06
527.785	80.06
527.999	66.06
528.214	75.06
528.429	90.06
528.644	75.06
528.859	72.06
529.074	79.06
529.289	80.06
529.503	77.06
529.718	80.06
529.933	75.06
530.148	94.06
530.363	78.06
530.577	78.06
530.792	72.06
531.007	82.06
531.221	95.06
531.436	87.06
531.651	90.06
531.865	70.06
532.08	74.06
532.295	97.06
532.509	81.06
532.724	78.06
532.938	93.06
533.153	97.06
533.367	76.06
533.582	81.06
533.796	89.06
534.011	94.06
534.225	87.06
534.44	85.06
534.654	78.06
534.868	98.06
535.083	80.06
535.297	87.06
535.511	87.06
535.726	72.06
535.94	86.06
536.154	86.06
536.369	81.06
536.583	86.06
536.797	78.06
537.011	81.06
537.225	99.06
537.44	95.06
537.654	98.06
537.868	102.06
538.082	76.06
538.296	71.06
538.51	79.06
538.724	94.06
538.938	73.06
539.153	83.06
539.367	90.06
539.581	87.06
539.795	80.06
540.009	101.06
540.222	92.06
540.436	82.06
540.65	75.06
540.864	92.06
541.078	90.06
541.292	83.06
541.506	93.06
541.72	72.06
541.934	64.06
542.147	84.06
542.361	88.06
542.575	84.06
542.789	99.06
543.002	89.06
543.216	84.06
543.43	75.06
543.644	75.06
543.857	87.06
544.071	95.06
544.285	103.06
544.498	82.06
544.712	87.06
544.925	85.06
545.139	98.06
545.352	91.06
545.566	91.06
545.779	84.06
545.993	78.06
546.206	77.06
546.42	90.06
546.633	96.06
546.847	87.06
547.06	91.06
547.274	84.06
547.487	83.06
547.7	89.06
547.914	88.06
548.127	87.06
548.34	89.06
548.554	89.06
548.767	84.06
548.98	88.06
549.193	90.06
549.407	88.06
549.62	77.06
549.833	77.06
550.046	79.06
550.259	90.06
550.473	80.06
550.686	83.06
550.899	77.06
551.112	84.06
551.325	87.06
551.538	72.06
551.751	84.06
551.964	79.06
552.177	92.06
552.39	80.06
552.603	87.06
552.816	109.06
553.029	99.06
553.242	82.06
553.455	95.06
553.667	96.06
553.88	76.06
554.093	89.06
554.306	77.06
554.519	80.06
554.732	97.06
554.944	82.06
555.157	89.06
555.37	91.06
555.583	92.06
555.795	89.06
556.008	85.06
556.221	86.06
556.433	82.06
556.646	84.06
556.859	97.06
557.071	86.06
557.284	76.06
557.496	69.06
557.709	96.06
557.921	100.06
558.134	94.06
558.346	88.06
558.559	87.06
558.771	94.06
558.984	78.06
559.196	86.06
559.409	73.06
559.621	89.06
559.833	74.06
560.046	76.06
560.258	90.06
560.47	98.06
560.683	85.06
560.895	86.06
561.107	87.06
561.32	103.06
561.532	88.06
561.744	80.06
561.956	76.06
562.168	76.06
562.381	77.06
562.593	83.06
562.805	81.06
563.017	79.06
563.229	59.06
563.441	76.06
563.653	70.06
563.865	83.06
564.077	78.06
564.289	82.06
564.501	74.06
564.713	73.06
564.925	76.06
565.137	86.06
565.349	104.06
565.561	76.06
565.773	88.06
565.985	101.06
566.197	80.06
566.408	72.06
566.62	88.06
566.832	82.06
567.044	88.06
567.255	78.06
567.467	59.06
567.679	95.06
567.891	83.06
568.102	94.06
568.314	81.06
568.526	88.06
568.737	87.06
568.949	98.06
569.161	89.06
569.372	80.06
569.584	77.06
569.795	73.06
570.007	90.06
570.218	90.06
570.43	90.06
570.641	91.06
570.853	84.06
571.064	72.06
571.276	73.06
571.487	80.06
571.698	83.06
571.91	80.06
572.121	84.06
572.333	88.06
572.544	84.06
572.755	89.06
572.966	100.06
573.178	86.06
573.389	76.06
573.6	91.06
573.811	89.06
574.023	80.06
574.234	89.06
574.445	85.06
574.656	85.06
574.867	88.06
575.078	87.06
575.289	94.06
575.501	94.06
575.712	75.06
575.923	77.06
576.134	82.06
576.345	91.06
576.556	77.06
576.767	95.06
576.978	83.06
577.188	96.06
577.399	83.06
577.61	99.06
577.821	100.06
578.032	90.06
578.243	94.06
578.454	98.06
578.665	88.06
578.875	92.06
579.086	92.06
579.297	81.06
579.508	78.06
579.718	83.06
579.929	80.06
580.14	83.06
580.35	79.06
580.561	89.06
580.772	92.06
580.982	91.06
581.193	85.06
581.403	87.06
581.614	87.06
581.825	85.06
582.035	95.06
582.246	91.06
582.456	86.06
582.667	95.06
582.877	78.06
583.087	86.06
583.298	88.06
583.508	79.06
583.719	86.06
583.929	91.06
584.139	110.06
584.35	94.06
584.56	84.06
584.77	83.06
584.981	76.06
585.191	94.06
585.401	87.06
585.611	96.06
585.821	81.06
586.032	97.06
586.242	80.06
586.452	84.06
586.662	79.06
586.872	96.06
587.082	83.06
587.292	87.06
587.502	92.06
587.713	92.06
587.923	95.06
588.133	88.06
588.343	103.06
588.553	92.06
588.762	77.06
588.972	95.06
589.182	131.06
589.392	110.06
589.602	98.06
589.812	106.06
590.022	98.06
590.232	82.06
590.441	92.06
590.651	78.06
590.861	95.06
591.071	90.06
591.281	87.06
591.49	94.06
591.7	96.06
591.91	83.06
592.119	88.06
592.329	81.06
592.539	85.06
592.748	83.06
592.958	75.06
593.167	85.06
593.377	92.06
593.587	85.06
593.796	91.06
594.006	86.06
594.215	72.06
594.424	99.06
594.634	69.06
594.843	89.06
595.053	84.06
595.262	84.06
595.472	86.06
595.681	75.06
595.89	76.06
596.1	87.06
596.309	79.06
596.518	83.06
596.727	83.06
596.937	87.06
597.146	79.06
597.355	82.06
597.564	78.06
597.774	84.06
597.983	82.06
598.192	79.06
598.401	85.06
598.61	96.06
598.819	88.06
599.028	88.06
599.237	87.06
599.446	75.06
599.655	85.06
599.864	88.06
600.073	85.06
600.282	95.06
600.491	77.06
600.7	85.06
600.909	95.06
601.118	76.06
601.327	83.06
601.536	101.06
601.745	74.06
601.953	86.06
602.162	94.06
602.371	80.06
602.58	77.06
602.789	77.06
602.997	84.06
603.206	90.06
603.415	103.06
603.623	92.06
603.832	75.06
604.041	70.06
604.249	89.06
604.458	99.06
604.666	86.06
604.875	86.06
605.084	83.06
605.292	76.06
605.501	90.06
605.709	80.06
605.918	91.06
606.126	92.06
606.334	83.06
606.543	100.06
606.751	88.06
606.96	82.06
607.168	75.06
607.376	78.06
607.585	96.06
607.793	91.06
608.001	83.06
608.21	82.06
608.418	74.06
608.626	88.06
608.834	86.06
609.043	92.06
609.251	101.06
609.459	86.06
609.667	87.06
609.875	85.06
610.083	83.06
610.291	92.06
610.499	83.06
610.707	94.06
610.916	93.06
611.124	93.06
611.332	76.06
611.54	94.06
611.748	90.06
611.955	85.06
612.163	97.06
612.371	80.06
612.579	87.06
612.787	85.06
612.995	83.06
613.203	89.06
613.411	81.06
613.618	92.06
613.826	84.06
614.034	77.06
614.242	88.06
614.449	87.06
614.657	101.06
614.865	91.06
615.072	87.06
615.28	88.06
615.488	97.06
615.695	89.06
615.903	79.06
616.111	86.06
616.318	81.06
616.526	96.06
616.733	88.06
616.941	84.06
617.148	81.06
617.356	82.06
617.563	73.06
617.771	97.06
617.978	96.06
618.185	85.06
618.393	88.06
618.6	82.06
618.807	82.06
619.015	83.06
619.222	69.06
619.429	86.06
619.637	88.06
619.844	77.06
620.051	87.06
620.258	84.06
620.466	83.06
620.673	102.06
620.88	88.06
621.087	82.06
621.294	81.06
621.501	81.06
621.708	75.06
621.915	82.06
622.122	82.06
622.329	93.06
622.536	84.06
622.743	74.06
622.95	95.06
623.157	100.06
623.364	87.06
623.571	92.06
623.778	93.06
623.985	90.06
624.192	87.06
624.399	83.06
624.606	83.06
624.812	77.06
625.019	95.06
625.226	100.06
625.433	91.06
625.639	87.06
625.846	100.06
626.053	72.06
626.259	97.06
626.466	70.06
626.673	97.06
626.879	74.06
627.086	97.06
627.293	93.06
627.499	95.06
627.706	96.06
627.912	87.06
628.119	82.06
628.325	89.06
628.532	70.06
628.738	76.06
628.945	86.06
629.151	88.06
629.357	95.06
629.564	90.06
629.77	80.06
629.976	77.06
630.183	81.06
630.389	82.06
630.595	91.06
630.802	86.06
631.008	76.06
631.214	88.06
631.42	80.06
631.627	86.06
631.833	76.06
632.039	76.06
632.245	82.06
632.451	96.06
632.657	82.06
632.863	86.06
633.069	85.06
633.275	86.06
633.481	80.06
633.688	94.06
633.893	94.06
634.099	84.06
634.305	74.06
634.511	77.06
634.717	86.06
634.923	91.06
635.129	84.06
635.335	82.06
635.541	91.06
635.747	70.06
635.952	76.06
636.158	87.06
636.364	87.06
636.57	83.06
636.775	90.06
636.981	94.06
637.187	70.06
637.392	80.06
637.598	95.06
637.804	84.06
638.009	101.06
638.215	90.06
638.421	80.06
638.626	95.06
638.832	88.06
639.037	98.06
639.243	77.06
639.448	92.06
639.654	86.06
639.859	80.06
640.065	89.06
640.27	94.06
640.475	84.06
640.681	77.06
640.886	89.06
641.091	79.06
641.297	90.06
641.502	74.06
641.707	82.06
641.913	96.06
642.118	85.06
642.323	80.06
642.528	79.06
642.733	95.06
642.939	85.06
643.144	94.06
643.349	78.06
643.554	76.06
643.759	76.06
643.964	91.06
644.169	88.06
644.374	81.06
644.579	80.06
644.784	80.06
644.989	72.06
645.194	85.06
645.399	80.06
645.604	84.06
645.809	86.06
646.014	84.06
646.219	80.06
646.423	89.06
646.628	77.06
646.833	82.06
647.038	80.06
647.243	92.06
647.447	84.06
647.652	73.06
647.857	96.06
648.062	86.06
648.266	88.06
648.471	89.06
648.676	91.06
648.88	74.06
649.085	84.06
649.289	78.06
649.494	76.06
649.698	102.06
649.903	88.06
650.107	95.06
650.312	97.06
650.516	81.06
650.721	75.06
650.925	86.06
651.13	94.06
651.334	77.06
651.539	73.06
651.743	79.06
651.947	79.06
652.152	98.06
652.356	89.06
652.56	87.06
652.764	70.06
652.969	68.06
653.173	89.06
653.377	86.06
653.581	86.06
653.785	89.06
653.99	100.06
654.194	82.06
654.398	89.06
654.602	88.06
654.806	87.06
655.01	99.06
655.214	94.06
655.418	89.06
655.622	76.06
655.826	86.06
656.03	86.06
656.234	82.06
656.438	88.06
656.642	68.06
656.846	84.06
657.049	84.06
657.253	92.06
657.457	83.06
657.661	92.06
657.865	76.06
658.068	88.06
658.272	83.06
658.476	91.06
658.68	88.06
658.883	89.06
659.087	88.06
659.291	83.06
659.494	83.06
659.698	94.06
659.901	86.06
660.105	95.06
660.309	75.06
660.512	77.06
660.716	74.06
660.919	76.06
661.123	94.06
661.326	91.06
661.53	84.06
661.733	89.06
661.936	95.06
662.14	82.06
662.343	93.06
662.546	84.06
662.75	88.06
662.953	80.06
663.156	101.06
663.36	82.06
663.563	94.06
663.766	90.06
663.969	81.06
664.173	67.06
664.376	76.06
664.579	73.06
664.782	86.06
664.985	88.06
665.188	74.06
665.391	92.06
665.594	81.06
665.797	82.06
666	86.06
666.203	93.06
666.406	76.06
666.609	86.06
666.812	76.06
667.015	73.06
667.218	86.06
667.421	89.06
667.624	81.06
667.827	83.06
668.03	77.06
668.232	79.06
668.435	83.06
668.638	73.06
668.841	90.06
669.043	88.06
669.246	70.06
669.449	83.06
669.651	86.06
669.854	80.06
670.057	83.06
670.259	84.06
670.462	90.06
670.665	74.06
670.867	93.06
671.07	78.06
671.272	74.06
671.475	79.06
671.677	85.06
671.88	87.06
672.082	94.06
672.284	84.06
672.487	77.06
672.689	84.06
672.892	84.06
