Data from Coke_Can_Side_HRD10591_00004.txt Node
Date: Wed Nov 05 15:42:08 EST 2025
User: Yrep
Spectrometer: HR+D1059
Trigger mode: 1
Integration Time (sec): 1.000000E-1
Scans to average: 1
Electric dark correction enabled: true
Nonlinearity correction enabled: false
Boxcar width: 0
XAxis mode: Wavelengths
Number of Pixels in Spectrum: 2048
>>>>>Begin Spectral Data<<<<<
223.165	-16.69
223.4	-16.69
223.635	-16.69
223.869	-22.69
224.104	-13.69
224.338	-19.69
224.573	-9.69
224.808	-8.69
225.042	-10.69
225.277	-12.69
225.511	4.31
225.746	-2.69
225.98	5.31
226.215	11.31
226.449	21.31
226.683	22.31
226.918	27.31
227.152	25.31
227.387	23.31
227.621	35.31
227.856	58.31
228.09	31.31
228.324	47.31
228.559	63.31
228.793	60.31
229.027	73.31
229.262	70.31
229.496	68.31
229.73	75.31
229.964	75.31
230.199	69.31
230.433	64.31
230.667	62.31
230.901	73.31
231.136	70.31
231.37	69.31
231.604	78.31
231.838	65.31
232.072	81.31
232.306	74.31
232.541	87.31
232.775	76.31
233.009	77.31
233.243	84.31
233.477	91.31
233.711	89.31
233.945	77.31
234.179	87.31
234.413	65.31
234.647	79.31
234.881	90.31
235.115	79.31
235.349	70.31
235.583	73.31
235.817	62.31
236.051	81.31
236.285	71.31
236.519	67.31
236.753	75.31
236.987	77.31
237.221	88.31
237.455	67.31
237.689	65.31
237.922	77.31
238.156	74.31
238.39	83.31
238.624	70.31
238.858	76.31
239.091	84.31
239.325	64.31
239.559	66.31
239.793	71.31
240.027	79.31
240.26	71.31
240.494	80.31
240.728	67.31
240.961	67.31
241.195	87.31
241.429	66.31
241.662	65.31
241.896	69.31
242.13	70.31
242.363	83.31
242.597	79.31
242.83	66.31
243.064	84.31
243.298	71.31
243.531	75.31
243.765	88.31
243.998	85.31
244.232	84.31
244.465	80.31
244.699	64.31
244.932	70.31
245.166	83.31
245.399	72.31
245.633	83.31
245.866	69.31
246.099	80.31
246.333	74.31
246.566	75.31
246.8	56.31
247.033	70.31
247.266	77.31
247.5	76.31
247.733	81.31
247.966	78.31
248.2	74.31
248.433	67.31
248.666	63.31
248.899	79.31
249.133	76.31
249.366	83.31
249.599	63.31
249.832	73.31
250.066	89.31
250.299	80.31
250.532	87.31
250.765	73.31
250.998	69.31
251.231	56.31
251.465	56.31
251.698	80.31
251.931	72.31
252.164	77.31
252.397	83.31
252.63	71.31
252.863	73.31
253.096	73.31
253.329	72.31
253.562	64.31
253.795	77.31
254.028	90.31
254.261	75.31
254.494	66.31
254.727	75.31
254.96	77.31
255.193	86.31
255.426	75.31
255.659	71.31
255.892	63.31
256.124	72.31
256.357	88.31
256.59	75.31
256.823	73.31
257.056	70.31
257.289	77.31
257.521	84.31
257.754	70.31
257.987	85.31
258.22	85.31
258.452	79.31
258.685	88.31
258.918	76.31
259.151	76.31
259.383	74.31
259.616	65.31
259.849	93.31
260.081	74.31
260.314	86.31
260.547	83.31
260.779	85.31
261.012	76.31
261.244	79.31
261.477	81.31
261.71	68.31
261.942	76.31
262.175	72.31
262.407	81.31
262.64	86.31
262.872	61.31
263.105	69.31
263.337	81.31
263.57	71.31
263.802	74.31
264.035	74.31
264.267	72.31
264.499	80.31
264.732	87.31
264.964	84.31
265.197	81.31
265.429	74.31
265.661	62.31
265.894	67.31
266.126	98.31
266.358	68.31
266.591	75.31
266.823	84.31
267.055	83.31
267.287	71.31
267.52	74.31
267.752	70.31
267.984	68.31
268.216	75.31
268.448	97.31
268.681	87.31
268.913	90.31
269.145	71.31
269.377	79.31
269.609	93.31
269.841	92.31
270.073	71.31
270.306	88.31
270.538	62.31
270.77	94.31
271.002	78.31
271.234	86.31
271.466	77.31
271.698	80.31
271.93	71.31
272.162	80.31
272.394	86.31
272.626	72.31
272.858	78.31
273.09	88.31
273.322	86.31
273.553	83.31
273.785	69.31
274.017	78.31
274.249	71.31
274.481	78.31
274.713	78.31
274.945	63.31
275.176	67.31
275.408	89.31
275.64	85.31
275.872	80.31
276.104	62.31
276.335	76.31
276.567	74.31
276.799	78.31
277.031	81.31
277.262	72.31
277.494	91.31
277.726	93.31
277.957	88.31
278.189	77.31
278.421	85.31
278.652	79.31
278.884	90.31
279.115	87.31
279.347	85.31
279.579	89.31
279.81	78.31
280.042	91.31
280.273	77.31
280.505	80.31
280.736	78.31
280.968	74.31
281.199	78.31
281.431	72.31
281.662	93.31
281.894	82.31
282.125	80.31
282.356	89.31
282.588	83.31
282.819	78.31
283.051	73.31
283.282	85.31
283.513	92.31
283.745	77.31
283.976	79.31
284.207	82.31
284.439	67.31
284.67	84.31
284.901	83.31
285.132	78.31
285.364	75.31
285.595	75.31
285.826	84.31
286.057	77.31
286.288	79.31
286.52	76.31
286.751	86.31
286.982	87.31
287.213	88.31
287.444	93.31
287.675	87.31
287.906	78.31
288.138	87.31
288.369	91.31
288.6	102.31
288.831	74.31
289.062	93.31
289.293	71.31
289.524	94.31
289.755	81.31
289.986	83.31
290.217	94.31
290.448	86.31
290.679	80.31
290.91	92.31
291.141	78.31
291.371	82.31
291.602	88.31
291.833	86.31
292.064	85.31
292.295	73.31
292.526	77.31
292.757	71.31
292.987	83.31
293.218	76.31
293.449	75.31
293.68	89.31
293.91	61.31
294.141	85.31
294.372	77.31
294.603	76.31
294.833	81.31
295.064	85.31
295.295	86.31
295.525	86.31
295.756	98.31
295.987	87.31
296.217	81.31
296.448	78.31
296.679	78.31
296.909	71.31
297.14	83.31
297.37	71.31
297.601	82.31
297.831	92.31
298.062	85.31
298.292	78.31
298.523	90.31
298.753	79.31
298.984	91.31
299.214	73.31
299.445	78.31
299.675	87.31
299.905	85.31
300.136	100.31
300.366	90.31
300.597	68.31
300.827	83.31
301.057	76.31
301.288	85.31
301.518	87.31
301.748	70.31
301.979	96.31
302.209	84.31
302.439	80.31
302.669	87.31
302.9	93.31
303.13	96.31
303.36	80.31
303.59	64.31
303.82	73.31
304.051	76.31
304.281	77.31
304.511	86.31
304.741	88.31
304.971	87.31
305.201	90.31
305.431	73.31
305.661	78.31
305.891	83.31
306.121	85.31
306.352	86.31
306.582	76.31
306.812	77.31
307.042	94.31
307.272	88.31
307.502	69.31
307.731	69.31
307.961	76.31
308.191	82.31
308.421	87.31
308.651	87.31
308.881	90.31
309.111	93.31
309.341	101.31
309.571	103.31
309.8	91.31
310.03	77.31
310.26	86.31
310.49	83.31
310.72	83.31
310.949	87.31
311.179	75.31
311.409	73.31
311.639	78.31
311.868	76.31
312.098	69.31
312.328	87.31
312.557	96.31
312.787	80.31
313.017	91.31
313.246	80.31
313.476	89.31
313.706	74.31
313.935	77.31
314.165	85.31
314.394	74.31
314.624	85.31
314.853	83.31
315.083	82.31
315.312	82.31
315.542	77.31
315.771	88.31
316.001	79.31
316.23	76.31
316.46	83.31
316.689	83.31
316.919	92.31
317.148	99.31
317.377	69.31
317.607	96.31
317.836	70.31
318.065	84.31
318.295	84.31
318.524	92.31
318.753	82.31
318.983	83.31
319.212	84.31
319.441	71.31
319.67	92.31
319.9	85.31
320.129	78.31
320.358	84.31
320.587	78.31
320.816	75.31
321.046	79.31
321.275	78.31
321.504	93.31
321.733	90.31
321.962	77.31
322.191	80.31
322.42	80.31
322.649	93.31
322.878	88.31
323.108	90.31
323.337	83.31
323.566	85.31
323.795	81.31
324.024	83.31
324.253	80.31
324.482	86.31
324.71	100.31
324.939	83.31
325.168	97.31
325.397	93.31
325.626	83.31
325.855	91.31
326.084	79.31
326.313	75.31
326.542	86.31
326.77	85.31
326.999	82.31
327.228	92.31
327.457	86.31
327.686	90.31
327.914	82.31
328.143	96.31
328.372	82.31
328.6	77.31
328.829	76.31
329.058	97.31
329.287	84.31
329.515	82.31
329.744	73.31
329.972	75.31
330.201	77.31
330.43	82.31
330.658	77.31
330.887	81.31
331.115	71.31
331.344	89.31
331.572	99.31
331.801	76.31
332.03	73.31
332.258	74.31
332.486	77.31
332.715	67.31
332.943	83.31
333.172	81.31
333.4	89.31
333.629	89.31
333.857	85.31
334.085	77.31
334.314	78.31
334.542	78.31
334.771	74.31
334.999	72.31
335.227	72.31
335.455	102.31
335.684	93.31
335.912	92.31
336.14	86.31
336.369	81.31
336.597	77.31
336.825	86.31
337.053	75.31
337.281	85.31
337.51	90.31
337.738	92.31
337.966	79.31
338.194	77.31
338.422	91.31
338.65	91.31
338.878	94.31
339.106	86.31
339.334	88.31
339.562	88.31
339.79	79.31
340.018	81.31
340.246	85.31
340.474	85.31
340.702	84.31
340.93	79.31
341.158	79.31
341.386	94.31
341.614	84.31
341.842	86.31
342.07	78.31
342.298	85.31
342.526	84.31
342.754	90.31
342.981	83.31
343.209	86.31
343.437	90.31
343.665	82.31
343.893	88.31
344.12	98.31
344.348	97.31
344.576	77.31
344.804	95.31
345.031	70.31
345.259	81.31
345.487	91.31
345.714	79.31
345.942	71.31
346.17	82.31
346.397	76.31
346.625	69.31
346.853	77.31
347.08	81.31
347.308	85.31
347.535	79.31
347.763	89.31
347.99	95.31
348.218	82.31
348.445	85.31
348.673	76.31
348.9	83.31
349.128	91.31
349.355	72.31
349.583	70.31
349.81	76.31
350.037	76.31
350.265	78.31
350.492	87.31
350.72	84.31
350.947	68.31
351.174	75.31
351.402	82.31
351.629	75.31
351.856	85.31
352.083	82.31
352.311	84.31
352.538	77.31
352.765	85.31
352.992	87.31
353.22	86.31
353.447	97.31
353.674	91.31
353.901	91.31
354.128	87.31
354.355	82.31
354.583	86.31
354.81	90.31
355.037	79.31
355.264	81.31
355.491	74.31
355.718	78.31
355.945	75.31
356.172	72.31
356.399	79.31
356.626	86.31
356.853	67.31
357.08	82.31
357.307	85.31
357.534	93.31
357.761	95.31
357.988	80.31
358.215	91.31
358.441	65.31
358.668	82.31
358.895	86.31
359.122	75.31
359.349	78.31
359.576	86.31
359.802	76.31
360.029	94.31
360.256	89.31
360.483	94.31
360.709	74.31
360.936	82.31
361.163	81.31
361.39	79.31
361.616	76.31
361.843	101.31
362.07	86.31
362.296	99.31
362.523	67.31
362.749	93.31
362.976	82.31
363.203	76.31
363.429	87.31
363.656	82.31
363.882	70.31
364.109	74.31
364.335	92.31
364.562	77.31
364.788	65.31
365.015	66.31
365.241	74.31
365.468	87.31
365.694	67.31
365.92	96.31
366.147	81.31
366.373	85.31
366.599	91.31
366.826	91.31
367.052	83.31
367.278	86.31
367.505	80.31
367.731	73.31
367.957	78.31
368.184	83.31
368.41	86.31
368.636	88.31
368.862	81.31
369.089	82.31
369.315	85.31
369.541	91.31
369.767	87.31
369.993	81.31
370.219	91.31
370.445	81.31
370.672	85.31
370.898	86.31
371.124	88.31
371.35	91.31
371.576	72.31
371.802	70.31
372.028	72.31
372.254	74.31
372.48	93.31
372.706	90.31
372.932	74.31
373.158	86.31
373.384	77.31
373.61	80.31
373.835	81.31
374.061	74.31
374.287	77.31
374.513	82.31
374.739	85.31
374.965	83.31
375.191	90.31
375.416	68.31
375.642	96.31
375.868	90.31
376.094	94.31
376.319	79.31
376.545	73.31
376.771	84.31
376.997	73.31
377.222	73.31
377.448	80.31
377.674	82.31
377.899	80.31
378.125	84.31
378.35	78.31
378.576	83.31
378.802	86.31
379.027	75.31
379.253	90.31
379.478	83.31
379.704	82.31
379.929	76.31
380.155	67.31
380.38	88.31
380.606	87.31
380.831	87.31
381.057	86.31
381.282	90.31
381.507	86.31
381.733	89.31
381.958	79.31
382.184	84.31
382.409	70.31
382.634	82.31
382.86	79.31
383.085	81.31
383.31	77.31
383.535	76.31
383.761	79.31
383.986	76.31
384.211	67.31
384.436	78.31
384.662	92.31
384.887	89.31
385.112	82.31
385.337	88.31
385.562	87.31
385.787	85.31
386.013	78.31
386.238	77.31
386.463	78.31
386.688	84.31
386.913	95.31
387.138	72.31
387.363	85.31
387.588	89.31
387.813	88.31
388.038	66.31
388.263	87.31
388.488	77.31
388.713	70.31
388.938	65.31
389.163	85.31
389.387	78.31
389.612	77.31
389.837	73.31
390.062	86.31
390.287	79.31
390.512	87.31
390.736	79.31
390.961	66.31
391.186	86.31
391.411	84.31
391.636	97.31
391.86	88.31
392.085	86.31
392.31	79.31
392.534	78.31
392.759	90.31
392.984	85.31
393.208	89.31
393.433	76.31
393.658	85.31
393.882	73.31
394.107	107.31
394.331	131.31
394.556	134.31
394.78	105.31
395.005	89.31
395.229	76.31
395.454	90.31
395.678	93.31
395.903	106.31
396.127	145.31
396.352	161.31
396.576	87.31
396.801	95.31
397.025	83.31
397.249	89.31
397.474	75.31
397.698	89.31
397.922	74.31
398.147	84.31
398.371	93.31
398.595	90.31
398.82	79.31
399.044	77.31
399.268	77.31
399.492	85.31
399.717	70.31
399.941	69.31
400.165	82.31
400.389	69.31
400.613	71.31
400.837	86.31
401.062	69.31
401.286	67.31
401.51	66.31
401.734	82.31
401.958	79.31
402.182	84.31
402.406	73.31
402.63	68.31
402.854	63.31
403.078	65.31
403.302	86.31
403.526	89.31
403.75	87.31
403.974	73.31
404.198	77.31
404.422	88.31
404.645	82.31
404.869	83.31
405.093	76.31
405.317	91.31
405.541	77.31
405.765	71.31
405.988	75.31
406.212	87.31
406.436	71.31
406.66	73.31
406.883	97.31
407.107	86.31
407.331	91.31
407.555	71.31
407.778	87.31
408.002	86.31
408.226	80.31
408.449	77.31
408.673	80.31
408.896	81.31
409.12	77.31
409.344	83.31
409.567	79.31
409.791	80.31
410.014	93.31
410.238	77.31
410.461	79.31
410.685	75.31
410.908	84.31
411.132	89.31
411.355	85.31
411.578	80.31
411.802	85.31
412.025	79.31
412.249	82.31
412.472	83.31
412.695	78.31
412.919	89.31
413.142	86.31
413.365	82.31
413.589	69.31
413.812	83.31
414.035	87.31
414.258	89.31
414.482	90.31
414.705	65.31
414.928	75.31
415.151	66.31
415.374	76.31
415.597	85.31
415.821	98.31
416.044	99.31
416.267	85.31
416.49	81.31
416.713	76.31
416.936	97.31
417.159	82.31
417.382	79.31
417.605	77.31
417.828	89.31
418.051	74.31
418.274	61.31
418.497	75.31
418.72	69.31
418.943	79.31
419.166	75.31
419.389	77.31
419.611	93.31
419.834	77.31
420.057	92.31
420.28	79.31
420.503	90.31
420.726	75.31
420.948	80.31
421.171	85.31
421.394	94.31
421.617	84.31
421.839	85.31
422.062	90.31
422.285	86.31
422.507	87.31
422.73	78.31
422.953	89.31
423.175	81.31
423.398	74.31
423.621	72.31
423.843	77.31
424.066	64.31
424.288	85.31
424.511	89.31
424.733	69.31
424.956	71.31
425.178	67.31
425.401	80.31
425.623	78.31
425.846	67.31
426.068	75.31
426.291	84.31
426.513	89.31
426.735	82.31
426.958	78.31
427.18	87.31
427.402	83.31
427.625	76.31
427.847	83.31
428.069	86.31
428.292	83.31
428.514	76.31
428.736	81.31
428.958	78.31
429.181	100.31
429.403	90.31
429.625	88.31
429.847	83.31
430.069	79.31
430.292	94.31
430.514	83.31
430.736	72.31
430.958	81.31
431.18	73.31
431.402	79.31
431.624	70.31
431.846	66.31
432.068	75.31
432.29	85.31
432.512	75.31
432.734	78.31
432.956	76.31
433.178	95.31
433.4	87.31
433.622	86.31
433.844	82.31
434.066	80.31
434.287	82.31
434.509	77.31
434.731	71.31
434.953	74.31
435.175	76.31
435.397	87.31
435.618	86.31
435.84	74.31
436.062	82.31
436.284	89.31
436.505	78.31
436.727	69.31
436.949	80.31
437.17	71.31
437.392	75.31
437.614	90.31
437.835	88.31
438.057	97.31
438.278	94.31
438.5	83.31
438.721	88.31
438.943	77.31
439.165	74.31
439.386	83.31
439.608	75.31
439.829	83.31
440.05	87.31
440.272	93.31
440.493	91.31
440.715	89.31
440.936	90.31
441.158	86.31
441.379	91.31
441.6	97.31
441.822	96.31
442.043	76.31
442.264	85.31
442.486	90.31
442.707	85.31
442.928	77.31
443.149	88.31
443.371	81.31
443.592	79.31
443.813	91.31
444.034	82.31
444.255	99.31
444.476	87.31
444.698	77.31
444.919	83.31
445.14	154.31
445.361	95.31
445.582	84.31
445.803	75.31
446.024	89.31
446.245	93.31
446.466	88.31
446.687	77.31
446.908	77.31
447.129	79.31
447.35	66.31
447.571	78.31
447.792	84.31
448.013	85.31
448.234	102.31
448.455	91.31
448.675	84.31
448.896	74.31
449.117	83.31
449.338	81.31
449.559	88.31
449.779	84.31
450	78.31
450.221	79.31
450.442	89.31
450.662	71.31
450.883	83.31
451.104	84.31
451.324	84.31
451.545	73.31
451.766	94.31
451.986	93.31
452.207	84.31
452.428	72.31
452.648	89.31
452.869	78.31
453.089	79.31
453.31	82.31
453.53	80.31
453.751	78.31
453.971	83.31
454.192	79.31
454.412	83.31
454.633	83.31
454.853	85.31
455.073	73.31
455.294	87.31
455.514	95.31
455.734	83.31
455.955	89.31
456.175	85.31
456.395	82.31
456.616	67.31
456.836	83.31
457.056	64.31
457.276	78.31
457.497	72.31
457.717	73.31
457.937	97.31
458.157	76.31
458.377	77.31
458.598	62.31
458.818	85.31
459.038	71.31
459.258	77.31
459.478	86.31
459.698	82.31
459.918	79.31
460.138	78.31
460.358	77.31
460.578	95.31
460.798	91.31
461.018	74.31
461.238	70.31
461.458	85.31
461.678	78.31
461.898	90.31
462.118	75.31
462.338	68.31
462.558	91.31
462.777	80.31
462.997	81.31
463.217	86.31
463.437	85.31
463.657	90.31
463.876	91.31
464.096	87.31
464.316	77.31
464.536	83.31
464.755	89.31
464.975	66.31
465.195	72.31
465.414	68.31
465.634	66.31
465.854	80.31
466.073	97.31
466.293	76.31
466.512	89.31
466.732	99.31
466.951	85.31
467.171	90.31
467.391	80.31
467.61	79.31
467.829	73.31
468.049	90.31
468.268	87.31
468.488	98.31
468.707	88.31
468.927	77.31
469.146	83.31
469.365	79.31
469.585	72.31
469.804	84.31
470.023	73.31
470.243	75.31
470.462	86.31
470.681	70.31
470.901	75.31
471.12	82.31
471.339	87.31
471.558	85.31
471.777	92.31
471.997	92.31
472.216	100.31
472.435	89.31
472.654	78.31
472.873	76.31
473.092	93.31
473.311	79.31
473.53	86.31
473.749	91.31
473.968	103.31
474.187	74.31
474.406	76.31
474.625	79.31
474.844	90.31
475.063	75.31
475.282	98.31
475.501	78.31
475.72	93.31
475.939	73.31
476.158	80.31
476.377	86.31
476.596	97.31
476.814	85.31
477.033	90.31
477.252	81.31
477.471	80.31
477.69	85.31
477.908	75.31
478.127	83.31
478.346	97.31
478.564	95.31
478.783	75.31
479.002	90.31
479.22	88.31
479.439	83.31
479.658	91.31
479.876	73.31
480.095	84.31
480.313	89.31
480.532	76.31
480.751	69.31
480.969	79.31
481.188	80.31
481.406	76.31
481.624	77.31
481.843	74.31
482.061	76.31
482.28	82.31
482.498	74.31
482.717	93.31
482.935	69.31
483.153	80.31
483.372	86.31
483.59	76.31
483.808	81.31
484.027	84.31
484.245	77.31
484.463	81.31
484.681	87.31
484.9	94.31
485.118	83.31
485.336	72.31
485.554	83.31
485.772	105.31
485.99	92.31
486.209	87.31
486.427	82.31
486.645	76.31
486.863	81.31
487.081	69.31
487.299	84.31
487.517	74.31
487.735	87.31
487.953	88.31
488.171	87.31
488.389	82.31
488.607	81.31
488.825	88.31
489.043	83.31
489.261	102.31
489.479	83.31
489.696	86.31
489.914	83.31
490.132	100.31
490.35	95.31
490.568	89.31
490.786	83.31
491.003	79.31
491.221	87.31
491.439	90.31
491.657	89.31
491.874	93.31
492.092	95.31
492.31	86.31
492.527	93.31
492.745	79.31
492.963	70.31
493.18	88.31
493.398	81.31
493.615	84.31
493.833	87.31
494.05	91.31
494.268	83.31
494.485	82.31
494.703	84.31
494.92	74.31
495.138	79.31
495.355	80.31
495.573	85.31
495.79	71.31
496.008	75.31
496.225	86.31
496.442	90.31
496.66	89.31
496.877	93.31
497.094	104.31
497.312	88.31
497.529	75.31
497.746	91.31
497.963	90.31
498.181	68.31
498.398	99.31
498.615	82.31
498.832	75.31
499.049	77.31
499.267	79.31
499.484	77.31
499.701	98.31
499.918	86.31
500.135	80.31
500.352	89.31
500.569	92.31
500.786	79.31
501.003	85.31
501.22	79.31
501.437	95.31
501.654	93.31
501.871	90.31
502.088	81.31
502.305	90.31
502.522	86.31
502.739	91.31
502.956	94.31
503.172	76.31
503.389	89.31
503.606	79.31
503.823	85.31
504.04	97.31
504.256	82.31
504.473	87.31
504.69	79.31
504.907	86.31
505.123	85.31
505.34	83.31
505.557	82.31
505.773	78.31
505.99	83.31
506.207	74.31
506.423	83.31
506.64	94.31
506.856	86.31
507.073	72.31
507.289	75.31
507.506	68.31
507.722	100.31
507.939	89.31
508.155	67.31
508.372	86.31
508.588	75.31
508.805	85.31
509.021	69.31
509.238	83.31
509.454	83.31
509.67	90.31
509.887	89.31
510.103	80.31
510.319	67.31
510.536	79.31
510.752	82.31
510.968	85.31
511.184	82.31
511.401	86.31
511.617	99.31
511.833	74.31
512.049	88.31
512.265	70.31
512.481	79.31
512.698	90.31
512.914	82.31
513.13	85.31
513.346	98.31
513.562	86.31
513.778	89.31
513.994	70.31
514.21	80.31
514.426	74.31
514.642	74.31
514.858	70.31
515.074	92.31
515.29	89.31
515.506	73.31
515.721	75.31
515.937	85.31
516.153	77.31
516.369	75.31
516.585	75.31
516.801	85.31
517.016	91.31
517.232	78.31
517.448	83.31
517.664	82.31
517.879	75.31
518.095	72.31
518.311	77.31
518.527	87.31
518.742	83.31
518.958	84.31
519.173	98.31
519.389	85.31
519.605	83.31
519.82	81.31
520.036	95.31
520.251	73.31
520.467	94.31
520.682	96.31
520.898	71.31
521.113	91.31
521.329	63.31
521.544	83.31
521.76	83.31
521.975	74.31
522.19	76.31
522.406	78.31
522.621	72.31
522.836	90.31
523.052	86.31
523.267	74.31
523.482	78.31
523.698	67.31
523.913	82.31
524.128	72.31
524.343	78.31
524.559	84.31
524.774	87.31
524.989	87.31
525.204	91.31
525.419	82.31
525.634	71.31
525.849	92.31
526.064	87.31
526.28	75.31
526.495	94.31
526.71	85.31
526.925	89.31
527.14	87.31
527.355	82.31
527.57	83.31
527.785	77.31
527.999	73.31
528.214	93.31
528.429	75.31
528.644	75.31
528.859	89.31
529.074	86.31
529.289	77.31
529.503	87.31
529.718	79.31
529.933	88.31
530.148	88.31
530.363	87.31
530.577	81.31
530.792	83.31
531.007	72.31
531.221	85.31
531.436	87.31
531.651	84.31
531.865	91.31
532.08	83.31
532.295	91.31
532.509	89.31
532.724	89.31
532.938	74.31
533.153	89.31
533.367	87.31
533.582	78.31
533.796	87.31
534.011	104.31
534.225	80.31
534.44	84.31
534.654	88.31
534.868	87.31
535.083	89.31
535.297	94.31
535.511	85.31
535.726	78.31
535.94	70.31
536.154	84.31
536.369	79.31
536.583	76.31
536.797	87.31
537.011	78.31
537.225	96.31
537.44	80.31
537.654	87.31
537.868	83.31
538.082	86.31
538.296	77.31
538.51	91.31
538.724	69.31
538.938	78.31
539.153	84.31
539.367	79.31
539.581	92.31
539.795	71.31
540.009	67.31
540.222	98.31
540.436	78.31
540.65	85.31
540.864	82.31
541.078	88.31
541.292	72.31
541.506	83.31
541.72	89.31
541.934	82.31
542.147	86.31
542.361	88.31
542.575	79.31
542.789	77.31
543.002	76.31
543.216	90.31
543.43	85.31
543.644	79.31
543.857	59.31
544.071	81.31
544.285	82.31
544.498	103.31
544.712	80.31
544.925	69.31
545.139	87.31
545.352	94.31
545.566	95.31
545.779	87.31
545.993	92.31
546.206	87.31
546.42	91.31
546.633	94.31
546.847	86.31
547.06	95.31
547.274	91.31
547.487	81.31
547.7	77.31
547.914	68.31
548.127	85.31
548.34	88.31
548.554	90.31
548.767	69.31
548.98	87.31
549.193	101.31
549.407	91.31
549.62	94.31
549.833	88.31
550.046	87.31
550.259	85.31
550.473	97.31
550.686	102.31
550.899	85.31
551.112	95.31
551.325	77.31
551.538	71.31
551.751	80.31
551.964	80.31
552.177	82.31
552.39	87.31
552.603	77.31
552.816	75.31
553.029	75.31
553.242	87.31
553.455	74.31
553.667	83.31
553.88	81.31
554.093	80.31
554.306	89.31
554.519	90.31
554.732	83.31
554.944	89.31
555.157	86.31
555.37	87.31
555.583	97.31
555.795	83.31
556.008	88.31
556.221	80.31
556.433	90.31
556.646	81.31
556.859	85.31
557.071	86.31
557.284	70.31
557.496	78.31
557.709	75.31
557.921	89.31
558.134	93.31
558.346	88.31
558.559	78.31
558.771	90.31
558.984	81.31
559.196	73.31
559.409	78.31
559.621	93.31
559.833	83.31
560.046	93.31
560.258	86.31
560.47	78.31
560.683	85.31
560.895	83.31
561.107	70.31
561.32	98.31
561.532	84.31
561.744	93.31
561.956	89.31
562.168	78.31
562.381	77.31
562.593	92.31
562.805	84.31
563.017	83.31
563.229	77.31
563.441	85.31
563.653	88.31
563.865	74.31
564.077	87.31
564.289	79.31
564.501	83.31
564.713	85.31
564.925	73.31
565.137	90.31
565.349	93.31
565.561	90.31
565.773	78.31
565.985	103.31
566.197	74.31
566.408	88.31
566.62	81.31
566.832	85.31
567.044	81.31
567.255	91.31
567.467	94.31
567.679	97.31
567.891	95.31
568.102	77.31
568.314	78.31
568.526	84.31
568.737	92.31
568.949	71.31
569.161	66.31
569.372	91.31
569.584	88.31
569.795	89.31
570.007	82.31
570.218	89.31
570.43	81.31
570.641	85.31
570.853	78.31
571.064	87.31
571.276	89.31
571.487	93.31
571.698	77.31
571.91	81.31
572.121	96.31
572.333	83.31
572.544	75.31
572.755	70.31
572.966	79.31
573.178	78.31
573.389	77.31
573.6	83.31
573.811	73.31
574.023	74.31
574.234	73.31
574.445	87.31
574.656	89.31
574.867	68.31
575.078	84.31
575.289	89.31
575.501	78.31
575.712	89.31
575.923	89.31
576.134	90.31
576.345	87.31
576.556	90.31
576.767	93.31
576.978	91.31
577.188	89.31
577.399	77.31
577.61	85.31
577.821	80.31
578.032	71.31
578.243	93.31
578.454	79.31
578.665	86.31
578.875	86.31
579.086	82.31
579.297	78.31
579.508	87.31
579.718	90.31
579.929	88.31
580.14	91.31
580.35	78.31
580.561	69.31
580.772	85.31
580.982	82.31
581.193	77.31
581.403	84.31
581.614	93.31
581.825	79.31
582.035	69.31
582.246	71.31
582.456	105.31
582.667	98.31
582.877	89.31
583.087	79.31
583.298	89.31
583.508	67.31
583.719	89.31
583.929	83.31
584.139	66.31
584.35	65.31
584.56	87.31
584.77	84.31
584.981	88.31
585.191	84.31
585.401	73.31
585.611	78.31
585.821	87.31
586.032	79.31
586.242	82.31
586.452	76.31
586.662	78.31
586.872	82.31
587.082	85.31
587.292	83.31
587.502	80.31
587.713	73.31
587.923	90.31
588.133	75.31
588.343	85.31
588.553	72.31
588.762	87.31
588.972	88.31
589.182	91.31
589.392	83.31
589.602	88.31
589.812	85.31
590.022	92.31
590.232	92.31
590.441	74.31
590.651	97.31
590.861	91.31
591.071	85.31
591.281	94.31
591.49	89.31
591.7	79.31
591.91	82.31
592.119	90.31
592.329	93.31
592.539	88.31
592.748	94.31
592.958	83.31
593.167	79.31
593.377	77.31
593.587	78.31
593.796	83.31
594.006	89.31
594.215	90.31
594.424	82.31
594.634	73.31
594.843	74.31
595.053	82.31
595.262	75.31
595.472	84.31
595.681	86.31
595.89	71.31
596.1	79.31
596.309	71.31
596.518	64.31
596.727	98.31
596.937	77.31
597.146	77.31
597.355	86.31
597.564	82.31
597.774	89.31
597.983	83.31
598.192	76.31
598.401	83.31
598.61	81.31
598.819	78.31
599.028	83.31
599.237	93.31
599.446	81.31
599.655	85.31
599.864	74.31
600.073	89.31
600.282	83.31
600.491	75.31
600.7	86.31
600.909	93.31
601.118	86.31
601.327	81.31
601.536	85.31
601.745	96.31
601.953	88.31
602.162	82.31
602.371	87.31
602.58	94.31
602.789	85.31
602.997	75.31
603.206	98.31
603.415	72.31
603.623	97.31
603.832	103.31
604.041	87.31
604.249	81.31
604.458	78.31
604.666	67.31
604.875	74.31
605.084	81.31
605.292	68.31
605.501	78.31
605.709	82.31
605.918	83.31
606.126	93.31
606.334	90.31
606.543	93.31
606.751	90.31
606.96	97.31
607.168	90.31
607.376	75.31
607.585	94.31
607.793	87.31
608.001	92.31
608.21	72.31
608.418	87.31
608.626	92.31
608.834	83.31
609.043	83.31
609.251	76.31
609.459	73.31
609.667	85.31
609.875	79.31
610.083	91.31
610.291	87.31
610.499	87.31
610.707	68.31
610.916	85.31
611.124	94.31
611.332	85.31
611.54	94.31
611.748	84.31
611.955	89.31
612.163	88.31
612.371	93.31
612.579	79.31
612.787	73.31
612.995	83.31
613.203	92.31
613.411	89.31
613.618	94.31
613.826	82.31
614.034	91.31
614.242	97.31
614.449	94.31
614.657	83.31
614.865	68.31
615.072	83.31
615.28	82.31
615.488	82.31
615.695	73.31
615.903	73.31
616.111	73.31
616.318	80.31
616.526	83.31
616.733	95.31
616.941	104.31
617.148	110.31
617.356	92.31
617.563	86.31
617.771	76.31
617.978	77.31
618.185	82.31
618.393	94.31
618.6	90.31
618.807	89.31
619.015	97.31
619.222	86.31
619.429	91.31
619.637	91.31
619.844	79.31
620.051	79.31
620.258	73.31
620.466	73.31
620.673	79.31
620.88	78.31
621.087	85.31
621.294	85.31
621.501	84.31
621.708	82.31
621.915	83.31
622.122	78.31
622.329	70.31
622.536	88.31
622.743	79.31
622.95	77.31
623.157	77.31
623.364	72.31
623.571	88.31
623.778	87.31
623.985	83.31
624.192	77.31
624.399	77.31
624.606	75.31
624.812	78.31
625.019	86.31
625.226	80.31
625.433	81.31
625.639	90.31
625.846	86.31
626.053	79.31
626.259	85.31
626.466	79.31
626.673	77.31
626.879	72.31
627.086	87.31
627.293	85.31
627.499	73.31
627.706	95.31
627.912	81.31
628.119	73.31
628.325	90.31
628.532	88.31
628.738	82.31
628.945	82.31
629.151	77.31
629.357	75.31
629.564	92.31
629.77	83.31
629.976	101.31
630.183	92.31
630.389	79.31
630.595	77.31
630.802	90.31
631.008	77.31
631.214	78.31
631.42	73.31
631.627	62.31
631.833	89.31
632.039	80.31
632.245	94.31
632.451	83.31
632.657	95.31
632.863	95.31
633.069	88.31
633.275	90.31
633.481	62.31
633.688	85.31
633.893	89.31
634.099	76.31
634.305	74.31
634.511	97.31
634.717	86.31
634.923	77.31
635.129	81.31
635.335	89.31
635.541	89.31
635.747	92.31
635.952	75.31
636.158	80.31
636.364	79.31
636.57	78.31
636.775	86.31
636.981	95.31
637.187	88.31
637.392	90.31
637.598	66.31
637.804	92.31
638.009	95.31
638.215	83.31
638.421	88.31
638.626	85.31
638.832	101.31
639.037	85.31
639.243	79.31
639.448	71.31
639.654	83.31
639.859	89.31
640.065	84.31
640.27	77.31
640.475	73.31
640.681	89.31
640.886	82.31
641.091	80.31
641.297	76.31
641.502	90.31
641.707	78.31
641.913	85.31
642.118	78.31
642.323	71.31
642.528	89.31
642.733	72.31
642.939	77.31
643.144	84.31
643.349	93.31
643.554	85.31
643.759	83.31
643.964	76.31
644.169	87.31
644.374	79.31
644.579	88.31
644.784	82.31
644.989	81.31
645.194	64.31
645.399	82.31
645.604	73.31
645.809	80.31
646.014	75.31
646.219	68.31
646.423	83.31
646.628	75.31
646.833	71.31
647.038	83.31
647.243	96.31
647.447	87.31
647.652	77.31
647.857	75.31
648.062	87.31
648.266	72.31
648.471	93.31
648.676	100.31
648.88	84.31
649.085	90.31
649.289	94.31
649.494	87.31
649.698	89.31
649.903	69.31
650.107	87.31
650.312	87.31
650.516	96.31
650.721	83.31
650.925	86.31
651.13	77.31
651.334	89.31
651.539	84.31
651.743	95.31
651.947	94.31
652.152	83.31
652.356	85.31
652.56	84.31
652.764	79.31
652.969	77.31
653.173	86.31
653.377	85.31
653.581	88.31
653.785	83.31
653.99	70.31
654.194	75.31
654.398	92.31
654.602	75.31
654.806	89.31
655.01	77.31
655.214	89.31
655.418	73.31
655.622	78.31
655.826	73.31
656.03	85.31
656.234	71.31
656.438	80.31
656.642	73.31
656.846	77.31
657.049	90.31
657.253	85.31
657.457	83.31
657.661	79.31
657.865	83.31
658.068	81.31
658.272	89.31
658.476	82.31
658.68	77.31
658.883	77.31
659.087	67.31
659.291	85.31
659.494	85.31
659.698	79.31
659.901	74.31
660.105	81.31
660.309	80.31
660.512	90.31
660.716	83.31
660.919	82.31
661.123	77.31
661.326	89.31
661.53	74.31
661.733	84.31
661.936	75.31
662.14	67.31
662.343	76.31
662.546	82.31
662.75	85.31
662.953	88.31
663.156	85.31
663.36	88.31
663.563	79.31
663.766	83.31
663.969	93.31
664.173	76.31
664.376	71.31
664.579	90.31
664.782	84.31
664.985	90.31
665.188	83.31
665.391	72.31
665.594	79.31
665.797	91.31
666	87.31
666.203	81.31
666.406	80.31
666.609	77.31
666.812	73.31
667.015	70.31
667.218	79.31
667.421	87.31
667.624	79.31
667.827	93.31
668.03	86.31
668.232	70.31
668.435	76.31
668.638	76.31
668.841	73.31
669.043	69.31
669.246	78.31
669.449	72.31
669.651	70.31
669.854	85.31
670.057	78.31
670.259	80.31
670.462	82.31
670.665	67.31
670.867	75.31
671.07	90.31
671.272	81.31
671.475	89.31
671.677	87.31
671.88	81.31
672.082	76.31
672.284	90.31
672.487	84.31
672.689	68.31
672.892	85.31
