Data from Coke_Can_Side_HRD10591_00015.txt Node
Date: Wed Nov 05 15:42:14 EST 2025
User: Yrep
Spectrometer: HR+D1059
Trigger mode: 1
Integration Time (sec): 1.000000E-1
Scans to average: 1
Electric dark correction enabled: true
Nonlinearity correction enabled: false
Boxcar width: 0
XAxis mode: Wavelengths
Number of Pixels in Spectrum: 2048
>>>>>Begin Spectral Data<<<<<
223.165	-26.88
223.4	-26.88
223.635	-26.88
223.869	-7.88
224.104	-20.88
224.338	-18.88
224.573	-18.88
224.808	-14.88
225.042	-17.88
225.277	13.12
225.511	1.12
225.746	-5.88
225.98	11.12
226.215	8.12
226.449	19.12
226.683	14.12
226.918	32.12
227.152	33.12
227.387	46.12
227.621	46.12
227.856	33.12
228.09	57.12
228.324	61.12
228.559	57.12
228.793	53.12
229.027	65.12
229.262	61.12
229.496	63.12
229.73	76.12
229.964	73.12
230.199	76.12
230.433	77.12
230.667	68.12
230.901	75.12
231.136	78.12
231.37	85.12
231.604	68.12
231.838	80.12
232.072	74.12
232.306	86.12
232.541	77.12
232.775	83.12
233.009	72.12
233.243	76.12
233.477	76.12
233.711	71.12
233.945	77.12
234.179	78.12
234.413	91.12
234.647	85.12
234.881	79.12
235.115	83.12
235.349	74.12
235.583	74.12
235.817	63.12
236.051	82.12
236.285	70.12
236.519	79.12
236.753	88.12
236.987	84.12
237.221	79.12
237.455	78.12
237.689	66.12
237.922	84.12
238.156	77.12
238.39	70.12
238.624	73.12
238.858	73.12
239.091	66.12
239.325	63.12
239.559	76.12
239.793	78.12
240.027	75.12
240.26	84.12
240.494	80.12
240.728	77.12
240.961	77.12
241.195	68.12
241.429	67.12
241.662	74.12
241.896	85.12
242.13	74.12
242.363	77.12
242.597	73.12
242.83	75.12
243.064	80.12
243.298	72.12
243.531	73.12
243.765	88.12
243.998	72.12
244.232	84.12
244.465	84.12
244.699	66.12
244.932	74.12
245.166	65.12
245.399	83.12
245.633	74.12
245.866	80.12
246.099	78.12
246.333	77.12
246.566	77.12
246.8	94.12
247.033	71.12
247.266	77.12
247.5	67.12
247.733	91.12
247.966	79.12
248.2	73.12
248.433	74.12
248.666	72.12
248.899	78.12
249.133	90.12
249.366	69.12
249.599	89.12
249.832	83.12
250.066	67.12
250.299	89.12
250.532	68.12
250.765	74.12
250.998	63.12
251.231	69.12
251.465	69.12
251.698	81.12
251.931	81.12
252.164	63.12
252.397	71.12
252.63	82.12
252.863	73.12
253.096	79.12
253.329	69.12
253.562	74.12
253.795	75.12
254.028	73.12
254.261	88.12
254.494	75.12
254.727	85.12
254.96	79.12
255.193	85.12
255.426	79.12
255.659	68.12
255.892	83.12
256.124	67.12
256.357	82.12
256.59	92.12
256.823	73.12
257.056	75.12
257.289	78.12
257.521	97.12
257.754	92.12
257.987	74.12
258.22	83.12
258.452	87.12
258.685	64.12
258.918	86.12
259.151	61.12
259.383	73.12
259.616	79.12
259.849	75.12
260.081	75.12
260.314	74.12
260.547	78.12
260.779	104.12
261.012	91.12
261.244	77.12
261.477	93.12
261.71	81.12
261.942	73.12
262.175	83.12
262.407	89.12
262.64	93.12
262.872	85.12
263.105	80.12
263.337	91.12
263.57	83.12
263.802	90.12
264.035	68.12
264.267	77.12
264.499	79.12
264.732	62.12
264.964	76.12
265.197	93.12
265.429	77.12
265.661	79.12
265.894	83.12
266.126	92.12
266.358	77.12
266.591	70.12
266.823	81.12
267.055	88.12
267.287	82.12
267.52	75.12
267.752	86.12
267.984	78.12
268.216	93.12
268.448	87.12
268.681	84.12
268.913	82.12
269.145	83.12
269.377	72.12
269.609	81.12
269.841	82.12
270.073	66.12
270.306	91.12
270.538	78.12
270.77	78.12
271.002	85.12
271.234	83.12
271.466	94.12
271.698	90.12
271.93	96.12
272.162	95.12
272.394	73.12
272.626	79.12
272.858	85.12
273.09	82.12
273.322	81.12
273.553	79.12
273.785	92.12
274.017	89.12
274.249	93.12
274.481	91.12
274.713	92.12
274.945	83.12
275.176	64.12
275.408	90.12
275.64	95.12
275.872	83.12
276.104	85.12
276.335	83.12
276.567	93.12
276.799	85.12
277.031	80.12
277.262	75.12
277.494	78.12
277.726	108.12
277.957	92.12
278.189	86.12
278.421	83.12
278.652	81.12
278.884	80.12
279.115	76.12
279.347	98.12
279.579	76.12
279.81	65.12
280.042	91.12
280.273	88.12
280.505	98.12
280.736	76.12
280.968	86.12
281.199	79.12
281.431	78.12
281.662	88.12
281.894	94.12
282.125	99.12
282.356	83.12
282.588	82.12
282.819	73.12
283.051	77.12
283.282	87.12
283.513	93.12
283.745	90.12
283.976	88.12
284.207	86.12
284.439	91.12
284.67	83.12
284.901	77.12
285.132	73.12
285.364	71.12
285.595	85.12
285.826	81.12
286.057	90.12
286.288	85.12
286.52	77.12
286.751	78.12
286.982	74.12
287.213	97.12
287.444	85.12
287.675	75.12
287.906	82.12
288.138	75.12
288.369	84.12
288.6	92.12
288.831	75.12
289.062	81.12
289.293	78.12
289.524	68.12
289.755	95.12
289.986	66.12
290.217	83.12
290.448	73.12
290.679	87.12
290.91	73.12
291.141	69.12
291.371	83.12
291.602	83.12
291.833	91.12
292.064	74.12
292.295	87.12
292.526	92.12
292.757	80.12
292.987	85.12
293.218	85.12
293.449	88.12
293.68	77.12
293.91	77.12
294.141	85.12
294.372	92.12
294.603	63.12
294.833	85.12
295.064	81.12
295.295	92.12
295.525	72.12
295.756	91.12
295.987	90.12
296.217	94.12
296.448	68.12
296.679	85.12
296.909	87.12
297.14	80.12
297.37	85.12
297.601	85.12
297.831	71.12
298.062	84.12
298.292	79.12
298.523	80.12
298.753	81.12
298.984	92.12
299.214	87.12
299.445	85.12
299.675	78.12
299.905	83.12
300.136	87.12
300.366	77.12
300.597	73.12
300.827	90.12
301.057	77.12
301.288	89.12
301.518	84.12
301.748	93.12
301.979	92.12
302.209	89.12
302.439	84.12
302.669	84.12
302.9	76.12
303.13	78.12
303.36	84.12
303.59	91.12
303.82	93.12
304.051	74.12
304.281	73.12
304.511	89.12
304.741	73.12
304.971	84.12
305.201	95.12
305.431	87.12
305.661	79.12
305.891	76.12
306.121	82.12
306.352	91.12
306.582	89.12
306.812	88.12
307.042	78.12
307.272	79.12
307.502	77.12
307.731	82.12
307.961	96.12
308.191	102.12
308.421	91.12
308.651	89.12
308.881	81.12
309.111	106.12
309.341	100.12
309.571	87.12
309.8	80.12
310.03	97.12
310.26	95.12
310.49	91.12
310.72	86.12
310.949	73.12
311.179	77.12
311.409	82.12
311.639	94.12
311.868	82.12
312.098	107.12
312.328	95.12
312.557	93.12
312.787	97.12
313.017	76.12
313.246	85.12
313.476	83.12
313.706	90.12
313.935	81.12
314.165	87.12
314.394	96.12
314.624	83.12
314.853	83.12
315.083	77.12
315.312	82.12
315.542	79.12
315.771	87.12
316.001	85.12
316.23	86.12
316.46	89.12
316.689	71.12
316.919	89.12
317.148	85.12
317.377	78.12
317.607	86.12
317.836	69.12
318.065	80.12
318.295	86.12
318.524	89.12
318.753	84.12
318.983	79.12
319.212	67.12
319.441	82.12
319.67	85.12
319.9	94.12
320.129	90.12
320.358	77.12
320.587	80.12
320.816	81.12
321.046	76.12
321.275	80.12
321.504	80.12
321.733	80.12
321.962	91.12
322.191	83.12
322.42	85.12
322.649	92.12
322.878	73.12
323.108	88.12
323.337	79.12
323.566	81.12
323.795	90.12
324.024	87.12
324.253	82.12
324.482	90.12
324.71	74.12
324.939	73.12
325.168	77.12
325.397	87.12
325.626	90.12
325.855	78.12
326.084	77.12
326.313	84.12
326.542	76.12
326.77	83.12
326.999	83.12
327.228	89.12
327.457	76.12
327.686	72.12
327.914	73.12
328.143	89.12
328.372	83.12
328.6	65.12
328.829	87.12
329.058	101.12
329.287	82.12
329.515	88.12
329.744	99.12
329.972	85.12
330.201	91.12
330.43	98.12
330.658	79.12
330.887	84.12
331.115	91.12
331.344	85.12
331.572	88.12
331.801	91.12
332.03	86.12
332.258	77.12
332.486	87.12
332.715	87.12
332.943	84.12
333.172	92.12
333.4	60.12
333.629	82.12
333.857	77.12
334.085	78.12
334.314	58.12
334.542	87.12
334.771	77.12
334.999	91.12
335.227	75.12
335.455	86.12
335.684	81.12
335.912	97.12
336.14	76.12
336.369	77.12
336.597	75.12
336.825	91.12
337.053	76.12
337.281	79.12
337.51	81.12
337.738	81.12
337.966	93.12
338.194	96.12
338.422	89.12
338.65	95.12
338.878	73.12
339.106	89.12
339.334	81.12
339.562	79.12
339.79	93.12
340.018	74.12
340.246	80.12
340.474	73.12
340.702	89.12
340.93	81.12
341.158	69.12
341.386	85.12
341.614	74.12
341.842	81.12
342.07	85.12
342.298	96.12
342.526	85.12
342.754	77.12
342.981	83.12
343.209	85.12
343.437	84.12
343.665	92.12
343.893	78.12
344.12	93.12
344.348	85.12
344.576	93.12
344.804	74.12
345.031	87.12
345.259	99.12
345.487	87.12
345.714	75.12
345.942	83.12
346.17	91.12
346.397	88.12
346.625	89.12
346.853	94.12
347.08	90.12
347.308	84.12
347.535	75.12
347.763	83.12
347.99	73.12
348.218	78.12
348.445	79.12
348.673	97.12
348.9	96.12
349.128	90.12
349.355	78.12
349.583	78.12
349.81	87.12
350.037	80.12
350.265	82.12
350.492	77.12
350.72	85.12
350.947	79.12
351.174	83.12
351.402	84.12
351.629	72.12
351.856	95.12
352.083	74.12
352.311	73.12
352.538	86.12
352.765	79.12
352.992	90.12
353.22	101.12
353.447	98.12
353.674	85.12
353.901	77.12
354.128	82.12
354.355	81.12
354.583	80.12
354.81	93.12
355.037	85.12
355.264	93.12
355.491	94.12
355.718	69.12
355.945	97.12
356.172	83.12
356.399	94.12
356.626	75.12
356.853	93.12
357.08	79.12
357.307	77.12
357.534	70.12
357.761	93.12
357.988	84.12
358.215	79.12
358.441	84.12
358.668	89.12
358.895	87.12
359.122	84.12
359.349	81.12
359.576	85.12
359.802	87.12
360.029	74.12
360.256	76.12
360.483	71.12
360.709	79.12
360.936	75.12
361.163	90.12
361.39	82.12
361.616	80.12
361.843	90.12
362.07	100.12
362.296	89.12
362.523	70.12
362.749	83.12
362.976	92.12
363.203	91.12
363.429	80.12
363.656	89.12
363.882	81.12
364.109	86.12
364.335	89.12
364.562	98.12
364.788	76.12
365.015	87.12
365.241	88.12
365.468	77.12
365.694	89.12
365.92	81.12
366.147	80.12
366.373	94.12
366.599	90.12
366.826	97.12
367.052	92.12
367.278	88.12
367.505	78.12
367.731	94.12
367.957	89.12
368.184	77.12
368.41	97.12
368.636	79.12
368.862	87.12
369.089	87.12
369.315	76.12
369.541	84.12
369.767	82.12
369.993	89.12
370.219	84.12
370.445	91.12
370.672	82.12
370.898	84.12
371.124	99.12
371.35	89.12
371.576	83.12
371.802	83.12
372.028	84.12
372.254	82.12
372.48	80.12
372.706	69.12
372.932	75.12
373.158	86.12
373.384	89.12
373.61	91.12
373.835	82.12
374.061	97.12
374.287	87.12
374.513	87.12
374.739	85.12
374.965	86.12
375.191	100.12
375.416	88.12
375.642	74.12
375.868	94.12
376.094	81.12
376.319	93.12
376.545	99.12
376.771	67.12
376.997	78.12
377.222	77.12
377.448	68.12
377.674	85.12
377.899	78.12
378.125	97.12
378.35	92.12
378.576	76.12
378.802	81.12
379.027	71.12
379.253	79.12
379.478	70.12
379.704	91.12
379.929	78.12
380.155	76.12
380.38	93.12
380.606	83.12
380.831	76.12
381.057	90.12
381.282	78.12
381.507	76.12
381.733	77.12
381.958	68.12
382.184	74.12
382.409	85.12
382.634	86.12
382.86	80.12
383.085	81.12
383.31	78.12
383.535	81.12
383.761	95.12
383.986	100.12
384.211	103.12
384.436	91.12
384.662	80.12
384.887	80.12
385.112	91.12
385.337	86.12
385.562	77.12
385.787	92.12
386.013	84.12
386.238	92.12
386.463	94.12
386.688	101.12
386.913	85.12
387.138	86.12
387.363	80.12
387.588	92.12
387.813	100.12
388.038	82.12
388.263	100.12
388.488	81.12
388.713	75.12
388.938	100.12
389.163	85.12
389.387	86.12
389.612	75.12
389.837	84.12
390.062	88.12
390.287	79.12
390.512	89.12
390.736	86.12
390.961	69.12
391.186	99.12
391.411	79.12
391.636	75.12
391.86	72.12
392.085	82.12
392.31	75.12
392.534	84.12
392.759	89.12
392.984	58.12
393.208	95.12
393.433	88.12
393.658	75.12
393.882	88.12
394.107	94.12
394.331	120.12
394.556	124.12
394.78	105.12
395.005	88.12
395.229	87.12
395.454	85.12
395.678	91.12
395.903	102.12
396.127	149.12
396.352	148.12
396.576	97.12
396.801	77.12
397.025	85.12
397.249	92.12
397.474	89.12
397.698	83.12
397.922	83.12
398.147	78.12
398.371	83.12
398.595	83.12
398.82	84.12
399.044	88.12
399.268	79.12
399.492	93.12
399.717	78.12
399.941	89.12
400.165	78.12
400.389	88.12
400.613	89.12
400.837	84.12
401.062	81.12
401.286	93.12
401.51	78.12
401.734	80.12
401.958	77.12
402.182	79.12
402.406	69.12
402.63	91.12
402.854	79.12
403.078	85.12
403.302	78.12
403.526	96.12
403.75	83.12
403.974	61.12
404.198	77.12
404.422	83.12
404.645	94.12
404.869	99.12
405.093	100.12
405.317	75.12
405.541	82.12
405.765	88.12
405.988	84.12
406.212	81.12
406.436	89.12
406.66	90.12
406.883	94.12
407.107	79.12
407.331	76.12
407.555	92.12
407.778	76.12
408.002	91.12
408.226	85.12
408.449	73.12
408.673	94.12
408.896	79.12
409.12	69.12
409.344	78.12
409.567	68.12
409.791	74.12
410.014	87.12
410.238	73.12
410.461	73.12
410.685	96.12
410.908	102.12
411.132	90.12
411.355	79.12
411.578	81.12
411.802	75.12
412.025	70.12
412.249	75.12
412.472	90.12
412.695	91.12
412.919	77.12
413.142	78.12
413.365	78.12
413.589	85.12
413.812	62.12
414.035	83.12
414.258	86.12
414.482	85.12
414.705	91.12
414.928	94.12
415.151	83.12
415.374	89.12
415.597	69.12
415.821	89.12
416.044	86.12
416.267	86.12
416.49	84.12
416.713	77.12
416.936	86.12
417.159	100.12
417.382	100.12
417.605	76.12
417.828	102.12
418.051	87.12
418.274	76.12
418.497	83.12
418.72	69.12
418.943	89.12
419.166	91.12
419.389	79.12
419.611	65.12
419.834	80.12
420.057	89.12
420.28	77.12
420.503	93.12
420.726	75.12
420.948	91.12
421.171	93.12
421.394	87.12
421.617	86.12
421.839	84.12
422.062	76.12
422.285	91.12
422.507	87.12
422.73	89.12
422.953	82.12
423.175	82.12
423.398	83.12
423.621	84.12
423.843	88.12
424.066	85.12
424.288	80.12
424.511	73.12
424.733	88.12
424.956	72.12
425.178	102.12
425.401	93.12
425.623	88.12
425.846	83.12
426.068	81.12
426.291	94.12
426.513	70.12
426.735	82.12
426.958	86.12
427.18	86.12
427.402	94.12
427.625	92.12
427.847	94.12
428.069	74.12
428.292	92.12
428.514	69.12
428.736	84.12
428.958	81.12
429.181	90.12
429.403	68.12
429.625	77.12
429.847	74.12
430.069	94.12
430.292	67.12
430.514	87.12
430.736	81.12
430.958	99.12
431.18	92.12
431.402	89.12
431.624	82.12
431.846	83.12
432.068	84.12
432.29	81.12
432.512	74.12
432.734	76.12
432.956	85.12
433.178	74.12
433.4	85.12
433.622	79.12
433.844	88.12
434.066	69.12
434.287	87.12
434.509	85.12
434.731	79.12
434.953	85.12
435.175	74.12
435.397	68.12
435.618	104.12
435.84	79.12
436.062	93.12
436.284	85.12
436.505	79.12
436.727	83.12
436.949	87.12
437.17	77.12
437.392	91.12
437.614	83.12
437.835	79.12
438.057	82.12
438.278	85.12
438.5	77.12
438.721	90.12
438.943	88.12
439.165	80.12
439.386	86.12
439.608	78.12
439.829	93.12
440.05	90.12
440.272	79.12
440.493	85.12
440.715	77.12
440.936	80.12
441.158	98.12
441.379	80.12
441.6	79.12
441.822	83.12
442.043	77.12
442.264	85.12
442.486	84.12
442.707	77.12
442.928	88.12
443.149	86.12
443.371	93.12
443.592	91.12
443.813	86.12
444.034	85.12
444.255	80.12
444.476	91.12
444.698	86.12
444.919	88.12
445.14	173.12
445.361	134.12
445.582	90.12
445.803	80.12
446.024	60.12
446.245	82.12
446.466	77.12
446.687	101.12
446.908	78.12
447.129	79.12
447.35	76.12
447.571	75.12
447.792	90.12
448.013	82.12
448.234	99.12
448.455	85.12
448.675	62.12
448.896	78.12
449.117	94.12
449.338	82.12
449.559	91.12
449.779	78.12
450	64.12
450.221	89.12
450.442	92.12
450.662	73.12
450.883	66.12
451.104	71.12
451.324	70.12
451.545	90.12
451.766	93.12
451.986	78.12
452.207	103.12
452.428	78.12
452.648	69.12
452.869	77.12
453.089	86.12
453.31	83.12
453.53	84.12
453.751	79.12
453.971	74.12
454.192	93.12
454.412	84.12
454.633	84.12
454.853	85.12
455.073	85.12
455.294	70.12
455.514	92.12
455.734	88.12
455.955	81.12
456.175	80.12
456.395	81.12
456.616	92.12
456.836	83.12
457.056	83.12
457.276	75.12
457.497	90.12
457.717	82.12
457.937	80.12
458.157	85.12
458.377	83.12
458.598	82.12
458.818	85.12
459.038	75.12
459.258	81.12
459.478	90.12
459.698	94.12
459.918	87.12
460.138	80.12
460.358	73.12
460.578	81.12
460.798	82.12
461.018	87.12
461.238	76.12
461.458	75.12
461.678	81.12
461.898	87.12
462.118	84.12
462.338	85.12
462.558	73.12
462.777	67.12
462.997	91.12
463.217	97.12
463.437	93.12
463.657	82.12
463.876	73.12
464.096	95.12
464.316	86.12
464.536	82.12
464.755	88.12
464.975	91.12
465.195	89.12
465.414	92.12
465.634	85.12
465.854	93.12
466.073	71.12
466.293	76.12
466.512	78.12
466.732	86.12
466.951	92.12
467.171	80.12
467.391	81.12
467.61	68.12
467.829	87.12
468.049	65.12
468.268	83.12
468.488	83.12
468.707	87.12
468.927	78.12
469.146	71.12
469.365	79.12
469.585	89.12
469.804	89.12
470.023	70.12
470.243	78.12
470.462	96.12
470.681	78.12
470.901	80.12
471.12	88.12
471.339	90.12
471.558	90.12
471.777	76.12
471.997	80.12
472.216	69.12
472.435	85.12
472.654	85.12
472.873	89.12
473.092	93.12
473.311	91.12
473.53	71.12
473.749	91.12
473.968	95.12
474.187	82.12
474.406	84.12
474.625	87.12
474.844	83.12
475.063	80.12
475.282	81.12
475.501	81.12
475.72	76.12
475.939	87.12
476.158	69.12
476.377	70.12
476.596	71.12
476.814	85.12
477.033	84.12
477.252	85.12
477.471	83.12
477.69	80.12
477.908	86.12
478.127	83.12
478.346	80.12
478.564	83.12
478.783	86.12
479.002	82.12
479.22	80.12
479.439	79.12
479.658	87.12
479.876	76.12
480.095	80.12
480.313	83.12
480.532	91.12
480.751	92.12
480.969	85.12
481.188	85.12
481.406	103.12
481.624	96.12
481.843	86.12
482.061	77.12
482.28	92.12
482.498	72.12
482.717	80.12
482.935	83.12
483.153	90.12
483.372	91.12
483.59	86.12
483.808	83.12
484.027	91.12
484.245	85.12
484.463	81.12
484.681	100.12
484.9	85.12
485.118	87.12
485.336	99.12
485.554	78.12
485.772	85.12
485.99	79.12
486.209	85.12
486.427	89.12
486.645	82.12
486.863	78.12
487.081	89.12
487.299	79.12
487.517	75.12
487.735	90.12
487.953	73.12
488.171	85.12
488.389	85.12
488.607	86.12
488.825	85.12
489.043	99.12
489.261	88.12
489.479	81.12
489.696	87.12
489.914	88.12
490.132	79.12
490.35	89.12
490.568	78.12
490.786	69.12
491.003	77.12
491.221	77.12
491.439	87.12
491.657	94.12
491.874	81.12
492.092	91.12
492.31	89.12
492.527	90.12
492.745	96.12
492.963	97.12
493.18	80.12
493.398	86.12
493.615	78.12
493.833	88.12
494.05	85.12
494.268	78.12
494.485	91.12
494.703	82.12
494.92	77.12
495.138	88.12
495.355	94.12
495.573	83.12
495.79	90.12
496.008	76.12
496.225	85.12
496.442	81.12
496.66	83.12
496.877	73.12
497.094	74.12
497.312	71.12
497.529	71.12
497.746	80.12
497.963	78.12
498.181	89.12
498.398	88.12
498.615	65.12
498.832	80.12
499.049	85.12
499.267	72.12
499.484	91.12
499.701	86.12
499.918	86.12
500.135	81.12
500.352	76.12
500.569	85.12
500.786	93.12
501.003	82.12
501.22	89.12
501.437	81.12
501.654	73.12
501.871	85.12
502.088	87.12
502.305	75.12
502.522	89.12
502.739	89.12
502.956	87.12
503.172	80.12
503.389	79.12
503.606	62.12
503.823	89.12
504.04	89.12
504.256	64.12
504.473	92.12
504.69	75.12
504.907	79.12
505.123	82.12
505.34	67.12
505.557	82.12
505.773	85.12
505.99	87.12
506.207	73.12
506.423	91.12
506.64	83.12
506.856	74.12
507.073	82.12
507.289	85.12
507.506	91.12
507.722	91.12
507.939	88.12
508.155	88.12
508.372	69.12
508.588	83.12
508.805	89.12
509.021	87.12
509.238	84.12
509.454	91.12
509.67	79.12
509.887	80.12
510.103	79.12
510.319	83.12
510.536	93.12
510.752	85.12
510.968	75.12
511.184	83.12
511.401	71.12
511.617	95.12
511.833	77.12
512.049	79.12
512.265	77.12
512.481	73.12
512.698	80.12
512.914	78.12
513.13	85.12
513.346	91.12
513.562	80.12
513.778	73.12
513.994	79.12
514.21	80.12
514.426	76.12
514.642	81.12
514.858	89.12
515.074	85.12
515.29	69.12
515.506	103.12
515.721	78.12
515.937	90.12
516.153	85.12
516.369	87.12
516.585	85.12
516.801	90.12
517.016	75.12
517.232	75.12
517.448	82.12
517.664	87.12
517.879	85.12
518.095	74.12
518.311	90.12
518.527	93.12
518.742	93.12
518.958	74.12
519.173	77.12
519.389	92.12
519.605	92.12
519.82	68.12
520.036	83.12
520.251	81.12
520.467	76.12
520.682	69.12
520.898	75.12
521.113	79.12
521.329	71.12
521.544	79.12
521.76	77.12
521.975	78.12
522.19	82.12
522.406	71.12
522.621	97.12
522.836	70.12
523.052	89.12
523.267	75.12
523.482	90.12
523.698	87.12
523.913	87.12
524.128	95.12
524.343	84.12
524.559	88.12
524.774	87.12
524.989	86.12
525.204	90.12
525.419	76.12
525.634	71.12
525.849	96.12
526.064	81.12
526.28	98.12
526.495	94.12
526.71	73.12
526.925	79.12
527.14	92.12
527.355	81.12
527.57	97.12
527.785	84.12
527.999	77.12
528.214	84.12
528.429	85.12
528.644	89.12
528.859	72.12
529.074	70.12
529.289	80.12
529.503	81.12
529.718	86.12
529.933	85.12
530.148	85.12
530.363	91.12
530.577	72.12
530.792	87.12
531.007	81.12
531.221	91.12
531.436	78.12
531.651	91.12
531.865	85.12
532.08	76.12
532.295	93.12
532.509	89.12
532.724	83.12
532.938	84.12
533.153	79.12
533.367	87.12
533.582	69.12
533.796	74.12
534.011	81.12
534.225	79.12
534.44	76.12
534.654	77.12
534.868	79.12
535.083	76.12
535.297	75.12
535.511	78.12
535.726	89.12
535.94	78.12
536.154	85.12
536.369	90.12
536.583	78.12
536.797	79.12
537.011	88.12
537.225	79.12
537.44	91.12
537.654	95.12
537.868	85.12
538.082	89.12
538.296	85.12
538.51	87.12
538.724	89.12
538.938	101.12
539.153	91.12
539.367	81.12
539.581	74.12
539.795	83.12
540.009	99.12
540.222	90.12
540.436	86.12
540.65	85.12
540.864	71.12
541.078	77.12
541.292	79.12
541.506	77.12
541.72	80.12
541.934	86.12
542.147	94.12
542.361	81.12
542.575	85.12
542.789	92.12
543.002	98.12
543.216	88.12
543.43	88.12
543.644	73.12
543.857	93.12
544.071	71.12
544.285	83.12
544.498	69.12
544.712	86.12
544.925	76.12
545.139	93.12
545.352	82.12
545.566	84.12
545.779	82.12
545.993	94.12
546.206	85.12
546.42	85.12
546.633	89.12
546.847	98.12
547.06	98.12
547.274	92.12
547.487	89.12
547.7	77.12
547.914	88.12
548.127	85.12
548.34	101.12
548.554	68.12
548.767	80.12
548.98	79.12
549.193	79.12
549.407	88.12
549.62	94.12
549.833	83.12
550.046	85.12
550.259	76.12
550.473	96.12
550.686	92.12
550.899	88.12
551.112	67.12
551.325	71.12
551.538	75.12
551.751	85.12
551.964	100.12
552.177	83.12
552.39	71.12
552.603	90.12
552.816	71.12
553.029	93.12
553.242	83.12
553.455	79.12
553.667	83.12
553.88	89.12
554.093	92.12
554.306	80.12
554.519	85.12
554.732	87.12
554.944	90.12
555.157	73.12
555.37	73.12
555.583	95.12
555.795	85.12
556.008	93.12
556.221	76.12
556.433	79.12
556.646	79.12
556.859	78.12
557.071	96.12
557.284	90.12
557.496	89.12
557.709	88.12
557.921	94.12
558.134	86.12
558.346	85.12
558.559	90.12
558.771	85.12
558.984	69.12
559.196	93.12
559.409	83.12
559.621	83.12
559.833	87.12
560.046	77.12
560.258	85.12
560.47	84.12
560.683	93.12
560.895	96.12
561.107	94.12
561.32	74.12
561.532	91.12
561.744	93.12
561.956	84.12
562.168	86.12
562.381	90.12
562.593	78.12
562.805	90.12
563.017	93.12
563.229	98.12
563.441	88.12
563.653	85.12
563.865	73.12
564.077	76.12
564.289	96.12
564.501	73.12
564.713	86.12
564.925	79.12
565.137	73.12
565.349	82.12
565.561	89.12
565.773	82.12
565.985	92.12
566.197	67.12
566.408	77.12
566.62	90.12
566.832	90.12
567.044	80.12
567.255	83.12
567.467	95.12
567.679	83.12
567.891	72.12
568.102	71.12
568.314	85.12
568.526	81.12
568.737	90.12
568.949	82.12
569.161	93.12
569.372	85.12
569.584	92.12
569.795	91.12
570.007	87.12
570.218	69.12
570.43	86.12
570.641	101.12
570.853	92.12
571.064	82.12
571.276	83.12
571.487	90.12
571.698	78.12
571.91	82.12
572.121	77.12
572.333	77.12
572.544	82.12
572.755	95.12
572.966	82.12
573.178	77.12
573.389	75.12
573.6	90.12
573.811	79.12
574.023	67.12
574.234	79.12
574.445	72.12
574.656	91.12
574.867	97.12
575.078	75.12
575.289	78.12
575.501	86.12
575.712	90.12
575.923	85.12
576.134	88.12
576.345	80.12
576.556	85.12
576.767	84.12
576.978	96.12
577.188	91.12
577.399	90.12
577.61	85.12
577.821	83.12
578.032	86.12
578.243	88.12
578.454	85.12
578.665	87.12
578.875	85.12
579.086	87.12
579.297	69.12
579.508	83.12
579.718	88.12
579.929	92.12
580.14	88.12
580.35	90.12
580.561	74.12
580.772	84.12
580.982	72.12
581.193	89.12
581.403	84.12
581.614	91.12
581.825	93.12
582.035	73.12
582.246	98.12
582.456	83.12
582.667	85.12
582.877	93.12
583.087	90.12
583.298	101.12
583.508	85.12
583.719	86.12
583.929	80.12
584.139	73.12
584.35	80.12
584.56	86.12
584.77	99.12
584.981	89.12
585.191	69.12
585.401	67.12
585.611	71.12
585.821	79.12
586.032	97.12
586.242	83.12
586.452	95.12
586.662	75.12
586.872	76.12
587.082	78.12
587.292	89.12
587.502	91.12
587.713	77.12
587.923	87.12
588.133	79.12
588.343	84.12
588.553	83.12
588.762	105.12
588.972	76.12
589.182	64.12
589.392	90.12
589.602	68.12
589.812	87.12
590.022	88.12
590.232	77.12
590.441	93.12
590.651	74.12
590.861	81.12
591.071	85.12
591.281	80.12
591.49	82.12
591.7	86.12
591.91	87.12
592.119	74.12
592.329	77.12
592.539	80.12
592.748	85.12
592.958	74.12
593.167	81.12
593.377	78.12
593.587	92.12
593.796	86.12
594.006	84.12
594.215	76.12
594.424	77.12
594.634	92.12
594.843	82.12
595.053	94.12
595.262	94.12
595.472	91.12
595.681	76.12
595.89	91.12
596.1	77.12
596.309	67.12
596.518	84.12
596.727	87.12
596.937	91.12
597.146	79.12
597.355	94.12
597.564	84.12
597.774	83.12
597.983	76.12
598.192	86.12
598.401	75.12
598.61	69.12
598.819	77.12
599.028	82.12
599.237	93.12
599.446	77.12
599.655	87.12
599.864	89.12
600.073	101.12
600.282	88.12
600.491	81.12
600.7	83.12
600.909	85.12
601.118	102.12
601.327	88.12
601.536	79.12
601.745	86.12
601.953	81.12
602.162	94.12
602.371	87.12
602.58	76.12
602.789	87.12
602.997	90.12
603.206	92.12
603.415	93.12
603.623	91.12
603.832	93.12
604.041	90.12
604.249	88.12
604.458	85.12
604.666	84.12
604.875	95.12
605.084	87.12
605.292	88.12
605.501	79.12
605.709	85.12
605.918	90.12
606.126	93.12
606.334	90.12
606.543	94.12
606.751	87.12
606.96	79.12
607.168	82.12
607.376	79.12
607.585	93.12
607.793	100.12
608.001	96.12
608.21	79.12
608.418	79.12
608.626	79.12
608.834	84.12
609.043	79.12
609.251	93.12
609.459	80.12
609.667	85.12
609.875	79.12
610.083	77.12
610.291	76.12
610.499	78.12
610.707	90.12
610.916	78.12
611.124	98.12
611.332	81.12
611.54	79.12
611.748	87.12
611.955	85.12
612.163	87.12
612.371	96.12
612.579	76.12
612.787	84.12
612.995	91.12
613.203	86.12
613.411	81.12
613.618	85.12
613.826	83.12
614.034	85.12
614.242	91.12
614.449	84.12
614.657	90.12
614.865	89.12
615.072	71.12
615.28	91.12
615.488	80.12
615.695	73.12
615.903	85.12
616.111	74.12
616.318	80.12
616.526	90.12
616.733	84.12
616.941	91.12
617.148	90.12
617.356	71.12
617.563	87.12
617.771	90.12
617.978	82.12
618.185	88.12
618.393	105.12
618.6	83.12
618.807	82.12
619.015	89.12
619.222	82.12
619.429	95.12
619.637	72.12
619.844	85.12
620.051	79.12
620.258	78.12
620.466	86.12
620.673	86.12
620.88	79.12
621.087	80.12
621.294	93.12
621.501	88.12
621.708	85.12
621.915	76.12
622.122	94.12
622.329	98.12
622.536	64.12
622.743	77.12
622.95	79.12
623.157	78.12
623.364	91.12
623.571	69.12
623.778	90.12
623.985	81.12
624.192	104.12
624.399	85.12
624.606	89.12
624.812	75.12
625.019	71.12
625.226	79.12
625.433	89.12
625.639	102.12
625.846	83.12
626.053	73.12
626.259	85.12
626.466	87.12
626.673	89.12
626.879	66.12
627.086	100.12
627.293	80.12
627.499	90.12
627.706	93.12
627.912	89.12
628.119	86.12
628.325	94.12
628.532	79.12
628.738	70.12
628.945	88.12
629.151	90.12
629.357	82.12
629.564	85.12
629.77	92.12
629.976	79.12
630.183	77.12
630.389	85.12
630.595	85.12
630.802	90.12
631.008	87.12
631.214	90.12
631.42	99.12
631.627	75.12
631.833	86.12
632.039	85.12
632.245	86.12
632.451	92.12
632.657	84.12
632.863	79.12
633.069	74.12
633.275	93.12
633.481	82.12
633.688	85.12
633.893	81.12
634.099	85.12
634.305	75.12
634.511	75.12
634.717	84.12
634.923	95.12
635.129	78.12
635.335	90.12
635.541	83.12
635.747	88.12
635.952	91.12
636.158	70.12
636.364	92.12
636.57	85.12
636.775	85.12
636.981	84.12
637.187	82.12
637.392	92.12
637.598	80.12
637.804	96.12
638.009	89.12
638.215	90.12
638.421	92.12
638.626	68.12
638.832	96.12
639.037	77.12
639.243	85.12
639.448	80.12
639.654	98.12
639.859	98.12
640.065	81.12
640.27	80.12
640.475	84.12
640.681	83.12
640.886	95.12
641.091	90.12
641.297	80.12
641.502	93.12
641.707	92.12
641.913	95.12
642.118	68.12
642.323	79.12
642.528	93.12
642.733	68.12
642.939	89.12
643.144	99.12
643.349	93.12
643.554	79.12
643.759	96.12
643.964	77.12
644.169	90.12
644.374	69.12
644.579	83.12
644.784	83.12
644.989	84.12
645.194	88.12
645.399	85.12
645.604	90.12
645.809	75.12
646.014	83.12
646.219	87.12
646.423	74.12
646.628	63.12
646.833	93.12
647.038	80.12
647.243	90.12
647.447	84.12
647.652	69.12
647.857	85.12
648.062	79.12
648.266	79.12
648.471	92.12
648.676	85.12
648.88	93.12
649.085	82.12
649.289	72.12
649.494	89.12
649.698	80.12
649.903	95.12
650.107	89.12
650.312	80.12
650.516	86.12
650.721	91.12
650.925	78.12
651.13	98.12
651.334	100.12
651.539	87.12
651.743	89.12
651.947	89.12
652.152	82.12
652.356	88.12
652.56	90.12
652.764	86.12
652.969	82.12
653.173	81.12
653.377	75.12
653.581	89.12
653.785	85.12
653.99	89.12
654.194	86.12
654.398	89.12
654.602	75.12
654.806	92.12
655.01	80.12
655.214	87.12
655.418	85.12
655.622	69.12
655.826	86.12
656.03	99.12
656.234	94.12
656.438	85.12
656.642	96.12
656.846	73.12
657.049	69.12
657.253	78.12
657.457	93.12
657.661	77.12
657.865	86.12
658.068	73.12
658.272	87.12
658.476	79.12
658.68	78.12
658.883	87.12
659.087	72.12
659.291	86.12
659.494	91.12
659.698	88.12
659.901	91.12
660.105	91.12
660.309	80.12
660.512	63.12
660.716	93.12
660.919	71.12
661.123	86.12
661.326	84.12
661.53	92.12
661.733	83.12
661.936	91.12
662.14	83.12
662.343	87.12
662.546	90.12
662.75	77.12
662.953	88.12
663.156	86.12
663.36	79.12
663.563	83.12
663.766	80.12
663.969	84.12
664.173	78.12
664.376	85.12
664.579	75.12
664.782	71.12
664.985	88.12
665.188	92.12
665.391	82.12
665.594	89.12
665.797	77.12
666	95.12
666.203	80.12
666.406	93.12
666.609	78.12
666.812	79.12
667.015	80.12
667.218	80.12
667.421	88.12
667.624	71.12
667.827	67.12
668.03	78.12
668.232	90.12
668.435	81.12
668.638	69.12
668.841	81.12
669.043	90.12
669.246	67.12
669.449	61.12
669.651	80.12
669.854	75.12
670.057	71.12
670.259	76.12
670.462	77.12
670.665	90.12
670.867	76.12
671.07	85.12
671.272	79.12
671.475	94.12
671.677	82.12
671.88	79.12
672.082	80.12
672.284	91.12
672.487	80.12
672.689	82.12
672.892	77.12
