Data from Propagules_50_3_HRD10591_00013.txt Node
Date: Thu Feb 19 11:09:01 EST 2026
User: Yrep
Spectrometer: HR+D1059
Trigger mode: 1
Integration Time (sec): 1.000000E-1
Scans to average: 1
Electric dark correction enabled: true
Nonlinearity correction enabled: false
Boxcar width: 0
XAxis mode: Wavelengths
Number of Pixels in Spectrum: 2048
>>>>>Begin Spectral Data<<<<<
223.165	-13.62
223.4	-13.62
223.635	-13.62
223.869	-14.62
224.104	-27.62
224.338	-20.62
224.573	-16.62
224.808	-17.62
225.042	-3.62
225.277	-6.62
225.511	4.38
225.746	5.38
225.98	12.38
226.215	12.38
226.449	18.38
226.683	18.38
226.918	22.38
227.152	27.38
227.387	37.38
227.621	43.38
227.856	48.38
228.09	39.38
228.324	51.38
228.559	62.38
228.793	45.38
229.027	70.38
229.262	67.38
229.496	71.38
229.73	68.38
229.964	72.38
230.199	92.38
230.433	70.38
230.667	78.38
230.901	80.38
231.136	74.38
231.37	80.38
231.604	77.38
231.838	78.38
232.072	86.38
232.306	85.38
232.541	86.38
232.775	85.38
233.009	83.38
233.243	85.38
233.477	78.38
233.711	80.38
233.945	91.38
234.179	83.38
234.413	67.38
234.647	72.38
234.881	81.38
235.115	68.38
235.349	65.38
235.583	83.38
235.817	75.38
236.051	67.38
236.285	57.38
236.519	75.38
236.753	88.38
236.987	82.38
237.221	78.38
237.455	81.38
237.689	79.38
237.922	77.38
238.156	75.38
238.39	79.38
238.624	74.38
238.858	72.38
239.091	71.38
239.325	80.38
239.559	77.38
239.793	68.38
240.027	87.38
240.26	74.38
240.494	80.38
240.728	66.38
240.961	72.38
241.195	85.38
241.429	76.38
241.662	70.38
241.896	83.38
242.13	75.38
242.363	68.38
242.597	73.38
242.83	79.38
243.064	96.38
243.298	82.38
243.531	66.38
243.765	72.38
243.998	71.38
244.232	69.38
244.465	65.38
244.699	80.38
244.932	78.38
245.166	80.38
245.399	77.38
245.633	79.38
245.866	78.38
246.099	88.38
246.333	81.38
246.566	77.38
246.8	66.38
247.033	71.38
247.266	86.38
247.5	83.38
247.733	76.38
247.966	76.38
248.2	84.38
248.433	81.38
248.666	76.38
248.899	88.38
249.133	84.38
249.366	93.38
249.599	80.38
249.832	71.38
250.066	79.38
250.299	93.38
250.532	71.38
250.765	82.38
250.998	79.38
251.231	73.38
251.465	80.38
251.698	76.38
251.931	72.38
252.164	87.38
252.397	69.38
252.63	75.38
252.863	84.38
253.096	80.38
253.329	71.38
253.562	68.38
253.795	84.38
254.028	83.38
254.261	94.38
254.494	89.38
254.727	75.38
254.96	68.38
255.193	80.38
255.426	72.38
255.659	85.38
255.892	78.38
256.124	71.38
256.357	81.38
256.59	88.38
256.823	83.38
257.056	71.38
257.289	82.38
257.521	83.38
257.754	67.38
257.987	80.38
258.22	74.38
258.452	84.38
258.685	80.38
258.918	69.38
259.151	79.38
259.383	77.38
259.616	85.38
259.849	86.38
260.081	81.38
260.314	85.38
260.547	83.38
260.779	84.38
261.012	72.38
261.244	78.38
261.477	83.38
261.71	72.38
261.942	82.38
262.175	78.38
262.407	82.38
262.64	93.38
262.872	80.38
263.105	76.38
263.337	80.38
263.57	75.38
263.802	72.38
264.035	75.38
264.267	75.38
264.499	70.38
264.732	93.38
264.964	70.38
265.197	65.38
265.429	85.38
265.661	79.38
265.894	81.38
266.126	81.38
266.358	82.38
266.591	73.38
266.823	79.38
267.055	81.38
267.287	85.38
267.52	77.38
267.752	81.38
267.984	91.38
268.216	83.38
268.448	82.38
268.681	82.38
268.913	84.38
269.145	83.38
269.377	81.38
269.609	83.38
269.841	73.38
270.073	79.38
270.306	96.38
270.538	81.38
270.77	77.38
271.002	82.38
271.234	91.38
271.466	82.38
271.698	69.38
271.93	81.38
272.162	84.38
272.394	81.38
272.626	85.38
272.858	87.38
273.09	85.38
273.322	72.38
273.553	82.38
273.785	79.38
274.017	72.38
274.249	84.38
274.481	76.38
274.713	75.38
274.945	91.38
275.176	76.38
275.408	92.38
275.64	86.38
275.872	71.38
276.104	75.38
276.335	77.38
276.567	81.38
276.799	74.38
277.031	84.38
277.262	92.38
277.494	86.38
277.726	88.38
277.957	66.38
278.189	78.38
278.421	84.38
278.652	95.38
278.884	85.38
279.115	79.38
279.347	89.38
279.579	89.38
279.81	76.38
280.042	64.38
280.273	86.38
280.505	74.38
280.736	77.38
280.968	85.38
281.199	97.38
281.431	79.38
281.662	73.38
281.894	71.38
282.125	87.38
282.356	85.38
282.588	85.38
282.819	83.38
283.051	85.38
283.282	88.38
283.513	99.38
283.745	85.38
283.976	81.38
284.207	101.38
284.439	78.38
284.67	78.38
284.901	65.38
285.132	84.38
285.364	85.38
285.595	73.38
285.826	78.38
286.057	70.38
286.288	84.38
286.52	92.38
286.751	86.38
286.982	75.38
287.213	86.38
287.444	83.38
287.675	86.38
287.906	81.38
288.138	97.38
288.369	84.38
288.6	88.38
288.831	77.38
289.062	77.38
289.293	82.38
289.524	72.38
289.755	85.38
289.986	65.38
290.217	94.38
290.448	93.38
290.679	91.38
290.91	84.38
291.141	87.38
291.371	94.38
291.602	82.38
291.833	87.38
292.064	72.38
292.295	84.38
292.526	69.38
292.757	84.38
292.987	88.38
293.218	86.38
293.449	75.38
293.68	96.38
293.91	93.38
294.141	86.38
294.372	87.38
294.603	80.38
294.833	93.38
295.064	90.38
295.295	84.38
295.525	80.38
295.756	80.38
295.987	84.38
296.217	103.38
296.448	76.38
296.679	68.38
296.909	86.38
297.14	92.38
297.37	94.38
297.601	93.38
297.831	83.38
298.062	86.38
298.292	88.38
298.523	94.38
298.753	90.38
298.984	82.38
299.214	81.38
299.445	87.38
299.675	88.38
299.905	89.38
300.136	88.38
300.366	86.38
300.597	90.38
300.827	89.38
301.057	75.38
301.288	78.38
301.518	88.38
301.748	83.38
301.979	87.38
302.209	73.38
302.439	89.38
302.669	64.38
302.9	77.38
303.13	86.38
303.36	81.38
303.59	86.38
303.82	81.38
304.051	69.38
304.281	81.38
304.511	91.38
304.741	80.38
304.971	83.38
305.201	77.38
305.431	88.38
305.661	99.38
305.891	86.38
306.121	63.38
306.352	97.38
306.582	85.38
306.812	96.38
307.042	74.38
307.272	88.38
307.502	99.38
307.731	79.38
307.961	79.38
308.191	82.38
308.421	89.38
308.651	88.38
308.881	77.38
309.111	82.38
309.341	88.38
309.571	72.38
309.8	84.38
310.03	87.38
310.26	80.38
310.49	81.38
310.72	75.38
310.949	68.38
311.179	76.38
311.409	81.38
311.639	88.38
311.868	85.38
312.098	101.38
312.328	80.38
312.557	88.38
312.787	87.38
313.017	95.38
313.246	87.38
313.476	79.38
313.706	74.38
313.935	88.38
314.165	77.38
314.394	76.38
314.624	92.38
314.853	85.38
315.083	83.38
315.312	74.38
315.542	82.38
315.771	81.38
316.001	78.38
316.23	88.38
316.46	68.38
316.689	73.38
316.919	76.38
317.148	88.38
317.377	91.38
317.607	77.38
317.836	86.38
318.065	89.38
318.295	97.38
318.524	91.38
318.753	80.38
318.983	87.38
319.212	86.38
319.441	84.38
319.67	73.38
319.9	77.38
320.129	80.38
320.358	90.38
320.587	91.38
320.816	85.38
321.046	86.38
321.275	71.38
321.504	86.38
321.733	84.38
321.962	75.38
322.191	83.38
322.42	75.38
322.649	81.38
322.878	86.38
323.108	98.38
323.337	89.38
323.566	89.38
323.795	85.38
324.024	86.38
324.253	74.38
324.482	83.38
324.71	78.38
324.939	94.38
325.168	84.38
325.397	80.38
325.626	83.38
325.855	73.38
326.084	86.38
326.313	73.38
326.542	85.38
326.77	96.38
326.999	84.38
327.228	83.38
327.457	83.38
327.686	68.38
327.914	76.38
328.143	84.38
328.372	92.38
328.6	72.38
328.829	71.38
329.058	104.38
329.287	81.38
329.515	89.38
329.744	81.38
329.972	86.38
330.201	88.38
330.43	87.38
330.658	91.38
330.887	81.38
331.115	79.38
331.344	72.38
331.572	77.38
331.801	83.38
332.03	76.38
332.258	85.38
332.486	83.38
332.715	85.38
332.943	102.38
333.172	76.38
333.4	75.38
333.629	80.38
333.857	81.38
334.085	81.38
334.314	84.38
334.542	75.38
334.771	93.38
334.999	85.38
335.227	80.38
335.455	78.38
335.684	82.38
335.912	87.38
336.14	106.38
336.369	70.38
336.597	72.38
336.825	101.38
337.053	80.38
337.281	81.38
337.51	80.38
337.738	62.38
337.966	81.38
338.194	75.38
338.422	86.38
338.65	80.38
338.878	88.38
339.106	85.38
339.334	101.38
339.562	76.38
339.79	103.38
340.018	82.38
340.246	70.38
340.474	82.38
340.702	73.38
340.93	91.38
341.158	99.38
341.386	83.38
341.614	86.38
341.842	92.38
342.07	87.38
342.298	95.38
342.526	88.38
342.754	85.38
342.981	83.38
343.209	93.38
343.437	89.38
343.665	105.38
343.893	88.38
344.12	83.38
344.348	83.38
344.576	78.38
344.804	79.38
345.031	77.38
345.259	89.38
345.487	95.38
345.714	91.38
345.942	86.38
346.17	90.38
346.397	88.38
346.625	78.38
346.853	81.38
347.08	84.38
347.308	89.38
347.535	86.38
347.763	97.38
347.99	91.38
348.218	87.38
348.445	91.38
348.673	79.38
348.9	82.38
349.128	79.38
349.355	82.38
349.583	75.38
349.81	73.38
350.037	83.38
350.265	79.38
350.492	80.38
350.72	71.38
350.947	79.38
351.174	87.38
351.402	69.38
351.629	82.38
351.856	91.38
352.083	64.38
352.311	79.38
352.538	74.38
352.765	79.38
352.992	90.38
353.22	85.38
353.447	78.38
353.674	82.38
353.901	88.38
354.128	90.38
354.355	90.38
354.583	84.38
354.81	72.38
355.037	95.38
355.264	75.38
355.491	78.38
355.718	82.38
355.945	73.38
356.172	80.38
356.399	71.38
356.626	77.38
356.853	80.38
357.08	85.38
357.307	89.38
357.534	83.38
357.761	76.38
357.988	84.38
358.215	84.38
358.441	96.38
358.668	86.38
358.895	80.38
359.122	78.38
359.349	87.38
359.576	85.38
359.802	92.38
360.029	87.38
360.256	92.38
360.483	90.38
360.709	97.38
360.936	92.38
361.163	94.38
361.39	75.38
361.616	79.38
361.843	99.38
362.07	86.38
362.296	92.38
362.523	86.38
362.749	72.38
362.976	78.38
363.203	101.38
363.429	81.38
363.656	93.38
363.882	91.38
364.109	92.38
364.335	100.38
364.562	86.38
364.788	69.38
365.015	74.38
365.241	84.38
365.468	76.38
365.694	99.38
365.92	73.38
366.147	86.38
366.373	90.38
366.599	68.38
366.826	84.38
367.052	84.38
367.278	56.38
367.505	84.38
367.731	94.38
367.957	77.38
368.184	83.38
368.41	79.38
368.636	82.38
368.862	86.38
369.089	82.38
369.315	74.38
369.541	64.38
369.767	73.38
369.993	68.38
370.219	84.38
370.445	85.38
370.672	83.38
370.898	67.38
371.124	88.38
371.35	94.38
371.576	74.38
371.802	84.38
372.028	87.38
372.254	86.38
372.48	76.38
372.706	85.38
372.932	86.38
373.158	100.38
373.384	77.38
373.61	77.38
373.835	88.38
374.061	75.38
374.287	80.38
374.513	88.38
374.739	88.38
374.965	88.38
375.191	87.38
375.416	71.38
375.642	72.38
375.868	86.38
376.094	93.38
376.319	85.38
376.545	77.38
376.771	82.38
376.997	82.38
377.222	95.38
377.448	77.38
377.674	73.38
377.899	87.38
378.125	85.38
378.35	82.38
378.576	95.38
378.802	84.38
379.027	82.38
379.253	88.38
379.478	78.38
379.704	78.38
379.929	73.38
380.155	87.38
380.38	64.38
380.606	77.38
380.831	71.38
381.057	77.38
381.282	82.38
381.507	75.38
381.733	87.38
381.958	83.38
382.184	81.38
382.409	82.38
382.634	89.38
382.86	79.38
383.085	79.38
383.31	85.38
383.535	90.38
383.761	83.38
383.986	69.38
384.211	67.38
384.436	75.38
384.662	80.38
384.887	75.38
385.112	83.38
385.337	73.38
385.562	94.38
385.787	85.38
386.013	78.38
386.238	76.38
386.463	86.38
386.688	97.38
386.913	85.38
387.138	79.38
387.363	88.38
387.588	78.38
387.813	81.38
388.038	79.38
388.263	67.38
388.488	71.38
388.713	87.38
388.938	84.38
389.163	77.38
389.387	80.38
389.612	78.38
389.837	76.38
390.062	76.38
390.287	80.38
390.512	79.38
390.736	76.38
390.961	82.38
391.186	87.38
391.411	74.38
391.636	81.38
391.86	91.38
392.085	83.38
392.31	76.38
392.534	87.38
392.759	88.38
392.984	76.38
393.208	82.38
393.433	75.38
393.658	81.38
393.882	90.38
394.107	89.38
394.331	83.38
394.556	70.38
394.78	79.38
395.005	77.38
395.229	71.38
395.454	80.38
395.678	94.38
395.903	87.38
396.127	79.38
396.352	86.38
396.576	79.38
396.801	78.38
397.025	86.38
397.249	82.38
397.474	101.38
397.698	84.38
397.922	81.38
398.147	96.38
398.371	54.38
398.595	87.38
398.82	70.38
399.044	84.38
399.268	87.38
399.492	81.38
399.717	82.38
399.941	79.38
400.165	80.38
400.389	70.38
400.613	70.38
400.837	76.38
401.062	67.38
401.286	91.38
401.51	76.38
401.734	73.38
401.958	62.38
402.182	81.38
402.406	77.38
402.63	90.38
402.854	82.38
403.078	70.38
403.302	69.38
403.526	72.38
403.75	77.38
403.974	89.38
404.198	80.38
404.422	81.38
404.645	98.38
404.869	93.38
405.093	71.38
405.317	64.38
405.541	81.38
405.765	86.38
405.988	75.38
406.212	69.38
406.436	89.38
406.66	81.38
406.883	78.38
407.107	71.38
407.331	74.38
407.555	79.38
407.778	80.38
408.002	86.38
408.226	81.38
408.449	93.38
408.673	82.38
408.896	91.38
409.12	91.38
409.344	84.38
409.567	79.38
409.791	68.38
410.014	81.38
410.238	89.38
410.461	80.38
410.685	75.38
410.908	73.38
411.132	88.38
411.355	83.38
411.578	88.38
411.802	79.38
412.025	81.38
412.249	80.38
412.472	79.38
412.695	75.38
412.919	99.38
413.142	81.38
413.365	81.38
413.589	73.38
413.812	87.38
414.035	82.38
414.258	62.38
414.482	78.38
414.705	78.38
414.928	82.38
415.151	90.38
415.374	76.38
415.597	86.38
415.821	86.38
416.044	79.38
416.267	66.38
416.49	89.38
416.713	84.38
416.936	81.38
417.159	89.38
417.382	64.38
417.605	81.38
417.828	78.38
418.051	86.38
418.274	90.38
418.497	96.38
418.72	76.38
418.943	83.38
419.166	81.38
419.389	80.38
419.611	81.38
419.834	66.38
420.057	73.38
420.28	95.38
420.503	83.38
420.726	66.38
420.948	78.38
421.171	88.38
421.394	89.38
421.617	65.38
421.839	83.38
422.062	85.38
422.285	79.38
422.507	82.38
422.73	88.38
422.953	77.38
423.175	82.38
423.398	84.38
423.621	97.38
423.843	83.38
424.066	87.38
424.288	82.38
424.511	87.38
424.733	73.38
424.956	86.38
425.178	69.38
425.401	73.38
425.623	80.38
425.846	88.38
426.068	86.38
426.291	82.38
426.513	89.38
426.735	87.38
426.958	88.38
427.18	75.38
427.402	77.38
427.625	78.38
427.847	78.38
428.069	76.38
428.292	87.38
428.514	78.38
428.736	78.38
428.958	70.38
429.181	87.38
429.403	81.38
429.625	79.38
429.847	69.38
430.069	79.38
430.292	75.38
430.514	72.38
430.736	71.38
430.958	88.38
431.18	98.38
431.402	86.38
431.624	89.38
431.846	62.38
432.068	78.38
432.29	70.38
432.512	87.38
432.734	91.38
432.956	94.38
433.178	87.38
433.4	79.38
433.622	77.38
433.844	80.38
434.066	99.38
434.287	83.38
434.509	88.38
434.731	84.38
434.953	84.38
435.175	84.38
435.397	73.38
435.618	78.38
435.84	88.38
436.062	79.38
436.284	85.38
436.505	71.38
436.727	66.38
436.949	85.38
437.17	73.38
437.392	71.38
437.614	82.38
437.835	89.38
438.057	71.38
438.278	79.38
438.5	83.38
438.721	86.38
438.943	70.38
439.165	83.38
439.386	93.38
439.608	79.38
439.829	85.38
440.05	75.38
440.272	72.38
440.493	75.38
440.715	67.38
440.936	85.38
441.158	97.38
441.379	92.38
441.6	74.38
441.822	92.38
442.043	77.38
442.264	81.38
442.486	80.38
442.707	75.38
442.928	90.38
443.149	76.38
443.371	83.38
443.592	88.38
443.813	90.38
444.034	79.38
444.255	60.38
444.476	65.38
444.698	81.38
444.919	81.38
445.14	180.38
445.361	120.38
445.582	80.38
445.803	88.38
446.024	93.38
446.245	83.38
446.466	89.38
446.687	92.38
446.908	81.38
447.129	75.38
447.35	79.38
447.571	73.38
447.792	77.38
448.013	84.38
448.234	86.38
448.455	86.38
448.675	103.38
448.896	76.38
449.117	73.38
449.338	73.38
449.559	80.38
449.779	71.38
450	83.38
450.221	68.38
450.442	71.38
450.662	90.38
450.883	83.38
451.104	84.38
451.324	90.38
451.545	86.38
451.766	67.38
451.986	89.38
452.207	89.38
452.428	83.38
452.648	85.38
452.869	74.38
453.089	79.38
453.31	87.38
453.53	83.38
453.751	82.38
453.971	84.38
454.192	71.38
454.412	75.38
454.633	88.38
454.853	77.38
455.073	84.38
455.294	88.38
455.514	74.38
455.734	85.38
455.955	76.38
456.175	73.38
456.395	69.38
456.616	79.38
456.836	74.38
457.056	86.38
457.276	85.38
457.497	71.38
457.717	67.38
457.937	84.38
458.157	77.38
458.377	69.38
458.598	81.38
458.818	83.38
459.038	73.38
459.258	86.38
459.478	77.38
459.698	66.38
459.918	74.38
460.138	73.38
460.358	75.38
460.578	71.38
460.798	71.38
461.018	97.38
461.238	79.38
461.458	74.38
461.678	88.38
461.898	78.38
462.118	84.38
462.338	91.38
462.558	89.38
462.777	80.38
462.997	85.38
463.217	77.38
463.437	61.38
463.657	70.38
463.876	83.38
464.096	81.38
464.316	75.38
464.536	83.38
464.755	73.38
464.975	84.38
465.195	80.38
465.414	86.38
465.634	94.38
465.854	67.38
466.073	72.38
466.293	84.38
466.512	73.38
466.732	75.38
466.951	84.38
467.171	71.38
467.391	83.38
467.61	81.38
467.829	92.38
468.049	84.38
468.268	57.38
468.488	84.38
468.707	86.38
468.927	75.38
469.146	92.38
469.365	83.38
469.585	89.38
469.804	93.38
470.023	89.38
470.243	71.38
470.462	83.38
470.681	66.38
470.901	86.38
471.12	80.38
471.339	83.38
471.558	67.38
471.777	73.38
471.997	80.38
472.216	104.38
472.435	90.38
472.654	80.38
472.873	81.38
473.092	69.38
473.311	90.38
473.53	93.38
473.749	92.38
473.968	79.38
474.187	82.38
474.406	89.38
474.625	85.38
474.844	84.38
475.063	77.38
475.282	89.38
475.501	93.38
475.72	103.38
475.939	69.38
476.158	80.38
476.377	78.38
476.596	68.38
476.814	87.38
477.033	68.38
477.252	82.38
477.471	79.38
477.69	77.38
477.908	90.38
478.127	86.38
478.346	82.38
478.564	73.38
478.783	71.38
479.002	81.38
479.22	75.38
479.439	81.38
479.658	78.38
479.876	78.38
480.095	73.38
480.313	82.38
480.532	71.38
480.751	76.38
480.969	98.38
481.188	70.38
481.406	74.38
481.624	83.38
481.843	76.38
482.061	80.38
482.28	73.38
482.498	73.38
482.717	80.38
482.935	86.38
483.153	66.38
483.372	98.38
483.59	84.38
483.808	72.38
484.027	85.38
484.245	82.38
484.463	68.38
484.681	82.38
484.9	76.38
485.118	86.38
485.336	86.38
485.554	78.38
485.772	89.38
485.99	85.38
486.209	99.38
486.427	85.38
486.645	75.38
486.863	85.38
487.081	80.38
487.299	81.38
487.517	83.38
487.735	76.38
487.953	89.38
488.171	90.38
488.389	82.38
488.607	85.38
488.825	95.38
489.043	79.38
489.261	79.38
489.479	87.38
489.696	80.38
489.914	74.38
490.132	86.38
490.35	84.38
490.568	78.38
490.786	80.38
491.003	79.38
491.221	76.38
491.439	79.38
491.657	77.38
491.874	80.38
492.092	92.38
492.31	86.38
492.527	85.38
492.745	87.38
492.963	88.38
493.18	83.38
493.398	65.38
493.615	92.38
493.833	89.38
494.05	78.38
494.268	84.38
494.485	84.38
494.703	80.38
494.92	79.38
495.138	86.38
495.355	79.38
495.573	69.38
495.79	90.38
496.008	97.38
496.225	91.38
496.442	93.38
496.66	79.38
496.877	67.38
497.094	75.38
497.312	73.38
497.529	90.38
497.746	99.38
497.963	93.38
498.181	73.38
498.398	78.38
498.615	101.38
498.832	75.38
499.049	88.38
499.267	93.38
499.484	92.38
499.701	73.38
499.918	92.38
500.135	80.38
500.352	83.38
500.569	73.38
500.786	89.38
501.003	84.38
501.22	84.38
501.437	97.38
501.654	79.38
501.871	81.38
502.088	77.38
502.305	95.38
502.522	87.38
502.739	97.38
502.956	95.38
503.172	73.38
503.389	87.38
503.606	86.38
503.823	93.38
504.04	90.38
504.256	87.38
504.473	81.38
504.69	83.38
504.907	83.38
505.123	83.38
505.34	84.38
505.557	79.38
505.773	74.38
505.99	76.38
506.207	88.38
506.423	79.38
506.64	78.38
506.856	83.38
507.073	82.38
507.289	84.38
507.506	84.38
507.722	92.38
507.939	85.38
508.155	86.38
508.372	80.38
508.588	88.38
508.805	86.38
509.021	85.38
509.238	86.38
509.454	89.38
509.67	83.38
509.887	86.38
510.103	79.38
510.319	96.38
510.536	85.38
510.752	85.38
510.968	73.38
511.184	87.38
511.401	77.38
511.617	93.38
511.833	88.38
512.049	67.38
512.265	71.38
512.481	89.38
512.698	93.38
512.914	87.38
513.13	74.38
513.346	82.38
513.562	90.38
513.778	108.38
513.994	96.38
514.21	70.38
514.426	84.38
514.642	70.38
514.858	87.38
515.074	84.38
515.29	81.38
515.506	78.38
515.721	75.38
515.937	82.38
516.153	86.38
516.369	72.38
516.585	84.38
516.801	71.38
517.016	85.38
517.232	79.38
517.448	84.38
517.664	83.38
517.879	104.38
518.095	81.38
518.311	92.38
518.527	99.38
518.742	86.38
518.958	78.38
519.173	80.38
519.389	77.38
519.605	84.38
519.82	83.38
520.036	74.38
520.251	85.38
520.467	70.38
520.682	83.38
520.898	98.38
521.113	76.38
521.329	85.38
521.544	88.38
521.76	87.38
521.975	75.38
522.19	83.38
522.406	79.38
522.621	85.38
522.836	82.38
523.052	88.38
523.267	81.38
523.482	81.38
523.698	76.38
523.913	94.38
524.128	79.38
524.343	87.38
524.559	88.38
524.774	85.38
524.989	59.38
525.204	72.38
525.419	68.38
525.634	87.38
525.849	89.38
526.064	83.38
526.28	81.38
526.495	91.38
526.71	75.38
526.925	78.38
527.14	79.38
527.355	81.38
527.57	76.38
527.785	84.38
527.999	82.38
528.214	79.38
528.429	83.38
528.644	85.38
528.859	92.38
529.074	81.38
529.289	72.38
529.503	80.38
529.718	83.38
529.933	73.38
530.148	84.38
530.363	92.38
530.577	84.38
530.792	75.38
531.007	85.38
531.221	88.38
531.436	80.38
531.651	89.38
531.865	69.38
532.08	95.38
532.295	88.38
532.509	80.38
532.724	83.38
532.938	87.38
533.153	83.38
533.367	90.38
533.582	92.38
533.796	76.38
534.011	85.38
534.225	84.38
534.44	83.38
534.654	82.38
534.868	89.38
535.083	81.38
535.297	81.38
535.511	87.38
535.726	84.38
535.94	88.38
536.154	87.38
536.369	85.38
536.583	84.38
536.797	77.38
537.011	83.38
537.225	79.38
537.44	86.38
537.654	94.38
537.868	77.38
538.082	71.38
538.296	87.38
538.51	81.38
538.724	75.38
538.938	80.38
539.153	77.38
539.367	79.38
539.581	90.38
539.795	88.38
540.009	87.38
540.222	71.38
540.436	72.38
540.65	86.38
540.864	77.38
541.078	90.38
541.292	89.38
541.506	74.38
541.72	87.38
541.934	83.38
542.147	89.38
542.361	105.38
542.575	93.38
542.789	69.38
543.002	79.38
543.216	80.38
543.43	88.38
543.644	70.38
543.857	78.38
544.071	80.38
544.285	73.38
544.498	74.38
544.712	75.38
544.925	77.38
545.139	70.38
545.352	80.38
545.566	94.38
545.779	82.38
545.993	97.38
546.206	77.38
546.42	75.38
546.633	83.38
546.847	89.38
547.06	83.38
547.274	73.38
547.487	91.38
547.7	83.38
547.914	75.38
548.127	87.38
548.34	80.38
548.554	82.38
548.767	87.38
548.98	95.38
549.193	72.38
549.407	93.38
549.62	82.38
549.833	88.38
550.046	82.38
550.259	75.38
550.473	75.38
550.686	78.38
550.899	81.38
551.112	90.38
551.325	84.38
551.538	97.38
551.751	83.38
551.964	80.38
552.177	88.38
552.39	77.38
552.603	83.38
552.816	79.38
553.029	96.38
553.242	78.38
553.455	83.38
553.667	79.38
553.88	88.38
554.093	93.38
554.306	97.38
554.519	85.38
554.732	86.38
554.944	75.38
555.157	85.38
555.37	87.38
555.583	75.38
555.795	93.38
556.008	79.38
556.221	91.38
556.433	69.38
556.646	81.38
556.859	84.38
557.071	79.38
557.284	80.38
557.496	74.38
557.709	64.38
557.921	85.38
558.134	82.38
558.346	94.38
558.559	79.38
558.771	85.38
558.984	70.38
559.196	88.38
559.409	94.38
559.621	95.38
559.833	89.38
560.046	83.38
560.258	81.38
560.47	71.38
560.683	79.38
560.895	71.38
561.107	88.38
561.32	89.38
561.532	85.38
561.744	95.38
561.956	77.38
562.168	87.38
562.381	73.38
562.593	88.38
562.805	90.38
563.017	72.38
563.229	85.38
563.441	85.38
563.653	86.38
563.865	79.38
564.077	75.38
564.289	69.38
564.501	87.38
564.713	80.38
564.925	86.38
565.137	81.38
565.349	94.38
565.561	97.38
565.773	95.38
565.985	89.38
566.197	81.38
566.408	79.38
566.62	71.38
566.832	72.38
567.044	80.38
567.255	83.38
567.467	88.38
567.679	84.38
567.891	89.38
568.102	88.38
568.314	83.38
568.526	86.38
568.737	87.38
568.949	92.38
569.161	96.38
569.372	87.38
569.584	77.38
569.795	59.38
570.007	86.38
570.218	85.38
570.43	75.38
570.641	82.38
570.853	91.38
571.064	83.38
571.276	81.38
571.487	82.38
571.698	97.38
571.91	92.38
572.121	89.38
572.333	78.38
572.544	81.38
572.755	76.38
572.966	73.38
573.178	86.38
573.389	74.38
573.6	78.38
573.811	97.38
574.023	89.38
574.234	76.38
574.445	72.38
574.656	84.38
574.867	69.38
575.078	76.38
575.289	93.38
575.501	90.38
575.712	83.38
575.923	80.38
576.134	75.38
576.345	76.38
576.556	72.38
576.767	86.38
576.978	80.38
577.188	92.38
577.399	81.38
577.61	94.38
577.821	76.38
578.032	78.38
578.243	84.38
578.454	93.38
578.665	84.38
578.875	85.38
579.086	78.38
579.297	83.38
579.508	94.38
579.718	83.38
579.929	88.38
580.14	79.38
580.35	77.38
580.561	70.38
580.772	79.38
580.982	66.38
581.193	78.38
581.403	101.38
581.614	81.38
581.825	87.38
582.035	85.38
582.246	87.38
582.456	81.38
582.667	82.38
582.877	86.38
583.087	84.38
583.298	86.38
583.508	84.38
583.719	91.38
583.929	85.38
584.139	76.38
584.35	81.38
584.56	88.38
584.77	85.38
584.981	77.38
585.191	68.38
585.401	85.38
585.611	88.38
585.821	88.38
586.032	85.38
586.242	83.38
586.452	94.38
586.662	74.38
586.872	97.38
587.082	92.38
587.292	94.38
587.502	75.38
587.713	81.38
587.923	78.38
588.133	88.38
588.343	84.38
588.553	74.38
588.762	95.38
588.972	113.38
589.182	171.38
589.392	148.38
589.602	111.38
589.812	149.38
590.022	119.38
590.232	94.38
590.441	85.38
590.651	89.38
590.861	94.38
591.071	77.38
591.281	82.38
591.49	78.38
591.7	79.38
591.91	87.38
592.119	89.38
592.329	82.38
592.539	85.38
592.748	84.38
592.958	76.38
593.167	88.38
593.377	90.38
593.587	85.38
593.796	75.38
594.006	87.38
594.215	76.38
594.424	85.38
594.634	84.38
594.843	89.38
595.053	94.38
595.262	93.38
595.472	82.38
595.681	77.38
595.89	92.38
596.1	81.38
596.309	83.38
596.518	74.38
596.727	85.38
596.937	97.38
597.146	93.38
597.355	84.38
597.564	79.38
597.774	84.38
597.983	80.38
598.192	87.38
598.401	90.38
598.61	85.38
598.819	82.38
599.028	87.38
599.237	70.38
599.446	80.38
599.655	78.38
599.864	83.38
600.073	72.38
600.282	93.38
600.491	90.38
600.7	78.38
600.909	70.38
601.118	86.38
601.327	89.38
601.536	86.38
601.745	97.38
601.953	78.38
602.162	78.38
602.371	78.38
602.58	73.38
602.789	78.38
602.997	91.38
603.206	84.38
603.415	75.38
603.623	79.38
603.832	85.38
604.041	83.38
604.249	80.38
604.458	88.38
604.666	79.38
604.875	75.38
605.084	92.38
605.292	75.38
605.501	91.38
605.709	80.38
605.918	96.38
606.126	76.38
606.334	81.38
606.543	81.38
606.751	78.38
606.96	82.38
607.168	85.38
607.376	93.38
607.585	76.38
607.793	76.38
608.001	82.38
608.21	99.38
608.418	85.38
608.626	84.38
608.834	75.38
609.043	78.38
609.251	82.38
609.459	89.38
609.667	98.38
609.875	92.38
610.083	80.38
610.291	83.38
610.499	94.38
610.707	75.38
610.916	86.38
611.124	94.38
611.332	82.38
611.54	79.38
611.748	73.38
611.955	71.38
612.163	90.38
612.371	85.38
612.579	86.38
612.787	70.38
612.995	75.38
613.203	86.38
613.411	95.38
613.618	94.38
613.826	82.38
614.034	85.38
614.242	91.38
614.449	84.38
614.657	77.38
614.865	80.38
615.072	101.38
615.28	78.38
615.488	72.38
615.695	80.38
615.903	79.38
616.111	76.38
616.318	92.38
616.526	86.38
616.733	84.38
616.941	73.38
617.148	76.38
617.356	80.38
617.563	94.38
617.771	79.38
617.978	81.38
618.185	70.38
618.393	97.38
618.6	91.38
618.807	83.38
619.015	89.38
619.222	97.38
619.429	88.38
619.637	88.38
619.844	80.38
620.051	76.38
620.258	80.38
620.466	73.38
620.673	76.38
620.88	77.38
621.087	81.38
621.294	66.38
621.501	80.38
621.708	98.38
621.915	81.38
622.122	86.38
622.329	67.38
622.536	79.38
622.743	77.38
622.95	103.38
623.157	92.38
623.364	83.38
623.571	85.38
623.778	90.38
623.985	86.38
624.192	84.38
624.399	79.38
624.606	75.38
624.812	75.38
625.019	86.38
625.226	83.38
625.433	83.38
625.639	85.38
625.846	83.38
626.053	90.38
626.259	80.38
626.466	80.38
626.673	77.38
626.879	83.38
627.086	76.38
627.293	84.38
627.499	89.38
627.706	85.38
627.912	71.38
628.119	77.38
628.325	85.38
628.532	70.38
628.738	76.38
628.945	79.38
629.151	84.38
629.357	75.38
629.564	90.38
629.77	75.38
629.976	86.38
630.183	68.38
630.389	76.38
630.595	81.38
630.802	87.38
631.008	88.38
631.214	88.38
631.42	92.38
631.627	91.38
631.833	77.38
632.039	95.38
632.245	88.38
632.451	76.38
632.657	85.38
632.863	65.38
633.069	73.38
633.275	67.38
633.481	87.38
633.688	84.38
633.893	80.38
634.099	70.38
634.305	83.38
634.511	88.38
634.717	82.38
634.923	79.38
635.129	88.38
635.335	80.38
635.541	89.38
635.747	86.38
635.952	69.38
636.158	75.38
636.364	82.38
636.57	76.38
636.775	88.38
636.981	78.38
637.187	78.38
637.392	85.38
637.598	79.38
637.804	75.38
638.009	67.38
638.215	76.38
638.421	86.38
638.626	76.38
638.832	82.38
639.037	68.38
639.243	84.38
639.448	80.38
639.654	90.38
639.859	78.38
640.065	88.38
640.27	82.38
640.475	78.38
640.681	93.38
640.886	85.38
641.091	77.38
641.297	87.38
641.502	71.38
641.707	82.38
641.913	90.38
642.118	78.38
642.323	77.38
642.528	80.38
642.733	79.38
642.939	96.38
643.144	90.38
643.349	83.38
643.554	73.38
643.759	76.38
643.964	72.38
644.169	81.38
644.374	81.38
644.579	95.38
644.784	71.38
644.989	87.38
645.194	81.38
645.399	68.38
645.604	78.38
645.809	97.38
646.014	86.38
646.219	85.38
646.423	86.38
646.628	86.38
646.833	71.38
647.038	80.38
647.243	83.38
647.447	72.38
647.652	79.38
647.857	86.38
648.062	62.38
648.266	60.38
648.471	96.38
648.676	85.38
648.88	91.38
649.085	83.38
649.289	78.38
649.494	75.38
649.698	76.38
649.903	80.38
650.107	71.38
650.312	83.38
650.516	76.38
650.721	93.38
650.925	79.38
651.13	87.38
651.334	89.38
651.539	89.38
651.743	75.38
651.947	78.38
652.152	93.38
652.356	91.38
652.56	81.38
652.764	89.38
652.969	85.38
653.173	75.38
653.377	85.38
653.581	64.38
653.785	83.38
653.99	83.38
654.194	79.38
654.398	67.38
654.602	74.38
654.806	83.38
655.01	84.38
655.214	84.38
655.418	81.38
655.622	86.38
655.826	84.38
656.03	76.38
656.234	81.38
656.438	77.38
656.642	95.38
656.846	77.38
657.049	77.38
657.253	84.38
657.457	88.38
657.661	77.38
657.865	83.38
658.068	79.38
658.272	94.38
658.476	88.38
658.68	81.38
658.883	75.38
659.087	71.38
659.291	69.38
659.494	81.38
659.698	92.38
659.901	84.38
660.105	87.38
660.309	89.38
660.512	83.38
660.716	77.38
660.919	75.38
661.123	82.38
661.326	85.38
661.53	87.38
661.733	91.38
661.936	86.38
662.14	93.38
662.343	84.38
662.546	88.38
662.75	90.38
662.953	84.38
663.156	82.38
663.36	88.38
663.563	76.38
663.766	87.38
663.969	86.38
664.173	96.38
664.376	86.38
664.579	71.38
664.782	84.38
664.985	78.38
665.188	77.38
665.391	79.38
665.594	81.38
665.797	84.38
666	88.38
666.203	95.38
666.406	81.38
666.609	80.38
666.812	82.38
667.015	77.38
667.218	73.38
667.421	95.38
667.624	83.38
667.827	93.38
668.03	71.38
668.232	83.38
668.435	67.38
668.638	87.38
668.841	80.38
669.043	95.38
669.246	81.38
669.449	90.38
669.651	75.38
669.854	92.38
670.057	88.38
670.259	75.38
670.462	97.38
670.665	75.38
670.867	69.38
671.07	75.38
671.272	81.38
671.475	88.38
671.677	85.38
671.88	86.38
672.082	77.38
672.284	85.38
672.487	73.38
672.689	87.38
672.892	79.38
