Data from Lead_15_2_HRD10591_00008.txt Node
Date: Fri Feb 20 11:06:59 EST 2026
User: Yrep
Spectrometer: HR+D1059
Trigger mode: 1
Integration Time (sec): 1.000000E-1
Scans to average: 1
Electric dark correction enabled: true
Nonlinearity correction enabled: false
Boxcar width: 0
XAxis mode: Wavelengths
Number of Pixels in Spectrum: 2048
>>>>>Begin Spectral Data<<<<<
223.165	-22.56
223.4	-22.56
223.635	-22.56
223.869	-13.56
224.104	-13.56
224.338	-21.56
224.573	-15.56
224.808	-20.56
225.042	6.44
225.277	-11.56
225.511	-1.56
225.746	7.44
225.98	6.44
226.215	18.44
226.449	14.44
226.683	27.44
226.918	13.44
227.152	26.44
227.387	26.44
227.621	33.44
227.856	35.44
228.09	44.44
228.324	58.44
228.559	57.44
228.793	60.44
229.027	58.44
229.262	61.44
229.496	64.44
229.73	58.44
229.964	61.44
230.199	56.44
230.433	64.44
230.667	65.44
230.901	90.44
231.136	75.44
231.37	80.44
231.604	73.44
231.838	76.44
232.072	88.44
232.306	82.44
232.541	70.44
232.775	85.44
233.009	86.44
233.243	87.44
233.477	76.44
233.711	60.44
233.945	82.44
234.179	82.44
234.413	76.44
234.647	64.44
234.881	70.44
235.115	66.44
235.349	67.44
235.583	85.44
235.817	71.44
236.051	70.44
236.285	76.44
236.519	77.44
236.753	71.44
236.987	80.44
237.221	78.44
237.455	72.44
237.689	75.44
237.922	86.44
238.156	70.44
238.39	73.44
238.624	63.44
238.858	72.44
239.091	76.44
239.325	66.44
239.559	81.44
239.793	70.44
240.027	78.44
240.26	75.44
240.494	63.44
240.728	68.44
240.961	78.44
241.195	65.44
241.429	75.44
241.662	71.44
241.896	70.44
242.13	77.44
242.363	76.44
242.597	61.44
242.83	79.44
243.064	79.44
243.298	75.44
243.531	73.44
243.765	68.44
243.998	65.44
244.232	89.44
244.465	69.44
244.699	75.44
244.932	68.44
245.166	67.44
245.399	70.44
245.633	56.44
245.866	78.44
246.099	59.44
246.333	72.44
246.566	70.44
246.8	75.44
247.033	74.44
247.266	76.44
247.5	76.44
247.733	69.44
247.966	79.44
248.2	71.44
248.433	72.44
248.666	63.44
248.899	84.44
249.133	70.44
249.366	78.44
249.599	91.44
249.832	72.44
250.066	88.44
250.299	65.44
250.532	70.44
250.765	67.44
250.998	75.44
251.231	82.44
251.465	76.44
251.698	67.44
251.931	64.44
252.164	75.44
252.397	84.44
252.63	86.44
252.863	86.44
253.096	67.44
253.329	74.44
253.562	73.44
253.795	85.44
254.028	74.44
254.261	80.44
254.494	74.44
254.727	80.44
254.96	78.44
255.193	81.44
255.426	83.44
255.659	78.44
255.892	84.44
256.124	62.44
256.357	69.44
256.59	80.44
256.823	86.44
257.056	76.44
257.289	70.44
257.521	64.44
257.754	75.44
257.987	72.44
258.22	64.44
258.452	78.44
258.685	80.44
258.918	80.44
259.151	78.44
259.383	86.44
259.616	93.44
259.849	77.44
260.081	77.44
260.314	63.44
260.547	81.44
260.779	102.44
261.012	73.44
261.244	71.44
261.477	85.44
261.71	64.44
261.942	81.44
262.175	76.44
262.407	56.44
262.64	73.44
262.872	70.44
263.105	82.44
263.337	83.44
263.57	78.44
263.802	70.44
264.035	90.44
264.267	77.44
264.499	62.44
264.732	84.44
264.964	59.44
265.197	82.44
265.429	78.44
265.661	83.44
265.894	82.44
266.126	81.44
266.358	75.44
266.591	82.44
266.823	66.44
267.055	77.44
267.287	85.44
267.52	78.44
267.752	87.44
267.984	75.44
268.216	79.44
268.448	83.44
268.681	52.44
268.913	84.44
269.145	86.44
269.377	90.44
269.609	102.44
269.841	95.44
270.073	72.44
270.306	74.44
270.538	89.44
270.77	67.44
271.002	77.44
271.234	86.44
271.466	73.44
271.698	79.44
271.93	80.44
272.162	78.44
272.394	76.44
272.626	67.44
272.858	77.44
273.09	80.44
273.322	76.44
273.553	77.44
273.785	64.44
274.017	67.44
274.249	80.44
274.481	70.44
274.713	76.44
274.945	82.44
275.176	84.44
275.408	69.44
275.64	80.44
275.872	82.44
276.104	67.44
276.335	71.44
276.567	89.44
276.799	75.44
277.031	77.44
277.262	84.44
277.494	83.44
277.726	72.44
277.957	98.44
278.189	84.44
278.421	90.44
278.652	76.44
278.884	78.44
279.115	78.44
279.347	70.44
279.579	62.44
279.81	82.44
280.042	86.44
280.273	80.44
280.505	66.44
280.736	78.44
280.968	69.44
281.199	78.44
281.431	67.44
281.662	82.44
281.894	78.44
282.125	76.44
282.356	94.44
282.588	82.44
282.819	80.44
283.051	73.44
283.282	83.44
283.513	95.44
283.745	91.44
283.976	77.44
284.207	80.44
284.439	77.44
284.67	70.44
284.901	81.44
285.132	77.44
285.364	74.44
285.595	84.44
285.826	73.44
286.057	81.44
286.288	79.44
286.52	87.44
286.751	87.44
286.982	76.44
287.213	65.44
287.444	82.44
287.675	74.44
287.906	81.44
288.138	85.44
288.369	81.44
288.6	83.44
288.831	80.44
289.062	56.44
289.293	81.44
289.524	74.44
289.755	72.44
289.986	67.44
290.217	70.44
290.448	84.44
290.679	63.44
290.91	88.44
291.141	79.44
291.371	88.44
291.602	83.44
291.833	65.44
292.064	79.44
292.295	94.44
292.526	83.44
292.757	82.44
292.987	98.44
293.218	68.44
293.449	79.44
293.68	74.44
293.91	79.44
294.141	78.44
294.372	79.44
294.603	56.44
294.833	68.44
295.064	93.44
295.295	68.44
295.525	77.44
295.756	76.44
295.987	83.44
296.217	84.44
296.448	85.44
296.679	82.44
296.909	79.44
297.14	82.44
297.37	67.44
297.601	67.44
297.831	85.44
298.062	89.44
298.292	68.44
298.523	87.44
298.753	84.44
298.984	71.44
299.214	90.44
299.445	74.44
299.675	75.44
299.905	88.44
300.136	76.44
300.366	67.44
300.597	72.44
300.827	91.44
301.057	90.44
301.288	96.44
301.518	83.44
301.748	82.44
301.979	91.44
302.209	68.44
302.439	78.44
302.669	73.44
302.9	81.44
303.13	90.44
303.36	86.44
303.59	75.44
303.82	78.44
304.051	70.44
304.281	81.44
304.511	79.44
304.741	76.44
304.971	87.44
305.201	90.44
305.431	78.44
305.661	94.44
305.891	95.44
306.121	66.44
306.352	74.44
306.582	92.44
306.812	78.44
307.042	86.44
307.272	78.44
307.502	81.44
307.731	67.44
307.961	97.44
308.191	90.44
308.421	87.44
308.651	85.44
308.881	88.44
309.111	97.44
309.341	77.44
309.571	92.44
309.8	80.44
310.03	95.44
310.26	76.44
310.49	85.44
310.72	83.44
310.949	89.44
311.179	85.44
311.409	81.44
311.639	83.44
311.868	80.44
312.098	92.44
312.328	108.44
312.557	70.44
312.787	87.44
313.017	80.44
313.246	87.44
313.476	72.44
313.706	76.44
313.935	88.44
314.165	73.44
314.394	73.44
314.624	70.44
314.853	65.44
315.083	72.44
315.312	82.44
315.542	82.44
315.771	86.44
316.001	72.44
316.23	71.44
316.46	84.44
316.689	75.44
316.919	83.44
317.148	88.44
317.377	76.44
317.607	90.44
317.836	71.44
318.065	84.44
318.295	76.44
318.524	70.44
318.753	68.44
318.983	83.44
319.212	77.44
319.441	66.44
319.67	92.44
319.9	76.44
320.129	93.44
320.358	67.44
320.587	81.44
320.816	79.44
321.046	83.44
321.275	76.44
321.504	79.44
321.733	90.44
321.962	82.44
322.191	78.44
322.42	69.44
322.649	93.44
322.878	86.44
323.108	70.44
323.337	79.44
323.566	85.44
323.795	78.44
324.024	78.44
324.253	78.44
324.482	86.44
324.71	90.44
324.939	80.44
325.168	78.44
325.397	74.44
325.626	79.44
325.855	79.44
326.084	80.44
326.313	83.44
326.542	65.44
326.77	76.44
326.999	83.44
327.228	65.44
327.457	76.44
327.686	87.44
327.914	79.44
328.143	84.44
328.372	93.44
328.6	78.44
328.829	77.44
329.058	76.44
329.287	78.44
329.515	80.44
329.744	82.44
329.972	76.44
330.201	91.44
330.43	87.44
330.658	82.44
330.887	81.44
331.115	93.44
331.344	79.44
331.572	86.44
331.801	74.44
332.03	75.44
332.258	74.44
332.486	85.44
332.715	71.44
332.943	96.44
333.172	84.44
333.4	90.44
333.629	91.44
333.857	75.44
334.085	83.44
334.314	87.44
334.542	76.44
334.771	100.44
334.999	80.44
335.227	68.44
335.455	67.44
335.684	83.44
335.912	90.44
336.14	78.44
336.369	83.44
336.597	71.44
336.825	89.44
337.053	78.44
337.281	78.44
337.51	100.44
337.738	87.44
337.966	87.44
338.194	87.44
338.422	72.44
338.65	92.44
338.878	70.44
339.106	87.44
339.334	72.44
339.562	71.44
339.79	93.44
340.018	77.44
340.246	74.44
340.474	64.44
340.702	69.44
340.93	78.44
341.158	69.44
341.386	86.44
341.614	85.44
341.842	86.44
342.07	85.44
342.298	72.44
342.526	92.44
342.754	83.44
342.981	95.44
343.209	75.44
343.437	83.44
343.665	87.44
343.893	66.44
344.12	66.44
344.348	73.44
344.576	76.44
344.804	74.44
345.031	84.44
345.259	81.44
345.487	78.44
345.714	89.44
345.942	76.44
346.17	92.44
346.397	89.44
346.625	69.44
346.853	81.44
347.08	70.44
347.308	76.44
347.535	84.44
347.763	83.44
347.99	65.44
348.218	83.44
348.445	66.44
348.673	62.44
348.9	78.44
349.128	90.44
349.355	96.44
349.583	77.44
349.81	77.44
350.037	77.44
350.265	73.44
350.492	73.44
350.72	84.44
350.947	84.44
351.174	77.44
351.402	73.44
351.629	102.44
351.856	78.44
352.083	72.44
352.311	87.44
352.538	69.44
352.765	73.44
352.992	86.44
353.22	93.44
353.447	78.44
353.674	81.44
353.901	78.44
354.128	80.44
354.355	79.44
354.583	67.44
354.81	73.44
355.037	85.44
355.264	80.44
355.491	80.44
355.718	95.44
355.945	71.44
356.172	73.44
356.399	73.44
356.626	70.44
356.853	80.44
357.08	78.44
357.307	91.44
357.534	82.44
357.761	88.44
357.988	85.44
358.215	68.44
358.441	82.44
358.668	76.44
358.895	76.44
359.122	75.44
359.349	80.44
359.576	79.44
359.802	84.44
360.029	79.44
360.256	80.44
360.483	73.44
360.709	80.44
360.936	85.44
361.163	87.44
361.39	76.44
361.616	93.44
361.843	93.44
362.07	71.44
362.296	66.44
362.523	68.44
362.749	78.44
362.976	69.44
363.203	71.44
363.429	83.44
363.656	92.44
363.882	100.44
364.109	84.44
364.335	85.44
364.562	78.44
364.788	81.44
365.015	85.44
365.241	65.44
365.468	78.44
365.694	90.44
365.92	89.44
366.147	80.44
366.373	71.44
366.599	72.44
366.826	61.44
367.052	78.44
367.278	69.44
367.505	75.44
367.731	84.44
367.957	86.44
368.184	73.44
368.41	91.44
368.636	93.44
368.862	81.44
369.089	82.44
369.315	79.44
369.541	85.44
369.767	80.44
369.993	76.44
370.219	75.44
370.445	67.44
370.672	90.44
370.898	82.44
371.124	73.44
371.35	84.44
371.576	82.44
371.802	77.44
372.028	81.44
372.254	84.44
372.48	81.44
372.706	69.44
372.932	70.44
373.158	77.44
373.384	88.44
373.61	80.44
373.835	87.44
374.061	89.44
374.287	84.44
374.513	80.44
374.739	76.44
374.965	67.44
375.191	81.44
375.416	89.44
375.642	77.44
375.868	87.44
376.094	82.44
376.319	79.44
376.545	79.44
376.771	82.44
376.997	70.44
377.222	82.44
377.448	87.44
377.674	68.44
377.899	76.44
378.125	79.44
378.35	81.44
378.576	95.44
378.802	67.44
379.027	88.44
379.253	76.44
379.478	72.44
379.704	95.44
379.929	86.44
380.155	85.44
380.38	86.44
380.606	71.44
380.831	66.44
381.057	88.44
381.282	78.44
381.507	80.44
381.733	86.44
381.958	99.44
382.184	79.44
382.409	84.44
382.634	78.44
382.86	83.44
383.085	95.44
383.31	73.44
383.535	74.44
383.761	74.44
383.986	77.44
384.211	79.44
384.436	81.44
384.662	91.44
384.887	76.44
385.112	82.44
385.337	82.44
385.562	77.44
385.787	87.44
386.013	81.44
386.238	86.44
386.463	70.44
386.688	84.44
386.913	87.44
387.138	76.44
387.363	84.44
387.588	77.44
387.813	86.44
388.038	86.44
388.263	95.44
388.488	81.44
388.713	88.44
388.938	82.44
389.163	71.44
389.387	86.44
389.612	86.44
389.837	91.44
390.062	87.44
390.287	80.44
390.512	71.44
390.736	80.44
390.961	87.44
391.186	78.44
391.411	78.44
391.636	78.44
391.86	92.44
392.085	80.44
392.31	82.44
392.534	84.44
392.759	85.44
392.984	101.44
393.208	110.44
393.433	103.44
393.658	98.44
393.882	76.44
394.107	88.44
394.331	81.44
394.556	100.44
394.78	89.44
395.005	70.44
395.229	72.44
395.454	78.44
395.678	77.44
395.903	109.44
396.127	111.44
396.352	107.44
396.576	96.44
396.801	96.44
397.025	101.44
397.249	85.44
397.474	90.44
397.698	78.44
397.922	75.44
398.147	72.44
398.371	82.44
398.595	70.44
398.82	70.44
399.044	79.44
399.268	84.44
399.492	84.44
399.717	71.44
399.941	68.44
400.165	81.44
400.389	70.44
400.613	64.44
400.837	84.44
401.062	73.44
401.286	71.44
401.51	82.44
401.734	76.44
401.958	78.44
402.182	84.44
402.406	87.44
402.63	87.44
402.854	86.44
403.078	78.44
403.302	71.44
403.526	78.44
403.75	85.44
403.974	76.44
404.198	97.44
404.422	102.44
404.645	128.44
404.869	112.44
405.093	84.44
405.317	84.44
405.541	91.44
405.765	91.44
405.988	95.44
406.212	80.44
406.436	75.44
406.66	72.44
406.883	82.44
407.107	68.44
407.331	91.44
407.555	75.44
407.778	79.44
408.002	83.44
408.226	76.44
408.449	78.44
408.673	79.44
408.896	73.44
409.12	93.44
409.344	72.44
409.567	69.44
409.791	88.44
410.014	77.44
410.238	69.44
410.461	83.44
410.685	93.44
410.908	78.44
411.132	80.44
411.355	71.44
411.578	80.44
411.802	81.44
412.025	75.44
412.249	82.44
412.472	78.44
412.695	88.44
412.919	84.44
413.142	69.44
413.365	88.44
413.589	75.44
413.812	82.44
414.035	77.44
414.258	70.44
414.482	98.44
414.705	81.44
414.928	89.44
415.151	54.44
415.374	68.44
415.597	76.44
415.821	83.44
416.044	81.44
416.267	70.44
416.49	66.44
416.713	94.44
416.936	84.44
417.159	91.44
417.382	81.44
417.605	72.44
417.828	86.44
418.051	86.44
418.274	80.44
418.497	66.44
418.72	69.44
418.943	65.44
419.166	75.44
419.389	91.44
419.611	78.44
419.834	81.44
420.057	80.44
420.28	80.44
420.503	77.44
420.726	76.44
420.948	83.44
421.171	71.44
421.394	82.44
421.617	70.44
421.839	91.44
422.062	78.44
422.285	74.44
422.507	88.44
422.73	106.44
422.953	101.44
423.175	71.44
423.398	84.44
423.621	78.44
423.843	71.44
424.066	73.44
424.288	78.44
424.511	96.44
424.733	71.44
424.956	83.44
425.178	92.44
425.401	88.44
425.623	77.44
425.846	62.44
426.068	74.44
426.291	72.44
426.513	85.44
426.735	71.44
426.958	82.44
427.18	80.44
427.402	68.44
427.625	79.44
427.847	83.44
428.069	71.44
428.292	70.44
428.514	74.44
428.736	85.44
428.958	75.44
429.181	80.44
429.403	80.44
429.625	79.44
429.847	78.44
430.069	89.44
430.292	63.44
430.514	82.44
430.736	75.44
430.958	66.44
431.18	70.44
431.402	73.44
431.624	87.44
431.846	83.44
432.068	80.44
432.29	82.44
432.512	76.44
432.734	83.44
432.956	68.44
433.178	93.44
433.4	84.44
433.622	78.44
433.844	82.44
434.066	89.44
434.287	90.44
434.509	78.44
434.731	73.44
434.953	85.44
435.175	82.44
435.397	84.44
435.618	92.44
435.84	80.44
436.062	81.44
436.284	68.44
436.505	72.44
436.727	90.44
436.949	72.44
437.17	84.44
437.392	76.44
437.614	71.44
437.835	77.44
438.057	86.44
438.278	67.44
438.5	76.44
438.721	77.44
438.943	69.44
439.165	89.44
439.386	88.44
439.608	76.44
439.829	80.44
440.05	69.44
440.272	82.44
440.493	80.44
440.715	70.44
440.936	99.44
441.158	94.44
441.379	78.44
441.6	77.44
441.822	78.44
442.043	73.44
442.264	72.44
442.486	82.44
442.707	72.44
442.928	87.44
443.149	78.44
443.371	72.44
443.592	83.44
443.813	80.44
444.034	72.44
444.255	60.44
444.476	71.44
444.698	73.44
444.919	69.44
445.14	136.44
445.361	100.44
445.582	85.44
445.803	81.44
446.024	75.44
446.245	73.44
446.466	71.44
446.687	70.44
446.908	82.44
447.129	93.44
447.35	69.44
447.571	64.44
447.792	80.44
448.013	86.44
448.234	79.44
448.455	72.44
448.675	92.44
448.896	74.44
449.117	73.44
449.338	87.44
449.559	85.44
449.779	77.44
450	74.44
450.221	56.44
450.442	88.44
450.662	78.44
450.883	82.44
451.104	77.44
451.324	72.44
451.545	76.44
451.766	70.44
451.986	70.44
452.207	71.44
452.428	84.44
452.648	65.44
452.869	86.44
453.089	75.44
453.31	80.44
453.53	81.44
453.751	87.44
453.971	90.44
454.192	86.44
454.412	75.44
454.633	71.44
454.853	82.44
455.073	70.44
455.294	84.44
455.514	95.44
455.734	72.44
455.955	71.44
456.175	76.44
456.395	80.44
456.616	79.44
456.836	70.44
457.056	89.44
457.276	81.44
457.497	82.44
457.717	78.44
457.937	83.44
458.157	76.44
458.377	74.44
458.598	68.44
458.818	73.44
459.038	66.44
459.258	87.44
459.478	83.44
459.698	64.44
459.918	77.44
460.138	71.44
460.358	76.44
460.578	75.44
460.798	78.44
461.018	75.44
461.238	70.44
461.458	73.44
461.678	83.44
461.898	76.44
462.118	88.44
462.338	71.44
462.558	90.44
462.777	78.44
462.997	81.44
463.217	76.44
463.437	81.44
463.657	83.44
463.876	59.44
464.096	67.44
464.316	74.44
464.536	84.44
464.755	69.44
464.975	86.44
465.195	71.44
465.414	88.44
465.634	74.44
465.854	76.44
466.073	69.44
466.293	86.44
466.512	68.44
466.732	70.44
466.951	90.44
467.171	82.44
467.391	76.44
467.61	73.44
467.829	81.44
468.049	78.44
468.268	73.44
468.488	77.44
468.707	86.44
468.927	86.44
469.146	80.44
469.365	87.44
469.585	88.44
469.804	84.44
470.023	90.44
470.243	85.44
470.462	86.44
470.681	83.44
470.901	79.44
471.12	73.44
471.339	84.44
471.558	86.44
471.777	82.44
471.997	72.44
472.216	78.44
472.435	71.44
472.654	72.44
472.873	87.44
473.092	74.44
473.311	69.44
473.53	82.44
473.749	83.44
473.968	70.44
474.187	76.44
474.406	78.44
474.625	78.44
474.844	59.44
475.063	74.44
475.282	76.44
475.501	77.44
475.72	69.44
475.939	74.44
476.158	82.44
476.377	90.44
476.596	98.44
476.814	88.44
477.033	69.44
477.252	80.44
477.471	60.44
477.69	79.44
477.908	71.44
478.127	83.44
478.346	82.44
478.564	80.44
478.783	81.44
479.002	90.44
479.22	87.44
479.439	80.44
479.658	90.44
479.876	83.44
480.095	77.44
480.313	88.44
480.532	72.44
480.751	77.44
480.969	69.44
481.188	75.44
481.406	84.44
481.624	75.44
481.843	90.44
482.061	78.44
482.28	73.44
482.498	86.44
482.717	74.44
482.935	94.44
483.153	82.44
483.372	72.44
483.59	79.44
483.808	88.44
484.027	80.44
484.245	89.44
484.463	87.44
484.681	81.44
484.9	78.44
485.118	85.44
485.336	83.44
485.554	90.44
485.772	76.44
485.99	86.44
486.209	77.44
486.427	83.44
486.645	72.44
486.863	85.44
487.081	70.44
487.299	67.44
487.517	78.44
487.735	84.44
487.953	86.44
488.171	84.44
488.389	86.44
488.607	67.44
488.825	86.44
489.043	86.44
489.261	67.44
489.479	73.44
489.696	73.44
489.914	87.44
490.132	80.44
490.35	86.44
490.568	79.44
490.786	81.44
491.003	78.44
491.221	69.44
491.439	71.44
491.657	93.44
491.874	84.44
492.092	89.44
492.31	91.44
492.527	73.44
492.745	91.44
492.963	77.44
493.18	77.44
493.398	84.44
493.615	79.44
493.833	70.44
494.05	81.44
494.268	84.44
494.485	83.44
494.703	85.44
494.92	83.44
495.138	86.44
495.355	83.44
495.573	83.44
495.79	81.44
496.008	81.44
496.225	84.44
496.442	74.44
496.66	76.44
496.877	88.44
497.094	73.44
497.312	84.44
497.529	88.44
497.746	78.44
497.963	88.44
498.181	88.44
498.398	83.44
498.615	72.44
498.832	77.44
499.049	74.44
499.267	94.44
499.484	89.44
499.701	81.44
499.918	72.44
500.135	78.44
500.352	92.44
500.569	75.44
500.786	68.44
501.003	74.44
501.22	82.44
501.437	71.44
501.654	85.44
501.871	92.44
502.088	79.44
502.305	74.44
502.522	92.44
502.739	74.44
502.956	92.44
503.172	78.44
503.389	72.44
503.606	96.44
503.823	95.44
504.04	63.44
504.256	78.44
504.473	83.44
504.69	72.44
504.907	105.44
505.123	80.44
505.34	78.44
505.557	78.44
505.773	80.44
505.99	84.44
506.207	80.44
506.423	83.44
506.64	80.44
506.856	63.44
507.073	84.44
507.289	75.44
507.506	84.44
507.722	83.44
507.939	78.44
508.155	92.44
508.372	74.44
508.588	94.44
508.805	71.44
509.021	83.44
509.238	87.44
509.454	87.44
509.67	86.44
509.887	75.44
510.103	93.44
510.319	96.44
510.536	93.44
510.752	77.44
510.968	81.44
511.184	89.44
511.401	88.44
511.617	82.44
511.833	81.44
512.049	86.44
512.265	70.44
512.481	78.44
512.698	71.44
512.914	85.44
513.13	74.44
513.346	74.44
513.562	79.44
513.778	80.44
513.994	77.44
514.21	79.44
514.426	80.44
514.642	87.44
514.858	88.44
515.074	93.44
515.29	88.44
515.506	71.44
515.721	82.44
515.937	85.44
516.153	85.44
516.369	92.44
516.585	86.44
516.801	83.44
517.016	80.44
517.232	81.44
517.448	82.44
517.664	92.44
517.879	70.44
518.095	87.44
518.311	68.44
518.527	83.44
518.742	76.44
518.958	85.44
519.173	104.44
519.389	84.44
519.605	82.44
519.82	69.44
520.036	96.44
520.251	87.44
520.467	80.44
520.682	84.44
520.898	86.44
521.113	77.44
521.329	87.44
521.544	72.44
521.76	73.44
521.975	85.44
522.19	82.44
522.406	82.44
522.621	91.44
522.836	81.44
523.052	69.44
523.267	80.44
523.482	78.44
523.698	79.44
523.913	86.44
524.128	66.44
524.343	82.44
524.559	80.44
524.774	73.44
524.989	75.44
525.204	89.44
525.419	83.44
525.634	71.44
525.849	77.44
526.064	84.44
526.28	76.44
526.495	83.44
526.71	86.44
526.925	66.44
527.14	75.44
527.355	79.44
527.57	90.44
527.785	84.44
527.999	81.44
528.214	82.44
528.429	75.44
528.644	84.44
528.859	81.44
529.074	87.44
529.289	77.44
529.503	93.44
529.718	83.44
529.933	70.44
530.148	89.44
530.363	75.44
530.577	79.44
530.792	78.44
531.007	81.44
531.221	84.44
531.436	75.44
531.651	82.44
531.865	77.44
532.08	68.44
532.295	74.44
532.509	80.44
532.724	79.44
532.938	86.44
533.153	82.44
533.367	71.44
533.582	85.44
533.796	82.44
534.011	79.44
534.225	94.44
534.44	88.44
534.654	82.44
534.868	78.44
535.083	80.44
535.297	91.44
535.511	85.44
535.726	76.44
535.94	78.44
536.154	73.44
536.369	75.44
536.583	78.44
536.797	78.44
537.011	88.44
537.225	79.44
537.44	76.44
537.654	74.44
537.868	78.44
538.082	71.44
538.296	90.44
538.51	76.44
538.724	83.44
538.938	93.44
539.153	86.44
539.367	65.44
539.581	80.44
539.795	88.44
540.009	78.44
540.222	74.44
540.436	80.44
540.65	73.44
540.864	74.44
541.078	77.44
541.292	79.44
541.506	80.44
541.72	89.44
541.934	86.44
542.147	84.44
542.361	76.44
542.575	68.44
542.789	63.44
543.002	68.44
543.216	91.44
543.43	71.44
543.644	88.44
543.857	82.44
544.071	96.44
544.285	71.44
544.498	86.44
544.712	82.44
544.925	75.44
545.139	76.44
545.352	87.44
545.566	78.44
545.779	77.44
545.993	72.44
546.206	91.44
546.42	98.44
546.633	85.44
546.847	89.44
547.06	67.44
547.274	76.44
547.487	94.44
547.7	90.44
547.914	74.44
548.127	81.44
548.34	74.44
548.554	75.44
548.767	91.44
548.98	76.44
549.193	70.44
549.407	78.44
549.62	73.44
549.833	94.44
550.046	76.44
550.259	72.44
550.473	74.44
550.686	98.44
550.899	86.44
551.112	72.44
551.325	77.44
551.538	58.44
551.751	77.44
551.964	73.44
552.177	87.44
552.39	67.44
552.603	69.44
552.816	85.44
553.029	86.44
553.242	81.44
553.455	74.44
553.667	90.44
553.88	87.44
554.093	80.44
554.306	79.44
554.519	81.44
554.732	84.44
554.944	97.44
555.157	84.44
555.37	70.44
555.583	72.44
555.795	83.44
556.008	81.44
556.221	75.44
556.433	91.44
556.646	67.44
556.859	85.44
557.071	83.44
557.284	75.44
557.496	86.44
557.709	68.44
557.921	81.44
558.134	75.44
558.346	88.44
558.559	67.44
558.771	80.44
558.984	88.44
559.196	84.44
559.409	91.44
559.621	79.44
559.833	78.44
560.046	85.44
560.258	77.44
560.47	71.44
560.683	86.44
560.895	85.44
561.107	67.44
561.32	73.44
561.532	62.44
561.744	70.44
561.956	82.44
562.168	80.44
562.381	78.44
562.593	96.44
562.805	90.44
563.017	77.44
563.229	77.44
563.441	85.44
563.653	81.44
563.865	62.44
564.077	82.44
564.289	91.44
564.501	78.44
564.713	78.44
564.925	74.44
565.137	76.44
565.349	86.44
565.561	71.44
565.773	93.44
565.985	72.44
566.197	85.44
566.408	73.44
566.62	80.44
566.832	83.44
567.044	92.44
567.255	77.44
567.467	96.44
567.679	82.44
567.891	79.44
568.102	80.44
568.314	84.44
568.526	96.44
568.737	97.44
568.949	92.44
569.161	92.44
569.372	72.44
569.584	80.44
569.795	80.44
570.007	81.44
570.218	75.44
570.43	81.44
570.641	88.44
570.853	83.44
571.064	84.44
571.276	60.44
571.487	86.44
571.698	73.44
571.91	56.44
572.121	73.44
572.333	78.44
572.544	73.44
572.755	71.44
572.966	86.44
573.178	58.44
573.389	76.44
573.6	73.44
573.811	100.44
574.023	79.44
574.234	70.44
574.445	76.44
574.656	76.44
574.867	77.44
575.078	100.44
575.289	75.44
575.501	84.44
575.712	76.44
575.923	83.44
576.134	72.44
576.345	76.44
576.556	83.44
576.767	91.44
576.978	79.44
577.188	73.44
577.399	87.44
577.61	81.44
577.821	90.44
578.032	78.44
578.243	87.44
578.454	72.44
578.665	83.44
578.875	65.44
579.086	92.44
579.297	83.44
579.508	79.44
579.718	86.44
579.929	81.44
580.14	83.44
580.35	87.44
580.561	72.44
580.772	92.44
580.982	84.44
581.193	101.44
581.403	73.44
581.614	81.44
581.825	80.44
582.035	72.44
582.246	82.44
582.456	64.44
582.667	72.44
582.877	82.44
583.087	83.44
583.298	90.44
583.508	85.44
583.719	71.44
583.929	79.44
584.139	70.44
584.35	85.44
584.56	71.44
584.77	88.44
584.981	81.44
585.191	82.44
585.401	87.44
585.611	71.44
585.821	91.44
586.032	83.44
586.242	67.44
586.452	95.44
586.662	91.44
586.872	87.44
587.082	92.44
587.292	70.44
587.502	86.44
587.713	89.44
587.923	86.44
588.133	85.44
588.343	97.44
588.553	97.44
588.762	126.44
588.972	212.44
589.182	401.44
589.392	302.44
589.602	230.44
589.812	336.44
590.022	222.44
590.232	128.44
590.441	95.44
590.651	93.44
590.861	90.44
591.071	95.44
591.281	101.44
591.49	95.44
591.7	85.44
591.91	77.44
592.119	81.44
592.329	83.44
592.539	85.44
592.748	80.44
592.958	85.44
593.167	92.44
593.377	78.44
593.587	87.44
593.796	84.44
594.006	76.44
594.215	82.44
594.424	83.44
594.634	79.44
594.843	74.44
595.053	86.44
595.262	90.44
595.472	88.44
595.681	87.44
595.89	87.44
596.1	71.44
596.309	67.44
596.518	81.44
596.727	80.44
596.937	76.44
597.146	86.44
597.355	76.44
597.564	87.44
597.774	67.44
597.983	88.44
598.192	71.44
598.401	74.44
598.61	92.44
598.819	80.44
599.028	72.44
599.237	101.44
599.446	92.44
599.655	78.44
599.864	62.44
600.073	76.44
600.282	88.44
600.491	77.44
600.7	70.44
600.909	68.44
601.118	76.44
601.327	71.44
601.536	82.44
601.745	78.44
601.953	76.44
602.162	78.44
602.371	90.44
602.58	84.44
602.789	84.44
602.997	80.44
603.206	86.44
603.415	74.44
603.623	74.44
603.832	80.44
604.041	72.44
604.249	78.44
604.458	79.44
604.666	80.44
604.875	86.44
605.084	80.44
605.292	72.44
605.501	91.44
605.709	84.44
605.918	87.44
606.126	82.44
606.334	95.44
606.543	74.44
606.751	72.44
606.96	81.44
607.168	92.44
607.376	72.44
607.585	87.44
607.793	86.44
608.001	90.44
608.21	95.44
608.418	70.44
608.626	68.44
608.834	75.44
609.043	70.44
609.251	72.44
609.459	80.44
609.667	92.44
609.875	91.44
610.083	95.44
610.291	87.44
610.499	82.44
610.707	76.44
610.916	80.44
611.124	73.44
611.332	86.44
611.54	73.44
611.748	71.44
611.955	84.44
612.163	69.44
612.371	94.44
612.579	86.44
612.787	86.44
612.995	83.44
613.203	78.44
613.411	72.44
613.618	86.44
613.826	76.44
614.034	84.44
614.242	79.44
614.449	81.44
614.657	64.44
614.865	76.44
615.072	77.44
615.28	91.44
615.488	63.44
615.695	79.44
615.903	77.44
616.111	88.44
616.318	97.44
616.526	82.44
616.733	86.44
616.941	73.44
617.148	78.44
617.356	67.44
617.563	84.44
617.771	81.44
617.978	82.44
618.185	83.44
618.393	86.44
618.6	78.44
618.807	79.44
619.015	76.44
619.222	75.44
619.429	84.44
619.637	78.44
619.844	84.44
620.051	83.44
620.258	78.44
620.466	92.44
620.673	79.44
620.88	75.44
621.087	79.44
621.294	81.44
621.501	74.44
621.708	73.44
621.915	85.44
622.122	84.44
622.329	72.44
622.536	61.44
622.743	66.44
622.95	71.44
623.157	80.44
623.364	90.44
623.571	69.44
623.778	78.44
623.985	85.44
624.192	68.44
624.399	76.44
624.606	70.44
624.812	76.44
625.019	72.44
625.226	77.44
625.433	82.44
625.639	91.44
625.846	88.44
626.053	82.44
626.259	77.44
626.466	70.44
626.673	71.44
626.879	87.44
627.086	74.44
627.293	84.44
627.499	82.44
627.706	84.44
627.912	82.44
628.119	83.44
628.325	84.44
628.532	68.44
628.738	74.44
628.945	80.44
629.151	71.44
629.357	85.44
629.564	90.44
629.77	76.44
629.976	76.44
630.183	82.44
630.389	83.44
630.595	81.44
630.802	81.44
631.008	86.44
631.214	78.44
631.42	82.44
631.627	75.44
631.833	76.44
632.039	79.44
632.245	80.44
632.451	85.44
632.657	77.44
632.863	78.44
633.069	91.44
633.275	76.44
633.481	74.44
633.688	79.44
633.893	74.44
634.099	79.44
634.305	74.44
634.511	81.44
634.717	83.44
634.923	84.44
635.129	76.44
635.335	92.44
635.541	71.44
635.747	83.44
635.952	80.44
636.158	72.44
636.364	78.44
636.57	78.44
636.775	86.44
636.981	90.44
637.187	88.44
637.392	70.44
637.598	84.44
637.804	77.44
638.009	82.44
638.215	72.44
638.421	86.44
638.626	81.44
638.832	72.44
639.037	68.44
639.243	73.44
639.448	80.44
639.654	76.44
639.859	87.44
640.065	73.44
640.27	99.44
640.475	90.44
640.681	82.44
640.886	78.44
641.091	80.44
641.297	75.44
641.502	80.44
641.707	89.44
641.913	84.44
642.118	86.44
642.323	72.44
642.528	83.44
642.733	96.44
642.939	78.44
643.144	72.44
643.349	75.44
643.554	78.44
643.759	54.44
643.964	95.44
644.169	81.44
644.374	90.44
644.579	80.44
644.784	87.44
644.989	72.44
645.194	77.44
645.399	70.44
645.604	71.44
645.809	84.44
646.014	80.44
646.219	76.44
646.423	80.44
646.628	65.44
646.833	87.44
647.038	92.44
647.243	72.44
647.447	78.44
647.652	82.44
647.857	91.44
648.062	88.44
648.266	72.44
648.471	84.44
648.676	90.44
648.88	90.44
649.085	69.44
649.289	78.44
649.494	72.44
649.698	82.44
649.903	76.44
650.107	83.44
650.312	70.44
650.516	69.44
650.721	79.44
650.925	74.44
651.13	76.44
651.334	72.44
651.539	72.44
651.743	93.44
651.947	86.44
652.152	85.44
652.356	77.44
652.56	70.44
652.764	72.44
652.969	81.44
653.173	70.44
653.377	86.44
653.581	86.44
653.785	80.44
653.99	93.44
654.194	83.44
654.398	66.44
654.602	74.44
654.806	83.44
655.01	79.44
655.214	83.44
655.418	58.44
655.622	73.44
655.826	73.44
656.03	78.44
656.234	66.44
656.438	76.44
656.642	64.44
656.846	75.44
657.049	82.44
657.253	81.44
657.457	99.44
657.661	95.44
657.865	85.44
658.068	75.44
658.272	76.44
658.476	92.44
658.68	84.44
658.883	72.44
659.087	74.44
659.291	85.44
659.494	78.44
659.698	79.44
659.901	68.44
660.105	79.44
660.309	84.44
660.512	70.44
660.716	74.44
660.919	75.44
661.123	86.44
661.326	76.44
661.53	68.44
661.733	77.44
661.936	73.44
662.14	83.44
662.343	70.44
662.546	69.44
662.75	86.44
662.953	84.44
663.156	91.44
663.36	74.44
663.563	80.44
663.766	78.44
663.969	91.44
664.173	73.44
664.376	66.44
664.579	70.44
664.782	68.44
664.985	85.44
665.188	79.44
665.391	91.44
665.594	64.44
665.797	67.44
666	66.44
666.203	82.44
666.406	77.44
666.609	78.44
666.812	72.44
667.015	77.44
667.218	80.44
667.421	73.44
667.624	76.44
667.827	80.44
668.03	67.44
668.232	79.44
668.435	74.44
668.638	78.44
668.841	82.44
669.043	69.44
669.246	75.44
669.449	70.44
669.651	74.44
669.854	84.44
670.057	71.44
670.259	78.44
670.462	90.44
670.665	78.44
670.867	89.44
671.07	80.44
671.272	93.44
671.475	87.44
671.677	80.44
671.88	91.44
672.082	80.44
672.284	80.44
672.487	87.44
672.689	80.44
672.892	86.44
