Data from Lead_15_2_HRD10591_00078.txt Node
Date: Fri Feb 20 11:07:22 EST 2026
User: Yrep
Spectrometer: HR+D1059
Trigger mode: 1
Integration Time (sec): 1.000000E-1
Scans to average: 1
Electric dark correction enabled: true
Nonlinearity correction enabled: false
Boxcar width: 0
XAxis mode: Wavelengths
Number of Pixels in Spectrum: 2048
>>>>>Begin Spectral Data<<<<<
223.165	-23.94
223.4	-23.94
223.635	-23.94
223.869	-17.94
224.104	-16.94
224.338	-13.94
224.573	-5.94
224.808	-22.94
225.042	-9.94
225.277	9.06
225.511	-7.94
225.746	6.06
225.98	4.06
226.215	15.06
226.449	6.06
226.683	12.06
226.918	27.06
227.152	40.06
227.387	38.06
227.621	46.06
227.856	54.06
228.09	54.06
228.324	48.06
228.559	67.06
228.793	49.06
229.027	56.06
229.262	62.06
229.496	78.06
229.73	66.06
229.964	70.06
230.199	74.06
230.433	82.06
230.667	66.06
230.901	75.06
231.136	72.06
231.37	79.06
231.604	82.06
231.838	94.06
232.072	92.06
232.306	86.06
232.541	81.06
232.775	57.06
233.009	55.06
233.243	62.06
233.477	71.06
233.711	94.06
233.945	83.06
234.179	104.06
234.413	83.06
234.647	69.06
234.881	89.06
235.115	61.06
235.349	83.06
235.583	83.06
235.817	77.06
236.051	72.06
236.285	72.06
236.519	71.06
236.753	68.06
236.987	75.06
237.221	66.06
237.455	70.06
237.689	80.06
237.922	73.06
238.156	61.06
238.39	70.06
238.624	65.06
238.858	66.06
239.091	71.06
239.325	71.06
239.559	74.06
239.793	84.06
240.027	70.06
240.26	64.06
240.494	87.06
240.728	74.06
240.961	73.06
241.195	61.06
241.429	78.06
241.662	68.06
241.896	71.06
242.13	73.06
242.363	83.06
242.597	69.06
242.83	74.06
243.064	75.06
243.298	73.06
243.531	70.06
243.765	68.06
243.998	67.06
244.232	68.06
244.465	89.06
244.699	87.06
244.932	68.06
245.166	86.06
245.399	68.06
245.633	79.06
245.866	73.06
246.099	81.06
246.333	77.06
246.566	64.06
246.8	75.06
247.033	79.06
247.266	81.06
247.5	78.06
247.733	80.06
247.966	79.06
248.2	76.06
248.433	81.06
248.666	77.06
248.899	102.06
249.133	89.06
249.366	88.06
249.599	62.06
249.832	76.06
250.066	84.06
250.299	89.06
250.532	70.06
250.765	76.06
250.998	79.06
251.231	83.06
251.465	81.06
251.698	73.06
251.931	80.06
252.164	71.06
252.397	66.06
252.63	85.06
252.863	73.06
253.096	74.06
253.329	70.06
253.562	77.06
253.795	82.06
254.028	70.06
254.261	66.06
254.494	57.06
254.727	66.06
254.96	72.06
255.193	83.06
255.426	82.06
255.659	82.06
255.892	85.06
256.124	74.06
256.357	67.06
256.59	74.06
256.823	75.06
257.056	79.06
257.289	91.06
257.521	77.06
257.754	79.06
257.987	79.06
258.22	73.06
258.452	71.06
258.685	76.06
258.918	72.06
259.151	79.06
259.383	79.06
259.616	85.06
259.849	81.06
260.081	80.06
260.314	73.06
260.547	84.06
260.779	81.06
261.012	85.06
261.244	72.06
261.477	93.06
261.71	86.06
261.942	87.06
262.175	70.06
262.407	80.06
262.64	89.06
262.872	78.06
263.105	87.06
263.337	83.06
263.57	73.06
263.802	63.06
264.035	89.06
264.267	82.06
264.499	84.06
264.732	76.06
264.964	73.06
265.197	86.06
265.429	77.06
265.661	100.06
265.894	83.06
266.126	91.06
266.358	85.06
266.591	80.06
266.823	91.06
267.055	86.06
267.287	79.06
267.52	79.06
267.752	85.06
267.984	81.06
268.216	74.06
268.448	78.06
268.681	86.06
268.913	104.06
269.145	70.06
269.377	83.06
269.609	82.06
269.841	74.06
270.073	77.06
270.306	93.06
270.538	89.06
270.77	73.06
271.002	95.06
271.234	76.06
271.466	83.06
271.698	83.06
271.93	77.06
272.162	79.06
272.394	87.06
272.626	82.06
272.858	79.06
273.09	90.06
273.322	95.06
273.553	86.06
273.785	86.06
274.017	82.06
274.249	80.06
274.481	85.06
274.713	87.06
274.945	91.06
275.176	74.06
275.408	79.06
275.64	80.06
275.872	69.06
276.104	83.06
276.335	85.06
276.567	73.06
276.799	79.06
277.031	84.06
277.262	79.06
277.494	79.06
277.726	80.06
277.957	93.06
278.189	80.06
278.421	79.06
278.652	83.06
278.884	75.06
279.115	84.06
279.347	74.06
279.579	87.06
279.81	79.06
280.042	91.06
280.273	80.06
280.505	79.06
280.736	78.06
280.968	76.06
281.199	81.06
281.431	83.06
281.662	89.06
281.894	82.06
282.125	98.06
282.356	76.06
282.588	68.06
282.819	90.06
283.051	88.06
283.282	81.06
283.513	80.06
283.745	85.06
283.976	86.06
284.207	85.06
284.439	95.06
284.67	87.06
284.901	77.06
285.132	75.06
285.364	85.06
285.595	83.06
285.826	83.06
286.057	79.06
286.288	67.06
286.52	83.06
286.751	72.06
286.982	76.06
287.213	67.06
287.444	87.06
287.675	80.06
287.906	93.06
288.138	69.06
288.369	65.06
288.6	88.06
288.831	91.06
289.062	75.06
289.293	78.06
289.524	76.06
289.755	80.06
289.986	89.06
290.217	75.06
290.448	69.06
290.679	75.06
290.91	89.06
291.141	85.06
291.371	82.06
291.602	105.06
291.833	82.06
292.064	77.06
292.295	100.06
292.526	86.06
292.757	79.06
292.987	85.06
293.218	74.06
293.449	101.06
293.68	73.06
293.91	91.06
294.141	79.06
294.372	102.06
294.603	87.06
294.833	71.06
295.064	78.06
295.295	73.06
295.525	79.06
295.756	82.06
295.987	91.06
296.217	80.06
296.448	78.06
296.679	72.06
296.909	96.06
297.14	96.06
297.37	86.06
297.601	81.06
297.831	76.06
298.062	76.06
298.292	71.06
298.523	74.06
298.753	73.06
298.984	81.06
299.214	83.06
299.445	72.06
299.675	80.06
299.905	83.06
300.136	85.06
300.366	83.06
300.597	75.06
300.827	87.06
301.057	84.06
301.288	85.06
301.518	81.06
301.748	77.06
301.979	112.06
302.209	91.06
302.439	92.06
302.669	97.06
302.9	89.06
303.13	82.06
303.36	88.06
303.59	82.06
303.82	71.06
304.051	74.06
304.281	85.06
304.511	71.06
304.741	93.06
304.971	81.06
305.201	92.06
305.431	95.06
305.661	82.06
305.891	67.06
306.121	82.06
306.352	65.06
306.582	81.06
306.812	84.06
307.042	89.06
307.272	83.06
307.502	79.06
307.731	80.06
307.961	75.06
308.191	89.06
308.421	72.06
308.651	68.06
308.881	81.06
309.111	87.06
309.341	89.06
309.571	84.06
309.8	63.06
310.03	80.06
310.26	68.06
310.49	91.06
310.72	84.06
310.949	89.06
311.179	78.06
311.409	79.06
311.639	83.06
311.868	73.06
312.098	89.06
312.328	93.06
312.557	89.06
312.787	83.06
313.017	89.06
313.246	90.06
313.476	74.06
313.706	77.06
313.935	87.06
314.165	77.06
314.394	93.06
314.624	87.06
314.853	89.06
315.083	85.06
315.312	66.06
315.542	76.06
315.771	69.06
316.001	84.06
316.23	93.06
316.46	66.06
316.689	82.06
316.919	78.06
317.148	83.06
317.377	95.06
317.607	85.06
317.836	92.06
318.065	88.06
318.295	85.06
318.524	94.06
318.753	73.06
318.983	85.06
319.212	79.06
319.441	86.06
319.67	81.06
319.9	85.06
320.129	80.06
320.358	83.06
320.587	81.06
320.816	84.06
321.046	72.06
321.275	89.06
321.504	83.06
321.733	90.06
321.962	81.06
322.191	88.06
322.42	81.06
322.649	83.06
322.878	71.06
323.108	73.06
323.337	76.06
323.566	76.06
323.795	90.06
324.024	86.06
324.253	78.06
324.482	75.06
324.71	69.06
324.939	73.06
325.168	89.06
325.397	83.06
325.626	87.06
325.855	75.06
326.084	77.06
326.313	96.06
326.542	85.06
326.77	81.06
326.999	82.06
327.228	85.06
327.457	78.06
327.686	83.06
327.914	79.06
328.143	85.06
328.372	86.06
328.6	81.06
328.829	83.06
329.058	80.06
329.287	90.06
329.515	97.06
329.744	82.06
329.972	91.06
330.201	84.06
330.43	89.06
330.658	90.06
330.887	73.06
331.115	73.06
331.344	84.06
331.572	77.06
331.801	90.06
332.03	82.06
332.258	71.06
332.486	83.06
332.715	93.06
332.943	86.06
333.172	75.06
333.4	72.06
333.629	89.06
333.857	84.06
334.085	78.06
334.314	75.06
334.542	81.06
334.771	80.06
334.999	87.06
335.227	77.06
335.455	89.06
335.684	83.06
335.912	81.06
336.14	79.06
336.369	79.06
336.597	76.06
336.825	75.06
337.053	69.06
337.281	89.06
337.51	90.06
337.738	82.06
337.966	86.06
338.194	82.06
338.422	81.06
338.65	89.06
338.878	73.06
339.106	75.06
339.334	84.06
339.562	72.06
339.79	77.06
340.018	66.06
340.246	81.06
340.474	80.06
340.702	77.06
340.93	78.06
341.158	73.06
341.386	85.06
341.614	91.06
341.842	91.06
342.07	79.06
342.298	86.06
342.526	80.06
342.754	90.06
342.981	83.06
343.209	83.06
343.437	106.06
343.665	102.06
343.893	90.06
344.12	90.06
344.348	79.06
344.576	87.06
344.804	83.06
345.031	78.06
345.259	80.06
345.487	75.06
345.714	86.06
345.942	72.06
346.17	79.06
346.397	73.06
346.625	63.06
346.853	83.06
347.08	83.06
347.308	86.06
347.535	88.06
347.763	71.06
347.99	93.06
348.218	81.06
348.445	79.06
348.673	81.06
348.9	86.06
349.128	98.06
349.355	81.06
349.583	83.06
349.81	84.06
350.037	79.06
350.265	73.06
350.492	79.06
350.72	57.06
350.947	78.06
351.174	73.06
351.402	77.06
351.629	90.06
351.856	85.06
352.083	84.06
352.311	70.06
352.538	79.06
352.765	89.06
352.992	84.06
353.22	87.06
353.447	85.06
353.674	87.06
353.901	76.06
354.128	97.06
354.355	89.06
354.583	96.06
354.81	86.06
355.037	79.06
355.264	91.06
355.491	86.06
355.718	87.06
355.945	92.06
356.172	75.06
356.399	81.06
356.626	81.06
356.853	70.06
357.08	68.06
357.307	85.06
357.534	79.06
357.761	90.06
357.988	88.06
358.215	70.06
358.441	79.06
358.668	88.06
358.895	84.06
359.122	80.06
359.349	83.06
359.576	88.06
359.802	89.06
360.029	90.06
360.256	76.06
360.483	82.06
360.709	76.06
360.936	93.06
361.163	84.06
361.39	90.06
361.616	83.06
361.843	88.06
362.07	85.06
362.296	86.06
362.523	84.06
362.749	82.06
362.976	76.06
363.203	81.06
363.429	80.06
363.656	90.06
363.882	88.06
364.109	85.06
364.335	86.06
364.562	90.06
364.788	94.06
365.015	82.06
365.241	86.06
365.468	79.06
365.694	87.06
365.92	97.06
366.147	79.06
366.373	83.06
366.599	83.06
366.826	68.06
367.052	86.06
367.278	97.06
367.505	81.06
367.731	82.06
367.957	82.06
368.184	72.06
368.41	70.06
368.636	90.06
368.862	100.06
369.089	74.06
369.315	61.06
369.541	82.06
369.767	86.06
369.993	94.06
370.219	84.06
370.445	84.06
370.672	76.06
370.898	67.06
371.124	81.06
371.35	82.06
371.576	86.06
371.802	86.06
372.028	76.06
372.254	90.06
372.48	89.06
372.706	87.06
372.932	81.06
373.158	90.06
373.384	78.06
373.61	94.06
373.835	89.06
374.061	83.06
374.287	90.06
374.513	90.06
374.739	84.06
374.965	78.06
375.191	72.06
375.416	76.06
375.642	78.06
375.868	78.06
376.094	88.06
376.319	82.06
376.545	70.06
376.771	83.06
376.997	85.06
377.222	75.06
377.448	81.06
377.674	80.06
377.899	75.06
378.125	69.06
378.35	91.06
378.576	89.06
378.802	93.06
379.027	86.06
379.253	87.06
379.478	78.06
379.704	81.06
379.929	97.06
380.155	87.06
380.38	78.06
380.606	74.06
380.831	75.06
381.057	94.06
381.282	84.06
381.507	86.06
381.733	72.06
381.958	82.06
382.184	65.06
382.409	83.06
382.634	80.06
382.86	81.06
383.085	67.06
383.31	69.06
383.535	74.06
383.761	91.06
383.986	89.06
384.211	85.06
384.436	98.06
384.662	78.06
384.887	80.06
385.112	81.06
385.337	78.06
385.562	85.06
385.787	85.06
386.013	84.06
386.238	90.06
386.463	86.06
386.688	92.06
386.913	79.06
387.138	71.06
387.363	87.06
387.588	81.06
387.813	83.06
388.038	76.06
388.263	72.06
388.488	63.06
388.713	88.06
388.938	90.06
389.163	89.06
389.387	76.06
389.612	79.06
389.837	65.06
390.062	87.06
390.287	69.06
390.512	65.06
390.736	87.06
390.961	81.06
391.186	76.06
391.411	74.06
391.636	75.06
391.86	78.06
392.085	72.06
392.31	78.06
392.534	76.06
392.759	88.06
392.984	84.06
393.208	91.06
393.433	74.06
393.658	79.06
393.882	80.06
394.107	91.06
394.331	79.06
394.556	84.06
394.78	74.06
395.005	82.06
395.229	75.06
395.454	82.06
395.678	81.06
395.903	90.06
396.127	81.06
396.352	81.06
396.576	70.06
396.801	87.06
397.025	79.06
397.249	74.06
397.474	80.06
397.698	89.06
397.922	65.06
398.147	84.06
398.371	76.06
398.595	67.06
398.82	75.06
399.044	74.06
399.268	73.06
399.492	87.06
399.717	82.06
399.941	83.06
400.165	89.06
400.389	81.06
400.613	78.06
400.837	74.06
401.062	85.06
401.286	71.06
401.51	79.06
401.734	78.06
401.958	77.06
402.182	72.06
402.406	67.06
402.63	85.06
402.854	77.06
403.078	81.06
403.302	82.06
403.526	71.06
403.75	77.06
403.974	66.06
404.198	79.06
404.422	94.06
404.645	79.06
404.869	65.06
405.093	75.06
405.317	83.06
405.541	76.06
405.765	93.06
405.988	74.06
406.212	73.06
406.436	83.06
406.66	76.06
406.883	74.06
407.107	82.06
407.331	82.06
407.555	93.06
407.778	81.06
408.002	94.06
408.226	74.06
408.449	73.06
408.673	81.06
408.896	77.06
409.12	72.06
409.344	86.06
409.567	93.06
409.791	77.06
410.014	79.06
410.238	70.06
410.461	70.06
410.685	62.06
410.908	72.06
411.132	68.06
411.355	79.06
411.578	92.06
411.802	85.06
412.025	80.06
412.249	83.06
412.472	54.06
412.695	78.06
412.919	96.06
413.142	86.06
413.365	81.06
413.589	78.06
413.812	65.06
414.035	73.06
414.258	80.06
414.482	79.06
414.705	79.06
414.928	70.06
415.151	69.06
415.374	84.06
415.597	62.06
415.821	83.06
416.044	88.06
416.267	88.06
416.49	77.06
416.713	81.06
416.936	93.06
417.159	70.06
417.382	77.06
417.605	76.06
417.828	75.06
418.051	81.06
418.274	89.06
418.497	77.06
418.72	86.06
418.943	88.06
419.166	79.06
419.389	76.06
419.611	82.06
419.834	80.06
420.057	87.06
420.28	78.06
420.503	85.06
420.726	71.06
420.948	75.06
421.171	67.06
421.394	75.06
421.617	79.06
421.839	80.06
422.062	83.06
422.285	84.06
422.507	83.06
422.73	80.06
422.953	83.06
423.175	82.06
423.398	74.06
423.621	88.06
423.843	80.06
424.066	72.06
424.288	75.06
424.511	86.06
424.733	79.06
424.956	72.06
425.178	90.06
425.401	65.06
425.623	73.06
425.846	67.06
426.068	55.06
426.291	83.06
426.513	77.06
426.735	66.06
426.958	93.06
427.18	73.06
427.402	93.06
427.625	72.06
427.847	73.06
428.069	93.06
428.292	67.06
428.514	72.06
428.736	74.06
428.958	83.06
429.181	86.06
429.403	93.06
429.625	89.06
429.847	82.06
430.069	93.06
430.292	91.06
430.514	71.06
430.736	63.06
430.958	89.06
431.18	82.06
431.402	79.06
431.624	74.06
431.846	69.06
432.068	81.06
432.29	77.06
432.512	91.06
432.734	88.06
432.956	78.06
433.178	94.06
433.4	93.06
433.622	86.06
433.844	76.06
434.066	75.06
434.287	94.06
434.509	74.06
434.731	85.06
434.953	73.06
435.175	68.06
435.397	81.06
435.618	74.06
435.84	67.06
436.062	90.06
436.284	63.06
436.505	79.06
436.727	93.06
436.949	72.06
437.17	71.06
437.392	66.06
437.614	76.06
437.835	79.06
438.057	78.06
438.278	90.06
438.5	75.06
438.721	92.06
438.943	79.06
439.165	80.06
439.386	73.06
439.608	81.06
439.829	71.06
440.05	91.06
440.272	93.06
440.493	75.06
440.715	75.06
440.936	94.06
441.158	75.06
441.379	74.06
441.6	88.06
441.822	85.06
442.043	83.06
442.264	65.06
442.486	70.06
442.707	85.06
442.928	69.06
443.149	83.06
443.371	78.06
443.592	87.06
443.813	86.06
444.034	85.06
444.255	79.06
444.476	69.06
444.698	87.06
444.919	66.06
445.14	133.06
445.361	112.06
445.582	76.06
445.803	89.06
446.024	86.06
446.245	98.06
446.466	82.06
446.687	62.06
446.908	84.06
447.129	82.06
447.35	71.06
447.571	93.06
447.792	75.06
448.013	85.06
448.234	77.06
448.455	79.06
448.675	91.06
448.896	72.06
449.117	91.06
449.338	74.06
449.559	70.06
449.779	75.06
450	90.06
450.221	87.06
450.442	64.06
450.662	89.06
450.883	77.06
451.104	76.06
451.324	73.06
451.545	79.06
451.766	71.06
451.986	71.06
452.207	72.06
452.428	86.06
452.648	89.06
452.869	75.06
453.089	87.06
453.31	76.06
453.53	88.06
453.751	78.06
453.971	82.06
454.192	84.06
454.412	87.06
454.633	76.06
454.853	76.06
455.073	76.06
455.294	76.06
455.514	85.06
455.734	93.06
455.955	67.06
456.175	67.06
456.395	70.06
456.616	80.06
456.836	69.06
457.056	99.06
457.276	77.06
457.497	70.06
457.717	77.06
457.937	75.06
458.157	68.06
458.377	88.06
458.598	91.06
458.818	85.06
459.038	72.06
459.258	71.06
459.478	71.06
459.698	75.06
459.918	71.06
460.138	69.06
460.358	74.06
460.578	89.06
460.798	81.06
461.018	73.06
461.238	83.06
461.458	90.06
461.678	82.06
461.898	85.06
462.118	65.06
462.338	95.06
462.558	69.06
462.777	76.06
462.997	72.06
463.217	82.06
463.437	71.06
463.657	56.06
463.876	71.06
464.096	66.06
464.316	96.06
464.536	87.06
464.755	75.06
464.975	77.06
465.195	78.06
465.414	75.06
465.634	84.06
465.854	85.06
466.073	80.06
466.293	77.06
466.512	86.06
466.732	96.06
466.951	74.06
467.171	73.06
467.391	59.06
467.61	88.06
467.829	70.06
468.049	85.06
468.268	88.06
468.488	85.06
468.707	92.06
468.927	87.06
469.146	65.06
469.365	79.06
469.585	79.06
469.804	97.06
470.023	82.06
470.243	71.06
470.462	73.06
470.681	83.06
470.901	71.06
471.12	79.06
471.339	79.06
471.558	78.06
471.777	87.06
471.997	80.06
472.216	78.06
472.435	80.06
472.654	69.06
472.873	72.06
473.092	84.06
473.311	86.06
473.53	92.06
473.749	87.06
473.968	87.06
474.187	85.06
474.406	84.06
474.625	89.06
474.844	85.06
475.063	83.06
475.282	78.06
475.501	72.06
475.72	85.06
475.939	89.06
476.158	94.06
476.377	84.06
476.596	82.06
476.814	88.06
477.033	78.06
477.252	79.06
477.471	72.06
477.69	79.06
477.908	81.06
478.127	95.06
478.346	81.06
478.564	82.06
478.783	74.06
479.002	85.06
479.22	76.06
479.439	82.06
479.658	75.06
479.876	81.06
480.095	75.06
480.313	87.06
480.532	84.06
480.751	73.06
480.969	71.06
481.188	69.06
481.406	93.06
481.624	79.06
481.843	64.06
482.061	86.06
482.28	85.06
482.498	82.06
482.717	82.06
482.935	79.06
483.153	75.06
483.372	95.06
483.59	81.06
483.808	81.06
484.027	84.06
484.245	82.06
484.463	75.06
484.681	82.06
484.9	69.06
485.118	83.06
485.336	85.06
485.554	65.06
485.772	76.06
485.99	76.06
486.209	74.06
486.427	93.06
486.645	84.06
486.863	86.06
487.081	75.06
487.299	72.06
487.517	96.06
487.735	94.06
487.953	70.06
488.171	77.06
488.389	97.06
488.607	73.06
488.825	73.06
489.043	66.06
489.261	85.06
489.479	81.06
489.696	92.06
489.914	76.06
490.132	70.06
490.35	63.06
490.568	80.06
490.786	79.06
491.003	81.06
491.221	93.06
491.439	83.06
491.657	102.06
491.874	94.06
492.092	73.06
492.31	84.06
492.527	85.06
492.745	73.06
492.963	87.06
493.18	85.06
493.398	81.06
493.615	78.06
493.833	69.06
494.05	79.06
494.268	98.06
494.485	98.06
494.703	81.06
494.92	84.06
495.138	70.06
495.355	84.06
495.573	75.06
495.79	93.06
496.008	84.06
496.225	81.06
496.442	68.06
496.66	74.06
496.877	69.06
497.094	92.06
497.312	86.06
497.529	86.06
497.746	80.06
497.963	86.06
498.181	74.06
498.398	86.06
498.615	87.06
498.832	82.06
499.049	91.06
499.267	85.06
499.484	85.06
499.701	77.06
499.918	85.06
500.135	91.06
500.352	85.06
500.569	90.06
500.786	73.06
501.003	78.06
501.22	81.06
501.437	73.06
501.654	83.06
501.871	95.06
502.088	77.06
502.305	80.06
502.522	75.06
502.739	86.06
502.956	81.06
503.172	85.06
503.389	76.06
503.606	85.06
503.823	86.06
504.04	82.06
504.256	79.06
504.473	85.06
504.69	80.06
504.907	86.06
505.123	90.06
505.34	78.06
505.557	85.06
505.773	66.06
505.99	86.06
506.207	88.06
506.423	92.06
506.64	79.06
506.856	79.06
507.073	88.06
507.289	74.06
507.506	70.06
507.722	81.06
507.939	69.06
508.155	78.06
508.372	75.06
508.588	77.06
508.805	81.06
509.021	74.06
509.238	91.06
509.454	88.06
509.67	85.06
509.887	69.06
510.103	102.06
510.319	85.06
510.536	76.06
510.752	66.06
510.968	88.06
511.184	86.06
511.401	80.06
511.617	93.06
511.833	73.06
512.049	86.06
512.265	81.06
512.481	87.06
512.698	73.06
512.914	90.06
513.13	78.06
513.346	85.06
513.562	74.06
513.778	101.06
513.994	90.06
514.21	97.06
514.426	81.06
514.642	83.06
514.858	82.06
515.074	78.06
515.29	80.06
515.506	93.06
515.721	80.06
515.937	75.06
516.153	81.06
516.369	82.06
516.585	74.06
516.801	84.06
517.016	82.06
517.232	90.06
517.448	91.06
517.664	94.06
517.879	76.06
518.095	86.06
518.311	69.06
518.527	78.06
518.742	79.06
518.958	71.06
519.173	81.06
519.389	88.06
519.605	83.06
519.82	94.06
520.036	86.06
520.251	90.06
520.467	82.06
520.682	88.06
520.898	62.06
521.113	87.06
521.329	76.06
521.544	74.06
521.76	87.06
521.975	79.06
522.19	72.06
522.406	77.06
522.621	74.06
522.836	95.06
523.052	69.06
523.267	95.06
523.482	72.06
523.698	89.06
523.913	75.06
524.128	91.06
524.343	91.06
524.559	89.06
524.774	66.06
524.989	94.06
525.204	89.06
525.419	81.06
525.634	83.06
525.849	87.06
526.064	75.06
526.28	98.06
526.495	75.06
526.71	95.06
526.925	68.06
527.14	77.06
527.355	81.06
527.57	99.06
527.785	81.06
527.999	73.06
528.214	74.06
528.429	89.06
528.644	71.06
528.859	90.06
529.074	70.06
529.289	74.06
529.503	94.06
529.718	93.06
529.933	84.06
530.148	88.06
530.363	92.06
530.577	87.06
530.792	73.06
531.007	97.06
531.221	86.06
531.436	83.06
531.651	99.06
531.865	95.06
532.08	88.06
532.295	81.06
532.509	85.06
532.724	82.06
532.938	93.06
533.153	87.06
533.367	79.06
533.582	81.06
533.796	73.06
534.011	79.06
534.225	74.06
534.44	81.06
534.654	68.06
534.868	72.06
535.083	76.06
535.297	82.06
535.511	85.06
535.726	79.06
535.94	73.06
536.154	78.06
536.369	79.06
536.583	98.06
536.797	93.06
537.011	84.06
537.225	95.06
537.44	79.06
537.654	90.06
537.868	84.06
538.082	82.06
538.296	86.06
538.51	102.06
538.724	98.06
538.938	81.06
539.153	82.06
539.367	69.06
539.581	79.06
539.795	79.06
540.009	75.06
540.222	75.06
540.436	88.06
540.65	94.06
540.864	78.06
541.078	80.06
541.292	80.06
541.506	80.06
541.72	81.06
541.934	104.06
542.147	82.06
542.361	82.06
542.575	70.06
542.789	93.06
543.002	85.06
543.216	75.06
543.43	85.06
543.644	107.06
543.857	85.06
544.071	90.06
544.285	93.06
544.498	79.06
544.712	84.06
544.925	78.06
545.139	79.06
545.352	70.06
545.566	79.06
545.779	79.06
545.993	86.06
546.206	74.06
546.42	74.06
546.633	86.06
546.847	80.06
547.06	82.06
547.274	85.06
547.487	89.06
547.7	71.06
547.914	84.06
548.127	86.06
548.34	73.06
548.554	71.06
548.767	86.06
548.98	82.06
549.193	82.06
549.407	75.06
549.62	83.06
549.833	71.06
550.046	81.06
550.259	83.06
550.473	86.06
550.686	85.06
550.899	86.06
551.112	106.06
551.325	83.06
551.538	93.06
551.751	78.06
551.964	74.06
552.177	73.06
552.39	81.06
552.603	93.06
552.816	82.06
553.029	81.06
553.242	100.06
553.455	105.06
553.667	89.06
553.88	73.06
554.093	99.06
554.306	75.06
554.519	85.06
554.732	70.06
554.944	74.06
555.157	83.06
555.37	72.06
555.583	65.06
555.795	71.06
556.008	89.06
556.221	92.06
556.433	74.06
556.646	77.06
556.859	83.06
557.071	94.06
557.284	88.06
557.496	81.06
557.709	82.06
557.921	87.06
558.134	90.06
558.346	91.06
558.559	81.06
558.771	81.06
558.984	75.06
559.196	93.06
559.409	91.06
559.621	93.06
559.833	83.06
560.046	75.06
560.258	93.06
560.47	73.06
560.683	85.06
560.895	86.06
561.107	85.06
561.32	89.06
561.532	79.06
561.744	93.06
561.956	88.06
562.168	91.06
562.381	96.06
562.593	77.06
562.805	79.06
563.017	81.06
563.229	84.06
563.441	82.06
563.653	98.06
563.865	76.06
564.077	91.06
564.289	89.06
564.501	76.06
564.713	88.06
564.925	71.06
565.137	87.06
565.349	81.06
565.561	75.06
565.773	99.06
565.985	84.06
566.197	83.06
566.408	85.06
566.62	89.06
566.832	84.06
567.044	91.06
567.255	79.06
567.467	81.06
567.679	88.06
567.891	90.06
568.102	68.06
568.314	89.06
568.526	81.06
568.737	90.06
568.949	105.06
569.161	85.06
569.372	90.06
569.584	84.06
569.795	70.06
570.007	81.06
570.218	89.06
570.43	93.06
570.641	74.06
570.853	87.06
571.064	87.06
571.276	82.06
571.487	85.06
571.698	65.06
571.91	90.06
572.121	73.06
572.333	86.06
572.544	86.06
572.755	83.06
572.966	78.06
573.178	91.06
573.389	75.06
573.6	82.06
573.811	75.06
574.023	86.06
574.234	82.06
574.445	95.06
574.656	93.06
574.867	69.06
575.078	72.06
575.289	74.06
575.501	77.06
575.712	84.06
575.923	78.06
576.134	86.06
576.345	93.06
576.556	97.06
576.767	85.06
576.978	91.06
577.188	84.06
577.399	84.06
577.61	71.06
577.821	81.06
578.032	73.06
578.243	89.06
578.454	89.06
578.665	102.06
578.875	77.06
579.086	82.06
579.297	81.06
579.508	68.06
579.718	93.06
579.929	102.06
580.14	83.06
580.35	110.06
580.561	85.06
580.772	75.06
580.982	87.06
581.193	79.06
581.403	66.06
581.614	75.06
581.825	81.06
582.035	87.06
582.246	75.06
582.456	81.06
582.667	91.06
582.877	83.06
583.087	83.06
583.298	89.06
583.508	83.06
583.719	89.06
583.929	75.06
584.139	81.06
584.35	78.06
584.56	79.06
584.77	84.06
584.981	100.06
585.191	75.06
585.401	76.06
585.611	96.06
585.821	79.06
586.032	77.06
586.242	90.06
586.452	82.06
586.662	73.06
586.872	93.06
587.082	82.06
587.292	87.06
587.502	78.06
587.713	83.06
587.923	80.06
588.133	85.06
588.343	80.06
588.553	78.06
588.762	92.06
588.972	103.06
589.182	104.06
589.392	91.06
589.602	81.06
589.812	104.06
590.022	98.06
590.232	81.06
590.441	83.06
590.651	81.06
590.861	69.06
591.071	74.06
591.281	74.06
591.49	88.06
591.7	109.06
591.91	66.06
592.119	84.06
592.329	83.06
592.539	74.06
592.748	78.06
592.958	91.06
593.167	96.06
593.377	60.06
593.587	104.06
593.796	79.06
594.006	102.06
594.215	95.06
594.424	73.06
594.634	79.06
594.843	85.06
595.053	77.06
595.262	71.06
595.472	75.06
595.681	87.06
595.89	72.06
596.1	89.06
596.309	84.06
596.518	68.06
596.727	76.06
596.937	89.06
597.146	77.06
597.355	92.06
597.564	83.06
597.774	85.06
597.983	84.06
598.192	101.06
598.401	84.06
598.61	79.06
598.819	86.06
599.028	81.06
599.237	80.06
599.446	85.06
599.655	79.06
599.864	68.06
600.073	71.06
600.282	85.06
600.491	81.06
600.7	82.06
600.909	81.06
601.118	74.06
601.327	89.06
601.536	72.06
601.745	71.06
601.953	98.06
602.162	85.06
602.371	85.06
602.58	89.06
602.789	89.06
602.997	85.06
603.206	80.06
603.415	82.06
603.623	97.06
603.832	73.06
604.041	97.06
604.249	80.06
604.458	74.06
604.666	81.06
604.875	74.06
605.084	80.06
605.292	81.06
605.501	88.06
605.709	82.06
605.918	95.06
606.126	82.06
606.334	89.06
606.543	78.06
606.751	85.06
606.96	70.06
607.168	93.06
607.376	82.06
607.585	67.06
607.793	69.06
608.001	75.06
608.21	83.06
608.418	75.06
608.626	84.06
608.834	91.06
609.043	97.06
609.251	83.06
609.459	78.06
609.667	85.06
609.875	90.06
610.083	79.06
610.291	73.06
610.499	93.06
610.707	68.06
610.916	90.06
611.124	98.06
611.332	74.06
611.54	73.06
611.748	75.06
611.955	78.06
612.163	85.06
612.371	87.06
612.579	88.06
612.787	93.06
612.995	73.06
613.203	90.06
613.411	84.06
613.618	85.06
613.826	71.06
614.034	83.06
614.242	85.06
614.449	79.06
614.657	80.06
614.865	73.06
615.072	79.06
615.28	79.06
615.488	89.06
615.695	81.06
615.903	86.06
616.111	90.06
616.318	89.06
616.526	73.06
616.733	70.06
616.941	85.06
617.148	85.06
617.356	102.06
617.563	77.06
617.771	74.06
617.978	69.06
618.185	75.06
618.393	81.06
618.6	78.06
618.807	83.06
619.015	79.06
619.222	81.06
619.429	84.06
619.637	88.06
619.844	81.06
620.051	88.06
620.258	82.06
620.466	79.06
620.673	87.06
620.88	79.06
621.087	76.06
621.294	74.06
621.501	62.06
621.708	76.06
621.915	77.06
622.122	99.06
622.329	91.06
622.536	87.06
622.743	74.06
622.95	63.06
623.157	79.06
623.364	81.06
623.571	75.06
623.778	84.06
623.985	89.06
624.192	80.06
624.399	76.06
624.606	81.06
624.812	81.06
625.019	79.06
625.226	76.06
625.433	94.06
625.639	84.06
625.846	69.06
626.053	78.06
626.259	75.06
626.466	83.06
626.673	71.06
626.879	73.06
627.086	90.06
627.293	102.06
627.499	79.06
627.706	65.06
627.912	91.06
628.119	77.06
628.325	83.06
628.532	78.06
628.738	79.06
628.945	95.06
629.151	90.06
629.357	80.06
629.564	79.06
629.77	93.06
629.976	75.06
630.183	76.06
630.389	71.06
630.595	81.06
630.802	80.06
631.008	85.06
631.214	93.06
631.42	89.06
631.627	84.06
631.833	80.06
632.039	78.06
632.245	98.06
632.451	84.06
632.657	98.06
632.863	85.06
633.069	71.06
633.275	89.06
633.481	73.06
633.688	71.06
633.893	82.06
634.099	102.06
634.305	88.06
634.511	82.06
634.717	77.06
634.923	79.06
635.129	84.06
635.335	81.06
635.541	83.06
635.747	85.06
635.952	81.06
636.158	73.06
636.364	74.06
636.57	80.06
636.775	87.06
636.981	76.06
637.187	86.06
637.392	93.06
637.598	83.06
637.804	80.06
638.009	84.06
638.215	81.06
638.421	71.06
638.626	77.06
638.832	87.06
639.037	80.06
639.243	81.06
639.448	77.06
639.654	80.06
639.859	73.06
640.065	85.06
640.27	85.06
640.475	79.06
640.681	74.06
640.886	82.06
641.091	92.06
641.297	94.06
641.502	88.06
641.707	84.06
641.913	73.06
642.118	83.06
642.323	80.06
642.528	87.06
642.733	73.06
642.939	74.06
643.144	66.06
643.349	80.06
643.554	89.06
643.759	81.06
643.964	85.06
644.169	81.06
644.374	85.06
644.579	69.06
644.784	79.06
644.989	88.06
645.194	81.06
645.399	88.06
645.604	81.06
645.809	85.06
646.014	57.06
646.219	76.06
646.423	70.06
646.628	78.06
646.833	69.06
647.038	93.06
647.243	85.06
647.447	72.06
647.652	77.06
647.857	79.06
648.062	89.06
648.266	66.06
648.471	75.06
648.676	94.06
648.88	74.06
649.085	90.06
649.289	82.06
649.494	94.06
649.698	74.06
649.903	85.06
650.107	77.06
650.312	81.06
650.516	83.06
650.721	83.06
650.925	75.06
651.13	73.06
651.334	63.06
651.539	86.06
651.743	82.06
651.947	89.06
652.152	74.06
652.356	83.06
652.56	85.06
652.764	89.06
652.969	80.06
653.173	82.06
653.377	69.06
653.581	92.06
653.785	85.06
653.99	74.06
654.194	75.06
654.398	70.06
654.602	74.06
654.806	78.06
655.01	71.06
655.214	82.06
655.418	88.06
655.622	93.06
655.826	71.06
656.03	79.06
656.234	80.06
656.438	86.06
656.642	91.06
656.846	78.06
657.049	72.06
657.253	93.06
657.457	76.06
657.661	84.06
657.865	81.06
658.068	87.06
658.272	81.06
658.476	87.06
658.68	81.06
658.883	68.06
659.087	95.06
659.291	72.06
659.494	69.06
659.698	88.06
659.901	83.06
660.105	81.06
660.309	71.06
660.512	95.06
660.716	60.06
660.919	79.06
661.123	81.06
661.326	72.06
661.53	91.06
661.733	75.06
661.936	83.06
662.14	80.06
662.343	72.06
662.546	82.06
662.75	79.06
662.953	87.06
663.156	95.06
663.36	83.06
663.563	65.06
663.766	81.06
663.969	86.06
664.173	89.06
664.376	81.06
664.579	66.06
664.782	74.06
664.985	78.06
665.188	90.06
665.391	71.06
665.594	76.06
665.797	76.06
666	83.06
666.203	57.06
666.406	77.06
666.609	84.06
666.812	81.06
667.015	72.06
667.218	80.06
667.421	81.06
667.624	76.06
667.827	91.06
668.03	78.06
668.232	78.06
668.435	74.06
668.638	78.06
668.841	81.06
669.043	79.06
669.246	75.06
669.449	80.06
669.651	89.06
669.854	78.06
670.057	81.06
670.259	71.06
670.462	74.06
670.665	75.06
670.867	80.06
671.07	86.06
671.272	76.06
671.475	79.06
671.677	77.06
671.88	69.06
672.082	84.06
672.284	75.06
672.487	82.06
672.689	76.06
672.892	86.06
