Data from Lead_15_2_HRD10591_00026.txt Node
Date: Fri Feb 20 11:07:05 EST 2026
User: Yrep
Spectrometer: HR+D1059
Trigger mode: 1
Integration Time (sec): 1.000000E-1
Scans to average: 1
Electric dark correction enabled: true
Nonlinearity correction enabled: false
Boxcar width: 0
XAxis mode: Wavelengths
Number of Pixels in Spectrum: 2048
>>>>>Begin Spectral Data<<<<<
223.165	-21.25
223.4	-21.25
223.635	-21.25
223.869	-11.25
224.104	-28.25
224.338	-0.25
224.573	-11.25
224.808	-13.25
225.042	-15.25
225.277	-6.25
225.511	0.75
225.746	4.75
225.98	2.75
226.215	5.75
226.449	4.75
226.683	26.75
226.918	24.75
227.152	36.75
227.387	34.75
227.621	50.75
227.856	31.75
228.09	40.75
228.324	51.75
228.559	54.75
228.793	57.75
229.027	61.75
229.262	73.75
229.496	62.75
229.73	86.75
229.964	87.75
230.199	74.75
230.433	80.75
230.667	81.75
230.901	75.75
231.136	80.75
231.37	83.75
231.604	75.75
231.838	72.75
232.072	83.75
232.306	97.75
232.541	97.75
232.775	91.75
233.009	81.75
233.243	76.75
233.477	70.75
233.711	69.75
233.945	93.75
234.179	85.75
234.413	84.75
234.647	73.75
234.881	69.75
235.115	72.75
235.349	86.75
235.583	82.75
235.817	83.75
236.051	70.75
236.285	80.75
236.519	76.75
236.753	80.75
236.987	80.75
237.221	68.75
237.455	69.75
237.689	75.75
237.922	72.75
238.156	88.75
238.39	82.75
238.624	71.75
238.858	68.75
239.091	73.75
239.325	60.75
239.559	79.75
239.793	70.75
240.027	90.75
240.26	68.75
240.494	87.75
240.728	65.75
240.961	74.75
241.195	68.75
241.429	74.75
241.662	81.75
241.896	75.75
242.13	73.75
242.363	83.75
242.597	89.75
242.83	95.75
243.064	76.75
243.298	78.75
243.531	78.75
243.765	82.75
243.998	79.75
244.232	80.75
244.465	77.75
244.699	82.75
244.932	80.75
245.166	69.75
245.399	75.75
245.633	58.75
245.866	75.75
246.099	75.75
246.333	77.75
246.566	68.75
246.8	82.75
247.033	95.75
247.266	81.75
247.5	73.75
247.733	82.75
247.966	70.75
248.2	75.75
248.433	88.75
248.666	77.75
248.899	73.75
249.133	68.75
249.366	82.75
249.599	89.75
249.832	84.75
250.066	77.75
250.299	78.75
250.532	78.75
250.765	66.75
250.998	69.75
251.231	82.75
251.465	65.75
251.698	60.75
251.931	85.75
252.164	67.75
252.397	71.75
252.63	77.75
252.863	68.75
253.096	94.75
253.329	73.75
253.562	79.75
253.795	76.75
254.028	88.75
254.261	76.75
254.494	85.75
254.727	80.75
254.96	82.75
255.193	82.75
255.426	97.75
255.659	76.75
255.892	76.75
256.124	86.75
256.357	58.75
256.59	79.75
256.823	74.75
257.056	80.75
257.289	76.75
257.521	74.75
257.754	85.75
257.987	86.75
258.22	92.75
258.452	80.75
258.685	73.75
258.918	80.75
259.151	74.75
259.383	73.75
259.616	85.75
259.849	72.75
260.081	85.75
260.314	62.75
260.547	68.75
260.779	77.75
261.012	80.75
261.244	88.75
261.477	74.75
261.71	73.75
261.942	66.75
262.175	86.75
262.407	70.75
262.64	88.75
262.872	76.75
263.105	85.75
263.337	88.75
263.57	74.75
263.802	93.75
264.035	75.75
264.267	73.75
264.499	74.75
264.732	75.75
264.964	99.75
265.197	76.75
265.429	68.75
265.661	80.75
265.894	80.75
266.126	88.75
266.358	89.75
266.591	79.75
266.823	97.75
267.055	71.75
267.287	90.75
267.52	82.75
267.752	73.75
267.984	74.75
268.216	74.75
268.448	77.75
268.681	96.75
268.913	88.75
269.145	83.75
269.377	82.75
269.609	78.75
269.841	97.75
270.073	87.75
270.306	80.75
270.538	87.75
270.77	74.75
271.002	76.75
271.234	70.75
271.466	96.75
271.698	89.75
271.93	80.75
272.162	80.75
272.394	66.75
272.626	74.75
272.858	79.75
273.09	77.75
273.322	68.75
273.553	68.75
273.785	81.75
274.017	92.75
274.249	66.75
274.481	86.75
274.713	82.75
274.945	88.75
275.176	80.75
275.408	91.75
275.64	77.75
275.872	79.75
276.104	82.75
276.335	78.75
276.567	74.75
276.799	89.75
277.031	81.75
277.262	58.75
277.494	78.75
277.726	64.75
277.957	70.75
278.189	90.75
278.421	84.75
278.652	80.75
278.884	79.75
279.115	73.75
279.347	80.75
279.579	70.75
279.81	69.75
280.042	89.75
280.273	70.75
280.505	67.75
280.736	84.75
280.968	94.75
281.199	79.75
281.431	94.75
281.662	86.75
281.894	84.75
282.125	97.75
282.356	83.75
282.588	71.75
282.819	88.75
283.051	73.75
283.282	70.75
283.513	85.75
283.745	90.75
283.976	86.75
284.207	90.75
284.439	88.75
284.67	84.75
284.901	74.75
285.132	85.75
285.364	82.75
285.595	93.75
285.826	85.75
286.057	80.75
286.288	68.75
286.52	86.75
286.751	76.75
286.982	90.75
287.213	75.75
287.444	86.75
287.675	91.75
287.906	95.75
288.138	74.75
288.369	89.75
288.6	78.75
288.831	84.75
289.062	89.75
289.293	81.75
289.524	70.75
289.755	73.75
289.986	66.75
290.217	82.75
290.448	80.75
290.679	90.75
290.91	104.75
291.141	81.75
291.371	63.75
291.602	70.75
291.833	82.75
292.064	88.75
292.295	92.75
292.526	78.75
292.757	87.75
292.987	82.75
293.218	79.75
293.449	83.75
293.68	83.75
293.91	90.75
294.141	99.75
294.372	92.75
294.603	84.75
294.833	92.75
295.064	76.75
295.295	95.75
295.525	90.75
295.756	81.75
295.987	81.75
296.217	77.75
296.448	81.75
296.679	84.75
296.909	80.75
297.14	77.75
297.37	80.75
297.601	75.75
297.831	84.75
298.062	72.75
298.292	96.75
298.523	88.75
298.753	90.75
298.984	85.75
299.214	78.75
299.445	84.75
299.675	89.75
299.905	80.75
300.136	80.75
300.366	80.75
300.597	97.75
300.827	85.75
301.057	75.75
301.288	92.75
301.518	84.75
301.748	86.75
301.979	96.75
302.209	82.75
302.439	79.75
302.669	83.75
302.9	78.75
303.13	76.75
303.36	79.75
303.59	87.75
303.82	77.75
304.051	91.75
304.281	80.75
304.511	85.75
304.741	76.75
304.971	80.75
305.201	89.75
305.431	77.75
305.661	72.75
305.891	83.75
306.121	78.75
306.352	86.75
306.582	79.75
306.812	96.75
307.042	83.75
307.272	83.75
307.502	85.75
307.731	79.75
307.961	71.75
308.191	70.75
308.421	81.75
308.651	84.75
308.881	88.75
309.111	85.75
309.341	91.75
309.571	74.75
309.8	84.75
310.03	77.75
310.26	88.75
310.49	93.75
310.72	88.75
310.949	80.75
311.179	88.75
311.409	89.75
311.639	70.75
311.868	83.75
312.098	85.75
312.328	68.75
312.557	77.75
312.787	72.75
313.017	102.75
313.246	84.75
313.476	81.75
313.706	85.75
313.935	75.75
314.165	90.75
314.394	96.75
314.624	85.75
314.853	78.75
315.083	87.75
315.312	74.75
315.542	65.75
315.771	96.75
316.001	92.75
316.23	96.75
316.46	86.75
316.689	80.75
316.919	81.75
317.148	95.75
317.377	89.75
317.607	94.75
317.836	81.75
318.065	72.75
318.295	63.75
318.524	90.75
318.753	81.75
318.983	86.75
319.212	89.75
319.441	78.75
319.67	85.75
319.9	84.75
320.129	88.75
320.358	85.75
320.587	76.75
320.816	85.75
321.046	81.75
321.275	87.75
321.504	78.75
321.733	93.75
321.962	99.75
322.191	78.75
322.42	86.75
322.649	85.75
322.878	81.75
323.108	88.75
323.337	63.75
323.566	73.75
323.795	83.75
324.024	71.75
324.253	82.75
324.482	80.75
324.71	81.75
324.939	64.75
325.168	65.75
325.397	87.75
325.626	77.75
325.855	85.75
326.084	95.75
326.313	82.75
326.542	74.75
326.77	74.75
326.999	80.75
327.228	96.75
327.457	88.75
327.686	84.75
327.914	92.75
328.143	73.75
328.372	65.75
328.6	75.75
328.829	93.75
329.058	75.75
329.287	73.75
329.515	80.75
329.744	78.75
329.972	83.75
330.201	95.75
330.43	80.75
330.658	88.75
330.887	78.75
331.115	78.75
331.344	87.75
331.572	78.75
331.801	92.75
332.03	74.75
332.258	86.75
332.486	74.75
332.715	78.75
332.943	90.75
333.172	79.75
333.4	72.75
333.629	89.75
333.857	74.75
334.085	82.75
334.314	80.75
334.542	79.75
334.771	79.75
334.999	101.75
335.227	94.75
335.455	77.75
335.684	93.75
335.912	70.75
336.14	87.75
336.369	85.75
336.597	64.75
336.825	84.75
337.053	82.75
337.281	82.75
337.51	93.75
337.738	89.75
337.966	90.75
338.194	81.75
338.422	70.75
338.65	78.75
338.878	78.75
339.106	82.75
339.334	87.75
339.562	69.75
339.79	96.75
340.018	80.75
340.246	79.75
340.474	86.75
340.702	75.75
340.93	88.75
341.158	75.75
341.386	65.75
341.614	72.75
341.842	79.75
342.07	82.75
342.298	84.75
342.526	78.75
342.754	62.75
342.981	85.75
343.209	82.75
343.437	103.75
343.665	80.75
343.893	92.75
344.12	82.75
344.348	74.75
344.576	84.75
344.804	86.75
345.031	92.75
345.259	85.75
345.487	85.75
345.714	77.75
345.942	80.75
346.17	70.75
346.397	95.75
346.625	96.75
346.853	88.75
347.08	80.75
347.308	74.75
347.535	77.75
347.763	82.75
347.99	89.75
348.218	83.75
348.445	89.75
348.673	77.75
348.9	84.75
349.128	85.75
349.355	73.75
349.583	72.75
349.81	92.75
350.037	82.75
350.265	87.75
350.492	74.75
350.72	65.75
350.947	82.75
351.174	77.75
351.402	70.75
351.629	78.75
351.856	79.75
352.083	76.75
352.311	81.75
352.538	88.75
352.765	88.75
352.992	99.75
353.22	76.75
353.447	69.75
353.674	94.75
353.901	78.75
354.128	88.75
354.355	71.75
354.583	74.75
354.81	80.75
355.037	77.75
355.264	66.75
355.491	76.75
355.718	80.75
355.945	82.75
356.172	76.75
356.399	86.75
356.626	79.75
356.853	64.75
357.08	80.75
357.307	84.75
357.534	74.75
357.761	78.75
357.988	80.75
358.215	85.75
358.441	88.75
358.668	77.75
358.895	78.75
359.122	93.75
359.349	75.75
359.576	73.75
359.802	84.75
360.029	93.75
360.256	90.75
360.483	80.75
360.709	73.75
360.936	92.75
361.163	71.75
361.39	86.75
361.616	84.75
361.843	88.75
362.07	85.75
362.296	84.75
362.523	98.75
362.749	94.75
362.976	94.75
363.203	80.75
363.429	88.75
363.656	74.75
363.882	78.75
364.109	73.75
364.335	80.75
364.562	89.75
364.788	81.75
365.015	88.75
365.241	90.75
365.468	85.75
365.694	84.75
365.92	89.75
366.147	81.75
366.373	89.75
366.599	88.75
366.826	88.75
367.052	78.75
367.278	72.75
367.505	84.75
367.731	88.75
367.957	92.75
368.184	80.75
368.41	68.75
368.636	76.75
368.862	84.75
369.089	67.75
369.315	72.75
369.541	78.75
369.767	71.75
369.993	70.75
370.219	79.75
370.445	80.75
370.672	74.75
370.898	78.75
371.124	74.75
371.35	72.75
371.576	90.75
371.802	70.75
372.028	73.75
372.254	84.75
372.48	74.75
372.706	78.75
372.932	77.75
373.158	93.75
373.384	91.75
373.61	86.75
373.835	80.75
374.061	89.75
374.287	84.75
374.513	67.75
374.739	78.75
374.965	88.75
375.191	81.75
375.416	77.75
375.642	82.75
375.868	83.75
376.094	86.75
376.319	80.75
376.545	97.75
376.771	80.75
376.997	65.75
377.222	82.75
377.448	89.75
377.674	75.75
377.899	80.75
378.125	84.75
378.35	90.75
378.576	76.75
378.802	89.75
379.027	76.75
379.253	75.75
379.478	86.75
379.704	78.75
379.929	80.75
380.155	85.75
380.38	79.75
380.606	75.75
380.831	81.75
381.057	76.75
381.282	69.75
381.507	75.75
381.733	80.75
381.958	95.75
382.184	85.75
382.409	81.75
382.634	78.75
382.86	71.75
383.085	71.75
383.31	82.75
383.535	88.75
383.761	77.75
383.986	68.75
384.211	72.75
384.436	80.75
384.662	74.75
384.887	77.75
385.112	70.75
385.337	80.75
385.562	88.75
385.787	82.75
386.013	85.75
386.238	86.75
386.463	78.75
386.688	82.75
386.913	64.75
387.138	86.75
387.363	82.75
387.588	80.75
387.813	85.75
388.038	84.75
388.263	79.75
388.488	72.75
388.713	87.75
388.938	87.75
389.163	85.75
389.387	75.75
389.612	82.75
389.837	80.75
390.062	85.75
390.287	83.75
390.512	88.75
390.736	93.75
390.961	65.75
391.186	88.75
391.411	82.75
391.636	80.75
391.86	67.75
392.085	83.75
392.31	88.75
392.534	79.75
392.759	78.75
392.984	86.75
393.208	85.75
393.433	84.75
393.658	75.75
393.882	70.75
394.107	82.75
394.331	80.75
394.556	77.75
394.78	85.75
395.005	65.75
395.229	84.75
395.454	86.75
395.678	82.75
395.903	78.75
396.127	81.75
396.352	83.75
396.576	93.75
396.801	90.75
397.025	89.75
397.249	86.75
397.474	80.75
397.698	92.75
397.922	78.75
398.147	71.75
398.371	77.75
398.595	73.75
398.82	88.75
399.044	88.75
399.268	82.75
399.492	80.75
399.717	92.75
399.941	68.75
400.165	87.75
400.389	83.75
400.613	86.75
400.837	75.75
401.062	88.75
401.286	72.75
401.51	80.75
401.734	81.75
401.958	74.75
402.182	76.75
402.406	76.75
402.63	75.75
402.854	74.75
403.078	80.75
403.302	98.75
403.526	82.75
403.75	84.75
403.974	85.75
404.198	93.75
404.422	83.75
404.645	82.75
404.869	72.75
405.093	83.75
405.317	92.75
405.541	98.75
405.765	87.75
405.988	73.75
406.212	76.75
406.436	79.75
406.66	74.75
406.883	88.75
407.107	80.75
407.331	77.75
407.555	72.75
407.778	86.75
408.002	88.75
408.226	86.75
408.449	76.75
408.673	79.75
408.896	80.75
409.12	93.75
409.344	69.75
409.567	86.75
409.791	72.75
410.014	78.75
410.238	87.75
410.461	85.75
410.685	85.75
410.908	92.75
411.132	88.75
411.355	75.75
411.578	88.75
411.802	73.75
412.025	78.75
412.249	74.75
412.472	84.75
412.695	65.75
412.919	80.75
413.142	84.75
413.365	84.75
413.589	81.75
413.812	87.75
414.035	85.75
414.258	84.75
414.482	78.75
414.705	90.75
414.928	86.75
415.151	82.75
415.374	61.75
415.597	80.75
415.821	94.75
416.044	82.75
416.267	89.75
416.49	78.75
416.713	73.75
416.936	80.75
417.159	68.75
417.382	83.75
417.605	92.75
417.828	82.75
418.051	76.75
418.274	82.75
418.497	75.75
418.72	77.75
418.943	82.75
419.166	74.75
419.389	90.75
419.611	88.75
419.834	88.75
420.057	74.75
420.28	81.75
420.503	74.75
420.726	80.75
420.948	78.75
421.171	72.75
421.394	84.75
421.617	88.75
421.839	76.75
422.062	76.75
422.285	81.75
422.507	84.75
422.73	86.75
422.953	88.75
423.175	69.75
423.398	63.75
423.621	81.75
423.843	87.75
424.066	74.75
424.288	72.75
424.511	78.75
424.733	87.75
424.956	84.75
425.178	82.75
425.401	83.75
425.623	78.75
425.846	81.75
426.068	72.75
426.291	76.75
426.513	76.75
426.735	78.75
426.958	80.75
427.18	82.75
427.402	76.75
427.625	74.75
427.847	79.75
428.069	74.75
428.292	81.75
428.514	92.75
428.736	71.75
428.958	80.75
429.181	68.75
429.403	90.75
429.625	80.75
429.847	70.75
430.069	88.75
430.292	65.75
430.514	68.75
430.736	84.75
430.958	75.75
431.18	68.75
431.402	82.75
431.624	80.75
431.846	75.75
432.068	95.75
432.29	76.75
432.512	87.75
432.734	73.75
432.956	69.75
433.178	81.75
433.4	86.75
433.622	74.75
433.844	89.75
434.066	94.75
434.287	80.75
434.509	66.75
434.731	75.75
434.953	68.75
435.175	74.75
435.397	66.75
435.618	78.75
435.84	65.75
436.062	93.75
436.284	82.75
436.505	71.75
436.727	81.75
436.949	74.75
437.17	73.75
437.392	85.75
437.614	79.75
437.835	80.75
438.057	86.75
438.278	86.75
438.5	74.75
438.721	83.75
438.943	86.75
439.165	78.75
439.386	75.75
439.608	62.75
439.829	70.75
440.05	88.75
440.272	79.75
440.493	77.75
440.715	83.75
440.936	80.75
441.158	69.75
441.379	86.75
441.6	80.75
441.822	71.75
442.043	89.75
442.264	80.75
442.486	80.75
442.707	60.75
442.928	92.75
443.149	82.75
443.371	72.75
443.592	78.75
443.813	86.75
444.034	67.75
444.255	88.75
444.476	77.75
444.698	80.75
444.919	84.75
445.14	138.75
445.361	104.75
445.582	86.75
445.803	91.75
446.024	70.75
446.245	80.75
446.466	70.75
446.687	84.75
446.908	74.75
447.129	80.75
447.35	78.75
447.571	76.75
447.792	58.75
448.013	84.75
448.234	80.75
448.455	88.75
448.675	79.75
448.896	64.75
449.117	85.75
449.338	80.75
449.559	85.75
449.779	80.75
450	71.75
450.221	87.75
450.442	71.75
450.662	81.75
450.883	78.75
451.104	86.75
451.324	63.75
451.545	80.75
451.766	65.75
451.986	77.75
452.207	86.75
452.428	89.75
452.648	81.75
452.869	86.75
453.089	78.75
453.31	82.75
453.53	82.75
453.751	81.75
453.971	79.75
454.192	89.75
454.412	77.75
454.633	74.75
454.853	80.75
455.073	88.75
455.294	66.75
455.514	80.75
455.734	75.75
455.955	88.75
456.175	72.75
456.395	85.75
456.616	78.75
456.836	70.75
457.056	81.75
457.276	62.75
457.497	88.75
457.717	73.75
457.937	83.75
458.157	94.75
458.377	82.75
458.598	89.75
458.818	70.75
459.038	78.75
459.258	79.75
459.478	74.75
459.698	81.75
459.918	75.75
460.138	75.75
460.358	91.75
460.578	75.75
460.798	79.75
461.018	72.75
461.238	96.75
461.458	90.75
461.678	85.75
461.898	87.75
462.118	79.75
462.338	81.75
462.558	81.75
462.777	85.75
462.997	80.75
463.217	90.75
463.437	83.75
463.657	75.75
463.876	79.75
464.096	89.75
464.316	89.75
464.536	71.75
464.755	88.75
464.975	85.75
465.195	78.75
465.414	81.75
465.634	74.75
465.854	76.75
466.073	63.75
466.293	88.75
466.512	76.75
466.732	61.75
466.951	89.75
467.171	68.75
467.391	88.75
467.61	81.75
467.829	76.75
468.049	82.75
468.268	66.75
468.488	94.75
468.707	94.75
468.927	80.75
469.146	69.75
469.365	88.75
469.585	89.75
469.804	67.75
470.023	64.75
470.243	84.75
470.462	84.75
470.681	78.75
470.901	82.75
471.12	78.75
471.339	76.75
471.558	81.75
471.777	82.75
471.997	79.75
472.216	90.75
472.435	87.75
472.654	81.75
472.873	89.75
473.092	79.75
473.311	86.75
473.53	78.75
473.749	94.75
473.968	89.75
474.187	78.75
474.406	70.75
474.625	108.75
474.844	92.75
475.063	82.75
475.282	86.75
475.501	92.75
475.72	80.75
475.939	67.75
476.158	92.75
476.377	74.75
476.596	78.75
476.814	74.75
477.033	85.75
477.252	83.75
477.471	81.75
477.69	72.75
477.908	67.75
478.127	86.75
478.346	74.75
478.564	88.75
478.783	78.75
479.002	73.75
479.22	86.75
479.439	77.75
479.658	80.75
479.876	81.75
480.095	78.75
480.313	86.75
480.532	89.75
480.751	79.75
480.969	91.75
481.188	89.75
481.406	82.75
481.624	80.75
481.843	71.75
482.061	74.75
482.28	76.75
482.498	74.75
482.717	82.75
482.935	80.75
483.153	92.75
483.372	82.75
483.59	83.75
483.808	87.75
484.027	83.75
484.245	80.75
484.463	87.75
484.681	94.75
484.9	88.75
485.118	82.75
485.336	81.75
485.554	78.75
485.772	81.75
485.99	79.75
486.209	80.75
486.427	74.75
486.645	81.75
486.863	89.75
487.081	87.75
487.299	89.75
487.517	83.75
487.735	81.75
487.953	99.75
488.171	101.75
488.389	79.75
488.607	72.75
488.825	72.75
489.043	82.75
489.261	82.75
489.479	77.75
489.696	81.75
489.914	85.75
490.132	71.75
490.35	77.75
490.568	84.75
490.786	88.75
491.003	84.75
491.221	83.75
491.439	84.75
491.657	82.75
491.874	98.75
492.092	81.75
492.31	78.75
492.527	79.75
492.745	86.75
492.963	81.75
493.18	80.75
493.398	72.75
493.615	82.75
493.833	66.75
494.05	73.75
494.268	82.75
494.485	89.75
494.703	73.75
494.92	89.75
495.138	81.75
495.355	93.75
495.573	88.75
495.79	76.75
496.008	83.75
496.225	97.75
496.442	99.75
496.66	82.75
496.877	81.75
497.094	74.75
497.312	80.75
497.529	89.75
497.746	62.75
497.963	81.75
498.181	68.75
498.398	88.75
498.615	82.75
498.832	84.75
499.049	75.75
499.267	69.75
499.484	64.75
499.701	83.75
499.918	92.75
500.135	81.75
500.352	80.75
500.569	102.75
500.786	89.75
501.003	80.75
501.22	79.75
501.437	85.75
501.654	85.75
501.871	95.75
502.088	86.75
502.305	86.75
502.522	81.75
502.739	83.75
502.956	89.75
503.172	80.75
503.389	78.75
503.606	85.75
503.823	84.75
504.04	84.75
504.256	77.75
504.473	85.75
504.69	73.75
504.907	93.75
505.123	86.75
505.34	80.75
505.557	86.75
505.773	90.75
505.99	79.75
506.207	70.75
506.423	84.75
506.64	71.75
506.856	75.75
507.073	80.75
507.289	78.75
507.506	81.75
507.722	77.75
507.939	82.75
508.155	100.75
508.372	86.75
508.588	73.75
508.805	89.75
509.021	71.75
509.238	87.75
509.454	74.75
509.67	84.75
509.887	87.75
510.103	65.75
510.319	88.75
510.536	79.75
510.752	77.75
510.968	78.75
511.184	88.75
511.401	94.75
511.617	64.75
511.833	70.75
512.049	85.75
512.265	76.75
512.481	84.75
512.698	78.75
512.914	73.75
513.13	93.75
513.346	72.75
513.562	79.75
513.778	75.75
513.994	73.75
514.21	90.75
514.426	88.75
514.642	82.75
514.858	87.75
515.074	80.75
515.29	94.75
515.506	80.75
515.721	83.75
515.937	81.75
516.153	90.75
516.369	74.75
516.585	78.75
516.801	82.75
517.016	93.75
517.232	84.75
517.448	87.75
517.664	84.75
517.879	72.75
518.095	79.75
518.311	75.75
518.527	84.75
518.742	76.75
518.958	83.75
519.173	80.75
519.389	87.75
519.605	90.75
519.82	82.75
520.036	85.75
520.251	73.75
520.467	80.75
520.682	84.75
520.898	84.75
521.113	69.75
521.329	89.75
521.544	83.75
521.76	80.75
521.975	85.75
522.19	80.75
522.406	79.75
522.621	89.75
522.836	78.75
523.052	62.75
523.267	77.75
523.482	90.75
523.698	68.75
523.913	93.75
524.128	84.75
524.343	69.75
524.559	84.75
524.774	86.75
524.989	71.75
525.204	87.75
525.419	73.75
525.634	84.75
525.849	106.75
526.064	86.75
526.28	84.75
526.495	75.75
526.71	84.75
526.925	64.75
527.14	80.75
527.355	82.75
527.57	92.75
527.785	86.75
527.999	81.75
528.214	82.75
528.429	89.75
528.644	65.75
528.859	76.75
529.074	83.75
529.289	98.75
529.503	68.75
529.718	75.75
529.933	81.75
530.148	79.75
530.363	99.75
530.577	86.75
530.792	78.75
531.007	80.75
531.221	65.75
531.436	82.75
531.651	84.75
531.865	85.75
532.08	86.75
532.295	103.75
532.509	84.75
532.724	81.75
532.938	92.75
533.153	74.75
533.367	74.75
533.582	93.75
533.796	72.75
534.011	79.75
534.225	71.75
534.44	95.75
534.654	92.75
534.868	87.75
535.083	74.75
535.297	78.75
535.511	83.75
535.726	84.75
535.94	93.75
536.154	84.75
536.369	84.75
536.583	71.75
536.797	81.75
537.011	71.75
537.225	87.75
537.44	73.75
537.654	75.75
537.868	96.75
538.082	80.75
538.296	69.75
538.51	76.75
538.724	77.75
538.938	94.75
539.153	87.75
539.367	85.75
539.581	89.75
539.795	83.75
540.009	85.75
540.222	71.75
540.436	88.75
540.65	87.75
540.864	78.75
541.078	81.75
541.292	80.75
541.506	92.75
541.72	80.75
541.934	79.75
542.147	77.75
542.361	80.75
542.575	85.75
542.789	94.75
543.002	89.75
543.216	81.75
543.43	95.75
543.644	84.75
543.857	95.75
544.071	72.75
544.285	89.75
544.498	84.75
544.712	58.75
544.925	79.75
545.139	74.75
545.352	80.75
545.566	83.75
545.779	88.75
545.993	73.75
546.206	80.75
546.42	78.75
546.633	90.75
546.847	80.75
547.06	91.75
547.274	101.75
547.487	87.75
547.7	97.75
547.914	90.75
548.127	85.75
548.34	78.75
548.554	69.75
548.767	83.75
548.98	82.75
549.193	85.75
549.407	89.75
549.62	77.75
549.833	70.75
550.046	72.75
550.259	75.75
550.473	86.75
550.686	91.75
550.899	89.75
551.112	83.75
551.325	76.75
551.538	78.75
551.751	86.75
551.964	86.75
552.177	83.75
552.39	80.75
552.603	82.75
552.816	81.75
553.029	69.75
553.242	88.75
553.455	85.75
553.667	68.75
553.88	73.75
554.093	81.75
554.306	79.75
554.519	92.75
554.732	78.75
554.944	70.75
555.157	77.75
555.37	90.75
555.583	83.75
555.795	80.75
556.008	72.75
556.221	71.75
556.433	82.75
556.646	92.75
556.859	72.75
557.071	83.75
557.284	85.75
557.496	64.75
557.709	84.75
557.921	94.75
558.134	73.75
558.346	80.75
558.559	82.75
558.771	92.75
558.984	87.75
559.196	82.75
559.409	93.75
559.621	90.75
559.833	73.75
560.046	69.75
560.258	77.75
560.47	88.75
560.683	84.75
560.895	73.75
561.107	73.75
561.32	64.75
561.532	83.75
561.744	88.75
561.956	79.75
562.168	74.75
562.381	95.75
562.593	82.75
562.805	87.75
563.017	66.75
563.229	98.75
563.441	67.75
563.653	97.75
563.865	71.75
564.077	76.75
564.289	77.75
564.501	87.75
564.713	103.75
564.925	73.75
565.137	77.75
565.349	96.75
565.561	85.75
565.773	87.75
565.985	94.75
566.197	67.75
566.408	80.75
566.62	87.75
566.832	77.75
567.044	85.75
567.255	82.75
567.467	87.75
567.679	88.75
567.891	76.75
568.102	75.75
568.314	87.75
568.526	79.75
568.737	86.75
568.949	83.75
569.161	82.75
569.372	85.75
569.584	82.75
569.795	73.75
570.007	86.75
570.218	83.75
570.43	86.75
570.641	96.75
570.853	80.75
571.064	92.75
571.276	85.75
571.487	90.75
571.698	86.75
571.91	79.75
572.121	81.75
572.333	89.75
572.544	73.75
572.755	82.75
572.966	92.75
573.178	83.75
573.389	74.75
573.6	89.75
573.811	72.75
574.023	72.75
574.234	83.75
574.445	104.75
574.656	75.75
574.867	86.75
575.078	90.75
575.289	81.75
575.501	73.75
575.712	79.75
575.923	70.75
576.134	79.75
576.345	72.75
576.556	84.75
576.767	88.75
576.978	71.75
577.188	83.75
577.399	88.75
577.61	78.75
577.821	82.75
578.032	63.75
578.243	95.75
578.454	85.75
578.665	97.75
578.875	87.75
579.086	101.75
579.297	76.75
579.508	96.75
579.718	84.75
579.929	81.75
580.14	72.75
580.35	84.75
580.561	102.75
580.772	82.75
580.982	82.75
581.193	90.75
581.403	84.75
581.614	71.75
581.825	81.75
582.035	74.75
582.246	81.75
582.456	80.75
582.667	85.75
582.877	76.75
583.087	74.75
583.298	82.75
583.508	76.75
583.719	80.75
583.929	88.75
584.139	87.75
584.35	86.75
584.56	90.75
584.77	98.75
584.981	81.75
585.191	73.75
585.401	75.75
585.611	66.75
585.821	85.75
586.032	86.75
586.242	87.75
586.452	65.75
586.662	86.75
586.872	80.75
587.082	86.75
587.292	64.75
587.502	80.75
587.713	94.75
587.923	89.75
588.133	84.75
588.343	88.75
588.553	86.75
588.762	81.75
588.972	97.75
589.182	170.75
589.392	136.75
589.602	116.75
589.812	157.75
590.022	115.75
590.232	86.75
590.441	66.75
590.651	89.75
590.861	96.75
591.071	96.75
591.281	86.75
591.49	92.75
591.7	75.75
591.91	86.75
592.119	75.75
592.329	79.75
592.539	89.75
592.748	93.75
592.958	90.75
593.167	80.75
593.377	87.75
593.587	90.75
593.796	93.75
594.006	98.75
594.215	81.75
594.424	74.75
594.634	74.75
594.843	79.75
595.053	74.75
595.262	87.75
595.472	66.75
595.681	86.75
595.89	86.75
596.1	82.75
596.309	82.75
596.518	84.75
596.727	85.75
596.937	80.75
597.146	76.75
597.355	83.75
597.564	94.75
597.774	73.75
597.983	78.75
598.192	75.75
598.401	74.75
598.61	80.75
598.819	72.75
599.028	85.75
599.237	76.75
599.446	76.75
599.655	76.75
599.864	85.75
600.073	64.75
600.282	76.75
600.491	83.75
600.7	74.75
600.909	80.75
601.118	90.75
601.327	77.75
601.536	84.75
601.745	84.75
601.953	89.75
602.162	82.75
602.371	75.75
602.58	85.75
602.789	74.75
602.997	92.75
603.206	77.75
603.415	87.75
603.623	80.75
603.832	86.75
604.041	81.75
604.249	83.75
604.458	101.75
604.666	80.75
604.875	78.75
605.084	80.75
605.292	85.75
605.501	79.75
605.709	91.75
605.918	65.75
606.126	81.75
606.334	89.75
606.543	100.75
606.751	80.75
606.96	83.75
607.168	89.75
607.376	93.75
607.585	76.75
607.793	84.75
608.001	88.75
608.21	68.75
608.418	99.75
608.626	76.75
608.834	73.75
609.043	65.75
609.251	73.75
609.459	79.75
609.667	82.75
609.875	86.75
610.083	89.75
610.291	84.75
610.499	76.75
610.707	88.75
610.916	80.75
611.124	70.75
611.332	85.75
611.54	85.75
611.748	81.75
611.955	82.75
612.163	70.75
612.371	90.75
612.579	69.75
612.787	86.75
612.995	88.75
613.203	83.75
613.411	74.75
613.618	88.75
613.826	89.75
614.034	85.75
614.242	83.75
614.449	81.75
614.657	81.75
614.865	77.75
615.072	62.75
615.28	87.75
615.488	93.75
615.695	69.75
615.903	65.75
616.111	84.75
616.318	73.75
616.526	86.75
616.733	86.75
616.941	86.75
617.148	93.75
617.356	88.75
617.563	94.75
617.771	81.75
617.978	89.75
618.185	85.75
618.393	93.75
618.6	89.75
618.807	80.75
619.015	83.75
619.222	80.75
619.429	80.75
619.637	65.75
619.844	80.75
620.051	72.75
620.258	76.75
620.466	87.75
620.673	88.75
620.88	80.75
621.087	87.75
621.294	79.75
621.501	88.75
621.708	81.75
621.915	92.75
622.122	81.75
622.329	76.75
622.536	82.75
622.743	73.75
622.95	80.75
623.157	86.75
623.364	80.75
623.571	73.75
623.778	98.75
623.985	80.75
624.192	75.75
624.399	69.75
624.606	78.75
624.812	85.75
625.019	69.75
625.226	79.75
625.433	74.75
625.639	71.75
625.846	82.75
626.053	89.75
626.259	82.75
626.466	84.75
626.673	86.75
626.879	80.75
627.086	88.75
627.293	81.75
627.499	85.75
627.706	79.75
627.912	78.75
628.119	84.75
628.325	89.75
628.532	80.75
628.738	89.75
628.945	85.75
629.151	79.75
629.357	85.75
629.564	74.75
629.77	92.75
629.976	76.75
630.183	71.75
630.389	69.75
630.595	80.75
630.802	88.75
631.008	75.75
631.214	73.75
631.42	76.75
631.627	72.75
631.833	82.75
632.039	72.75
632.245	73.75
632.451	83.75
632.657	90.75
632.863	84.75
633.069	79.75
633.275	93.75
633.481	77.75
633.688	82.75
633.893	90.75
634.099	83.75
634.305	71.75
634.511	83.75
634.717	81.75
634.923	74.75
635.129	80.75
635.335	87.75
635.541	86.75
635.747	73.75
635.952	69.75
636.158	80.75
636.364	76.75
636.57	81.75
636.775	82.75
636.981	89.75
637.187	84.75
637.392	84.75
637.598	97.75
637.804	97.75
638.009	82.75
638.215	82.75
638.421	79.75
638.626	84.75
638.832	82.75
639.037	97.75
639.243	76.75
639.448	73.75
639.654	80.75
639.859	86.75
640.065	80.75
640.27	84.75
640.475	68.75
640.681	82.75
640.886	96.75
641.091	78.75
641.297	82.75
641.502	80.75
641.707	88.75
641.913	83.75
642.118	81.75
642.323	81.75
642.528	72.75
642.733	78.75
642.939	73.75
643.144	100.75
643.349	81.75
643.554	74.75
643.759	83.75
643.964	66.75
644.169	78.75
644.374	86.75
644.579	81.75
644.784	80.75
644.989	69.75
645.194	90.75
645.399	92.75
645.604	88.75
645.809	88.75
646.014	75.75
646.219	71.75
646.423	69.75
646.628	73.75
646.833	86.75
647.038	89.75
647.243	85.75
647.447	81.75
647.652	76.75
647.857	94.75
648.062	61.75
648.266	77.75
648.471	88.75
648.676	93.75
648.88	87.75
649.085	76.75
649.289	76.75
649.494	66.75
649.698	71.75
649.903	61.75
650.107	69.75
650.312	87.75
650.516	72.75
650.721	73.75
650.925	90.75
651.13	81.75
651.334	98.75
651.539	70.75
651.743	87.75
651.947	75.75
652.152	80.75
652.356	86.75
652.56	69.75
652.764	92.75
652.969	89.75
653.173	91.75
653.377	80.75
653.581	77.75
653.785	78.75
653.99	84.75
654.194	78.75
654.398	95.75
654.602	86.75
654.806	87.75
655.01	72.75
655.214	82.75
655.418	72.75
655.622	74.75
655.826	75.75
656.03	91.75
656.234	90.75
656.438	85.75
656.642	81.75
656.846	89.75
657.049	82.75
657.253	93.75
657.457	85.75
657.661	88.75
657.865	78.75
658.068	84.75
658.272	77.75
658.476	79.75
658.68	85.75
658.883	80.75
659.087	82.75
659.291	92.75
659.494	80.75
659.698	71.75
659.901	80.75
660.105	78.75
660.309	74.75
660.512	88.75
660.716	85.75
660.919	84.75
661.123	95.75
661.326	70.75
661.53	81.75
661.733	72.75
661.936	98.75
662.14	92.75
662.343	103.75
662.546	83.75
662.75	86.75
662.953	77.75
663.156	72.75
663.36	78.75
663.563	70.75
663.766	73.75
663.969	65.75
664.173	83.75
664.376	88.75
664.579	78.75
664.782	80.75
664.985	75.75
665.188	76.75
665.391	81.75
665.594	71.75
665.797	86.75
666	76.75
666.203	80.75
666.406	91.75
666.609	73.75
666.812	73.75
667.015	73.75
667.218	89.75
667.421	70.75
667.624	75.75
667.827	83.75
668.03	96.75
668.232	85.75
668.435	88.75
668.638	80.75
668.841	80.75
669.043	66.75
669.246	71.75
669.449	86.75
669.651	87.75
669.854	80.75
670.057	85.75
670.259	88.75
670.462	86.75
670.665	85.75
670.867	69.75
671.07	78.75
671.272	76.75
671.475	80.75
671.677	77.75
671.88	71.75
672.082	83.75
672.284	74.75
672.487	78.75
672.689	77.75
672.892	74.75
