Data from Lead_15_2_HRD10591_00089.txt Node
Date: Fri Feb 20 11:07:26 EST 2026
User: Yrep
Spectrometer: HR+D1059
Trigger mode: 1
Integration Time (sec): 1.000000E-1
Scans to average: 1
Electric dark correction enabled: true
Nonlinearity correction enabled: false
Boxcar width: 0
XAxis mode: Wavelengths
Number of Pixels in Spectrum: 2048
>>>>>Begin Spectral Data<<<<<
223.165	-11.69
223.4	-11.69
223.635	-11.69
223.869	-13.69
224.104	-26.69
224.338	-20.69
224.573	-13.69
224.808	-23.69
225.042	-8.69
225.277	-7.69
225.511	-2.69
225.746	3.31
225.98	2.31
226.215	7.31
226.449	16.31
226.683	36.31
226.918	28.31
227.152	35.31
227.387	35.31
227.621	47.31
227.856	44.31
228.09	58.31
228.324	54.31
228.559	62.31
228.793	52.31
229.027	70.31
229.262	71.31
229.496	67.31
229.73	57.31
229.964	58.31
230.199	70.31
230.433	82.31
230.667	78.31
230.901	79.31
231.136	77.31
231.37	79.31
231.604	89.31
231.838	62.31
232.072	78.31
232.306	82.31
232.541	74.31
232.775	93.31
233.009	80.31
233.243	87.31
233.477	89.31
233.711	68.31
233.945	84.31
234.179	82.31
234.413	86.31
234.647	72.31
234.881	76.31
235.115	83.31
235.349	81.31
235.583	73.31
235.817	77.31
236.051	79.31
236.285	76.31
236.519	81.31
236.753	78.31
236.987	87.31
237.221	96.31
237.455	88.31
237.689	95.31
237.922	91.31
238.156	75.31
238.39	71.31
238.624	71.31
238.858	73.31
239.091	76.31
239.325	60.31
239.559	72.31
239.793	67.31
240.027	72.31
240.26	75.31
240.494	77.31
240.728	81.31
240.961	81.31
241.195	62.31
241.429	73.31
241.662	85.31
241.896	81.31
242.13	75.31
242.363	84.31
242.597	67.31
242.83	83.31
243.064	75.31
243.298	79.31
243.531	80.31
243.765	81.31
243.998	80.31
244.232	70.31
244.465	88.31
244.699	85.31
244.932	69.31
245.166	80.31
245.399	94.31
245.633	73.31
245.866	80.31
246.099	82.31
246.333	73.31
246.566	74.31
246.8	80.31
247.033	76.31
247.266	72.31
247.5	78.31
247.733	73.31
247.966	64.31
248.2	64.31
248.433	84.31
248.666	84.31
248.899	98.31
249.133	65.31
249.366	77.31
249.599	92.31
249.832	84.31
250.066	98.31
250.299	70.31
250.532	83.31
250.765	78.31
250.998	76.31
251.231	62.31
251.465	75.31
251.698	71.31
251.931	63.31
252.164	79.31
252.397	77.31
252.63	88.31
252.863	62.31
253.096	80.31
253.329	80.31
253.562	77.31
253.795	91.31
254.028	82.31
254.261	80.31
254.494	78.31
254.727	73.31
254.96	82.31
255.193	80.31
255.426	85.31
255.659	80.31
255.892	88.31
256.124	72.31
256.357	87.31
256.59	90.31
256.823	74.31
257.056	71.31
257.289	82.31
257.521	77.31
257.754	74.31
257.987	75.31
258.22	67.31
258.452	80.31
258.685	82.31
258.918	68.31
259.151	93.31
259.383	86.31
259.616	72.31
259.849	73.31
260.081	82.31
260.314	74.31
260.547	95.31
260.779	78.31
261.012	80.31
261.244	81.31
261.477	88.31
261.71	73.31
261.942	73.31
262.175	79.31
262.407	73.31
262.64	74.31
262.872	72.31
263.105	77.31
263.337	87.31
263.57	90.31
263.802	77.31
264.035	73.31
264.267	79.31
264.499	83.31
264.732	88.31
264.964	84.31
265.197	90.31
265.429	86.31
265.661	79.31
265.894	73.31
266.126	73.31
266.358	85.31
266.591	103.31
266.823	72.31
267.055	77.31
267.287	87.31
267.52	97.31
267.752	79.31
267.984	105.31
268.216	84.31
268.448	91.31
268.681	82.31
268.913	80.31
269.145	64.31
269.377	86.31
269.609	80.31
269.841	78.31
270.073	75.31
270.306	90.31
270.538	82.31
270.77	61.31
271.002	85.31
271.234	86.31
271.466	94.31
271.698	95.31
271.93	84.31
272.162	82.31
272.394	82.31
272.626	69.31
272.858	82.31
273.09	86.31
273.322	94.31
273.553	88.31
273.785	94.31
274.017	80.31
274.249	76.31
274.481	74.31
274.713	80.31
274.945	91.31
275.176	82.31
275.408	71.31
275.64	73.31
275.872	87.31
276.104	81.31
276.335	87.31
276.567	85.31
276.799	77.31
277.031	78.31
277.262	80.31
277.494	82.31
277.726	85.31
277.957	90.31
278.189	73.31
278.421	89.31
278.652	89.31
278.884	70.31
279.115	68.31
279.347	75.31
279.579	65.31
279.81	79.31
280.042	71.31
280.273	85.31
280.505	82.31
280.736	80.31
280.968	81.31
281.199	86.31
281.431	74.31
281.662	83.31
281.894	94.31
282.125	83.31
282.356	80.31
282.588	82.31
282.819	91.31
283.051	79.31
283.282	79.31
283.513	79.31
283.745	74.31
283.976	85.31
284.207	92.31
284.439	95.31
284.67	90.31
284.901	72.31
285.132	89.31
285.364	96.31
285.595	76.31
285.826	84.31
286.057	82.31
286.288	82.31
286.52	76.31
286.751	68.31
286.982	86.31
287.213	82.31
287.444	71.31
287.675	90.31
287.906	82.31
288.138	92.31
288.369	94.31
288.6	90.31
288.831	94.31
289.062	84.31
289.293	73.31
289.524	73.31
289.755	76.31
289.986	85.31
290.217	83.31
290.448	77.31
290.679	89.31
290.91	88.31
291.141	99.31
291.371	88.31
291.602	75.31
291.833	74.31
292.064	93.31
292.295	95.31
292.526	82.31
292.757	96.31
292.987	96.31
293.218	77.31
293.449	82.31
293.68	71.31
293.91	84.31
294.141	90.31
294.372	96.31
294.603	90.31
294.833	81.31
295.064	79.31
295.295	92.31
295.525	71.31
295.756	83.31
295.987	77.31
296.217	88.31
296.448	88.31
296.679	89.31
296.909	71.31
297.14	77.31
297.37	82.31
297.601	87.31
297.831	82.31
298.062	99.31
298.292	77.31
298.523	80.31
298.753	88.31
298.984	90.31
299.214	84.31
299.445	77.31
299.675	73.31
299.905	78.31
300.136	70.31
300.366	79.31
300.597	74.31
300.827	90.31
301.057	97.31
301.288	91.31
301.518	86.31
301.748	86.31
301.979	111.31
302.209	85.31
302.439	90.31
302.669	76.31
302.9	67.31
303.13	89.31
303.36	88.31
303.59	77.31
303.82	88.31
304.051	70.31
304.281	92.31
304.511	80.31
304.741	78.31
304.971	86.31
305.201	80.31
305.431	98.31
305.661	82.31
305.891	80.31
306.121	105.31
306.352	98.31
306.582	85.31
306.812	87.31
307.042	94.31
307.272	85.31
307.502	97.31
307.731	76.31
307.961	75.31
308.191	87.31
308.421	88.31
308.651	65.31
308.881	94.31
309.111	86.31
309.341	86.31
309.571	97.31
309.8	94.31
310.03	79.31
310.26	77.31
310.49	87.31
310.72	83.31
310.949	67.31
311.179	82.31
311.409	88.31
311.639	98.31
311.868	94.31
312.098	93.31
312.328	99.31
312.557	80.31
312.787	85.31
313.017	72.31
313.246	80.31
313.476	75.31
313.706	89.31
313.935	81.31
314.165	95.31
314.394	76.31
314.624	70.31
314.853	91.31
315.083	85.31
315.312	94.31
315.542	88.31
315.771	93.31
316.001	87.31
316.23	84.31
316.46	70.31
316.689	65.31
316.919	89.31
317.148	72.31
317.377	80.31
317.607	86.31
317.836	94.31
318.065	86.31
318.295	82.31
318.524	82.31
318.753	83.31
318.983	68.31
319.212	93.31
319.441	92.31
319.67	83.31
319.9	82.31
320.129	83.31
320.358	82.31
320.587	79.31
320.816	74.31
321.046	89.31
321.275	89.31
321.504	85.31
321.733	90.31
321.962	90.31
322.191	81.31
322.42	82.31
322.649	81.31
322.878	97.31
323.108	88.31
323.337	86.31
323.566	81.31
323.795	88.31
324.024	82.31
324.253	89.31
324.482	96.31
324.71	86.31
324.939	82.31
325.168	83.31
325.397	96.31
325.626	89.31
325.855	91.31
326.084	86.31
326.313	92.31
326.542	79.31
326.77	85.31
326.999	84.31
327.228	80.31
327.457	87.31
327.686	90.31
327.914	94.31
328.143	76.31
328.372	90.31
328.6	78.31
328.829	84.31
329.058	84.31
329.287	79.31
329.515	89.31
329.744	86.31
329.972	80.31
330.201	76.31
330.43	76.31
330.658	87.31
330.887	81.31
331.115	76.31
331.344	87.31
331.572	95.31
331.801	96.31
332.03	80.31
332.258	85.31
332.486	78.31
332.715	97.31
332.943	79.31
333.172	76.31
333.4	85.31
333.629	85.31
333.857	84.31
334.085	92.31
334.314	87.31
334.542	81.31
334.771	89.31
334.999	84.31
335.227	78.31
335.455	78.31
335.684	75.31
335.912	78.31
336.14	83.31
336.369	86.31
336.597	84.31
336.825	83.31
337.053	87.31
337.281	73.31
337.51	81.31
337.738	82.31
337.966	87.31
338.194	77.31
338.422	94.31
338.65	96.31
338.878	85.31
339.106	84.31
339.334	82.31
339.562	85.31
339.79	74.31
340.018	88.31
340.246	85.31
340.474	85.31
340.702	80.31
340.93	89.31
341.158	80.31
341.386	89.31
341.614	66.31
341.842	73.31
342.07	83.31
342.298	93.31
342.526	79.31
342.754	80.31
342.981	92.31
343.209	92.31
343.437	106.31
343.665	92.31
343.893	74.31
344.12	78.31
344.348	76.31
344.576	74.31
344.804	74.31
345.031	82.31
345.259	87.31
345.487	81.31
345.714	67.31
345.942	76.31
346.17	82.31
346.397	89.31
346.625	76.31
346.853	82.31
347.08	105.31
347.308	79.31
347.535	88.31
347.763	90.31
347.99	73.31
348.218	88.31
348.445	90.31
348.673	75.31
348.9	88.31
349.128	89.31
349.355	79.31
349.583	98.31
349.81	87.31
350.037	85.31
350.265	82.31
350.492	85.31
350.72	71.31
350.947	83.31
351.174	89.31
351.402	75.31
351.629	96.31
351.856	85.31
352.083	76.31
352.311	102.31
352.538	86.31
352.765	81.31
352.992	108.31
353.22	86.31
353.447	77.31
353.674	84.31
353.901	96.31
354.128	88.31
354.355	99.31
354.583	70.31
354.81	80.31
355.037	78.31
355.264	78.31
355.491	95.31
355.718	80.31
355.945	94.31
356.172	83.31
356.399	80.31
356.626	75.31
356.853	98.31
357.08	102.31
357.307	77.31
357.534	80.31
357.761	94.31
357.988	86.31
358.215	81.31
358.441	81.31
358.668	87.31
358.895	83.31
359.122	66.31
359.349	80.31
359.576	82.31
359.802	88.31
360.029	95.31
360.256	86.31
360.483	86.31
360.709	72.31
360.936	88.31
361.163	86.31
361.39	74.31
361.616	98.31
361.843	87.31
362.07	85.31
362.296	86.31
362.523	80.31
362.749	74.31
362.976	83.31
363.203	84.31
363.429	85.31
363.656	85.31
363.882	76.31
364.109	81.31
364.335	84.31
364.562	81.31
364.788	78.31
365.015	88.31
365.241	75.31
365.468	70.31
365.694	75.31
365.92	87.31
366.147	93.31
366.373	93.31
366.599	80.31
366.826	72.31
367.052	73.31
367.278	80.31
367.505	82.31
367.731	86.31
367.957	94.31
368.184	74.31
368.41	86.31
368.636	82.31
368.862	93.31
369.089	86.31
369.315	82.31
369.541	89.31
369.767	68.31
369.993	75.31
370.219	72.31
370.445	90.31
370.672	75.31
370.898	68.31
371.124	83.31
371.35	76.31
371.576	84.31
371.802	103.31
372.028	85.31
372.254	81.31
372.48	77.31
372.706	77.31
372.932	88.31
373.158	74.31
373.384	86.31
373.61	86.31
373.835	92.31
374.061	82.31
374.287	74.31
374.513	84.31
374.739	80.31
374.965	85.31
375.191	92.31
375.416	69.31
375.642	63.31
375.868	79.31
376.094	87.31
376.319	83.31
376.545	82.31
376.771	82.31
376.997	67.31
377.222	82.31
377.448	76.31
377.674	87.31
377.899	100.31
378.125	77.31
378.35	90.31
378.576	91.31
378.802	94.31
379.027	84.31
379.253	90.31
379.478	84.31
379.704	75.31
379.929	88.31
380.155	82.31
380.38	86.31
380.606	77.31
380.831	83.31
381.057	90.31
381.282	79.31
381.507	80.31
381.733	76.31
381.958	71.31
382.184	81.31
382.409	88.31
382.634	88.31
382.86	77.31
383.085	84.31
383.31	73.31
383.535	83.31
383.761	76.31
383.986	89.31
384.211	84.31
384.436	80.31
384.662	86.31
384.887	75.31
385.112	87.31
385.337	79.31
385.562	93.31
385.787	83.31
386.013	82.31
386.238	88.31
386.463	82.31
386.688	90.31
386.913	88.31
387.138	69.31
387.363	70.31
387.588	86.31
387.813	79.31
388.038	85.31
388.263	79.31
388.488	94.31
388.713	91.31
388.938	78.31
389.163	78.31
389.387	72.31
389.612	76.31
389.837	89.31
390.062	86.31
390.287	75.31
390.512	73.31
390.736	87.31
390.961	84.31
391.186	80.31
391.411	91.31
391.636	73.31
391.86	76.31
392.085	88.31
392.31	79.31
392.534	73.31
392.759	81.31
392.984	82.31
393.208	87.31
393.433	78.31
393.658	83.31
393.882	86.31
394.107	63.31
394.331	84.31
394.556	71.31
394.78	64.31
395.005	78.31
395.229	71.31
395.454	79.31
395.678	84.31
395.903	98.31
396.127	97.31
396.352	74.31
396.576	64.31
396.801	92.31
397.025	100.31
397.249	76.31
397.474	77.31
397.698	66.31
397.922	79.31
398.147	84.31
398.371	77.31
398.595	82.31
398.82	80.31
399.044	79.31
399.268	73.31
399.492	76.31
399.717	77.31
399.941	82.31
400.165	98.31
400.389	92.31
400.613	90.31
400.837	102.31
401.062	87.31
401.286	90.31
401.51	94.31
401.734	86.31
401.958	98.31
402.182	72.31
402.406	89.31
402.63	84.31
402.854	94.31
403.078	83.31
403.302	81.31
403.526	71.31
403.75	80.31
403.974	69.31
404.198	74.31
404.422	86.31
404.645	97.31
404.869	80.31
405.093	84.31
405.317	83.31
405.541	95.31
405.765	97.31
405.988	87.31
406.212	76.31
406.436	72.31
406.66	84.31
406.883	84.31
407.107	76.31
407.331	87.31
407.555	82.31
407.778	78.31
408.002	70.31
408.226	76.31
408.449	93.31
408.673	64.31
408.896	74.31
409.12	72.31
409.344	82.31
409.567	84.31
409.791	67.31
410.014	69.31
410.238	77.31
410.461	68.31
410.685	77.31
410.908	82.31
411.132	86.31
411.355	92.31
411.578	89.31
411.802	79.31
412.025	76.31
412.249	76.31
412.472	88.31
412.695	88.31
412.919	83.31
413.142	73.31
413.365	86.31
413.589	73.31
413.812	82.31
414.035	74.31
414.258	87.31
414.482	88.31
414.705	90.31
414.928	75.31
415.151	82.31
415.374	77.31
415.597	79.31
415.821	87.31
416.044	90.31
416.267	72.31
416.49	90.31
416.713	88.31
416.936	76.31
417.159	75.31
417.382	95.31
417.605	90.31
417.828	82.31
418.051	75.31
418.274	80.31
418.497	80.31
418.72	82.31
418.943	76.31
419.166	70.31
419.389	86.31
419.611	88.31
419.834	75.31
420.057	82.31
420.28	85.31
420.503	90.31
420.726	77.31
420.948	80.31
421.171	86.31
421.394	91.31
421.617	77.31
421.839	70.31
422.062	91.31
422.285	86.31
422.507	80.31
422.73	83.31
422.953	89.31
423.175	77.31
423.398	90.31
423.621	87.31
423.843	88.31
424.066	73.31
424.288	70.31
424.511	82.31
424.733	72.31
424.956	88.31
425.178	98.31
425.401	84.31
425.623	96.31
425.846	78.31
426.068	81.31
426.291	81.31
426.513	91.31
426.735	88.31
426.958	75.31
427.18	82.31
427.402	67.31
427.625	80.31
427.847	94.31
428.069	84.31
428.292	88.31
428.514	80.31
428.736	79.31
428.958	81.31
429.181	82.31
429.403	82.31
429.625	85.31
429.847	76.31
430.069	104.31
430.292	87.31
430.514	77.31
430.736	88.31
430.958	98.31
431.18	74.31
431.402	100.31
431.624	74.31
431.846	84.31
432.068	76.31
432.29	91.31
432.512	83.31
432.734	81.31
432.956	76.31
433.178	84.31
433.4	85.31
433.622	84.31
433.844	71.31
434.066	73.31
434.287	82.31
434.509	70.31
434.731	74.31
434.953	81.31
435.175	67.31
435.397	93.31
435.618	89.31
435.84	76.31
436.062	86.31
436.284	72.31
436.505	94.31
436.727	82.31
436.949	75.31
437.17	79.31
437.392	79.31
437.614	95.31
437.835	90.31
438.057	83.31
438.278	79.31
438.5	86.31
438.721	81.31
438.943	84.31
439.165	91.31
439.386	94.31
439.608	80.31
439.829	97.31
440.05	86.31
440.272	88.31
440.493	75.31
440.715	82.31
440.936	82.31
441.158	78.31
441.379	88.31
441.6	77.31
441.822	79.31
442.043	81.31
442.264	85.31
442.486	74.31
442.707	82.31
442.928	70.31
443.149	59.31
443.371	86.31
443.592	83.31
443.813	81.31
444.034	81.31
444.255	96.31
444.476	87.31
444.698	89.31
444.919	90.31
445.14	132.31
445.361	116.31
445.582	71.31
445.803	68.31
446.024	86.31
446.245	93.31
446.466	70.31
446.687	85.31
446.908	85.31
447.129	98.31
447.35	73.31
447.571	90.31
447.792	85.31
448.013	75.31
448.234	104.31
448.455	96.31
448.675	68.31
448.896	71.31
449.117	89.31
449.338	63.31
449.559	77.31
449.779	84.31
450	93.31
450.221	72.31
450.442	82.31
450.662	63.31
450.883	83.31
451.104	71.31
451.324	82.31
451.545	78.31
451.766	68.31
451.986	78.31
452.207	83.31
452.428	81.31
452.648	88.31
452.869	80.31
453.089	89.31
453.31	67.31
453.53	81.31
453.751	92.31
453.971	86.31
454.192	76.31
454.412	95.31
454.633	80.31
454.853	94.31
455.073	76.31
455.294	85.31
455.514	84.31
455.734	82.31
455.955	70.31
456.175	97.31
456.395	79.31
456.616	90.31
456.836	74.31
457.056	79.31
457.276	84.31
457.497	73.31
457.717	84.31
457.937	83.31
458.157	80.31
458.377	76.31
458.598	96.31
458.818	75.31
459.038	78.31
459.258	87.31
459.478	86.31
459.698	74.31
459.918	88.31
460.138	76.31
460.358	83.31
460.578	98.31
460.798	85.31
461.018	86.31
461.238	82.31
461.458	90.31
461.678	73.31
461.898	78.31
462.118	74.31
462.338	68.31
462.558	88.31
462.777	89.31
462.997	82.31
463.217	86.31
463.437	83.31
463.657	83.31
463.876	81.31
464.096	85.31
464.316	90.31
464.536	81.31
464.755	91.31
464.975	81.31
465.195	88.31
465.414	73.31
465.634	77.31
465.854	71.31
466.073	76.31
466.293	80.31
466.512	78.31
466.732	70.31
466.951	80.31
467.171	90.31
467.391	90.31
467.61	74.31
467.829	83.31
468.049	71.31
468.268	75.31
468.488	85.31
468.707	70.31
468.927	72.31
469.146	77.31
469.365	76.31
469.585	78.31
469.804	78.31
470.023	90.31
470.243	84.31
470.462	90.31
470.681	88.31
470.901	74.31
471.12	82.31
471.339	65.31
471.558	81.31
471.777	81.31
471.997	88.31
472.216	79.31
472.435	76.31
472.654	80.31
472.873	79.31
473.092	75.31
473.311	84.31
473.53	92.31
473.749	85.31
473.968	74.31
474.187	84.31
474.406	81.31
474.625	83.31
474.844	86.31
475.063	88.31
475.282	79.31
475.501	79.31
475.72	81.31
475.939	86.31
476.158	86.31
476.377	78.31
476.596	71.31
476.814	74.31
477.033	76.31
477.252	76.31
477.471	80.31
477.69	75.31
477.908	76.31
478.127	91.31
478.346	86.31
478.564	97.31
478.783	75.31
479.002	96.31
479.22	86.31
479.439	82.31
479.658	81.31
479.876	80.31
480.095	74.31
480.313	70.31
480.532	90.31
480.751	75.31
480.969	92.31
481.188	100.31
481.406	90.31
481.624	81.31
481.843	81.31
482.061	79.31
482.28	80.31
482.498	67.31
482.717	68.31
482.935	83.31
483.153	83.31
483.372	100.31
483.59	81.31
483.808	71.31
484.027	84.31
484.245	98.31
484.463	91.31
484.681	89.31
484.9	86.31
485.118	80.31
485.336	78.31
485.554	95.31
485.772	88.31
485.99	84.31
486.209	86.31
486.427	76.31
486.645	84.31
486.863	83.31
487.081	86.31
487.299	99.31
487.517	97.31
487.735	81.31
487.953	99.31
488.171	77.31
488.389	85.31
488.607	84.31
488.825	70.31
489.043	76.31
489.261	82.31
489.479	99.31
489.696	88.31
489.914	75.31
490.132	79.31
490.35	76.31
490.568	90.31
490.786	88.31
491.003	76.31
491.221	73.31
491.439	75.31
491.657	73.31
491.874	83.31
492.092	87.31
492.31	88.31
492.527	67.31
492.745	85.31
492.963	91.31
493.18	88.31
493.398	73.31
493.615	82.31
493.833	81.31
494.05	86.31
494.268	77.31
494.485	96.31
494.703	90.31
494.92	70.31
495.138	88.31
495.355	83.31
495.573	90.31
495.79	95.31
496.008	84.31
496.225	90.31
496.442	89.31
496.66	81.31
496.877	84.31
497.094	83.31
497.312	89.31
497.529	76.31
497.746	84.31
497.963	87.31
498.181	87.31
498.398	83.31
498.615	80.31
498.832	76.31
499.049	66.31
499.267	68.31
499.484	85.31
499.701	85.31
499.918	83.31
500.135	87.31
500.352	90.31
500.569	70.31
500.786	60.31
501.003	77.31
501.22	72.31
501.437	91.31
501.654	85.31
501.871	77.31
502.088	94.31
502.305	88.31
502.522	94.31
502.739	84.31
502.956	82.31
503.172	83.31
503.389	81.31
503.606	86.31
503.823	80.31
504.04	94.31
504.256	91.31
504.473	83.31
504.69	83.31
504.907	77.31
505.123	77.31
505.34	83.31
505.557	73.31
505.773	81.31
505.99	91.31
506.207	79.31
506.423	87.31
506.64	82.31
506.856	71.31
507.073	92.31
507.289	88.31
507.506	86.31
507.722	82.31
507.939	84.31
508.155	76.31
508.372	87.31
508.588	76.31
508.805	76.31
509.021	89.31
509.238	81.31
509.454	68.31
509.67	71.31
509.887	88.31
510.103	82.31
510.319	75.31
510.536	85.31
510.752	76.31
510.968	73.31
511.184	67.31
511.401	76.31
511.617	88.31
511.833	75.31
512.049	91.31
512.265	81.31
512.481	67.31
512.698	87.31
512.914	88.31
513.13	85.31
513.346	86.31
513.562	90.31
513.778	76.31
513.994	91.31
514.21	65.31
514.426	78.31
514.642	70.31
514.858	81.31
515.074	74.31
515.29	93.31
515.506	83.31
515.721	77.31
515.937	89.31
516.153	78.31
516.369	87.31
516.585	72.31
516.801	72.31
517.016	83.31
517.232	86.31
517.448	76.31
517.664	84.31
517.879	92.31
518.095	80.31
518.311	90.31
518.527	85.31
518.742	82.31
518.958	84.31
519.173	83.31
519.389	84.31
519.605	92.31
519.82	76.31
520.036	74.31
520.251	73.31
520.467	88.31
520.682	74.31
520.898	58.31
521.113	84.31
521.329	75.31
521.544	91.31
521.76	78.31
521.975	80.31
522.19	71.31
522.406	81.31
522.621	84.31
522.836	88.31
523.052	90.31
523.267	75.31
523.482	79.31
523.698	81.31
523.913	83.31
524.128	81.31
524.343	75.31
524.559	82.31
524.774	75.31
524.989	90.31
525.204	81.31
525.419	91.31
525.634	81.31
525.849	75.31
526.064	70.31
526.28	70.31
526.495	90.31
526.71	99.31
526.925	94.31
527.14	68.31
527.355	78.31
527.57	100.31
527.785	86.31
527.999	74.31
528.214	84.31
528.429	74.31
528.644	73.31
528.859	79.31
529.074	68.31
529.289	89.31
529.503	67.31
529.718	82.31
529.933	76.31
530.148	82.31
530.363	86.31
530.577	66.31
530.792	84.31
531.007	80.31
531.221	85.31
531.436	91.31
531.651	84.31
531.865	94.31
532.08	82.31
532.295	84.31
532.509	89.31
532.724	63.31
532.938	78.31
533.153	88.31
533.367	92.31
533.582	72.31
533.796	80.31
534.011	73.31
534.225	84.31
534.44	87.31
534.654	88.31
534.868	99.31
535.083	77.31
535.297	71.31
535.511	90.31
535.726	76.31
535.94	90.31
536.154	72.31
536.369	80.31
536.583	97.31
536.797	79.31
537.011	88.31
537.225	79.31
537.44	81.31
537.654	79.31
537.868	99.31
538.082	75.31
538.296	74.31
538.51	95.31
538.724	76.31
538.938	80.31
539.153	82.31
539.367	70.31
539.581	78.31
539.795	91.31
540.009	55.31
540.222	83.31
540.436	79.31
540.65	81.31
540.864	73.31
541.078	65.31
541.292	83.31
541.506	86.31
541.72	89.31
541.934	94.31
542.147	92.31
542.361	84.31
542.575	80.31
542.789	75.31
543.002	84.31
543.216	97.31
543.43	88.31
543.644	91.31
543.857	69.31
544.071	78.31
544.285	74.31
544.498	94.31
544.712	78.31
544.925	72.31
545.139	86.31
545.352	74.31
545.566	81.31
545.779	92.31
545.993	75.31
546.206	90.31
546.42	90.31
546.633	81.31
546.847	82.31
547.06	87.31
547.274	83.31
547.487	72.31
547.7	84.31
547.914	74.31
548.127	82.31
548.34	73.31
548.554	77.31
548.767	89.31
548.98	71.31
549.193	69.31
549.407	87.31
549.62	88.31
549.833	90.31
550.046	84.31
550.259	63.31
550.473	83.31
550.686	95.31
550.899	95.31
551.112	86.31
551.325	71.31
551.538	87.31
551.751	99.31
551.964	90.31
552.177	90.31
552.39	91.31
552.603	87.31
552.816	82.31
553.029	76.31
553.242	83.31
553.455	86.31
553.667	75.31
553.88	79.31
554.093	95.31
554.306	84.31
554.519	79.31
554.732	82.31
554.944	71.31
555.157	73.31
555.37	79.31
555.583	77.31
555.795	95.31
556.008	87.31
556.221	93.31
556.433	83.31
556.646	83.31
556.859	75.31
557.071	72.31
557.284	89.31
557.496	81.31
557.709	76.31
557.921	83.31
558.134	87.31
558.346	68.31
558.559	75.31
558.771	77.31
558.984	71.31
559.196	86.31
559.409	86.31
559.621	89.31
559.833	86.31
560.046	91.31
560.258	82.31
560.47	84.31
560.683	85.31
560.895	86.31
561.107	81.31
561.32	86.31
561.532	64.31
561.744	87.31
561.956	66.31
562.168	71.31
562.381	88.31
562.593	82.31
562.805	97.31
563.017	82.31
563.229	87.31
563.441	85.31
563.653	76.31
563.865	76.31
564.077	76.31
564.289	84.31
564.501	93.31
564.713	88.31
564.925	88.31
565.137	83.31
565.349	77.31
565.561	85.31
565.773	84.31
565.985	88.31
566.197	85.31
566.408	85.31
566.62	91.31
566.832	75.31
567.044	78.31
567.255	75.31
567.467	75.31
567.679	92.31
567.891	85.31
568.102	91.31
568.314	71.31
568.526	87.31
568.737	86.31
568.949	79.31
569.161	63.31
569.372	74.31
569.584	77.31
569.795	86.31
570.007	80.31
570.218	76.31
570.43	89.31
570.641	87.31
570.853	94.31
571.064	82.31
571.276	88.31
571.487	80.31
571.698	85.31
571.91	90.31
572.121	75.31
572.333	79.31
572.544	77.31
572.755	84.31
572.966	86.31
573.178	91.31
573.389	84.31
573.6	90.31
573.811	85.31
574.023	98.31
574.234	86.31
574.445	84.31
574.656	87.31
574.867	74.31
575.078	72.31
575.289	72.31
575.501	77.31
575.712	87.31
575.923	89.31
576.134	75.31
576.345	84.31
576.556	90.31
576.767	82.31
576.978	95.31
577.188	77.31
577.399	89.31
577.61	68.31
577.821	81.31
578.032	86.31
578.243	96.31
578.454	86.31
578.665	94.31
578.875	91.31
579.086	76.31
579.297	72.31
579.508	87.31
579.718	99.31
579.929	92.31
580.14	82.31
580.35	83.31
580.561	76.31
580.772	82.31
580.982	88.31
581.193	84.31
581.403	87.31
581.614	80.31
581.825	82.31
582.035	91.31
582.246	91.31
582.456	90.31
582.667	82.31
582.877	90.31
583.087	73.31
583.298	94.31
583.508	71.31
583.719	82.31
583.929	86.31
584.139	85.31
584.35	76.31
584.56	84.31
584.77	82.31
584.981	77.31
585.191	70.31
585.401	87.31
585.611	98.31
585.821	90.31
586.032	83.31
586.242	82.31
586.452	82.31
586.662	80.31
586.872	91.31
587.082	73.31
587.292	72.31
587.502	92.31
587.713	80.31
587.923	81.31
588.133	79.31
588.343	86.31
588.553	84.31
588.762	88.31
588.972	90.31
589.182	117.31
589.392	94.31
589.602	92.31
589.812	120.31
590.022	106.31
590.232	78.31
590.441	81.31
590.651	80.31
590.861	75.31
591.071	90.31
591.281	84.31
591.49	81.31
591.7	73.31
591.91	90.31
592.119	83.31
592.329	92.31
592.539	90.31
592.748	88.31
592.958	84.31
593.167	82.31
593.377	96.31
593.587	98.31
593.796	75.31
594.006	91.31
594.215	72.31
594.424	75.31
594.634	73.31
594.843	78.31
595.053	84.31
595.262	73.31
595.472	90.31
595.681	76.31
595.89	72.31
596.1	83.31
596.309	88.31
596.518	89.31
596.727	87.31
596.937	80.31
597.146	81.31
597.355	65.31
597.564	91.31
597.774	94.31
597.983	84.31
598.192	83.31
598.401	78.31
598.61	87.31
598.819	73.31
599.028	76.31
599.237	92.31
599.446	85.31
599.655	88.31
599.864	79.31
600.073	88.31
600.282	90.31
600.491	81.31
600.7	84.31
600.909	77.31
601.118	70.31
601.327	89.31
601.536	92.31
601.745	90.31
601.953	70.31
602.162	60.31
602.371	90.31
602.58	83.31
602.789	98.31
602.997	98.31
603.206	89.31
603.415	90.31
603.623	76.31
603.832	84.31
604.041	87.31
604.249	84.31
604.458	90.31
604.666	80.31
604.875	94.31
605.084	91.31
605.292	67.31
605.501	90.31
605.709	80.31
605.918	76.31
606.126	85.31
606.334	81.31
606.543	77.31
606.751	77.31
606.96	86.31
607.168	76.31
607.376	76.31
607.585	88.31
607.793	82.31
608.001	86.31
608.21	80.31
608.418	78.31
608.626	86.31
608.834	83.31
609.043	79.31
609.251	81.31
609.459	80.31
609.667	75.31
609.875	74.31
610.083	92.31
610.291	83.31
610.499	84.31
610.707	88.31
610.916	106.31
611.124	93.31
611.332	78.31
611.54	90.31
611.748	74.31
611.955	80.31
612.163	90.31
612.371	82.31
612.579	87.31
612.787	81.31
612.995	96.31
613.203	70.31
613.411	62.31
613.618	72.31
613.826	81.31
614.034	68.31
614.242	82.31
614.449	81.31
614.657	89.31
614.865	83.31
615.072	86.31
615.28	63.31
615.488	66.31
615.695	85.31
615.903	81.31
616.111	89.31
616.318	83.31
616.526	74.31
616.733	86.31
616.941	98.31
617.148	91.31
617.356	78.31
617.563	89.31
617.771	97.31
617.978	82.31
618.185	94.31
618.393	68.31
618.6	89.31
618.807	78.31
619.015	65.31
619.222	86.31
619.429	90.31
619.637	79.31
619.844	79.31
620.051	84.31
620.258	73.31
620.466	88.31
620.673	66.31
620.88	83.31
621.087	83.31
621.294	88.31
621.501	80.31
621.708	85.31
621.915	87.31
622.122	81.31
622.329	89.31
622.536	80.31
622.743	88.31
622.95	83.31
623.157	67.31
623.364	99.31
623.571	88.31
623.778	88.31
623.985	97.31
624.192	88.31
624.399	78.31
624.606	100.31
624.812	83.31
625.019	92.31
625.226	81.31
625.433	76.31
625.639	98.31
625.846	86.31
626.053	75.31
626.259	97.31
626.466	76.31
626.673	90.31
626.879	94.31
627.086	95.31
627.293	68.31
627.499	79.31
627.706	93.31
627.912	94.31
628.119	96.31
628.325	91.31
628.532	89.31
628.738	77.31
628.945	90.31
629.151	90.31
629.357	85.31
629.564	78.31
629.77	94.31
629.976	94.31
630.183	71.31
630.389	80.31
630.595	74.31
630.802	75.31
631.008	84.31
631.214	90.31
631.42	99.31
631.627	90.31
631.833	100.31
632.039	90.31
632.245	71.31
632.451	82.31
632.657	75.31
632.863	90.31
633.069	76.31
633.275	79.31
633.481	77.31
633.688	80.31
633.893	72.31
634.099	83.31
634.305	81.31
634.511	82.31
634.717	87.31
634.923	76.31
635.129	76.31
635.335	95.31
635.541	82.31
635.747	82.31
635.952	78.31
636.158	80.31
636.364	72.31
636.57	80.31
636.775	78.31
636.981	76.31
637.187	78.31
637.392	86.31
637.598	87.31
637.804	80.31
638.009	70.31
638.215	77.31
638.421	74.31
638.626	83.31
638.832	79.31
639.037	86.31
639.243	90.31
639.448	83.31
639.654	88.31
639.859	92.31
640.065	70.31
640.27	94.31
640.475	98.31
640.681	84.31
640.886	78.31
641.091	91.31
641.297	87.31
641.502	91.31
641.707	97.31
641.913	85.31
642.118	93.31
642.323	90.31
642.528	84.31
642.733	100.31
642.939	97.31
643.144	86.31
643.349	75.31
643.554	73.31
643.759	83.31
643.964	89.31
644.169	60.31
644.374	82.31
644.579	86.31
644.784	73.31
644.989	64.31
645.194	59.31
645.399	85.31
645.604	70.31
645.809	92.31
646.014	80.31
646.219	92.31
646.423	85.31
646.628	76.31
646.833	70.31
647.038	82.31
647.243	92.31
647.447	95.31
647.652	89.31
647.857	85.31
648.062	71.31
648.266	82.31
648.471	75.31
648.676	79.31
648.88	89.31
649.085	97.31
649.289	87.31
649.494	91.31
649.698	83.31
649.903	82.31
650.107	79.31
650.312	77.31
650.516	82.31
650.721	75.31
650.925	90.31
651.13	86.31
651.334	86.31
651.539	74.31
651.743	80.31
651.947	82.31
652.152	71.31
652.356	80.31
652.56	91.31
652.764	75.31
652.969	75.31
653.173	86.31
653.377	80.31
653.581	87.31
653.785	80.31
653.99	86.31
654.194	98.31
654.398	101.31
654.602	77.31
654.806	66.31
655.01	82.31
655.214	97.31
655.418	85.31
655.622	78.31
655.826	88.31
656.03	96.31
656.234	70.31
656.438	68.31
656.642	81.31
656.846	86.31
657.049	94.31
657.253	82.31
657.457	95.31
657.661	84.31
657.865	97.31
658.068	94.31
658.272	94.31
658.476	86.31
658.68	73.31
658.883	74.31
659.087	80.31
659.291	72.31
659.494	86.31
659.698	77.31
659.901	76.31
660.105	90.31
660.309	78.31
660.512	74.31
660.716	75.31
660.919	87.31
661.123	80.31
661.326	81.31
661.53	86.31
661.733	83.31
661.936	75.31
662.14	76.31
662.343	84.31
662.546	75.31
662.75	69.31
662.953	81.31
663.156	84.31
663.36	71.31
663.563	83.31
663.766	75.31
663.969	88.31
664.173	75.31
664.376	79.31
664.579	92.31
664.782	87.31
664.985	88.31
665.188	91.31
665.391	81.31
665.594	83.31
665.797	89.31
666	67.31
666.203	83.31
666.406	83.31
666.609	89.31
666.812	83.31
667.015	80.31
667.218	83.31
667.421	91.31
667.624	74.31
667.827	76.31
668.03	86.31
668.232	80.31
668.435	83.31
668.638	80.31
668.841	85.31
669.043	91.31
669.246	76.31
669.449	85.31
669.651	90.31
669.854	84.31
670.057	84.31
670.259	75.31
670.462	70.31
670.665	82.31
670.867	89.31
671.07	91.31
671.272	73.31
671.475	96.31
671.677	82.31
671.88	80.31
672.082	71.31
672.284	80.31
672.487	83.31
672.689	84.31
672.892	83.31
