Data from Lead_15_2_HRD10591_00060.txt Node
Date: Fri Feb 20 11:07:16 EST 2026
User: Yrep
Spectrometer: HR+D1059
Trigger mode: 1
Integration Time (sec): 1.000000E-1
Scans to average: 1
Electric dark correction enabled: true
Nonlinearity correction enabled: false
Boxcar width: 0
XAxis mode: Wavelengths
Number of Pixels in Spectrum: 2048
>>>>>Begin Spectral Data<<<<<
223.165	-28.44
223.4	-28.44
223.635	-28.44
223.869	-2.44
224.104	-10.44
224.338	-14.44
224.573	-20.44
224.808	-14.44
225.042	-4.44
225.277	5.56
225.511	-2.44
225.746	0.56
225.98	15.56
226.215	-6.44
226.449	5.56
226.683	21.56
226.918	24.56
227.152	30.56
227.387	31.56
227.621	33.56
227.856	44.56
228.09	52.56
228.324	45.56
228.559	55.56
228.793	59.56
229.027	69.56
229.262	64.56
229.496	65.56
229.73	63.56
229.964	79.56
230.199	57.56
230.433	72.56
230.667	73.56
230.901	62.56
231.136	70.56
231.37	70.56
231.604	97.56
231.838	80.56
232.072	69.56
232.306	74.56
232.541	75.56
232.775	66.56
233.009	69.56
233.243	83.56
233.477	76.56
233.711	84.56
233.945	86.56
234.179	75.56
234.413	76.56
234.647	89.56
234.881	82.56
235.115	78.56
235.349	79.56
235.583	69.56
235.817	71.56
236.051	69.56
236.285	82.56
236.519	73.56
236.753	78.56
236.987	74.56
237.221	69.56
237.455	67.56
237.689	62.56
237.922	77.56
238.156	84.56
238.39	79.56
238.624	81.56
238.858	66.56
239.091	69.56
239.325	65.56
239.559	72.56
239.793	61.56
240.027	82.56
240.26	69.56
240.494	79.56
240.728	82.56
240.961	73.56
241.195	86.56
241.429	71.56
241.662	72.56
241.896	66.56
242.13	92.56
242.363	77.56
242.597	77.56
242.83	77.56
243.064	81.56
243.298	68.56
243.531	67.56
243.765	76.56
243.998	74.56
244.232	68.56
244.465	71.56
244.699	75.56
244.932	83.56
245.166	77.56
245.399	63.56
245.633	69.56
245.866	63.56
246.099	75.56
246.333	77.56
246.566	65.56
246.8	73.56
247.033	69.56
247.266	77.56
247.5	76.56
247.733	72.56
247.966	68.56
248.2	63.56
248.433	77.56
248.666	81.56
248.899	85.56
249.133	90.56
249.366	83.56
249.599	68.56
249.832	67.56
250.066	63.56
250.299	70.56
250.532	77.56
250.765	77.56
250.998	86.56
251.231	87.56
251.465	83.56
251.698	80.56
251.931	82.56
252.164	77.56
252.397	77.56
252.63	73.56
252.863	77.56
253.096	82.56
253.329	63.56
253.562	71.56
253.795	76.56
254.028	88.56
254.261	75.56
254.494	76.56
254.727	75.56
254.96	64.56
255.193	71.56
255.426	79.56
255.659	83.56
255.892	82.56
256.124	84.56
256.357	65.56
256.59	72.56
256.823	82.56
257.056	75.56
257.289	89.56
257.521	90.56
257.754	71.56
257.987	78.56
258.22	81.56
258.452	77.56
258.685	73.56
258.918	76.56
259.151	87.56
259.383	99.56
259.616	90.56
259.849	82.56
260.081	89.56
260.314	84.56
260.547	85.56
260.779	70.56
261.012	74.56
261.244	71.56
261.477	82.56
261.71	81.56
261.942	85.56
262.175	73.56
262.407	83.56
262.64	69.56
262.872	76.56
263.105	68.56
263.337	77.56
263.57	73.56
263.802	83.56
264.035	67.56
264.267	70.56
264.499	75.56
264.732	71.56
264.964	77.56
265.197	86.56
265.429	63.56
265.661	67.56
265.894	76.56
266.126	83.56
266.358	72.56
266.591	75.56
266.823	88.56
267.055	89.56
267.287	69.56
267.52	67.56
267.752	69.56
267.984	67.56
268.216	69.56
268.448	88.56
268.681	83.56
268.913	80.56
269.145	92.56
269.377	94.56
269.609	62.56
269.841	71.56
270.073	69.56
270.306	87.56
270.538	83.56
270.77	78.56
271.002	76.56
271.234	85.56
271.466	77.56
271.698	77.56
271.93	95.56
272.162	80.56
272.394	82.56
272.626	87.56
272.858	86.56
273.09	92.56
273.322	87.56
273.553	72.56
273.785	86.56
274.017	101.56
274.249	79.56
274.481	79.56
274.713	74.56
274.945	78.56
275.176	74.56
275.408	79.56
275.64	78.56
275.872	78.56
276.104	92.56
276.335	80.56
276.567	85.56
276.799	94.56
277.031	75.56
277.262	81.56
277.494	83.56
277.726	68.56
277.957	81.56
278.189	69.56
278.421	84.56
278.652	78.56
278.884	69.56
279.115	93.56
279.347	75.56
279.579	89.56
279.81	78.56
280.042	88.56
280.273	75.56
280.505	71.56
280.736	83.56
280.968	81.56
281.199	91.56
281.431	78.56
281.662	95.56
281.894	77.56
282.125	85.56
282.356	79.56
282.588	74.56
282.819	82.56
283.051	73.56
283.282	74.56
283.513	91.56
283.745	87.56
283.976	73.56
284.207	84.56
284.439	85.56
284.67	83.56
284.901	79.56
285.132	85.56
285.364	92.56
285.595	83.56
285.826	72.56
286.057	90.56
286.288	80.56
286.52	85.56
286.751	73.56
286.982	81.56
287.213	75.56
287.444	80.56
287.675	73.56
287.906	94.56
288.138	87.56
288.369	74.56
288.6	84.56
288.831	85.56
289.062	83.56
289.293	86.56
289.524	72.56
289.755	97.56
289.986	87.56
290.217	80.56
290.448	94.56
290.679	78.56
290.91	76.56
291.141	78.56
291.371	88.56
291.602	74.56
291.833	90.56
292.064	70.56
292.295	91.56
292.526	77.56
292.757	80.56
292.987	98.56
293.218	86.56
293.449	78.56
293.68	84.56
293.91	85.56
294.141	82.56
294.372	87.56
294.603	83.56
294.833	80.56
295.064	64.56
295.295	82.56
295.525	104.56
295.756	77.56
295.987	81.56
296.217	68.56
296.448	83.56
296.679	74.56
296.909	96.56
297.14	75.56
297.37	80.56
297.601	86.56
297.831	81.56
298.062	90.56
298.292	76.56
298.523	84.56
298.753	105.56
298.984	81.56
299.214	91.56
299.445	80.56
299.675	93.56
299.905	93.56
300.136	67.56
300.366	84.56
300.597	87.56
300.827	87.56
301.057	80.56
301.288	85.56
301.518	79.56
301.748	73.56
301.979	85.56
302.209	74.56
302.439	71.56
302.669	82.56
302.9	79.56
303.13	81.56
303.36	85.56
303.59	63.56
303.82	81.56
304.051	87.56
304.281	78.56
304.511	85.56
304.741	85.56
304.971	72.56
305.201	86.56
305.431	73.56
305.661	76.56
305.891	83.56
306.121	78.56
306.352	80.56
306.582	83.56
306.812	67.56
307.042	84.56
307.272	89.56
307.502	95.56
307.731	78.56
307.961	84.56
308.191	75.56
308.421	88.56
308.651	91.56
308.881	84.56
309.111	83.56
309.341	59.56
309.571	92.56
309.8	77.56
310.03	74.56
310.26	67.56
310.49	84.56
310.72	86.56
310.949	80.56
311.179	82.56
311.409	93.56
311.639	73.56
311.868	74.56
312.098	73.56
312.328	83.56
312.557	93.56
312.787	89.56
313.017	95.56
313.246	86.56
313.476	82.56
313.706	83.56
313.935	78.56
314.165	86.56
314.394	80.56
314.624	75.56
314.853	92.56
315.083	80.56
315.312	79.56
315.542	69.56
315.771	82.56
316.001	77.56
316.23	64.56
316.46	98.56
316.689	80.56
316.919	87.56
317.148	97.56
317.377	75.56
317.607	80.56
317.836	89.56
318.065	87.56
318.295	92.56
318.524	75.56
318.753	91.56
318.983	72.56
319.212	79.56
319.441	85.56
319.67	80.56
319.9	99.56
320.129	85.56
320.358	83.56
320.587	71.56
320.816	71.56
321.046	87.56
321.275	79.56
321.504	94.56
321.733	96.56
321.962	92.56
322.191	77.56
322.42	79.56
322.649	88.56
322.878	86.56
323.108	88.56
323.337	92.56
323.566	83.56
323.795	71.56
324.024	70.56
324.253	77.56
324.482	77.56
324.71	68.56
324.939	76.56
325.168	79.56
325.397	79.56
325.626	99.56
325.855	76.56
326.084	87.56
326.313	73.56
326.542	81.56
326.77	80.56
326.999	93.56
327.228	76.56
327.457	81.56
327.686	71.56
327.914	84.56
328.143	83.56
328.372	80.56
328.6	79.56
328.829	79.56
329.058	71.56
329.287	80.56
329.515	85.56
329.744	80.56
329.972	85.56
330.201	75.56
330.43	71.56
330.658	77.56
330.887	77.56
331.115	85.56
331.344	77.56
331.572	83.56
331.801	85.56
332.03	97.56
332.258	87.56
332.486	63.56
332.715	86.56
332.943	83.56
333.172	87.56
333.4	72.56
333.629	82.56
333.857	76.56
334.085	81.56
334.314	83.56
334.542	73.56
334.771	89.56
334.999	79.56
335.227	82.56
335.455	74.56
335.684	90.56
335.912	84.56
336.14	86.56
336.369	69.56
336.597	88.56
336.825	85.56
337.053	78.56
337.281	88.56
337.51	76.56
337.738	80.56
337.966	83.56
338.194	85.56
338.422	92.56
338.65	83.56
338.878	84.56
339.106	79.56
339.334	86.56
339.562	97.56
339.79	89.56
340.018	88.56
340.246	86.56
340.474	79.56
340.702	83.56
340.93	77.56
341.158	71.56
341.386	79.56
341.614	89.56
341.842	86.56
342.07	87.56
342.298	98.56
342.526	78.56
342.754	92.56
342.981	91.56
343.209	81.56
343.437	101.56
343.665	93.56
343.893	86.56
344.12	85.56
344.348	86.56
344.576	77.56
344.804	62.56
345.031	94.56
345.259	80.56
345.487	84.56
345.714	78.56
345.942	76.56
346.17	76.56
346.397	73.56
346.625	75.56
346.853	81.56
347.08	85.56
347.308	84.56
347.535	86.56
347.763	79.56
347.99	88.56
348.218	90.56
348.445	82.56
348.673	81.56
348.9	72.56
349.128	85.56
349.355	69.56
349.583	73.56
349.81	75.56
350.037	86.56
350.265	90.56
350.492	87.56
350.72	71.56
350.947	75.56
351.174	79.56
351.402	83.56
351.629	75.56
351.856	81.56
352.083	90.56
352.311	86.56
352.538	85.56
352.765	85.56
352.992	81.56
353.22	83.56
353.447	61.56
353.674	83.56
353.901	79.56
354.128	91.56
354.355	81.56
354.583	87.56
354.81	90.56
355.037	71.56
355.264	79.56
355.491	86.56
355.718	85.56
355.945	79.56
356.172	82.56
356.399	85.56
356.626	86.56
356.853	90.56
357.08	83.56
357.307	75.56
357.534	82.56
357.761	88.56
357.988	84.56
358.215	84.56
358.441	78.56
358.668	86.56
358.895	79.56
359.122	85.56
359.349	71.56
359.576	79.56
359.802	72.56
360.029	80.56
360.256	83.56
360.483	85.56
360.709	67.56
360.936	82.56
361.163	78.56
361.39	73.56
361.616	83.56
361.843	86.56
362.07	80.56
362.296	85.56
362.523	87.56
362.749	82.56
362.976	91.56
363.203	87.56
363.429	79.56
363.656	82.56
363.882	79.56
364.109	93.56
364.335	89.56
364.562	77.56
364.788	79.56
365.015	79.56
365.241	79.56
365.468	82.56
365.694	81.56
365.92	67.56
366.147	79.56
366.373	81.56
366.599	96.56
366.826	76.56
367.052	71.56
367.278	79.56
367.505	82.56
367.731	90.56
367.957	76.56
368.184	72.56
368.41	74.56
368.636	79.56
368.862	100.56
369.089	70.56
369.315	85.56
369.541	77.56
369.767	70.56
369.993	67.56
370.219	72.56
370.445	91.56
370.672	83.56
370.898	84.56
371.124	72.56
371.35	73.56
371.576	75.56
371.802	72.56
372.028	84.56
372.254	79.56
372.48	73.56
372.706	77.56
372.932	72.56
373.158	80.56
373.384	87.56
373.61	90.56
373.835	80.56
374.061	81.56
374.287	79.56
374.513	96.56
374.739	83.56
374.965	84.56
375.191	73.56
375.416	91.56
375.642	83.56
375.868	76.56
376.094	87.56
376.319	59.56
376.545	88.56
376.771	77.56
376.997	85.56
377.222	84.56
377.448	85.56
377.674	71.56
377.899	95.56
378.125	67.56
378.35	71.56
378.576	74.56
378.802	81.56
379.027	77.56
379.253	75.56
379.478	65.56
379.704	72.56
379.929	87.56
380.155	75.56
380.38	81.56
380.606	72.56
380.831	69.56
381.057	95.56
381.282	73.56
381.507	92.56
381.733	84.56
381.958	80.56
382.184	84.56
382.409	79.56
382.634	95.56
382.86	81.56
383.085	82.56
383.31	75.56
383.535	83.56
383.761	75.56
383.986	80.56
384.211	76.56
384.436	74.56
384.662	79.56
384.887	79.56
385.112	77.56
385.337	90.56
385.562	70.56
385.787	76.56
386.013	78.56
386.238	83.56
386.463	86.56
386.688	91.56
386.913	77.56
387.138	68.56
387.363	73.56
387.588	81.56
387.813	90.56
388.038	76.56
388.263	86.56
388.488	83.56
388.713	86.56
388.938	89.56
389.163	77.56
389.387	76.56
389.612	65.56
389.837	85.56
390.062	80.56
390.287	81.56
390.512	77.56
390.736	62.56
390.961	77.56
391.186	81.56
391.411	80.56
391.636	79.56
391.86	68.56
392.085	71.56
392.31	79.56
392.534	84.56
392.759	80.56
392.984	92.56
393.208	81.56
393.433	83.56
393.658	77.56
393.882	85.56
394.107	75.56
394.331	86.56
394.556	69.56
394.78	65.56
395.005	78.56
395.229	77.56
395.454	92.56
395.678	72.56
395.903	77.56
396.127	87.56
396.352	79.56
396.576	80.56
396.801	91.56
397.025	81.56
397.249	77.56
397.474	83.56
397.698	67.56
397.922	89.56
398.147	84.56
398.371	91.56
398.595	64.56
398.82	80.56
399.044	70.56
399.268	76.56
399.492	85.56
399.717	87.56
399.941	83.56
400.165	91.56
400.389	80.56
400.613	77.56
400.837	81.56
401.062	81.56
401.286	72.56
401.51	91.56
401.734	95.56
401.958	80.56
402.182	92.56
402.406	79.56
402.63	75.56
402.854	78.56
403.078	83.56
403.302	73.56
403.526	63.56
403.75	75.56
403.974	78.56
404.198	69.56
404.422	80.56
404.645	77.56
404.869	83.56
405.093	63.56
405.317	80.56
405.541	91.56
405.765	70.56
405.988	80.56
406.212	67.56
406.436	61.56
406.66	84.56
406.883	87.56
407.107	70.56
407.331	82.56
407.555	74.56
407.778	76.56
408.002	73.56
408.226	87.56
408.449	65.56
408.673	72.56
408.896	60.56
409.12	85.56
409.344	91.56
409.567	87.56
409.791	84.56
410.014	82.56
410.238	86.56
410.461	84.56
410.685	79.56
410.908	76.56
411.132	77.56
411.355	93.56
411.578	63.56
411.802	77.56
412.025	77.56
412.249	76.56
412.472	81.56
412.695	77.56
412.919	69.56
413.142	69.56
413.365	87.56
413.589	65.56
413.812	72.56
414.035	87.56
414.258	79.56
414.482	69.56
414.705	83.56
414.928	85.56
415.151	74.56
415.374	95.56
415.597	70.56
415.821	73.56
416.044	78.56
416.267	69.56
416.49	85.56
416.713	83.56
416.936	80.56
417.159	80.56
417.382	83.56
417.605	78.56
417.828	71.56
418.051	79.56
418.274	72.56
418.497	82.56
418.72	80.56
418.943	74.56
419.166	77.56
419.389	60.56
419.611	85.56
419.834	77.56
420.057	85.56
420.28	85.56
420.503	88.56
420.726	73.56
420.948	78.56
421.171	69.56
421.394	77.56
421.617	68.56
421.839	79.56
422.062	81.56
422.285	77.56
422.507	69.56
422.73	64.56
422.953	71.56
423.175	75.56
423.398	80.56
423.621	93.56
423.843	68.56
424.066	75.56
424.288	88.56
424.511	72.56
424.733	81.56
424.956	87.56
425.178	78.56
425.401	72.56
425.623	82.56
425.846	75.56
426.068	81.56
426.291	95.56
426.513	67.56
426.735	75.56
426.958	71.56
427.18	73.56
427.402	74.56
427.625	73.56
427.847	72.56
428.069	85.56
428.292	71.56
428.514	69.56
428.736	73.56
428.958	73.56
429.181	87.56
429.403	57.56
429.625	86.56
429.847	89.56
430.069	73.56
430.292	84.56
430.514	77.56
430.736	63.56
430.958	70.56
431.18	83.56
431.402	79.56
431.624	77.56
431.846	81.56
432.068	82.56
432.29	87.56
432.512	87.56
432.734	73.56
432.956	72.56
433.178	79.56
433.4	86.56
433.622	90.56
433.844	97.56
434.066	83.56
434.287	76.56
434.509	75.56
434.731	97.56
434.953	88.56
435.175	71.56
435.397	86.56
435.618	67.56
435.84	90.56
436.062	75.56
436.284	91.56
436.505	81.56
436.727	77.56
436.949	73.56
437.17	72.56
437.392	67.56
437.614	70.56
437.835	64.56
438.057	72.56
438.278	82.56
438.5	85.56
438.721	86.56
438.943	85.56
439.165	77.56
439.386	83.56
439.608	82.56
439.829	68.56
440.05	79.56
440.272	81.56
440.493	69.56
440.715	81.56
440.936	77.56
441.158	85.56
441.379	90.56
441.6	77.56
441.822	71.56
442.043	67.56
442.264	73.56
442.486	73.56
442.707	68.56
442.928	95.56
443.149	80.56
443.371	69.56
443.592	77.56
443.813	71.56
444.034	69.56
444.255	86.56
444.476	83.56
444.698	80.56
444.919	84.56
445.14	152.56
445.361	108.56
445.582	97.56
445.803	75.56
446.024	63.56
446.245	81.56
446.466	77.56
446.687	89.56
446.908	81.56
447.129	73.56
447.35	75.56
447.571	79.56
447.792	80.56
448.013	73.56
448.234	79.56
448.455	85.56
448.675	94.56
448.896	87.56
449.117	72.56
449.338	86.56
449.559	79.56
449.779	80.56
450	68.56
450.221	63.56
450.442	70.56
450.662	83.56
450.883	85.56
451.104	74.56
451.324	79.56
451.545	80.56
451.766	81.56
451.986	77.56
452.207	66.56
452.428	80.56
452.648	79.56
452.869	71.56
453.089	87.56
453.31	65.56
453.53	57.56
453.751	72.56
453.971	86.56
454.192	63.56
454.412	73.56
454.633	81.56
454.853	68.56
455.073	86.56
455.294	81.56
455.514	79.56
455.734	89.56
455.955	71.56
456.175	78.56
456.395	72.56
456.616	77.56
456.836	71.56
457.056	76.56
457.276	59.56
457.497	64.56
457.717	79.56
457.937	71.56
458.157	87.56
458.377	79.56
458.598	75.56
458.818	83.56
459.038	70.56
459.258	82.56
459.478	60.56
459.698	76.56
459.918	75.56
460.138	85.56
460.358	86.56
460.578	86.56
460.798	84.56
461.018	84.56
461.238	71.56
461.458	90.56
461.678	74.56
461.898	85.56
462.118	83.56
462.338	84.56
462.558	87.56
462.777	76.56
462.997	59.56
463.217	73.56
463.437	84.56
463.657	71.56
463.876	69.56
464.096	84.56
464.316	73.56
464.536	86.56
464.755	83.56
464.975	82.56
465.195	71.56
465.414	70.56
465.634	103.56
465.854	81.56
466.073	82.56
466.293	71.56
466.512	83.56
466.732	70.56
466.951	83.56
467.171	84.56
467.391	94.56
467.61	85.56
467.829	73.56
468.049	76.56
468.268	73.56
468.488	83.56
468.707	79.56
468.927	73.56
469.146	83.56
469.365	65.56
469.585	84.56
469.804	81.56
470.023	75.56
470.243	93.56
470.462	82.56
470.681	74.56
470.901	68.56
471.12	61.56
471.339	89.56
471.558	78.56
471.777	75.56
471.997	84.56
472.216	71.56
472.435	71.56
472.654	74.56
472.873	71.56
473.092	98.56
473.311	87.56
473.53	78.56
473.749	84.56
473.968	99.56
474.187	70.56
474.406	88.56
474.625	87.56
474.844	71.56
475.063	66.56
475.282	76.56
475.501	73.56
475.72	77.56
475.939	63.56
476.158	81.56
476.377	83.56
476.596	81.56
476.814	92.56
477.033	84.56
477.252	86.56
477.471	85.56
477.69	88.56
477.908	90.56
478.127	75.56
478.346	71.56
478.564	91.56
478.783	69.56
479.002	76.56
479.22	81.56
479.439	79.56
479.658	71.56
479.876	80.56
480.095	81.56
480.313	68.56
480.532	82.56
480.751	79.56
480.969	70.56
481.188	69.56
481.406	64.56
481.624	69.56
481.843	87.56
482.061	85.56
482.28	79.56
482.498	85.56
482.717	92.56
482.935	72.56
483.153	71.56
483.372	71.56
483.59	62.56
483.808	94.56
484.027	84.56
484.245	83.56
484.463	87.56
484.681	89.56
484.9	91.56
485.118	82.56
485.336	73.56
485.554	78.56
485.772	90.56
485.99	75.56
486.209	86.56
486.427	79.56
486.645	95.56
486.863	68.56
487.081	83.56
487.299	65.56
487.517	81.56
487.735	78.56
487.953	80.56
488.171	58.56
488.389	95.56
488.607	83.56
488.825	68.56
489.043	71.56
489.261	86.56
489.479	87.56
489.696	95.56
489.914	89.56
490.132	86.56
490.35	79.56
490.568	80.56
490.786	86.56
491.003	76.56
491.221	79.56
491.439	81.56
491.657	84.56
491.874	98.56
492.092	82.56
492.31	76.56
492.527	86.56
492.745	75.56
492.963	66.56
493.18	88.56
493.398	85.56
493.615	77.56
493.833	70.56
494.05	75.56
494.268	87.56
494.485	77.56
494.703	73.56
494.92	73.56
495.138	74.56
495.355	87.56
495.573	77.56
495.79	72.56
496.008	83.56
496.225	80.56
496.442	73.56
496.66	83.56
496.877	76.56
497.094	81.56
497.312	70.56
497.529	86.56
497.746	76.56
497.963	79.56
498.181	81.56
498.398	68.56
498.615	72.56
498.832	67.56
499.049	89.56
499.267	91.56
499.484	76.56
499.701	86.56
499.918	89.56
500.135	68.56
500.352	93.56
500.569	86.56
500.786	96.56
501.003	77.56
501.22	83.56
501.437	79.56
501.654	69.56
501.871	92.56
502.088	80.56
502.305	89.56
502.522	79.56
502.739	83.56
502.956	83.56
503.172	72.56
503.389	74.56
503.606	75.56
503.823	72.56
504.04	75.56
504.256	79.56
504.473	81.56
504.69	78.56
504.907	84.56
505.123	75.56
505.34	81.56
505.557	65.56
505.773	86.56
505.99	79.56
506.207	60.56
506.423	91.56
506.64	87.56
506.856	71.56
507.073	88.56
507.289	90.56
507.506	64.56
507.722	79.56
507.939	83.56
508.155	80.56
508.372	73.56
508.588	79.56
508.805	83.56
509.021	85.56
509.238	78.56
509.454	70.56
509.67	74.56
509.887	89.56
510.103	69.56
510.319	81.56
510.536	93.56
510.752	75.56
510.968	81.56
511.184	66.56
511.401	80.56
511.617	80.56
511.833	69.56
512.049	77.56
512.265	77.56
512.481	80.56
512.698	66.56
512.914	70.56
513.13	68.56
513.346	73.56
513.562	67.56
513.778	65.56
513.994	65.56
514.21	80.56
514.426	73.56
514.642	83.56
514.858	92.56
515.074	83.56
515.29	82.56
515.506	63.56
515.721	75.56
515.937	80.56
516.153	84.56
516.369	81.56
516.585	84.56
516.801	85.56
517.016	60.56
517.232	79.56
517.448	89.56
517.664	84.56
517.879	88.56
518.095	89.56
518.311	87.56
518.527	85.56
518.742	86.56
518.958	89.56
519.173	70.56
519.389	93.56
519.605	88.56
519.82	85.56
520.036	68.56
520.251	86.56
520.467	79.56
520.682	102.56
520.898	86.56
521.113	74.56
521.329	80.56
521.544	78.56
521.76	92.56
521.975	71.56
522.19	81.56
522.406	81.56
522.621	77.56
522.836	63.56
523.052	78.56
523.267	75.56
523.482	82.56
523.698	91.56
523.913	71.56
524.128	89.56
524.343	87.56
524.559	86.56
524.774	71.56
524.989	89.56
525.204	76.56
525.419	72.56
525.634	84.56
525.849	95.56
526.064	83.56
526.28	97.56
526.495	73.56
526.71	74.56
526.925	79.56
527.14	81.56
527.355	85.56
527.57	82.56
527.785	70.56
527.999	79.56
528.214	84.56
528.429	80.56
528.644	76.56
528.859	88.56
529.074	92.56
529.289	69.56
529.503	87.56
529.718	85.56
529.933	74.56
530.148	74.56
530.363	87.56
530.577	77.56
530.792	75.56
531.007	88.56
531.221	97.56
531.436	88.56
531.651	93.56
531.865	73.56
532.08	88.56
532.295	83.56
532.509	83.56
532.724	77.56
532.938	81.56
533.153	79.56
533.367	82.56
533.582	86.56
533.796	76.56
534.011	87.56
534.225	79.56
534.44	90.56
534.654	80.56
534.868	84.56
535.083	93.56
535.297	80.56
535.511	81.56
535.726	80.56
535.94	57.56
536.154	80.56
536.369	83.56
536.583	71.56
536.797	86.56
537.011	83.56
537.225	89.56
537.44	72.56
537.654	78.56
537.868	87.56
538.082	81.56
538.296	68.56
538.51	77.56
538.724	86.56
538.938	81.56
539.153	84.56
539.367	84.56
539.581	97.56
539.795	81.56
540.009	79.56
540.222	90.56
540.436	72.56
540.65	78.56
540.864	75.56
541.078	72.56
541.292	79.56
541.506	89.56
541.72	89.56
541.934	83.56
542.147	84.56
542.361	83.56
542.575	91.56
542.789	96.56
543.002	86.56
543.216	86.56
543.43	73.56
543.644	87.56
543.857	77.56
544.071	72.56
544.285	80.56
544.498	81.56
544.712	71.56
544.925	95.56
545.139	64.56
545.352	72.56
545.566	82.56
545.779	88.56
545.993	73.56
546.206	99.56
546.42	69.56
546.633	83.56
546.847	82.56
547.06	82.56
547.274	72.56
547.487	77.56
547.7	84.56
547.914	84.56
548.127	76.56
548.34	80.56
548.554	73.56
548.767	76.56
548.98	85.56
549.193	84.56
549.407	74.56
549.62	71.56
549.833	81.56
550.046	63.56
550.259	84.56
550.473	73.56
550.686	75.56
550.899	87.56
551.112	96.56
551.325	83.56
551.538	99.56
551.751	72.56
551.964	75.56
552.177	78.56
552.39	77.56
552.603	73.56
552.816	95.56
553.029	83.56
553.242	89.56
553.455	67.56
553.667	87.56
553.88	74.56
554.093	83.56
554.306	71.56
554.519	92.56
554.732	83.56
554.944	84.56
555.157	79.56
555.37	82.56
555.583	87.56
555.795	79.56
556.008	81.56
556.221	81.56
556.433	81.56
556.646	84.56
556.859	81.56
557.071	88.56
557.284	80.56
557.496	78.56
557.709	86.56
557.921	84.56
558.134	75.56
558.346	78.56
558.559	77.56
558.771	73.56
558.984	77.56
559.196	76.56
559.409	76.56
559.621	87.56
559.833	68.56
560.046	88.56
560.258	83.56
560.47	96.56
560.683	72.56
560.895	83.56
561.107	79.56
561.32	73.56
561.532	87.56
561.744	85.56
561.956	73.56
562.168	80.56
562.381	60.56
562.593	93.56
562.805	75.56
563.017	91.56
563.229	88.56
563.441	99.56
563.653	85.56
563.865	78.56
564.077	71.56
564.289	93.56
564.501	89.56
564.713	92.56
564.925	80.56
565.137	82.56
565.349	81.56
565.561	76.56
565.773	94.56
565.985	77.56
566.197	79.56
566.408	78.56
566.62	78.56
566.832	73.56
567.044	85.56
567.255	86.56
567.467	86.56
567.679	83.56
567.891	91.56
568.102	76.56
568.314	79.56
568.526	87.56
568.737	79.56
568.949	79.56
569.161	86.56
569.372	81.56
569.584	79.56
569.795	83.56
570.007	68.56
570.218	74.56
570.43	75.56
570.641	80.56
570.853	90.56
571.064	80.56
571.276	87.56
571.487	96.56
571.698	84.56
571.91	79.56
572.121	79.56
572.333	98.56
572.544	92.56
572.755	88.56
572.966	75.56
573.178	86.56
573.389	75.56
573.6	69.56
573.811	75.56
574.023	95.56
574.234	90.56
574.445	88.56
574.656	89.56
574.867	84.56
575.078	85.56
575.289	87.56
575.501	97.56
575.712	84.56
575.923	81.56
576.134	74.56
576.345	74.56
576.556	90.56
576.767	99.56
576.978	98.56
577.188	92.56
577.399	89.56
577.61	75.56
577.821	71.56
578.032	78.56
578.243	73.56
578.454	90.56
578.665	85.56
578.875	75.56
579.086	95.56
579.297	76.56
579.508	94.56
579.718	85.56
579.929	79.56
580.14	76.56
580.35	75.56
580.561	70.56
580.772	77.56
580.982	74.56
581.193	81.56
581.403	79.56
581.614	83.56
581.825	83.56
582.035	95.56
582.246	91.56
582.456	92.56
582.667	94.56
582.877	92.56
583.087	78.56
583.298	73.56
583.508	66.56
583.719	77.56
583.929	89.56
584.139	88.56
584.35	87.56
584.56	87.56
584.77	85.56
584.981	73.56
585.191	78.56
585.401	77.56
585.611	83.56
585.821	63.56
586.032	91.56
586.242	80.56
586.452	93.56
586.662	94.56
586.872	72.56
587.082	80.56
587.292	85.56
587.502	71.56
587.713	94.56
587.923	73.56
588.133	84.56
588.343	81.56
588.553	89.56
588.762	70.56
588.972	95.56
589.182	85.56
589.392	71.56
589.602	84.56
589.812	86.56
590.022	100.56
590.232	91.56
590.441	93.56
590.651	88.56
590.861	84.56
591.071	69.56
591.281	80.56
591.49	80.56
591.7	85.56
591.91	85.56
592.119	75.56
592.329	82.56
592.539	65.56
592.748	84.56
592.958	95.56
593.167	73.56
593.377	85.56
593.587	75.56
593.796	80.56
594.006	94.56
594.215	77.56
594.424	79.56
594.634	78.56
594.843	85.56
595.053	71.56
595.262	88.56
595.472	79.56
595.681	73.56
595.89	81.56
596.1	95.56
596.309	88.56
596.518	90.56
596.727	82.56
596.937	78.56
597.146	74.56
597.355	88.56
597.564	105.56
597.774	93.56
597.983	80.56
598.192	79.56
598.401	79.56
598.61	82.56
598.819	86.56
599.028	87.56
599.237	83.56
599.446	84.56
599.655	92.56
599.864	87.56
600.073	84.56
600.282	84.56
600.491	81.56
600.7	95.56
600.909	84.56
601.118	70.56
601.327	76.56
601.536	81.56
601.745	80.56
601.953	89.56
602.162	88.56
602.371	93.56
602.58	70.56
602.789	79.56
602.997	87.56
603.206	86.56
603.415	89.56
603.623	80.56
603.832	91.56
604.041	85.56
604.249	89.56
604.458	84.56
604.666	78.56
604.875	72.56
605.084	73.56
605.292	81.56
605.501	76.56
605.709	85.56
605.918	87.56
606.126	73.56
606.334	77.56
606.543	62.56
606.751	75.56
606.96	86.56
607.168	85.56
607.376	80.56
607.585	69.56
607.793	73.56
608.001	72.56
608.21	82.56
608.418	68.56
608.626	91.56
608.834	72.56
609.043	89.56
609.251	83.56
609.459	81.56
609.667	87.56
609.875	79.56
610.083	85.56
610.291	85.56
610.499	79.56
610.707	71.56
610.916	77.56
611.124	81.56
611.332	76.56
611.54	77.56
611.748	83.56
611.955	82.56
612.163	72.56
612.371	99.56
612.579	73.56
612.787	73.56
612.995	97.56
613.203	85.56
613.411	92.56
613.618	82.56
613.826	76.56
614.034	86.56
614.242	68.56
614.449	79.56
614.657	84.56
614.865	71.56
615.072	72.56
615.28	84.56
615.488	83.56
615.695	84.56
615.903	79.56
616.111	70.56
616.318	80.56
616.526	93.56
616.733	86.56
616.941	61.56
617.148	88.56
617.356	88.56
617.563	94.56
617.771	77.56
617.978	68.56
618.185	92.56
618.393	82.56
618.6	76.56
618.807	73.56
619.015	89.56
619.222	102.56
619.429	81.56
619.637	74.56
619.844	67.56
620.051	73.56
620.258	83.56
620.466	73.56
620.673	79.56
620.88	84.56
621.087	75.56
621.294	73.56
621.501	91.56
621.708	82.56
621.915	82.56
622.122	83.56
622.329	94.56
622.536	67.56
622.743	91.56
622.95	79.56
623.157	77.56
623.364	81.56
623.571	74.56
623.778	81.56
623.985	94.56
624.192	81.56
624.399	92.56
624.606	79.56
624.812	81.56
625.019	83.56
625.226	89.56
625.433	96.56
625.639	83.56
625.846	83.56
626.053	82.56
626.259	83.56
626.466	67.56
626.673	81.56
626.879	74.56
627.086	79.56
627.293	72.56
627.499	77.56
627.706	72.56
627.912	81.56
628.119	80.56
628.325	81.56
628.532	77.56
628.738	81.56
628.945	92.56
629.151	87.56
629.357	73.56
629.564	76.56
629.77	79.56
629.976	79.56
630.183	70.56
630.389	82.56
630.595	81.56
630.802	71.56
631.008	77.56
631.214	70.56
631.42	83.56
631.627	80.56
631.833	70.56
632.039	88.56
632.245	69.56
632.451	91.56
632.657	80.56
632.863	77.56
633.069	75.56
633.275	64.56
633.481	72.56
633.688	78.56
633.893	75.56
634.099	80.56
634.305	69.56
634.511	87.56
634.717	82.56
634.923	94.56
635.129	68.56
635.335	86.56
635.541	78.56
635.747	70.56
635.952	70.56
636.158	90.56
636.364	83.56
636.57	74.56
636.775	90.56
636.981	90.56
637.187	81.56
637.392	83.56
637.598	81.56
637.804	91.56
638.009	89.56
638.215	91.56
638.421	96.56
638.626	101.56
638.832	78.56
639.037	80.56
639.243	94.56
639.448	74.56
639.654	83.56
639.859	93.56
640.065	86.56
640.27	103.56
640.475	76.56
640.681	92.56
640.886	89.56
641.091	78.56
641.297	91.56
641.502	83.56
641.707	81.56
641.913	89.56
642.118	86.56
642.323	72.56
642.528	88.56
642.733	92.56
642.939	77.56
643.144	77.56
643.349	85.56
643.554	88.56
643.759	79.56
643.964	75.56
644.169	71.56
644.374	68.56
644.579	76.56
644.784	81.56
644.989	75.56
645.194	89.56
645.399	70.56
645.604	88.56
645.809	100.56
646.014	83.56
646.219	82.56
646.423	74.56
646.628	79.56
646.833	90.56
647.038	79.56
647.243	72.56
647.447	87.56
647.652	87.56
647.857	88.56
648.062	74.56
648.266	73.56
648.471	85.56
648.676	86.56
648.88	73.56
649.085	74.56
649.289	77.56
649.494	88.56
649.698	79.56
649.903	77.56
650.107	85.56
650.312	90.56
650.516	84.56
650.721	78.56
650.925	72.56
651.13	93.56
651.334	95.56
651.539	77.56
651.743	81.56
651.947	77.56
652.152	81.56
652.356	71.56
652.56	77.56
652.764	82.56
652.969	73.56
653.173	79.56
653.377	71.56
653.581	81.56
653.785	80.56
653.99	81.56
654.194	71.56
654.398	89.56
654.602	84.56
654.806	91.56
655.01	77.56
655.214	71.56
655.418	72.56
655.622	86.56
655.826	75.56
656.03	73.56
656.234	85.56
656.438	71.56
656.642	72.56
656.846	76.56
657.049	91.56
657.253	68.56
657.457	71.56
657.661	81.56
657.865	79.56
658.068	78.56
658.272	85.56
658.476	79.56
658.68	71.56
658.883	69.56
659.087	56.56
659.291	83.56
659.494	81.56
659.698	75.56
659.901	64.56
660.105	85.56
660.309	84.56
660.512	81.56
660.716	82.56
660.919	71.56
661.123	91.56
661.326	67.56
661.53	88.56
661.733	85.56
661.936	73.56
662.14	69.56
662.343	73.56
662.546	86.56
662.75	70.56
662.953	77.56
663.156	77.56
663.36	88.56
663.563	73.56
663.766	83.56
663.969	93.56
664.173	83.56
664.376	87.56
664.579	67.56
664.782	65.56
664.985	80.56
665.188	83.56
665.391	79.56
665.594	79.56
665.797	68.56
666	75.56
666.203	81.56
666.406	73.56
666.609	73.56
666.812	72.56
667.015	80.56
667.218	75.56
667.421	87.56
667.624	76.56
667.827	88.56
668.03	76.56
668.232	81.56
668.435	83.56
668.638	66.56
668.841	67.56
669.043	80.56
669.246	77.56
669.449	74.56
669.651	67.56
669.854	80.56
670.057	86.56
670.259	82.56
670.462	75.56
670.665	85.56
670.867	75.56
671.07	81.56
671.272	79.56
671.475	83.56
671.677	72.56
671.88	57.56
672.082	85.56
672.284	73.56
672.487	98.56
672.689	68.56
672.892	76.56
