Data from Uncirc_1987_H10_HRD10591_00062.txt Node
Date: Wed Jan 03 12:09:00 EST 2024
User: Yrep
Spectrometer: HR+D1059
Trigger mode: 1
Integration Time (sec): 1.000000E-1
Scans to average: 1
Electric dark correction enabled: true
Nonlinearity correction enabled: false
Boxcar width: 0
XAxis mode: Wavelengths
Number of Pixels in Spectrum: 2048
>>>>>Begin Spectral Data<<<<<
223.165	1.94
223.4	1.94
223.635	1.94
223.869	-25.06
224.104	-22.06
224.338	-33.06
224.573	-24.06
224.808	-16.06
225.042	-23.06
225.277	-10.06
225.511	-7.06
225.746	5.94
225.98	9.94
226.215	18.94
226.449	17.94
226.683	38.94
226.918	29.94
227.152	36.94
227.387	42.94
227.621	42.94
227.856	38.94
228.09	43.94
228.324	34.94
228.559	48.94
228.793	50.94
229.027	53.94
229.262	67.94
229.496	75.94
229.73	72.94
229.964	80.94
230.199	66.94
230.433	72.94
230.667	85.94
230.901	71.94
231.136	78.94
231.37	79.94
231.604	74.94
231.838	77.94
232.072	86.94
232.306	85.94
232.541	85.94
232.775	87.94
233.009	90.94
233.243	93.94
233.477	105.94
233.711	89.94
233.945	86.94
234.179	79.94
234.413	88.94
234.647	80.94
234.881	78.94
235.115	77.94
235.349	78.94
235.583	72.94
235.817	61.94
236.051	75.94
236.285	77.94
236.519	80.94
236.753	82.94
236.987	74.94
237.221	73.94
237.455	86.94
237.689	75.94
237.922	75.94
238.156	83.94
238.39	80.94
238.624	64.94
238.858	77.94
239.091	97.94
239.325	73.94
239.559	75.94
239.793	71.94
240.027	82.94
240.26	81.94
240.494	81.94
240.728	67.94
240.961	91.94
241.195	77.94
241.429	82.94
241.662	58.94
241.896	78.94
242.13	70.94
242.363	67.94
242.597	75.94
242.83	77.94
243.064	74.94
243.298	63.94
243.531	83.94
243.765	71.94
243.998	82.94
244.232	77.94
244.465	80.94
244.699	74.94
244.932	96.94
245.166	81.94
245.399	85.94
245.633	66.94
245.866	78.94
246.099	65.94
246.333	82.94
246.566	79.94
246.8	83.94
247.033	66.94
247.266	84.94
247.5	70.94
247.733	64.94
247.966	74.94
248.2	73.94
248.433	79.94
248.666	75.94
248.899	89.94
249.133	74.94
249.366	92.94
249.599	90.94
249.832	69.94
250.066	77.94
250.299	79.94
250.532	71.94
250.765	82.94
250.998	81.94
251.231	73.94
251.465	89.94
251.698	82.94
251.931	79.94
252.164	69.94
252.397	72.94
252.63	78.94
252.863	82.94
253.096	74.94
253.329	87.94
253.562	64.94
253.795	87.94
254.028	83.94
254.261	70.94
254.494	89.94
254.727	89.94
254.96	81.94
255.193	85.94
255.426	79.94
255.659	83.94
255.892	85.94
256.124	86.94
256.357	67.94
256.59	89.94
256.823	80.94
257.056	88.94
257.289	78.94
257.521	74.94
257.754	83.94
257.987	69.94
258.22	77.94
258.452	86.94
258.685	71.94
258.918	84.94
259.151	96.94
259.383	88.94
259.616	85.94
259.849	77.94
260.081	83.94
260.314	65.94
260.547	86.94
260.779	79.94
261.012	81.94
261.244	94.94
261.477	83.94
261.71	93.94
261.942	101.94
262.175	92.94
262.407	82.94
262.64	82.94
262.872	80.94
263.105	85.94
263.337	84.94
263.57	87.94
263.802	83.94
264.035	67.94
264.267	86.94
264.499	88.94
264.732	95.94
264.964	96.94
265.197	66.94
265.429	67.94
265.661	74.94
265.894	88.94
266.126	81.94
266.358	85.94
266.591	81.94
266.823	82.94
267.055	82.94
267.287	96.94
267.52	80.94
267.752	84.94
267.984	85.94
268.216	71.94
268.448	85.94
268.681	91.94
268.913	77.94
269.145	84.94
269.377	87.94
269.609	83.94
269.841	83.94
270.073	91.94
270.306	71.94
270.538	83.94
270.77	81.94
271.002	90.94
271.234	93.94
271.466	90.94
271.698	92.94
271.93	78.94
272.162	85.94
272.394	83.94
272.626	81.94
272.858	74.94
273.09	80.94
273.322	79.94
273.553	85.94
273.785	78.94
274.017	83.94
274.249	96.94
274.481	96.94
274.713	75.94
274.945	96.94
275.176	91.94
275.408	89.94
275.64	77.94
275.872	90.94
276.104	83.94
276.335	98.94
276.567	95.94
276.799	101.94
277.031	96.94
277.262	91.94
277.494	72.94
277.726	96.94
277.957	72.94
278.189	92.94
278.421	85.94
278.652	79.94
278.884	101.94
279.115	97.94
279.347	98.94
279.579	87.94
279.81	106.94
280.042	77.94
280.273	77.94
280.505	87.94
280.736	97.94
280.968	91.94
281.199	91.94
281.431	80.94
281.662	93.94
281.894	88.94
282.125	97.94
282.356	102.94
282.588	132.94
282.819	123.94
283.051	97.94
283.282	95.94
283.513	93.94
283.745	81.94
283.976	77.94
284.207	69.94
284.439	74.94
284.67	94.94
284.901	85.94
285.132	86.94
285.364	81.94
285.595	91.94
285.826	88.94
286.057	95.94
286.288	82.94
286.52	82.94
286.751	80.94
286.982	90.94
287.213	101.94
287.444	103.94
287.675	101.94
287.906	81.94
288.138	88.94
288.369	94.94
288.6	83.94
288.831	89.94
289.062	93.94
289.293	84.94
289.524	83.94
289.755	92.94
289.986	84.94
290.217	102.94
290.448	91.94
290.679	82.94
290.91	80.94
291.141	91.94
291.371	82.94
291.602	92.94
291.833	88.94
292.064	78.94
292.295	84.94
292.526	71.94
292.757	79.94
292.987	87.94
293.218	81.94
293.449	90.94
293.68	83.94
293.91	73.94
294.141	85.94
294.372	77.94
294.603	68.94
294.833	72.94
295.064	101.94
295.295	91.94
295.525	86.94
295.756	90.94
295.987	103.94
296.217	129.94
296.448	104.94
296.679	89.94
296.909	89.94
297.14	90.94
297.37	81.94
297.601	95.94
297.831	84.94
298.062	93.94
298.292	85.94
298.523	95.94
298.753	83.94
298.984	94.94
299.214	96.94
299.445	75.94
299.675	78.94
299.905	83.94
300.136	93.94
300.366	90.94
300.597	90.94
300.827	99.94
301.057	95.94
301.288	94.94
301.518	99.94
301.748	92.94
301.979	98.94
302.209	96.94
302.439	103.94
302.669	86.94
302.9	88.94
303.13	97.94
303.36	87.94
303.59	89.94
303.82	114.94
304.051	86.94
304.281	89.94
304.511	99.94
304.741	89.94
304.971	96.94
305.201	90.94
305.431	84.94
305.661	95.94
305.891	83.94
306.121	96.94
306.352	98.94
306.582	97.94
306.812	89.94
307.042	93.94
307.272	104.94
307.502	90.94
307.731	91.94
307.961	95.94
308.191	93.94
308.421	87.94
308.651	97.94
308.881	90.94
309.111	86.94
309.341	94.94
309.571	112.94
309.8	99.94
310.03	99.94
310.26	86.94
310.49	82.94
310.72	85.94
310.949	107.94
311.179	95.94
311.409	95.94
311.639	87.94
311.868	97.94
312.098	89.94
312.328	99.94
312.557	96.94
312.787	96.94
313.017	105.94
313.246	95.94
313.476	87.94
313.706	95.94
313.935	94.94
314.165	98.94
314.394	97.94
314.624	103.94
314.853	100.94
315.083	84.94
315.312	88.94
315.542	98.94
315.771	103.94
316.001	94.94
316.23	99.94
316.46	94.94
316.689	83.94
316.919	87.94
317.148	82.94
317.377	86.94
317.607	87.94
317.836	84.94
318.065	101.94
318.295	95.94
318.524	95.94
318.753	92.94
318.983	84.94
319.212	101.94
319.441	108.94
319.67	102.94
319.9	82.94
320.129	90.94
320.358	90.94
320.587	81.94
320.816	94.94
321.046	104.94
321.275	105.94
321.504	95.94
321.733	105.94
321.962	111.94
322.191	104.94
322.42	110.94
322.649	107.94
322.878	109.94
323.108	106.94
323.337	121.94
323.566	121.94
323.795	147.94
324.024	191.94
324.253	347.94
324.482	775.94
324.71	1565.94
324.939	2065.94
325.168	762.94
325.397	238.94
325.626	140.94
325.855	126.94
326.084	122.94
326.313	135.94
326.542	133.94
326.77	238.94
326.999	426.94
327.228	865.94
327.457	1659.94
327.686	1293.94
327.914	358.94
328.143	183.94
328.372	145.94
328.6	114.94
328.829	109.94
329.058	130.94
329.287	126.94
329.515	107.94
329.744	97.94
329.972	93.94
330.201	106.94
330.43	102.94
330.658	119.94
330.887	138.94
331.115	100.94
331.344	101.94
331.572	97.94
331.801	97.94
332.03	95.94
332.258	101.94
332.486	97.94
332.715	92.94
332.943	96.94
333.172	111.94
333.4	101.94
333.629	93.94
333.857	101.94
334.085	97.94
334.314	86.94
334.542	115.94
334.771	113.94
334.999	81.94
335.227	74.94
335.455	83.94
335.684	101.94
335.912	102.94
336.14	95.94
336.369	99.94
336.597	98.94
336.825	97.94
337.053	96.94
337.281	91.94
337.51	90.94
337.738	73.94
337.966	83.94
338.194	80.94
338.422	90.94
338.65	85.94
338.878	83.94
339.106	94.94
339.334	81.94
339.562	101.94
339.79	104.94
340.018	90.94
340.246	105.94
340.474	86.94
340.702	96.94
340.93	98.94
341.158	89.94
341.386	86.94
341.614	89.94
341.842	93.94
342.07	97.94
342.298	70.94
342.526	95.94
342.754	94.94
342.981	95.94
343.209	90.94
343.437	83.94
343.665	82.94
343.893	87.94
344.12	106.94
344.348	88.94
344.576	88.94
344.804	93.94
345.031	83.94
345.259	96.94
345.487	95.94
345.714	83.94
345.942	88.94
346.17	98.94
346.397	80.94
346.625	86.94
346.853	99.94
347.08	81.94
347.308	105.94
347.535	91.94
347.763	106.94
347.99	95.94
348.218	101.94
348.445	91.94
348.673	114.94
348.9	87.94
349.128	94.94
349.355	87.94
349.583	101.94
349.81	95.94
350.037	102.94
350.265	98.94
350.492	89.94
350.72	94.94
350.947	97.94
351.174	103.94
351.402	92.94
351.629	80.94
351.856	94.94
352.083	95.94
352.311	103.94
352.538	107.94
352.765	98.94
352.992	113.94
353.22	91.94
353.447	101.94
353.674	89.94
353.901	99.94
354.128	97.94
354.355	87.94
354.583	104.94
354.81	93.94
355.037	104.94
355.264	87.94
355.491	90.94
355.718	82.94
355.945	88.94
356.172	88.94
356.399	100.94
356.626	90.94
356.853	96.94
357.08	90.94
357.307	84.94
357.534	91.94
357.761	89.94
357.988	87.94
358.215	100.94
358.441	89.94
358.668	94.94
358.895	87.94
359.122	80.94
359.349	85.94
359.576	97.94
359.802	97.94
360.029	99.94
360.256	101.94
360.483	106.94
360.709	86.94
360.936	100.94
361.163	100.94
361.39	89.94
361.616	93.94
361.843	82.94
362.07	95.94
362.296	82.94
362.523	87.94
362.749	82.94
362.976	79.94
363.203	101.94
363.429	97.94
363.656	71.94
363.882	81.94
364.109	75.94
364.335	71.94
364.562	112.94
364.788	88.94
365.015	93.94
365.241	103.94
365.468	108.94
365.694	93.94
365.92	98.94
366.147	87.94
366.373	96.94
366.599	95.94
366.826	87.94
367.052	67.94
367.278	93.94
367.505	92.94
367.731	104.94
367.957	97.94
368.184	83.94
368.41	90.94
368.636	96.94
368.862	112.94
369.089	101.94
369.315	89.94
369.541	88.94
369.767	79.94
369.993	89.94
370.219	95.94
370.445	97.94
370.672	93.94
370.898	90.94
371.124	80.94
371.35	81.94
371.576	96.94
371.802	92.94
372.028	86.94
372.254	89.94
372.48	79.94
372.706	84.94
372.932	83.94
373.158	83.94
373.384	86.94
373.61	92.94
373.835	101.94
374.061	75.94
374.287	105.94
374.513	106.94
374.739	88.94
374.965	95.94
375.191	82.94
375.416	95.94
375.642	94.94
375.868	67.94
376.094	96.94
376.319	96.94
376.545	97.94
376.771	84.94
376.997	72.94
377.222	95.94
377.448	103.94
377.674	93.94
377.899	89.94
378.125	80.94
378.35	93.94
378.576	98.94
378.802	87.94
379.027	94.94
379.253	91.94
379.478	92.94
379.704	78.94
379.929	105.94
380.155	89.94
380.38	96.94
380.606	84.94
380.831	93.94
381.057	99.94
381.282	88.94
381.507	91.94
381.733	99.94
381.958	97.94
382.184	85.94
382.409	109.94
382.634	85.94
382.86	91.94
383.085	90.94
383.31	96.94
383.535	106.94
383.761	98.94
383.986	99.94
384.211	85.94
384.436	91.94
384.662	93.94
384.887	70.94
385.112	98.94
385.337	87.94
385.562	97.94
385.787	102.94
386.013	95.94
386.238	104.94
386.463	105.94
386.688	102.94
386.913	90.94
387.138	99.94
387.363	91.94
387.588	97.94
387.813	85.94
388.038	96.94
388.263	109.94
388.488	99.94
388.713	93.94
388.938	87.94
389.163	85.94
389.387	83.94
389.612	102.94
389.837	86.94
390.062	112.94
390.287	78.94
390.512	91.94
390.736	90.94
390.961	92.94
391.186	98.94
391.411	111.94
391.636	106.94
391.86	89.94
392.085	97.94
392.31	86.94
392.534	90.94
392.759	89.94
392.984	83.94
393.208	83.94
393.433	94.94
393.658	86.94
393.882	82.94
394.107	93.94
394.331	75.94
394.556	72.94
394.78	90.94
395.005	89.94
395.229	73.94
395.454	91.94
395.678	74.94
395.903	92.94
396.127	89.94
396.352	77.94
396.576	88.94
396.801	77.94
397.025	85.94
397.249	96.94
397.474	89.94
397.698	90.94
397.922	85.94
398.147	88.94
398.371	87.94
398.595	88.94
398.82	77.94
399.044	73.94
399.268	92.94
399.492	88.94
399.717	95.94
399.941	75.94
400.165	97.94
400.389	81.94
400.613	88.94
400.837	105.94
401.062	74.94
401.286	100.94
401.51	98.94
401.734	81.94
401.958	100.94
402.182	120.94
402.406	147.94
402.63	124.94
402.854	85.94
403.078	86.94
403.302	77.94
403.526	88.94
403.75	71.94
403.974	88.94
404.198	98.94
404.422	84.94
404.645	91.94
404.869	83.94
405.093	94.94
405.317	98.94
405.541	101.94
405.765	87.94
405.988	119.94
406.212	155.94
406.436	221.94
406.66	144.94
406.883	102.94
407.107	85.94
407.331	91.94
407.555	97.94
407.778	94.94
408.002	80.94
408.226	80.94
408.449	78.94
408.673	85.94
408.896	86.94
409.12	104.94
409.344	93.94
409.567	82.94
409.791	99.94
410.014	93.94
410.238	99.94
410.461	91.94
410.685	87.94
410.908	90.94
411.132	105.94
411.355	99.94
411.578	94.94
411.802	86.94
412.025	87.94
412.249	89.94
412.472	79.94
412.695	94.94
412.919	87.94
413.142	86.94
413.365	93.94
413.589	88.94
413.812	91.94
414.035	99.94
414.258	90.94
414.482	80.94
414.705	83.94
414.928	85.94
415.151	80.94
415.374	83.94
415.597	83.94
415.821	101.94
416.044	90.94
416.267	89.94
416.49	96.94
416.713	91.94
416.936	83.94
417.159	87.94
417.382	99.94
417.605	78.94
417.828	86.94
418.051	90.94
418.274	86.94
418.497	88.94
418.72	86.94
418.943	88.94
419.166	97.94
419.389	86.94
419.611	90.94
419.834	88.94
420.057	95.94
420.28	71.94
420.503	94.94
420.726	90.94
420.948	100.94
421.171	107.94
421.394	94.94
421.617	86.94
421.839	101.94
422.062	77.94
422.285	87.94
422.507	116.94
422.73	90.94
422.953	94.94
423.175	98.94
423.398	100.94
423.621	102.94
423.843	82.94
424.066	96.94
424.288	73.94
424.511	99.94
424.733	96.94
424.956	98.94
425.178	103.94
425.401	96.94
425.623	81.94
425.846	85.94
426.068	99.94
426.291	83.94
426.513	88.94
426.735	102.94
426.958	80.94
427.18	105.94
427.402	116.94
427.625	147.94
427.847	120.94
428.069	105.94
428.292	85.94
428.514	91.94
428.736	86.94
428.958	81.94
429.181	87.94
429.403	85.94
429.625	74.94
429.847	85.94
430.069	104.94
430.292	84.94
430.514	84.94
430.736	84.94
430.958	76.94
431.18	83.94
431.402	93.94
431.624	79.94
431.846	88.94
432.068	85.94
432.29	85.94
432.512	92.94
432.734	77.94
432.956	103.94
433.178	83.94
433.4	100.94
433.622	93.94
433.844	75.94
434.066	86.94
434.287	88.94
434.509	95.94
434.731	83.94
434.953	94.94
435.175	100.94
435.397	84.94
435.618	89.94
435.84	111.94
436.062	121.94
436.284	103.94
436.505	95.94
436.727	105.94
436.949	100.94
437.17	87.94
437.392	82.94
437.614	103.94
437.835	96.94
438.057	115.94
438.278	108.94
438.5	95.94
438.721	121.94
438.943	102.94
439.165	82.94
439.386	78.94
439.608	76.94
439.829	92.94
440.05	105.94
440.272	132.94
440.493	73.94
440.715	84.94
440.936	84.94
441.158	87.94
441.379	93.94
441.6	75.94
441.822	91.94
442.043	98.94
442.264	106.94
442.486	108.94
442.707	98.94
442.928	97.94
443.149	121.94
443.371	130.94
443.592	111.94
443.813	104.94
444.034	108.94
444.255	79.94
444.476	88.94
444.698	79.94
444.919	82.94
445.14	136.94
445.361	116.94
445.582	99.94
445.803	139.94
446.024	126.94
446.245	134.94
446.466	98.94
446.687	85.94
446.908	97.94
447.129	90.94
447.35	84.94
447.571	98.94
447.792	92.94
448.013	105.94
448.234	107.94
448.455	93.94
448.675	116.94
448.896	115.94
449.117	89.94
449.338	95.94
449.559	112.94
449.779	119.94
450	85.94
450.221	83.94
450.442	91.94
450.662	85.94
450.883	94.94
451.104	105.94
451.324	90.94
451.545	91.94
451.766	87.94
451.986	83.94
452.207	88.94
452.428	93.94
452.648	101.94
452.869	105.94
453.089	129.94
453.31	118.94
453.53	81.94
453.751	84.94
453.971	103.94
454.192	96.94
454.412	97.94
454.633	91.94
454.853	78.94
455.073	73.94
455.294	91.94
455.514	90.94
455.734	94.94
455.955	95.94
456.175	91.94
456.395	93.94
456.616	84.94
456.836	84.94
457.056	91.94
457.276	81.94
457.497	89.94
457.717	96.94
457.937	91.94
458.157	100.94
458.377	93.94
458.598	102.94
458.818	142.94
459.038	150.94
459.258	105.94
459.478	71.94
459.698	79.94
459.918	81.94
460.138	82.94
460.358	94.94
460.578	81.94
460.798	90.94
461.018	88.94
461.238	87.94
461.458	75.94
461.678	93.94
461.898	89.94
462.118	80.94
462.338	93.94
462.558	78.94
462.777	65.94
462.997	77.94
463.217	95.94
463.437	91.94
463.657	95.94
463.876	95.94
464.096	86.94
464.316	97.94
464.536	74.94
464.755	92.94
464.975	97.94
465.195	145.94
465.414	143.94
465.634	97.94
465.854	101.94
466.073	90.94
466.293	102.94
466.512	96.94
466.732	83.94
466.951	81.94
467.171	87.94
467.391	102.94
467.61	104.94
467.829	84.94
468.049	94.94
468.268	83.94
468.488	85.94
468.707	89.94
468.927	80.94
469.146	89.94
469.365	74.94
469.585	77.94
469.804	93.94
470.023	97.94
470.243	93.94
470.462	106.94
470.681	112.94
470.901	105.94
471.12	91.94
471.339	90.94
471.558	94.94
471.777	85.94
471.997	101.94
472.216	88.94
472.435	99.94
472.654	88.94
472.873	85.94
473.092	80.94
473.311	89.94
473.53	72.94
473.749	92.94
473.968	87.94
474.187	97.94
474.406	100.94
474.625	83.94
474.844	90.94
475.063	87.94
475.282	97.94
475.501	75.94
475.72	87.94
475.939	84.94
476.158	83.94
476.377	84.94
476.596	88.94
476.814	81.94
477.033	82.94
477.252	98.94
477.471	86.94
477.69	83.94
477.908	91.94
478.127	99.94
478.346	90.94
478.564	97.94
478.783	90.94
479.002	94.94
479.22	85.94
479.439	103.94
479.658	110.94
479.876	101.94
480.095	86.94
480.313	86.94
480.532	86.94
480.751	95.94
480.969	102.94
481.188	125.94
481.406	108.94
481.624	95.94
481.843	94.94
482.061	80.94
482.28	93.94
482.498	96.94
482.717	83.94
482.935	96.94
483.153	93.94
483.372	90.94
483.59	97.94
483.808	89.94
484.027	102.94
484.245	97.94
484.463	87.94
484.681	92.94
484.9	89.94
485.118	92.94
485.336	85.94
485.554	101.94
485.772	99.94
485.99	94.94
486.209	99.94
486.427	87.94
486.645	107.94
486.863	105.94
487.081	109.94
487.299	95.94
487.517	104.94
487.735	94.94
487.953	102.94
488.171	100.94
488.389	84.94
488.607	91.94
488.825	86.94
489.043	98.94
489.261	86.94
489.479	82.94
489.696	101.94
489.914	83.94
490.132	85.94
490.35	95.94
490.568	84.94
490.786	92.94
491.003	99.94
491.221	95.94
491.439	99.94
491.657	93.94
491.874	95.94
492.092	102.94
492.31	85.94
492.527	112.94
492.745	87.94
492.963	83.94
493.18	86.94
493.398	99.94
493.615	103.94
493.833	93.94
494.05	68.94
494.268	91.94
494.485	91.94
494.703	102.94
494.92	103.94
495.138	93.94
495.355	90.94
495.573	84.94
495.79	86.94
496.008	98.94
496.225	84.94
496.442	93.94
496.66	101.94
496.877	110.94
497.094	103.94
497.312	85.94
497.529	84.94
497.746	89.94
497.963	88.94
498.181	101.94
498.398	94.94
498.615	111.94
498.832	102.94
499.049	84.94
499.267	86.94
499.484	102.94
499.701	79.94
499.918	101.94
500.135	88.94
500.352	101.94
500.569	83.94
500.786	90.94
501.003	97.94
501.22	86.94
501.437	93.94
501.654	95.94
501.871	100.94
502.088	93.94
502.305	88.94
502.522	103.94
502.739	97.94
502.956	82.94
503.172	93.94
503.389	98.94
503.606	111.94
503.823	103.94
504.04	82.94
504.256	95.94
504.473	87.94
504.69	78.94
504.907	98.94
505.123	89.94
505.34	80.94
505.557	87.94
505.773	101.94
505.99	92.94
506.207	98.94
506.423	116.94
506.64	110.94
506.856	85.94
507.073	82.94
507.289	91.94
507.506	93.94
507.722	106.94
507.939	111.94
508.155	87.94
508.372	97.94
508.588	97.94
508.805	101.94
509.021	97.94
509.238	100.94
509.454	93.94
509.67	97.94
509.887	108.94
510.103	130.94
510.319	212.94
510.536	685.94
510.752	2190.94
510.968	602.94
511.184	141.94
511.401	103.94
511.617	111.94
511.833	93.94
512.049	89.94
512.265	90.94
512.481	101.94
512.698	101.94
512.914	85.94
513.13	93.94
513.346	80.94
513.562	95.94
513.778	101.94
513.994	101.94
514.21	95.94
514.426	104.94
514.642	114.94
514.858	115.94
515.074	162.94
515.29	406.94
515.506	1333.94
515.721	506.94
515.937	141.94
516.153	109.94
516.369	93.94
516.585	107.94
516.801	99.94
517.016	102.94
517.232	99.94
517.448	95.94
517.664	99.94
517.879	90.94
518.095	92.94
518.311	103.94
518.527	94.94
518.742	81.94
518.958	97.94
519.173	96.94
519.389	101.94
519.605	96.94
519.82	101.94
520.036	97.94
520.251	114.94
520.467	107.94
520.682	96.94
520.898	113.94
521.113	106.94
521.329	130.94
521.544	196.94
521.76	517.94
521.975	2209.94
522.19	1297.94
522.406	277.94
522.621	124.94
522.836	122.94
523.052	88.94
523.267	110.94
523.482	98.94
523.698	95.94
523.913	112.94
524.128	105.94
524.343	98.94
524.559	92.94
524.774	88.94
524.989	99.94
525.204	109.94
525.419	99.94
525.634	99.94
525.849	90.94
526.064	86.94
526.28	100.94
526.495	96.94
526.71	98.94
526.925	92.94
527.14	93.94
527.355	88.94
527.57	96.94
527.785	85.94
527.999	98.94
528.214	96.94
528.429	98.94
528.644	95.94
528.859	102.94
529.074	85.94
529.289	118.94
529.503	168.94
529.718	98.94
529.933	96.94
530.148	99.94
530.363	114.94
530.577	99.94
530.792	93.94
531.007	84.94
531.221	99.94
531.436	100.94
531.651	100.94
531.865	98.94
532.08	106.94
532.295	82.94
532.509	97.94
532.724	89.94
532.938	73.94
533.153	100.94
533.367	102.94
533.582	89.94
533.796	94.94
534.011	78.94
534.225	93.94
534.44	85.94
534.654	70.94
534.868	76.94
535.083	87.94
535.297	82.94
535.511	92.94
535.726	79.94
535.94	99.94
536.154	103.94
536.369	87.94
536.583	96.94
536.797	92.94
537.011	91.94
537.225	101.94
537.44	91.94
537.654	96.94
537.868	93.94
538.082	109.94
538.296	99.94
538.51	94.94
538.724	109.94
538.938	91.94
539.153	95.94
539.367	113.94
539.581	95.94
539.795	90.94
540.009	107.94
540.222	101.94
540.436	101.94
540.65	93.94
540.864	99.94
541.078	102.94
541.292	75.94
541.506	98.94
541.72	84.94
541.934	99.94
542.147	86.94
542.361	92.94
542.575	97.94
542.789	102.94
543.002	81.94
543.216	79.94
543.43	93.94
543.644	98.94
543.857	97.94
544.071	94.94
544.285	103.94
544.498	85.94
544.712	101.94
544.925	110.94
545.139	105.94
545.352	86.94
545.566	101.94
545.779	77.94
545.993	95.94
546.206	81.94
546.42	101.94
546.633	102.94
546.847	92.94
547.06	91.94
547.274	100.94
547.487	101.94
547.7	93.94
547.914	81.94
548.127	84.94
548.34	106.94
548.554	82.94
548.767	75.94
548.98	77.94
549.193	81.94
549.407	98.94
549.62	99.94
549.833	96.94
550.046	80.94
550.259	101.94
550.473	91.94
550.686	94.94
550.899	86.94
551.112	81.94
551.325	99.94
551.538	83.94
551.751	87.94
551.964	110.94
552.177	114.94
552.39	88.94
552.603	79.94
552.816	94.94
553.029	98.94
553.242	89.94
553.455	97.94
553.667	102.94
553.88	110.94
554.093	87.94
554.306	96.94
554.519	87.94
554.732	101.94
554.944	99.94
555.157	106.94
555.37	82.94
555.583	100.94
555.795	95.94
556.008	103.94
556.221	106.94
556.433	85.94
556.646	101.94
556.859	86.94
557.071	97.94
557.284	97.94
557.496	103.94
557.709	81.94
557.921	87.94
558.134	94.94
558.346	79.94
558.559	80.94
558.771	101.94
558.984	92.94
559.196	106.94
559.409	87.94
559.621	83.94
559.833	73.94
560.046	86.94
560.258	99.94
560.47	93.94
560.683	87.94
560.895	84.94
561.107	93.94
561.32	102.94
561.532	89.94
561.744	98.94
561.956	85.94
562.168	87.94
562.381	103.94
562.593	94.94
562.805	90.94
563.017	101.94
563.229	104.94
563.441	97.94
563.653	102.94
563.865	90.94
564.077	85.94
564.289	94.94
564.501	85.94
564.713	102.94
564.925	107.94
565.137	89.94
565.349	95.94
565.561	90.94
565.773	99.94
565.985	84.94
566.197	75.94
566.408	101.94
566.62	86.94
566.832	96.94
567.044	97.94
567.255	101.94
567.467	87.94
567.679	93.94
567.891	103.94
568.102	95.94
568.314	87.94
568.526	85.94
568.737	98.94
568.949	87.94
569.161	81.94
569.372	77.94
569.584	83.94
569.795	82.94
570.007	110.94
570.218	243.94
570.43	123.94
570.641	94.94
570.853	88.94
571.064	91.94
571.276	87.94
571.487	94.94
571.698	89.94
571.91	86.94
572.121	84.94
572.333	88.94
572.544	77.94
572.755	79.94
572.966	99.94
573.178	95.94
573.389	94.94
573.6	89.94
573.811	83.94
574.023	93.94
574.234	95.94
574.445	97.94
574.656	96.94
574.867	90.94
575.078	78.94
575.289	79.94
575.501	94.94
575.712	90.94
575.923	86.94
576.134	94.94
576.345	90.94
576.556	98.94
576.767	91.94
576.978	97.94
577.188	94.94
577.399	98.94
577.61	95.94
577.821	90.94
578.032	113.94
578.243	256.94
578.454	685.94
578.665	202.94
578.875	100.94
579.086	103.94
579.297	94.94
579.508	91.94
579.718	97.94
579.929	88.94
580.14	99.94
580.35	94.94
580.561	71.94
580.772	80.94
580.982	82.94
581.193	85.94
581.403	95.94
581.614	81.94
581.825	80.94
582.035	83.94
582.246	96.94
582.456	86.94
582.667	80.94
582.877	85.94
583.087	90.94
583.298	92.94
583.508	74.94
583.719	79.94
583.929	103.94
584.139	88.94
584.35	79.94
584.56	95.94
584.77	79.94
584.981	87.94
585.191	90.94
585.401	88.94
585.611	95.94
585.821	82.94
586.032	78.94
586.242	93.94
586.452	88.94
586.662	81.94
586.872	81.94
587.082	102.94
587.292	97.94
587.502	98.94
587.713	70.94
587.923	94.94
588.133	79.94
588.343	80.94
588.553	86.94
588.762	98.94
588.972	88.94
589.182	97.94
589.392	88.94
589.602	75.94
589.812	75.94
590.022	100.94
590.232	91.94
590.441	94.94
590.651	95.94
590.861	91.94
591.071	85.94
591.281	87.94
591.49	97.94
591.7	96.94
591.91	107.94
592.119	90.94
592.329	94.94
592.539	85.94
592.748	86.94
592.958	74.94
593.167	87.94
593.377	83.94
593.587	92.94
593.796	85.94
594.006	89.94
594.215	98.94
594.424	77.94
594.634	91.94
594.843	80.94
595.053	93.94
595.262	94.94
595.472	86.94
595.681	78.94
595.89	102.94
596.1	88.94
596.309	85.94
596.518	89.94
596.727	82.94
596.937	99.94
597.146	78.94
597.355	87.94
597.564	87.94
597.774	89.94
597.983	78.94
598.192	87.94
598.401	98.94
598.61	93.94
598.819	83.94
599.028	91.94
599.237	87.94
599.446	85.94
599.655	88.94
599.864	79.94
600.073	83.94
600.282	79.94
600.491	90.94
600.7	85.94
600.909	86.94
601.118	90.94
601.327	91.94
601.536	102.94
601.745	93.94
601.953	96.94
602.162	98.94
602.371	87.94
602.58	99.94
602.789	78.94
602.997	92.94
603.206	97.94
603.415	101.94
603.623	91.94
603.832	86.94
604.041	74.94
604.249	73.94
604.458	93.94
604.666	82.94
604.875	83.94
605.084	86.94
605.292	80.94
605.501	86.94
605.709	81.94
605.918	83.94
606.126	103.94
606.334	58.94
606.543	93.94
606.751	89.94
606.96	88.94
607.168	73.94
607.376	66.94
607.585	79.94
607.793	89.94
608.001	81.94
608.21	94.94
608.418	96.94
608.626	93.94
608.834	89.94
609.043	93.94
609.251	88.94
609.459	89.94
609.667	87.94
609.875	90.94
610.083	87.94
610.291	84.94
610.499	91.94
610.707	98.94
610.916	89.94
611.124	82.94
611.332	97.94
611.54	82.94
611.748	65.94
611.955	98.94
612.163	83.94
612.371	92.94
612.579	85.94
612.787	90.94
612.995	85.94
613.203	98.94
613.411	93.94
613.618	84.94
613.826	87.94
614.034	94.94
614.242	80.94
614.449	88.94
614.657	95.94
614.865	80.94
615.072	79.94
615.28	83.94
615.488	93.94
615.695	89.94
615.903	98.94
616.111	104.94
616.318	97.94
616.526	83.94
616.733	99.94
616.941	87.94
617.148	89.94
617.356	87.94
617.563	86.94
617.771	79.94
617.978	91.94
618.185	87.94
618.393	91.94
618.6	101.94
618.807	81.94
619.015	88.94
619.222	90.94
619.429	99.94
619.637	101.94
619.844	92.94
620.051	88.94
620.258	88.94
620.466	85.94
620.673	98.94
620.88	84.94
621.087	88.94
621.294	88.94
621.501	92.94
621.708	96.94
621.915	79.94
622.122	88.94
622.329	88.94
622.536	101.94
622.743	67.94
622.95	89.94
623.157	87.94
623.364	81.94
623.571	78.94
623.778	80.94
623.985	85.94
624.192	87.94
624.399	90.94
624.606	92.94
624.812	83.94
625.019	82.94
625.226	94.94
625.433	81.94
625.639	80.94
625.846	82.94
626.053	79.94
626.259	94.94
626.466	84.94
626.673	97.94
626.879	88.94
627.086	78.94
627.293	81.94
627.499	82.94
627.706	82.94
627.912	82.94
628.119	83.94
628.325	91.94
628.532	84.94
628.738	87.94
628.945	88.94
629.151	74.94
629.357	83.94
629.564	79.94
629.77	89.94
629.976	74.94
630.183	85.94
630.389	84.94
630.595	88.94
630.802	86.94
631.008	90.94
631.214	82.94
631.42	98.94
631.627	95.94
631.833	92.94
632.039	92.94
632.245	88.94
632.451	88.94
632.657	82.94
632.863	92.94
633.069	72.94
633.275	89.94
633.481	79.94
633.688	74.94
633.893	89.94
634.099	88.94
634.305	87.94
634.511	82.94
634.717	95.94
634.923	87.94
635.129	85.94
635.335	62.94
635.541	89.94
635.747	100.94
635.952	88.94
636.158	84.94
636.364	82.94
636.57	88.94
636.775	86.94
636.981	86.94
637.187	79.94
637.392	85.94
637.598	83.94
637.804	93.94
638.009	74.94
638.215	69.94
638.421	90.94
638.626	81.94
638.832	79.94
639.037	69.94
639.243	89.94
639.448	85.94
639.654	86.94
639.859	85.94
640.065	84.94
640.27	93.94
640.475	88.94
640.681	66.94
640.886	80.94
641.091	82.94
641.297	78.94
641.502	83.94
641.707	81.94
641.913	88.94
642.118	84.94
642.323	75.94
642.528	104.94
642.733	88.94
642.939	84.94
643.144	87.94
643.349	78.94
643.554	89.94
643.759	94.94
643.964	77.94
644.169	95.94
644.374	98.94
644.579	73.94
644.784	91.94
644.989	82.94
645.194	97.94
645.399	84.94
645.604	90.94
645.809	81.94
646.014	85.94
646.219	79.94
646.423	67.94
646.628	75.94
646.833	78.94
647.038	88.94
647.243	92.94
647.447	89.94
647.652	76.94
647.857	84.94
648.062	85.94
648.266	91.94
648.471	82.94
648.676	101.94
648.88	91.94
649.085	90.94
649.289	87.94
649.494	90.94
649.698	119.94
649.903	101.94
650.107	79.94
650.312	88.94
650.516	85.94
650.721	105.94
650.925	91.94
651.13	83.94
651.334	69.94
651.539	71.94
651.743	90.94
651.947	91.94
652.152	71.94
652.356	65.94
652.56	79.94
652.764	71.94
652.969	80.94
653.173	77.94
653.377	93.94
653.581	86.94
653.785	85.94
653.99	82.94
654.194	100.94
654.398	82.94
654.602	90.94
654.806	108.94
655.01	101.94
655.214	88.94
655.418	90.94
655.622	79.94
655.826	88.94
656.03	80.94
656.234	87.94
656.438	99.94
656.642	97.94
656.846	79.94
657.049	82.94
657.253	85.94
657.457	89.94
657.661	74.94
657.865	67.94
658.068	85.94
658.272	87.94
658.476	85.94
658.68	87.94
658.883	81.94
659.087	63.94
659.291	77.94
659.494	89.94
659.698	90.94
659.901	77.94
660.105	66.94
660.309	82.94
660.512	87.94
660.716	85.94
660.919	84.94
661.123	78.94
661.326	68.94
661.53	72.94
661.733	89.94
661.936	84.94
662.14	73.94
662.343	63.94
662.546	74.94
662.75	81.94
662.953	80.94
663.156	85.94
663.36	87.94
663.563	79.94
663.766	85.94
663.969	101.94
664.173	78.94
664.376	87.94
664.579	91.94
664.782	81.94
664.985	79.94
665.188	81.94
665.391	89.94
665.594	81.94
665.797	72.94
666	77.94
666.203	81.94
666.406	81.94
666.609	88.94
666.812	94.94
667.015	82.94
667.218	81.94
667.421	88.94
667.624	85.94
667.827	89.94
668.03	83.94
668.232	80.94
668.435	86.94
668.638	62.94
668.841	85.94
669.043	66.94
669.246	89.94
669.449	84.94
669.651	87.94
669.854	78.94
670.057	73.94
670.259	79.94
670.462	83.94
670.665	90.94
670.867	86.94
671.07	88.94
671.272	77.94
671.475	75.94
671.677	68.94
671.88	90.94
672.082	85.94
672.284	75.94
672.487	82.94
672.689	85.94
672.892	86.94
