Data from Uncirc_1987_H10_HRD10591_00038.txt Node
Date: Wed Jan 03 12:08:56 EST 2024
User: Yrep
Spectrometer: HR+D1059
Trigger mode: 1
Integration Time (sec): 1.000000E-1
Scans to average: 1
Electric dark correction enabled: true
Nonlinearity correction enabled: false
Boxcar width: 0
XAxis mode: Wavelengths
Number of Pixels in Spectrum: 2048
>>>>>Begin Spectral Data<<<<<
223.165	-24.81
223.4	-24.81
223.635	-24.81
223.869	-22.81
224.104	-6.81
224.338	1.19
224.573	-9.81
224.808	-3.81
225.042	-9.81
225.277	-15.81
225.511	-2.81
225.746	9.19
225.98	8.19
226.215	2.19
226.449	22.19
226.683	12.19
226.918	20.19
227.152	21.19
227.387	38.19
227.621	30.19
227.856	28.19
228.09	35.19
228.324	49.19
228.559	46.19
228.793	40.19
229.027	58.19
229.262	66.19
229.496	70.19
229.73	79.19
229.964	67.19
230.199	72.19
230.433	80.19
230.667	83.19
230.901	67.19
231.136	79.19
231.37	70.19
231.604	78.19
231.838	84.19
232.072	90.19
232.306	80.19
232.541	81.19
232.775	77.19
233.009	77.19
233.243	85.19
233.477	64.19
233.711	91.19
233.945	78.19
234.179	78.19
234.413	69.19
234.647	86.19
234.881	70.19
235.115	78.19
235.349	74.19
235.583	81.19
235.817	72.19
236.051	59.19
236.285	71.19
236.519	61.19
236.753	59.19
236.987	61.19
237.221	78.19
237.455	83.19
237.689	62.19
237.922	85.19
238.156	88.19
238.39	77.19
238.624	82.19
238.858	76.19
239.091	88.19
239.325	80.19
239.559	86.19
239.793	84.19
240.027	83.19
240.26	81.19
240.494	83.19
240.728	74.19
240.961	70.19
241.195	81.19
241.429	68.19
241.662	75.19
241.896	76.19
242.13	64.19
242.363	65.19
242.597	78.19
242.83	88.19
243.064	67.19
243.298	93.19
243.531	78.19
243.765	75.19
243.998	86.19
244.232	68.19
244.465	90.19
244.699	74.19
244.932	64.19
245.166	65.19
245.399	80.19
245.633	80.19
245.866	64.19
246.099	70.19
246.333	74.19
246.566	89.19
246.8	77.19
247.033	82.19
247.266	42.19
247.5	81.19
247.733	62.19
247.966	76.19
248.2	69.19
248.433	62.19
248.666	74.19
248.899	93.19
249.133	88.19
249.366	82.19
249.599	85.19
249.832	85.19
250.066	75.19
250.299	70.19
250.532	62.19
250.765	77.19
250.998	79.19
251.231	79.19
251.465	80.19
251.698	63.19
251.931	73.19
252.164	70.19
252.397	63.19
252.63	81.19
252.863	66.19
253.096	76.19
253.329	76.19
253.562	82.19
253.795	87.19
254.028	84.19
254.261	86.19
254.494	61.19
254.727	86.19
254.96	68.19
255.193	79.19
255.426	81.19
255.659	77.19
255.892	75.19
256.124	89.19
256.357	70.19
256.59	80.19
256.823	84.19
257.056	93.19
257.289	76.19
257.521	76.19
257.754	90.19
257.987	76.19
258.22	81.19
258.452	77.19
258.685	99.19
258.918	91.19
259.151	84.19
259.383	79.19
259.616	66.19
259.849	78.19
260.081	84.19
260.314	87.19
260.547	75.19
260.779	79.19
261.012	91.19
261.244	79.19
261.477	81.19
261.71	84.19
261.942	107.19
262.175	115.19
262.407	64.19
262.64	77.19
262.872	90.19
263.105	86.19
263.337	89.19
263.57	74.19
263.802	71.19
264.035	76.19
264.267	88.19
264.499	96.19
264.732	79.19
264.964	71.19
265.197	83.19
265.429	66.19
265.661	74.19
265.894	81.19
266.126	82.19
266.358	82.19
266.591	71.19
266.823	95.19
267.055	76.19
267.287	85.19
267.52	78.19
267.752	86.19
267.984	92.19
268.216	84.19
268.448	70.19
268.681	84.19
268.913	80.19
269.145	95.19
269.377	77.19
269.609	69.19
269.841	79.19
270.073	85.19
270.306	84.19
270.538	70.19
270.77	89.19
271.002	87.19
271.234	74.19
271.466	92.19
271.698	79.19
271.93	74.19
272.162	90.19
272.394	90.19
272.626	83.19
272.858	78.19
273.09	85.19
273.322	81.19
273.553	81.19
273.785	90.19
274.017	83.19
274.249	86.19
274.481	86.19
274.713	81.19
274.945	100.19
275.176	93.19
275.408	101.19
275.64	71.19
275.872	78.19
276.104	77.19
276.335	95.19
276.567	98.19
276.799	101.19
277.031	100.19
277.262	85.19
277.494	82.19
277.726	85.19
277.957	78.19
278.189	74.19
278.421	78.19
278.652	86.19
278.884	88.19
279.115	78.19
279.347	90.19
279.579	78.19
279.81	96.19
280.042	80.19
280.273	100.19
280.505	82.19
280.736	74.19
280.968	98.19
281.199	86.19
281.431	88.19
281.662	98.19
281.894	97.19
282.125	90.19
282.356	111.19
282.588	127.19
282.819	98.19
283.051	101.19
283.282	96.19
283.513	84.19
283.745	70.19
283.976	77.19
284.207	86.19
284.439	76.19
284.67	96.19
284.901	81.19
285.132	99.19
285.364	85.19
285.595	90.19
285.826	80.19
286.057	78.19
286.288	94.19
286.52	76.19
286.751	73.19
286.982	79.19
287.213	83.19
287.444	91.19
287.675	69.19
287.906	98.19
288.138	84.19
288.369	87.19
288.6	92.19
288.831	84.19
289.062	87.19
289.293	93.19
289.524	72.19
289.755	72.19
289.986	86.19
290.217	76.19
290.448	95.19
290.679	75.19
290.91	99.19
291.141	97.19
291.371	99.19
291.602	83.19
291.833	75.19
292.064	78.19
292.295	85.19
292.526	92.19
292.757	86.19
292.987	79.19
293.218	83.19
293.449	85.19
293.68	77.19
293.91	96.19
294.141	85.19
294.372	90.19
294.603	88.19
294.833	86.19
295.064	96.19
295.295	80.19
295.525	104.19
295.756	103.19
295.987	112.19
296.217	138.19
296.448	124.19
296.679	92.19
296.909	82.19
297.14	85.19
297.37	88.19
297.601	96.19
297.831	76.19
298.062	82.19
298.292	82.19
298.523	89.19
298.753	79.19
298.984	88.19
299.214	87.19
299.445	79.19
299.675	99.19
299.905	88.19
300.136	67.19
300.366	78.19
300.597	88.19
300.827	90.19
301.057	107.19
301.288	98.19
301.518	92.19
301.748	88.19
301.979	90.19
302.209	74.19
302.439	81.19
302.669	81.19
302.9	87.19
303.13	96.19
303.36	92.19
303.59	90.19
303.82	110.19
304.051	83.19
304.281	91.19
304.511	95.19
304.741	93.19
304.971	84.19
305.201	82.19
305.431	79.19
305.661	86.19
305.891	91.19
306.121	84.19
306.352	100.19
306.582	106.19
306.812	93.19
307.042	80.19
307.272	94.19
307.502	87.19
307.731	87.19
307.961	99.19
308.191	93.19
308.421	83.19
308.651	97.19
308.881	93.19
309.111	108.19
309.341	85.19
309.571	103.19
309.8	84.19
310.03	99.19
310.26	89.19
310.49	90.19
310.72	92.19
310.949	90.19
311.179	106.19
311.409	98.19
311.639	83.19
311.868	96.19
312.098	94.19
312.328	90.19
312.557	91.19
312.787	95.19
313.017	91.19
313.246	83.19
313.476	90.19
313.706	93.19
313.935	101.19
314.165	85.19
314.394	101.19
314.624	100.19
314.853	96.19
315.083	91.19
315.312	95.19
315.542	88.19
315.771	88.19
316.001	74.19
316.23	82.19
316.46	96.19
316.689	83.19
316.919	89.19
317.148	100.19
317.377	101.19
317.607	94.19
317.836	90.19
318.065	92.19
318.295	91.19
318.524	96.19
318.753	83.19
318.983	87.19
319.212	102.19
319.441	92.19
319.67	106.19
319.9	91.19
320.129	88.19
320.358	93.19
320.587	93.19
320.816	99.19
321.046	88.19
321.275	94.19
321.504	82.19
321.733	72.19
321.962	87.19
322.191	85.19
322.42	96.19
322.649	104.19
322.878	104.19
323.108	116.19
323.337	116.19
323.566	135.19
323.795	160.19
324.024	187.19
324.253	381.19
324.482	780.19
324.71	1618.19
324.939	2167.19
325.168	773.19
325.397	238.19
325.626	131.19
325.855	106.19
326.084	120.19
326.313	122.19
326.542	143.19
326.77	209.19
326.999	452.19
327.228	922.19
327.457	1706.19
327.686	1333.19
327.914	351.19
328.143	169.19
328.372	138.19
328.6	106.19
328.829	114.19
329.058	111.19
329.287	109.19
329.515	96.19
329.744	114.19
329.972	100.19
330.201	86.19
330.43	109.19
330.658	106.19
330.887	147.19
331.115	118.19
331.344	95.19
331.572	103.19
331.801	109.19
332.03	92.19
332.258	101.19
332.486	87.19
332.715	88.19
332.943	91.19
333.172	92.19
333.4	97.19
333.629	96.19
333.857	105.19
334.085	88.19
334.314	94.19
334.542	104.19
334.771	102.19
334.999	99.19
335.227	97.19
335.455	83.19
335.684	109.19
335.912	100.19
336.14	96.19
336.369	98.19
336.597	103.19
336.825	80.19
337.053	94.19
337.281	82.19
337.51	102.19
337.738	77.19
337.966	93.19
338.194	84.19
338.422	95.19
338.65	102.19
338.878	91.19
339.106	92.19
339.334	87.19
339.562	76.19
339.79	86.19
340.018	84.19
340.246	88.19
340.474	97.19
340.702	95.19
340.93	84.19
341.158	95.19
341.386	100.19
341.614	94.19
341.842	107.19
342.07	92.19
342.298	83.19
342.526	77.19
342.754	89.19
342.981	76.19
343.209	81.19
343.437	98.19
343.665	78.19
343.893	95.19
344.12	104.19
344.348	79.19
344.576	83.19
344.804	101.19
345.031	86.19
345.259	100.19
345.487	88.19
345.714	83.19
345.942	88.19
346.17	92.19
346.397	95.19
346.625	90.19
346.853	83.19
347.08	74.19
347.308	90.19
347.535	87.19
347.763	100.19
347.99	95.19
348.218	94.19
348.445	107.19
348.673	94.19
348.9	84.19
349.128	104.19
349.355	87.19
349.583	86.19
349.81	85.19
350.037	81.19
350.265	90.19
350.492	84.19
350.72	83.19
350.947	90.19
351.174	103.19
351.402	103.19
351.629	98.19
351.856	91.19
352.083	98.19
352.311	102.19
352.538	107.19
352.765	80.19
352.992	109.19
353.22	110.19
353.447	91.19
353.674	98.19
353.901	79.19
354.128	102.19
354.355	96.19
354.583	95.19
354.81	102.19
355.037	93.19
355.264	80.19
355.491	106.19
355.718	87.19
355.945	92.19
356.172	90.19
356.399	85.19
356.626	98.19
356.853	80.19
357.08	85.19
357.307	92.19
357.534	89.19
357.761	91.19
357.988	85.19
358.215	90.19
358.441	92.19
358.668	92.19
358.895	94.19
359.122	70.19
359.349	87.19
359.576	97.19
359.802	92.19
360.029	107.19
360.256	119.19
360.483	94.19
360.709	93.19
360.936	92.19
361.163	90.19
361.39	95.19
361.616	98.19
361.843	82.19
362.07	93.19
362.296	92.19
362.523	98.19
362.749	100.19
362.976	91.19
363.203	83.19
363.429	83.19
363.656	82.19
363.882	101.19
364.109	87.19
364.335	83.19
364.562	75.19
364.788	82.19
365.015	85.19
365.241	95.19
365.468	110.19
365.694	102.19
365.92	80.19
366.147	85.19
366.373	84.19
366.599	87.19
366.826	83.19
367.052	86.19
367.278	93.19
367.505	82.19
367.731	98.19
367.957	98.19
368.184	84.19
368.41	79.19
368.636	94.19
368.862	100.19
369.089	103.19
369.315	88.19
369.541	104.19
369.767	86.19
369.993	85.19
370.219	96.19
370.445	85.19
370.672	85.19
370.898	82.19
371.124	98.19
371.35	80.19
371.576	83.19
371.802	85.19
372.028	84.19
372.254	86.19
372.48	74.19
372.706	80.19
372.932	86.19
373.158	79.19
373.384	101.19
373.61	88.19
373.835	77.19
374.061	79.19
374.287	73.19
374.513	99.19
374.739	82.19
374.965	83.19
375.191	88.19
375.416	89.19
375.642	86.19
375.868	83.19
376.094	76.19
376.319	99.19
376.545	85.19
376.771	78.19
376.997	75.19
377.222	71.19
377.448	82.19
377.674	95.19
377.899	98.19
378.125	76.19
378.35	86.19
378.576	85.19
378.802	91.19
379.027	82.19
379.253	98.19
379.478	87.19
379.704	85.19
379.929	95.19
380.155	106.19
380.38	87.19
380.606	98.19
380.831	88.19
381.057	100.19
381.282	94.19
381.507	95.19
381.733	98.19
381.958	97.19
382.184	104.19
382.409	88.19
382.634	91.19
382.86	99.19
383.085	106.19
383.31	103.19
383.535	93.19
383.761	95.19
383.986	96.19
384.211	96.19
384.436	90.19
384.662	98.19
384.887	85.19
385.112	92.19
385.337	99.19
385.562	87.19
385.787	107.19
386.013	99.19
386.238	102.19
386.463	86.19
386.688	103.19
386.913	102.19
387.138	86.19
387.363	88.19
387.588	98.19
387.813	92.19
388.038	95.19
388.263	97.19
388.488	95.19
388.713	87.19
388.938	79.19
389.163	96.19
389.387	104.19
389.612	99.19
389.837	92.19
390.062	94.19
390.287	82.19
390.512	82.19
390.736	92.19
390.961	93.19
391.186	97.19
391.411	85.19
391.636	100.19
391.86	78.19
392.085	80.19
392.31	69.19
392.534	68.19
392.759	79.19
392.984	91.19
393.208	87.19
393.433	82.19
393.658	98.19
393.882	94.19
394.107	81.19
394.331	95.19
394.556	70.19
394.78	90.19
395.005	92.19
395.229	78.19
395.454	86.19
395.678	84.19
395.903	99.19
396.127	78.19
396.352	75.19
396.576	87.19
396.801	79.19
397.025	101.19
397.249	75.19
397.474	80.19
397.698	80.19
397.922	93.19
398.147	86.19
398.371	66.19
398.595	92.19
398.82	90.19
399.044	95.19
399.268	82.19
399.492	93.19
399.717	97.19
399.941	82.19
400.165	82.19
400.389	86.19
400.613	77.19
400.837	80.19
401.062	76.19
401.286	93.19
401.51	82.19
401.734	92.19
401.958	93.19
402.182	126.19
402.406	139.19
402.63	108.19
402.854	83.19
403.078	83.19
403.302	76.19
403.526	93.19
403.75	96.19
403.974	86.19
404.198	76.19
404.422	85.19
404.645	85.19
404.869	85.19
405.093	88.19
405.317	94.19
405.541	92.19
405.765	110.19
405.988	107.19
406.212	167.19
406.436	200.19
406.66	132.19
406.883	81.19
407.107	99.19
407.331	104.19
407.555	109.19
407.778	104.19
408.002	76.19
408.226	98.19
408.449	86.19
408.673	81.19
408.896	85.19
409.12	91.19
409.344	101.19
409.567	78.19
409.791	89.19
410.014	99.19
410.238	99.19
410.461	80.19
410.685	90.19
410.908	91.19
411.132	86.19
411.355	101.19
411.578	86.19
411.802	91.19
412.025	77.19
412.249	85.19
412.472	84.19
412.695	90.19
412.919	94.19
413.142	88.19
413.365	83.19
413.589	85.19
413.812	85.19
414.035	88.19
414.258	97.19
414.482	79.19
414.705	84.19
414.928	98.19
415.151	83.19
415.374	94.19
415.597	86.19
415.821	82.19
416.044	84.19
416.267	81.19
416.49	78.19
416.713	79.19
416.936	80.19
417.159	83.19
417.382	81.19
417.605	79.19
417.828	91.19
418.051	91.19
418.274	82.19
418.497	82.19
418.72	77.19
418.943	83.19
419.166	71.19
419.389	83.19
419.611	102.19
419.834	76.19
420.057	84.19
420.28	85.19
420.503	74.19
420.726	86.19
420.948	84.19
421.171	87.19
421.394	88.19
421.617	69.19
421.839	79.19
422.062	96.19
422.285	93.19
422.507	87.19
422.73	112.19
422.953	101.19
423.175	81.19
423.398	84.19
423.621	91.19
423.843	92.19
424.066	86.19
424.288	77.19
424.511	78.19
424.733	96.19
424.956	110.19
425.178	103.19
425.401	97.19
425.623	96.19
425.846	78.19
426.068	70.19
426.291	86.19
426.513	82.19
426.735	85.19
426.958	94.19
427.18	111.19
427.402	126.19
427.625	155.19
427.847	116.19
428.069	80.19
428.292	80.19
428.514	83.19
428.736	80.19
428.958	92.19
429.181	87.19
429.403	74.19
429.625	84.19
429.847	91.19
430.069	92.19
430.292	83.19
430.514	75.19
430.736	82.19
430.958	96.19
431.18	74.19
431.402	84.19
431.624	94.19
431.846	82.19
432.068	79.19
432.29	88.19
432.512	90.19
432.734	78.19
432.956	89.19
433.178	104.19
433.4	102.19
433.622	86.19
433.844	81.19
434.066	91.19
434.287	90.19
434.509	81.19
434.731	85.19
434.953	81.19
435.175	79.19
435.397	80.19
435.618	78.19
435.84	96.19
436.062	110.19
436.284	112.19
436.505	85.19
436.727	95.19
436.949	89.19
437.17	94.19
437.392	74.19
437.614	91.19
437.835	97.19
438.057	112.19
438.278	104.19
438.5	106.19
438.721	108.19
438.943	96.19
439.165	88.19
439.386	92.19
439.608	89.19
439.829	101.19
440.05	125.19
440.272	138.19
440.493	97.19
440.715	71.19
440.936	77.19
441.158	84.19
441.379	82.19
441.6	88.19
441.822	87.19
442.043	93.19
442.264	91.19
442.486	107.19
442.707	86.19
442.928	103.19
443.149	133.19
443.371	115.19
443.592	108.19
443.813	109.19
444.034	110.19
444.255	98.19
444.476	88.19
444.698	83.19
444.919	74.19
445.14	130.19
445.361	117.19
445.582	128.19
445.803	124.19
446.024	130.19
446.245	119.19
446.466	112.19
446.687	97.19
446.908	78.19
447.129	88.19
447.35	86.19
447.571	86.19
447.792	86.19
448.013	99.19
448.234	99.19
448.455	94.19
448.675	114.19
448.896	112.19
449.117	96.19
449.338	107.19
449.559	125.19
449.779	138.19
450	85.19
450.221	86.19
450.442	90.19
450.662	88.19
450.883	99.19
451.104	94.19
451.324	101.19
451.545	78.19
451.766	90.19
451.986	80.19
452.207	92.19
452.428	94.19
452.648	94.19
452.869	96.19
453.089	111.19
453.31	103.19
453.53	96.19
453.751	92.19
453.971	108.19
454.192	98.19
454.412	93.19
454.633	93.19
454.853	74.19
455.073	82.19
455.294	78.19
455.514	96.19
455.734	90.19
455.955	102.19
456.175	85.19
456.395	82.19
456.616	82.19
456.836	92.19
457.056	80.19
457.276	72.19
457.497	69.19
457.717	74.19
457.937	86.19
458.157	97.19
458.377	74.19
458.598	108.19
458.818	141.19
459.038	150.19
459.258	108.19
459.478	92.19
459.698	74.19
459.918	67.19
460.138	82.19
460.358	88.19
460.578	79.19
460.798	67.19
461.018	81.19
461.238	91.19
461.458	80.19
461.678	88.19
461.898	72.19
462.118	84.19
462.338	78.19
462.558	79.19
462.777	74.19
462.997	90.19
463.217	93.19
463.437	60.19
463.657	64.19
463.876	91.19
464.096	91.19
464.316	88.19
464.536	96.19
464.755	85.19
464.975	90.19
465.195	156.19
465.414	142.19
465.634	97.19
465.854	81.19
466.073	86.19
466.293	77.19
466.512	81.19
466.732	79.19
466.951	84.19
467.171	95.19
467.391	93.19
467.61	108.19
467.829	86.19
468.049	76.19
468.268	86.19
468.488	93.19
468.707	84.19
468.927	85.19
469.146	89.19
469.365	92.19
469.585	93.19
469.804	85.19
470.023	91.19
470.243	74.19
470.462	84.19
470.681	100.19
470.901	83.19
471.12	83.19
471.339	83.19
471.558	81.19
471.777	94.19
471.997	89.19
472.216	81.19
472.435	81.19
472.654	76.19
472.873	87.19
473.092	85.19
473.311	86.19
473.53	89.19
473.749	92.19
473.968	86.19
474.187	92.19
474.406	93.19
474.625	83.19
474.844	83.19
475.063	89.19
475.282	84.19
475.501	86.19
475.72	89.19
475.939	85.19
476.158	86.19
476.377	85.19
476.596	90.19
476.814	91.19
477.033	101.19
477.252	96.19
477.471	78.19
477.69	93.19
477.908	89.19
478.127	63.19
478.346	87.19
478.564	81.19
478.783	96.19
479.002	78.19
479.22	75.19
479.439	97.19
479.658	85.19
479.876	90.19
480.095	84.19
480.313	88.19
480.532	88.19
480.751	75.19
480.969	95.19
481.188	105.19
481.406	114.19
481.624	91.19
481.843	74.19
482.061	64.19
482.28	95.19
482.498	92.19
482.717	83.19
482.935	74.19
483.153	84.19
483.372	91.19
483.59	74.19
483.808	69.19
484.027	80.19
484.245	92.19
484.463	102.19
484.681	81.19
484.9	88.19
485.118	94.19
485.336	76.19
485.554	79.19
485.772	89.19
485.99	93.19
486.209	102.19
486.427	102.19
486.645	102.19
486.863	104.19
487.081	98.19
487.299	98.19
487.517	86.19
487.735	94.19
487.953	90.19
488.171	87.19
488.389	102.19
488.607	90.19
488.825	87.19
489.043	84.19
489.261	86.19
489.479	79.19
489.696	96.19
489.914	82.19
490.132	88.19
490.35	96.19
490.568	83.19
490.786	79.19
491.003	86.19
491.221	78.19
491.439	89.19
491.657	97.19
491.874	94.19
492.092	81.19
492.31	91.19
492.527	80.19
492.745	92.19
492.963	91.19
493.18	89.19
493.398	93.19
493.615	95.19
493.833	82.19
494.05	77.19
494.268	83.19
494.485	83.19
494.703	89.19
494.92	95.19
495.138	85.19
495.355	79.19
495.573	97.19
495.79	88.19
496.008	91.19
496.225	94.19
496.442	91.19
496.66	95.19
496.877	95.19
497.094	89.19
497.312	83.19
497.529	81.19
497.746	87.19
497.963	93.19
498.181	95.19
498.398	104.19
498.615	101.19
498.832	91.19
499.049	84.19
499.267	75.19
499.484	87.19
499.701	91.19
499.918	94.19
500.135	82.19
500.352	85.19
500.569	83.19
500.786	84.19
501.003	89.19
501.22	84.19
501.437	98.19
501.654	93.19
501.871	99.19
502.088	94.19
502.305	94.19
502.522	97.19
502.739	81.19
502.956	83.19
503.172	75.19
503.389	78.19
503.606	105.19
503.823	108.19
504.04	93.19
504.256	91.19
504.473	84.19
504.69	87.19
504.907	89.19
505.123	98.19
505.34	89.19
505.557	79.19
505.773	95.19
505.99	92.19
506.207	83.19
506.423	71.19
506.64	88.19
506.856	74.19
507.073	85.19
507.289	90.19
507.506	101.19
507.722	90.19
507.939	109.19
508.155	95.19
508.372	92.19
508.588	89.19
508.805	104.19
509.021	91.19
509.238	99.19
509.454	108.19
509.67	92.19
509.887	96.19
510.103	134.19
510.319	234.19
510.536	735.19
510.752	2216.19
510.968	610.19
511.184	144.19
511.401	105.19
511.617	85.19
511.833	101.19
512.049	94.19
512.265	74.19
512.481	75.19
512.698	85.19
512.914	97.19
513.13	74.19
513.346	97.19
513.562	91.19
513.778	88.19
513.994	82.19
514.21	92.19
514.426	102.19
514.642	111.19
514.858	122.19
515.074	164.19
515.29	423.19
515.506	1380.19
515.721	500.19
515.937	147.19
516.153	93.19
516.369	109.19
516.585	80.19
516.801	95.19
517.016	91.19
517.232	90.19
517.448	95.19
517.664	84.19
517.879	82.19
518.095	85.19
518.311	94.19
518.527	99.19
518.742	91.19
518.958	87.19
519.173	88.19
519.389	89.19
519.605	88.19
519.82	103.19
520.036	90.19
520.251	108.19
520.467	114.19
520.682	105.19
520.898	102.19
521.113	120.19
521.329	138.19
521.544	191.19
521.76	549.19
521.975	2286.19
522.19	1320.19
522.406	287.19
522.621	104.19
522.836	100.19
523.052	99.19
523.267	98.19
523.482	89.19
523.698	96.19
523.913	112.19
524.128	104.19
524.343	108.19
524.559	86.19
524.774	71.19
524.989	94.19
525.204	88.19
525.419	96.19
525.634	88.19
525.849	86.19
526.064	89.19
526.28	82.19
526.495	82.19
526.71	95.19
526.925	92.19
527.14	88.19
527.355	90.19
527.57	83.19
527.785	101.19
527.999	87.19
528.214	81.19
528.429	90.19
528.644	92.19
528.859	84.19
529.074	95.19
529.289	126.19
529.503	156.19
529.718	111.19
529.933	78.19
530.148	92.19
530.363	69.19
530.577	86.19
530.792	77.19
531.007	92.19
531.221	104.19
531.436	93.19
531.651	101.19
531.865	92.19
532.08	91.19
532.295	96.19
532.509	92.19
532.724	103.19
532.938	111.19
533.153	97.19
533.367	86.19
533.582	92.19
533.796	79.19
534.011	92.19
534.225	100.19
534.44	83.19
534.654	85.19
534.868	95.19
535.083	84.19
535.297	98.19
535.511	102.19
535.726	92.19
535.94	97.19
536.154	98.19
536.369	98.19
536.583	92.19
536.797	87.19
537.011	83.19
537.225	67.19
537.44	88.19
537.654	90.19
537.868	92.19
538.082	80.19
538.296	89.19
538.51	87.19
538.724	93.19
538.938	99.19
539.153	86.19
539.367	94.19
539.581	93.19
539.795	77.19
540.009	84.19
540.222	92.19
540.436	91.19
540.65	82.19
540.864	89.19
541.078	90.19
541.292	95.19
541.506	92.19
541.72	94.19
541.934	82.19
542.147	100.19
542.361	84.19
542.575	89.19
542.789	85.19
543.002	88.19
543.216	91.19
543.43	87.19
543.644	82.19
543.857	87.19
544.071	88.19
544.285	92.19
544.498	98.19
544.712	90.19
544.925	92.19
545.139	86.19
545.352	86.19
545.566	76.19
545.779	94.19
545.993	77.19
546.206	80.19
546.42	90.19
546.633	96.19
546.847	91.19
547.06	83.19
547.274	83.19
547.487	89.19
547.7	80.19
547.914	91.19
548.127	96.19
548.34	105.19
548.554	99.19
548.767	86.19
548.98	91.19
549.193	96.19
549.407	81.19
549.62	90.19
549.833	84.19
550.046	92.19
550.259	68.19
550.473	80.19
550.686	79.19
550.899	91.19
551.112	95.19
551.325	98.19
551.538	96.19
551.751	93.19
551.964	94.19
552.177	82.19
552.39	81.19
552.603	74.19
552.816	75.19
553.029	87.19
553.242	94.19
553.455	99.19
553.667	101.19
553.88	100.19
554.093	85.19
554.306	90.19
554.519	100.19
554.732	91.19
554.944	92.19
555.157	90.19
555.37	79.19
555.583	88.19
555.795	85.19
556.008	86.19
556.221	78.19
556.433	99.19
556.646	87.19
556.859	84.19
557.071	71.19
557.284	100.19
557.496	78.19
557.709	86.19
557.921	80.19
558.134	75.19
558.346	94.19
558.559	88.19
558.771	88.19
558.984	79.19
559.196	77.19
559.409	86.19
559.621	85.19
559.833	86.19
560.046	90.19
560.258	88.19
560.47	72.19
560.683	87.19
560.895	71.19
561.107	84.19
561.32	75.19
561.532	92.19
561.744	76.19
561.956	95.19
562.168	78.19
562.381	93.19
562.593	98.19
562.805	86.19
563.017	78.19
563.229	86.19
563.441	88.19
563.653	76.19
563.865	76.19
564.077	92.19
564.289	90.19
564.501	76.19
564.713	94.19
564.925	94.19
565.137	105.19
565.349	97.19
565.561	83.19
565.773	90.19
565.985	107.19
566.197	91.19
566.408	94.19
566.62	83.19
566.832	75.19
567.044	83.19
567.255	79.19
567.467	85.19
567.679	86.19
567.891	85.19
568.102	88.19
568.314	80.19
568.526	92.19
568.737	87.19
568.949	88.19
569.161	78.19
569.372	75.19
569.584	83.19
569.795	92.19
570.007	113.19
570.218	232.19
570.43	125.19
570.641	75.19
570.853	91.19
571.064	67.19
571.276	83.19
571.487	102.19
571.698	97.19
571.91	86.19
572.121	69.19
572.333	83.19
572.544	78.19
572.755	81.19
572.966	87.19
573.178	71.19
573.389	99.19
573.6	87.19
573.811	90.19
574.023	97.19
574.234	92.19
574.445	84.19
574.656	70.19
574.867	83.19
575.078	77.19
575.289	87.19
575.501	90.19
575.712	81.19
575.923	81.19
576.134	78.19
576.345	77.19
576.556	87.19
576.767	92.19
576.978	96.19
577.188	112.19
577.399	91.19
577.61	92.19
577.821	101.19
578.032	103.19
578.243	250.19
578.454	721.19
578.665	202.19
578.875	112.19
579.086	84.19
579.297	85.19
579.508	84.19
579.718	89.19
579.929	82.19
580.14	94.19
580.35	88.19
580.561	78.19
580.772	85.19
580.982	78.19
581.193	71.19
581.403	84.19
581.614	80.19
581.825	81.19
582.035	84.19
582.246	89.19
582.456	71.19
582.667	79.19
582.877	83.19
583.087	93.19
583.298	78.19
583.508	84.19
583.719	83.19
583.929	87.19
584.139	74.19
584.35	75.19
584.56	84.19
584.77	79.19
584.981	71.19
585.191	82.19
585.401	99.19
585.611	82.19
585.821	88.19
586.032	82.19
586.242	92.19
586.452	83.19
586.662	74.19
586.872	93.19
587.082	83.19
587.292	76.19
587.502	70.19
587.713	83.19
587.923	76.19
588.133	80.19
588.343	82.19
588.553	92.19
588.762	85.19
588.972	86.19
589.182	87.19
589.392	74.19
589.602	74.19
589.812	84.19
590.022	86.19
590.232	95.19
590.441	87.19
590.651	88.19
590.861	96.19
591.071	93.19
591.281	82.19
591.49	84.19
591.7	75.19
591.91	79.19
592.119	103.19
592.329	83.19
592.539	83.19
592.748	96.19
592.958	84.19
593.167	87.19
593.377	90.19
593.587	101.19
593.796	85.19
594.006	94.19
594.215	65.19
594.424	100.19
594.634	81.19
594.843	74.19
595.053	87.19
595.262	71.19
595.472	89.19
595.681	90.19
595.89	80.19
596.1	89.19
596.309	77.19
596.518	77.19
596.727	83.19
596.937	80.19
597.146	88.19
597.355	80.19
597.564	93.19
597.774	63.19
597.983	85.19
598.192	76.19
598.401	80.19
598.61	95.19
598.819	82.19
599.028	83.19
599.237	81.19
599.446	78.19
599.655	83.19
599.864	82.19
600.073	85.19
600.282	65.19
600.491	93.19
600.7	86.19
600.909	86.19
601.118	96.19
601.327	90.19
601.536	82.19
601.745	82.19
601.953	95.19
602.162	93.19
602.371	85.19
602.58	75.19
602.789	79.19
602.997	78.19
603.206	86.19
603.415	89.19
603.623	87.19
603.832	83.19
604.041	90.19
604.249	75.19
604.458	82.19
604.666	76.19
604.875	79.19
605.084	84.19
605.292	74.19
605.501	85.19
605.709	82.19
605.918	94.19
606.126	87.19
606.334	84.19
606.543	79.19
606.751	98.19
606.96	81.19
607.168	94.19
607.376	79.19
607.585	79.19
607.793	83.19
608.001	79.19
608.21	76.19
608.418	82.19
608.626	76.19
608.834	91.19
609.043	68.19
609.251	79.19
609.459	83.19
609.667	86.19
609.875	77.19
610.083	83.19
610.291	69.19
610.499	86.19
610.707	67.19
610.916	97.19
611.124	90.19
611.332	86.19
611.54	83.19
611.748	90.19
611.955	82.19
612.163	80.19
612.371	93.19
612.579	95.19
612.787	77.19
612.995	68.19
613.203	74.19
613.411	74.19
613.618	82.19
613.826	87.19
614.034	76.19
614.242	76.19
614.449	95.19
614.657	84.19
614.865	75.19
615.072	77.19
615.28	87.19
615.488	90.19
615.695	91.19
615.903	97.19
616.111	103.19
616.318	96.19
616.526	89.19
616.733	84.19
616.941	92.19
617.148	87.19
617.356	71.19
617.563	81.19
617.771	76.19
617.978	94.19
618.185	92.19
618.393	86.19
618.6	84.19
618.807	92.19
619.015	86.19
619.222	87.19
619.429	80.19
619.637	95.19
619.844	80.19
620.051	78.19
620.258	76.19
620.466	78.19
620.673	87.19
620.88	83.19
621.087	89.19
621.294	82.19
621.501	82.19
621.708	91.19
621.915	90.19
622.122	76.19
622.329	89.19
622.536	97.19
622.743	79.19
622.95	82.19
623.157	90.19
623.364	97.19
623.571	84.19
623.778	86.19
623.985	72.19
624.192	83.19
624.399	82.19
624.606	77.19
624.812	72.19
625.019	80.19
625.226	66.19
625.433	83.19
625.639	76.19
625.846	80.19
626.053	82.19
626.259	87.19
626.466	83.19
626.673	88.19
626.879	94.19
627.086	94.19
627.293	79.19
627.499	79.19
627.706	74.19
627.912	82.19
628.119	80.19
628.325	86.19
628.532	79.19
628.738	85.19
628.945	97.19
629.151	87.19
629.357	91.19
629.564	87.19
629.77	86.19
629.976	100.19
630.183	86.19
630.389	70.19
630.595	86.19
630.802	88.19
631.008	89.19
631.214	79.19
631.42	73.19
631.627	71.19
631.833	87.19
632.039	71.19
632.245	84.19
632.451	76.19
632.657	80.19
632.863	87.19
633.069	78.19
633.275	79.19
633.481	64.19
633.688	90.19
633.893	90.19
634.099	65.19
634.305	68.19
634.511	72.19
634.717	89.19
634.923	70.19
635.129	74.19
635.335	90.19
635.541	83.19
635.747	75.19
635.952	79.19
636.158	69.19
636.364	91.19
636.57	77.19
636.775	88.19
636.981	82.19
637.187	77.19
637.392	84.19
637.598	91.19
637.804	74.19
638.009	71.19
638.215	80.19
638.421	74.19
638.626	71.19
638.832	77.19
639.037	73.19
639.243	60.19
639.448	76.19
639.654	67.19
639.859	78.19
640.065	84.19
640.27	78.19
640.475	75.19
640.681	69.19
640.886	76.19
641.091	76.19
641.297	89.19
641.502	86.19
641.707	83.19
641.913	80.19
642.118	87.19
642.323	91.19
642.528	90.19
642.733	84.19
642.939	78.19
643.144	88.19
643.349	85.19
643.554	79.19
643.759	70.19
643.964	76.19
644.169	87.19
644.374	70.19
644.579	90.19
644.784	84.19
644.989	93.19
645.194	92.19
645.399	78.19
645.604	75.19
645.809	85.19
646.014	69.19
646.219	85.19
646.423	72.19
646.628	75.19
646.833	75.19
647.038	93.19
647.243	82.19
647.447	70.19
647.652	92.19
647.857	54.19
648.062	84.19
648.266	87.19
648.471	87.19
648.676	103.19
648.88	93.19
649.085	89.19
649.289	96.19
649.494	110.19
649.698	130.19
649.903	107.19
650.107	90.19
650.312	71.19
650.516	82.19
650.721	70.19
650.925	78.19
651.13	88.19
651.334	96.19
651.539	63.19
651.743	85.19
651.947	80.19
652.152	95.19
652.356	79.19
652.56	86.19
652.764	63.19
652.969	88.19
653.173	84.19
653.377	91.19
653.581	91.19
653.785	70.19
653.99	93.19
654.194	76.19
654.398	83.19
654.602	88.19
654.806	84.19
655.01	93.19
655.214	97.19
655.418	76.19
655.622	83.19
655.826	81.19
656.03	84.19
656.234	87.19
656.438	93.19
656.642	85.19
656.846	96.19
657.049	80.19
657.253	90.19
657.457	88.19
657.661	71.19
657.865	67.19
658.068	97.19
658.272	67.19
658.476	66.19
658.68	70.19
658.883	71.19
659.087	87.19
659.291	74.19
659.494	69.19
659.698	96.19
659.901	70.19
660.105	80.19
660.309	81.19
660.512	86.19
660.716	86.19
660.919	85.19
661.123	75.19
661.326	92.19
661.53	79.19
661.733	94.19
661.936	67.19
662.14	77.19
662.343	78.19
662.546	77.19
662.75	68.19
662.953	76.19
663.156	68.19
663.36	90.19
663.563	83.19
663.766	62.19
663.969	73.19
664.173	75.19
664.376	68.19
664.579	78.19
664.782	80.19
664.985	76.19
665.188	76.19
665.391	81.19
665.594	76.19
665.797	67.19
666	90.19
666.203	70.19
666.406	81.19
666.609	72.19
666.812	76.19
667.015	71.19
667.218	69.19
667.421	77.19
667.624	76.19
667.827	78.19
668.03	91.19
668.232	71.19
668.435	76.19
668.638	77.19
668.841	71.19
669.043	78.19
669.246	76.19
669.449	79.19
669.651	77.19
669.854	74.19
670.057	85.19
670.259	68.19
670.462	67.19
670.665	70.19
670.867	78.19
671.07	72.19
671.272	81.19
671.475	77.19
671.677	69.19
671.88	86.19
672.082	74.19
672.284	92.19
672.487	74.19
672.689	62.19
672.892	72.19
