Data from Uncirc_1987_H10_HRD10591_00075.txt Node
Date: Wed Jan 03 12:09:03 EST 2024
User: Yrep
Spectrometer: HR+D1059
Trigger mode: 1
Integration Time (sec): 1.000000E-1
Scans to average: 1
Electric dark correction enabled: true
Nonlinearity correction enabled: false
Boxcar width: 0
XAxis mode: Wavelengths
Number of Pixels in Spectrum: 2048
>>>>>Begin Spectral Data<<<<<
223.165	-31.31
223.4	-31.31
223.635	-31.31
223.869	-13.31
224.104	-24.31
224.338	-20.31
224.573	-29.31
224.808	-27.31
225.042	-0.31
225.277	-9.31
225.511	-6.31
225.746	5.69
225.98	5.69
226.215	23.69
226.449	23.69
226.683	22.69
226.918	30.69
227.152	49.69
227.387	36.69
227.621	32.69
227.856	41.69
228.09	52.69
228.324	60.69
228.559	49.69
228.793	54.69
229.027	55.69
229.262	66.69
229.496	67.69
229.73	68.69
229.964	80.69
230.199	81.69
230.433	72.69
230.667	70.69
230.901	70.69
231.136	65.69
231.37	93.69
231.604	84.69
231.838	62.69
232.072	66.69
232.306	85.69
232.541	84.69
232.775	82.69
233.009	71.69
233.243	84.69
233.477	98.69
233.711	78.69
233.945	90.69
234.179	97.69
234.413	69.69
234.647	79.69
234.881	62.69
235.115	74.69
235.349	94.69
235.583	68.69
235.817	59.69
236.051	74.69
236.285	76.69
236.519	73.69
236.753	69.69
236.987	81.69
237.221	91.69
237.455	80.69
237.689	82.69
237.922	90.69
238.156	82.69
238.39	69.69
238.624	76.69
238.858	72.69
239.091	76.69
239.325	82.69
239.559	81.69
239.793	61.69
240.027	77.69
240.26	73.69
240.494	73.69
240.728	69.69
240.961	68.69
241.195	81.69
241.429	76.69
241.662	78.69
241.896	84.69
242.13	78.69
242.363	84.69
242.597	77.69
242.83	76.69
243.064	73.69
243.298	76.69
243.531	80.69
243.765	81.69
243.998	81.69
244.232	80.69
244.465	75.69
244.699	67.69
244.932	88.69
245.166	69.69
245.399	68.69
245.633	90.69
245.866	84.69
246.099	82.69
246.333	68.69
246.566	62.69
246.8	69.69
247.033	70.69
247.266	65.69
247.5	85.69
247.733	73.69
247.966	84.69
248.2	90.69
248.433	69.69
248.666	63.69
248.899	75.69
249.133	99.69
249.366	80.69
249.599	83.69
249.832	87.69
250.066	70.69
250.299	77.69
250.532	98.69
250.765	80.69
250.998	79.69
251.231	87.69
251.465	91.69
251.698	81.69
251.931	69.69
252.164	82.69
252.397	96.69
252.63	78.69
252.863	88.69
253.096	74.69
253.329	80.69
253.562	72.69
253.795	73.69
254.028	83.69
254.261	79.69
254.494	87.69
254.727	96.69
254.96	87.69
255.193	74.69
255.426	88.69
255.659	83.69
255.892	82.69
256.124	81.69
256.357	73.69
256.59	88.69
256.823	77.69
257.056	84.69
257.289	81.69
257.521	78.69
257.754	74.69
257.987	90.69
258.22	90.69
258.452	83.69
258.685	104.69
258.918	78.69
259.151	69.69
259.383	63.69
259.616	66.69
259.849	89.69
260.081	76.69
260.314	85.69
260.547	95.69
260.779	102.69
261.012	87.69
261.244	84.69
261.477	87.69
261.71	100.69
261.942	115.69
262.175	115.69
262.407	105.69
262.64	95.69
262.872	89.69
263.105	76.69
263.337	85.69
263.57	73.69
263.802	80.69
264.035	79.69
264.267	91.69
264.499	73.69
264.732	88.69
264.964	79.69
265.197	88.69
265.429	76.69
265.661	89.69
265.894	91.69
266.126	81.69
266.358	85.69
266.591	84.69
266.823	84.69
267.055	82.69
267.287	81.69
267.52	94.69
267.752	84.69
267.984	82.69
268.216	92.69
268.448	86.69
268.681	85.69
268.913	76.69
269.145	72.69
269.377	79.69
269.609	84.69
269.841	81.69
270.073	85.69
270.306	83.69
270.538	92.69
270.77	70.69
271.002	88.69
271.234	70.69
271.466	92.69
271.698	95.69
271.93	86.69
272.162	76.69
272.394	88.69
272.626	68.69
272.858	93.69
273.09	99.69
273.322	92.69
273.553	87.69
273.785	80.69
274.017	92.69
274.249	73.69
274.481	83.69
274.713	96.69
274.945	88.69
275.176	102.69
275.408	84.69
275.64	88.69
275.872	73.69
276.104	88.69
276.335	89.69
276.567	103.69
276.799	110.69
277.031	90.69
277.262	82.69
277.494	96.69
277.726	82.69
277.957	87.69
278.189	85.69
278.421	83.69
278.652	89.69
278.884	89.69
279.115	86.69
279.347	92.69
279.579	95.69
279.81	84.69
280.042	82.69
280.273	91.69
280.505	83.69
280.736	94.69
280.968	89.69
281.199	92.69
281.431	84.69
281.662	80.69
281.894	93.69
282.125	102.69
282.356	125.69
282.588	137.69
282.819	99.69
283.051	79.69
283.282	83.69
283.513	92.69
283.745	99.69
283.976	95.69
284.207	73.69
284.439	83.69
284.67	94.69
284.901	92.69
285.132	89.69
285.364	93.69
285.595	81.69
285.826	82.69
286.057	100.69
286.288	81.69
286.52	82.69
286.751	84.69
286.982	92.69
287.213	85.69
287.444	89.69
287.675	77.69
287.906	88.69
288.138	99.69
288.369	83.69
288.6	92.69
288.831	96.69
289.062	77.69
289.293	87.69
289.524	78.69
289.755	88.69
289.986	85.69
290.217	95.69
290.448	80.69
290.679	73.69
290.91	78.69
291.141	82.69
291.371	99.69
291.602	85.69
291.833	77.69
292.064	99.69
292.295	101.69
292.526	92.69
292.757	93.69
292.987	86.69
293.218	93.69
293.449	100.69
293.68	88.69
293.91	81.69
294.141	64.69
294.372	84.69
294.603	94.69
294.833	90.69
295.064	86.69
295.295	78.69
295.525	93.69
295.756	100.69
295.987	108.69
296.217	138.69
296.448	122.69
296.679	91.69
296.909	81.69
297.14	100.69
297.37	84.69
297.601	85.69
297.831	87.69
298.062	91.69
298.292	86.69
298.523	86.69
298.753	97.69
298.984	86.69
299.214	92.69
299.445	101.69
299.675	85.69
299.905	100.69
300.136	99.69
300.366	90.69
300.597	90.69
300.827	86.69
301.057	98.69
301.288	93.69
301.518	99.69
301.748	79.69
301.979	102.69
302.209	85.69
302.439	84.69
302.669	84.69
302.9	87.69
303.13	90.69
303.36	99.69
303.59	95.69
303.82	105.69
304.051	99.69
304.281	97.69
304.511	92.69
304.741	89.69
304.971	92.69
305.201	77.69
305.431	94.69
305.661	85.69
305.891	76.69
306.121	82.69
306.352	103.69
306.582	105.69
306.812	92.69
307.042	82.69
307.272	95.69
307.502	99.69
307.731	83.69
307.961	95.69
308.191	71.69
308.421	99.69
308.651	82.69
308.881	94.69
309.111	82.69
309.341	100.69
309.571	103.69
309.8	99.69
310.03	104.69
310.26	84.69
310.49	92.69
310.72	94.69
310.949	102.69
311.179	90.69
311.409	102.69
311.639	96.69
311.868	90.69
312.098	70.69
312.328	92.69
312.557	92.69
312.787	93.69
313.017	85.69
313.246	86.69
313.476	86.69
313.706	88.69
313.935	93.69
314.165	106.69
314.394	95.69
314.624	94.69
314.853	93.69
315.083	90.69
315.312	101.69
315.542	80.69
315.771	97.69
316.001	91.69
316.23	89.69
316.46	94.69
316.689	93.69
316.919	89.69
317.148	87.69
317.377	100.69
317.607	90.69
317.836	80.69
318.065	81.69
318.295	88.69
318.524	91.69
318.753	100.69
318.983	89.69
319.212	109.69
319.441	108.69
319.67	98.69
319.9	87.69
320.129	81.69
320.358	89.69
320.587	94.69
320.816	91.69
321.046	99.69
321.275	90.69
321.504	111.69
321.733	87.69
321.962	93.69
322.191	87.69
322.42	90.69
322.649	108.69
322.878	105.69
323.108	118.69
323.337	110.69
323.566	134.69
323.795	161.69
324.024	238.69
324.253	384.69
324.482	810.69
324.71	1706.69
324.939	2289.69
325.168	818.69
325.397	258.69
325.626	174.69
325.855	132.69
326.084	139.69
326.313	126.69
326.542	128.69
326.77	217.69
326.999	466.69
327.228	960.69
327.457	1737.69
327.686	1423.69
327.914	375.69
328.143	188.69
328.372	146.69
328.6	129.69
328.829	116.69
329.058	124.69
329.287	125.69
329.515	105.69
329.744	105.69
329.972	106.69
330.201	96.69
330.43	130.69
330.658	110.69
330.887	131.69
331.115	127.69
331.344	99.69
331.572	97.69
331.801	107.69
332.03	96.69
332.258	96.69
332.486	88.69
332.715	97.69
332.943	91.69
333.172	93.69
333.4	86.69
333.629	108.69
333.857	123.69
334.085	98.69
334.314	100.69
334.542	122.69
334.771	117.69
334.999	89.69
335.227	96.69
335.455	98.69
335.684	105.69
335.912	103.69
336.14	87.69
336.369	70.69
336.597	105.69
336.825	100.69
337.053	92.69
337.281	91.69
337.51	80.69
337.738	98.69
337.966	93.69
338.194	95.69
338.422	86.69
338.65	94.69
338.878	91.69
339.106	78.69
339.334	89.69
339.562	85.69
339.79	99.69
340.018	84.69
340.246	84.69
340.474	95.69
340.702	98.69
340.93	103.69
341.158	89.69
341.386	97.69
341.614	86.69
341.842	97.69
342.07	86.69
342.298	100.69
342.526	95.69
342.754	89.69
342.981	87.69
343.209	75.69
343.437	94.69
343.665	78.69
343.893	90.69
344.12	76.69
344.348	94.69
344.576	81.69
344.804	89.69
345.031	105.69
345.259	101.69
345.487	95.69
345.714	98.69
345.942	97.69
346.17	84.69
346.397	94.69
346.625	92.69
346.853	71.69
347.08	102.69
347.308	93.69
347.535	95.69
347.763	98.69
347.99	92.69
348.218	94.69
348.445	102.69
348.673	104.69
348.9	100.69
349.128	85.69
349.355	96.69
349.583	100.69
349.81	93.69
350.037	100.69
350.265	84.69
350.492	95.69
350.72	80.69
350.947	99.69
351.174	108.69
351.402	104.69
351.629	99.69
351.856	110.69
352.083	108.69
352.311	88.69
352.538	105.69
352.765	109.69
352.992	111.69
353.22	111.69
353.447	113.69
353.674	85.69
353.901	97.69
354.128	94.69
354.355	76.69
354.583	91.69
354.81	93.69
355.037	94.69
355.264	94.69
355.491	77.69
355.718	82.69
355.945	101.69
356.172	95.69
356.399	106.69
356.626	93.69
356.853	80.69
357.08	84.69
357.307	93.69
357.534	94.69
357.761	85.69
357.988	84.69
358.215	94.69
358.441	65.69
358.668	74.69
358.895	73.69
359.122	97.69
359.349	70.69
359.576	96.69
359.802	98.69
360.029	94.69
360.256	121.69
360.483	92.69
360.709	100.69
360.936	79.69
361.163	100.69
361.39	99.69
361.616	94.69
361.843	86.69
362.07	84.69
362.296	90.69
362.523	83.69
362.749	82.69
362.976	87.69
363.203	86.69
363.429	82.69
363.656	100.69
363.882	100.69
364.109	84.69
364.335	96.69
364.562	86.69
364.788	87.69
365.015	92.69
365.241	88.69
365.468	115.69
365.694	106.69
365.92	92.69
366.147	95.69
366.373	93.69
366.599	92.69
366.826	81.69
367.052	94.69
367.278	90.69
367.505	94.69
367.731	100.69
367.957	90.69
368.184	69.69
368.41	94.69
368.636	113.69
368.862	114.69
369.089	108.69
369.315	91.69
369.541	108.69
369.767	93.69
369.993	84.69
370.219	72.69
370.445	88.69
370.672	100.69
370.898	92.69
371.124	87.69
371.35	80.69
371.576	96.69
371.802	86.69
372.028	96.69
372.254	79.69
372.48	93.69
372.706	93.69
372.932	88.69
373.158	90.69
373.384	89.69
373.61	98.69
373.835	86.69
374.061	73.69
374.287	93.69
374.513	96.69
374.739	89.69
374.965	78.69
375.191	76.69
375.416	86.69
375.642	88.69
375.868	79.69
376.094	86.69
376.319	66.69
376.545	84.69
376.771	86.69
376.997	91.69
377.222	83.69
377.448	98.69
377.674	92.69
377.899	96.69
378.125	85.69
378.35	81.69
378.576	84.69
378.802	87.69
379.027	89.69
379.253	85.69
379.478	82.69
379.704	78.69
379.929	84.69
380.155	106.69
380.38	102.69
380.606	100.69
380.831	97.69
381.057	104.69
381.282	96.69
381.507	97.69
381.733	103.69
381.958	79.69
382.184	98.69
382.409	95.69
382.634	94.69
382.86	104.69
383.085	102.69
383.31	101.69
383.535	90.69
383.761	95.69
383.986	98.69
384.211	89.69
384.436	116.69
384.662	96.69
384.887	90.69
385.112	105.69
385.337	96.69
385.562	94.69
385.787	97.69
386.013	96.69
386.238	99.69
386.463	113.69
386.688	101.69
386.913	102.69
387.138	96.69
387.363	97.69
387.588	102.69
387.813	100.69
388.038	94.69
388.263	107.69
388.488	92.69
388.713	87.69
388.938	100.69
389.163	94.69
389.387	65.69
389.612	86.69
389.837	89.69
390.062	91.69
390.287	87.69
390.512	83.69
390.736	78.69
390.961	79.69
391.186	92.69
391.411	101.69
391.636	90.69
391.86	88.69
392.085	84.69
392.31	76.69
392.534	86.69
392.759	81.69
392.984	90.69
393.208	90.69
393.433	95.69
393.658	84.69
393.882	92.69
394.107	88.69
394.331	87.69
394.556	87.69
394.78	83.69
395.005	76.69
395.229	97.69
395.454	91.69
395.678	83.69
395.903	92.69
396.127	81.69
396.352	89.69
396.576	86.69
396.801	86.69
397.025	96.69
397.249	90.69
397.474	82.69
397.698	77.69
397.922	84.69
398.147	81.69
398.371	88.69
398.595	88.69
398.82	84.69
399.044	84.69
399.268	99.69
399.492	75.69
399.717	77.69
399.941	85.69
400.165	82.69
400.389	94.69
400.613	82.69
400.837	90.69
401.062	83.69
401.286	92.69
401.51	87.69
401.734	84.69
401.958	102.69
402.182	126.69
402.406	152.69
402.63	109.69
402.854	88.69
403.078	88.69
403.302	92.69
403.526	98.69
403.75	98.69
403.974	94.69
404.198	76.69
404.422	94.69
404.645	87.69
404.869	88.69
405.093	92.69
405.317	93.69
405.541	83.69
405.765	97.69
405.988	119.69
406.212	173.69
406.436	197.69
406.66	134.69
406.883	106.69
407.107	108.69
407.331	82.69
407.555	83.69
407.778	78.69
408.002	91.69
408.226	103.69
408.449	84.69
408.673	81.69
408.896	80.69
409.12	102.69
409.344	87.69
409.567	87.69
409.791	90.69
410.014	102.69
410.238	81.69
410.461	88.69
410.685	96.69
410.908	100.69
411.132	89.69
411.355	86.69
411.578	81.69
411.802	81.69
412.025	95.69
412.249	93.69
412.472	79.69
412.695	101.69
412.919	94.69
413.142	87.69
413.365	88.69
413.589	92.69
413.812	95.69
414.035	89.69
414.258	85.69
414.482	94.69
414.705	96.69
414.928	81.69
415.151	80.69
415.374	96.69
415.597	78.69
415.821	71.69
416.044	81.69
416.267	94.69
416.49	98.69
416.713	84.69
416.936	83.69
417.159	94.69
417.382	84.69
417.605	71.69
417.828	85.69
418.051	80.69
418.274	82.69
418.497	84.69
418.72	81.69
418.943	79.69
419.166	92.69
419.389	85.69
419.611	90.69
419.834	86.69
420.057	90.69
420.28	85.69
420.503	82.69
420.726	92.69
420.948	97.69
421.171	89.69
421.394	90.69
421.617	89.69
421.839	95.69
422.062	79.69
422.285	95.69
422.507	110.69
422.73	97.69
422.953	103.69
423.175	100.69
423.398	79.69
423.621	100.69
423.843	79.69
424.066	87.69
424.288	77.69
424.511	89.69
424.733	92.69
424.956	120.69
425.178	98.69
425.401	105.69
425.623	83.69
425.846	98.69
426.068	96.69
426.291	69.69
426.513	92.69
426.735	104.69
426.958	93.69
427.18	104.69
427.402	116.69
427.625	162.69
427.847	118.69
428.069	89.69
428.292	76.69
428.514	83.69
428.736	77.69
428.958	87.69
429.181	78.69
429.403	86.69
429.625	87.69
429.847	90.69
430.069	90.69
430.292	95.69
430.514	76.69
430.736	98.69
430.958	80.69
431.18	71.69
431.402	66.69
431.624	72.69
431.846	82.69
432.068	91.69
432.29	87.69
432.512	99.69
432.734	81.69
432.956	106.69
433.178	95.69
433.4	96.69
433.622	96.69
433.844	88.69
434.066	96.69
434.287	78.69
434.509	94.69
434.731	96.69
434.953	85.69
435.175	90.69
435.397	88.69
435.618	95.69
435.84	103.69
436.062	118.69
436.284	127.69
436.505	104.69
436.727	100.69
436.949	94.69
437.17	100.69
437.392	76.69
437.614	88.69
437.835	103.69
438.057	126.69
438.278	110.69
438.5	91.69
438.721	133.69
438.943	102.69
439.165	94.69
439.386	93.69
439.608	101.69
439.829	97.69
440.05	115.69
440.272	141.69
440.493	92.69
440.715	86.69
440.936	95.69
441.158	88.69
441.379	81.69
441.6	83.69
441.822	80.69
442.043	101.69
442.264	101.69
442.486	108.69
442.707	85.69
442.928	84.69
443.149	129.69
443.371	124.69
443.592	110.69
443.813	113.69
444.034	97.69
444.255	96.69
444.476	91.69
444.698	105.69
444.919	102.69
445.14	123.69
445.361	118.69
445.582	113.69
445.803	125.69
446.024	143.69
446.245	115.69
446.466	119.69
446.687	87.69
446.908	80.69
447.129	96.69
447.35	94.69
447.571	95.69
447.792	100.69
448.013	101.69
448.234	109.69
448.455	105.69
448.675	126.69
448.896	114.69
449.117	105.69
449.338	99.69
449.559	125.69
449.779	133.69
450	97.69
450.221	97.69
450.442	87.69
450.662	88.69
450.883	89.69
451.104	103.69
451.324	87.69
451.545	86.69
451.766	83.69
451.986	86.69
452.207	99.69
452.428	83.69
452.648	100.69
452.869	120.69
453.089	98.69
453.31	113.69
453.53	103.69
453.751	99.69
453.971	101.69
454.192	105.69
454.412	86.69
454.633	81.69
454.853	69.69
455.073	88.69
455.294	95.69
455.514	97.69
455.734	96.69
455.955	90.69
456.175	97.69
456.395	79.69
456.616	89.69
456.836	100.69
457.056	77.69
457.276	88.69
457.497	70.69
457.717	76.69
457.937	94.69
458.157	93.69
458.377	89.69
458.598	113.69
458.818	137.69
459.038	155.69
459.258	121.69
459.478	98.69
459.698	82.69
459.918	86.69
460.138	96.69
460.358	92.69
460.578	102.69
460.798	84.69
461.018	86.69
461.238	93.69
461.458	85.69
461.678	89.69
461.898	77.69
462.118	79.69
462.338	80.69
462.558	84.69
462.777	88.69
462.997	82.69
463.217	90.69
463.437	79.69
463.657	81.69
463.876	86.69
464.096	70.69
464.316	86.69
464.536	108.69
464.755	100.69
464.975	102.69
465.195	160.69
465.414	155.69
465.634	97.69
465.854	86.69
466.073	96.69
466.293	84.69
466.512	88.69
466.732	87.69
466.951	82.69
467.171	91.69
467.391	105.69
467.61	97.69
467.829	98.69
468.049	95.69
468.268	106.69
468.488	71.69
468.707	70.69
468.927	84.69
469.146	98.69
469.365	85.69
469.585	92.69
469.804	84.69
470.023	88.69
470.243	100.69
470.462	110.69
470.681	105.69
470.901	92.69
471.12	98.69
471.339	99.69
471.558	79.69
471.777	88.69
471.997	94.69
472.216	100.69
472.435	128.69
472.654	90.69
472.873	81.69
473.092	87.69
473.311	96.69
473.53	94.69
473.749	94.69
473.968	100.69
474.187	99.69
474.406	93.69
474.625	85.69
474.844	101.69
475.063	86.69
475.282	89.69
475.501	104.69
475.72	98.69
475.939	72.69
476.158	91.69
476.377	96.69
476.596	95.69
476.814	100.69
477.033	92.69
477.252	111.69
477.471	83.69
477.69	91.69
477.908	95.69
478.127	86.69
478.346	80.69
478.564	106.69
478.783	91.69
479.002	85.69
479.22	86.69
479.439	101.69
479.658	94.69
479.876	102.69
480.095	100.69
480.313	96.69
480.532	88.69
480.751	91.69
480.969	105.69
481.188	142.69
481.406	121.69
481.624	110.69
481.843	80.69
482.061	94.69
482.28	94.69
482.498	92.69
482.717	83.69
482.935	95.69
483.153	96.69
483.372	103.69
483.59	79.69
483.808	80.69
484.027	89.69
484.245	88.69
484.463	80.69
484.681	94.69
484.9	95.69
485.118	96.69
485.336	100.69
485.554	87.69
485.772	104.69
485.99	94.69
486.209	101.69
486.427	95.69
486.645	106.69
486.863	95.69
487.081	111.69
487.299	87.69
487.517	95.69
487.735	100.69
487.953	83.69
488.171	88.69
488.389	101.69
488.607	93.69
488.825	99.69
489.043	67.69
489.261	94.69
489.479	76.69
489.696	83.69
489.914	95.69
490.132	86.69
490.35	85.69
490.568	85.69
490.786	93.69
491.003	90.69
491.221	89.69
491.439	81.69
491.657	89.69
491.874	89.69
492.092	93.69
492.31	85.69
492.527	94.69
492.745	90.69
492.963	96.69
493.18	86.69
493.398	96.69
493.615	95.69
493.833	106.69
494.05	100.69
494.268	85.69
494.485	86.69
494.703	90.69
494.92	80.69
495.138	80.69
495.355	82.69
495.573	96.69
495.79	92.69
496.008	93.69
496.225	83.69
496.442	86.69
496.66	96.69
496.877	94.69
497.094	90.69
497.312	88.69
497.529	84.69
497.746	97.69
497.963	71.69
498.181	86.69
498.398	90.69
498.615	109.69
498.832	106.69
499.049	103.69
499.267	87.69
499.484	101.69
499.701	102.69
499.918	96.69
500.135	82.69
500.352	85.69
500.569	93.69
500.786	89.69
501.003	84.69
501.22	87.69
501.437	77.69
501.654	100.69
501.871	111.69
502.088	85.69
502.305	83.69
502.522	83.69
502.739	99.69
502.956	106.69
503.172	100.69
503.389	96.69
503.606	88.69
503.823	83.69
504.04	88.69
504.256	94.69
504.473	100.69
504.69	82.69
504.907	89.69
505.123	90.69
505.34	90.69
505.557	81.69
505.773	85.69
505.99	84.69
506.207	94.69
506.423	82.69
506.64	87.69
506.856	94.69
507.073	103.69
507.289	90.69
507.506	100.69
507.722	104.69
507.939	103.69
508.155	85.69
508.372	93.69
508.588	74.69
508.805	102.69
509.021	105.69
509.238	113.69
509.454	109.69
509.67	94.69
509.887	116.69
510.103	131.69
510.319	195.69
510.536	751.69
510.752	2330.69
510.968	636.69
511.184	147.69
511.401	114.69
511.617	104.69
511.833	98.69
512.049	91.69
512.265	100.69
512.481	99.69
512.698	89.69
512.914	87.69
513.13	82.69
513.346	88.69
513.562	89.69
513.778	109.69
513.994	111.69
514.21	92.69
514.426	118.69
514.642	125.69
514.858	108.69
515.074	160.69
515.29	460.69
515.506	1410.69
515.721	514.69
515.937	148.69
516.153	114.69
516.369	105.69
516.585	109.69
516.801	87.69
517.016	96.69
517.232	106.69
517.448	100.69
517.664	97.69
517.879	80.69
518.095	85.69
518.311	92.69
518.527	100.69
518.742	94.69
518.958	100.69
519.173	92.69
519.389	110.69
519.605	102.69
519.82	98.69
520.036	95.69
520.251	112.69
520.467	109.69
520.682	105.69
520.898	106.69
521.113	110.69
521.329	151.69
521.544	196.69
521.76	561.69
521.975	2381.69
522.19	1390.69
522.406	290.69
522.621	131.69
522.836	100.69
523.052	94.69
523.267	88.69
523.482	100.69
523.698	83.69
523.913	123.69
524.128	95.69
524.343	85.69
524.559	86.69
524.774	94.69
524.989	104.69
525.204	87.69
525.419	95.69
525.634	93.69
525.849	94.69
526.064	88.69
526.28	88.69
526.495	78.69
526.71	99.69
526.925	71.69
527.14	88.69
527.355	92.69
527.57	80.69
527.785	94.69
527.999	92.69
528.214	95.69
528.429	90.69
528.644	101.69
528.859	89.69
529.074	92.69
529.289	123.69
529.503	162.69
529.718	104.69
529.933	90.69
530.148	89.69
530.363	103.69
530.577	93.69
530.792	107.69
531.007	95.69
531.221	82.69
531.436	90.69
531.651	89.69
531.865	87.69
532.08	79.69
532.295	80.69
532.509	90.69
532.724	84.69
532.938	94.69
533.153	99.69
533.367	98.69
533.582	93.69
533.796	95.69
534.011	99.69
534.225	89.69
534.44	98.69
534.654	96.69
534.868	96.69
535.083	107.69
535.297	80.69
535.511	98.69
535.726	98.69
535.94	85.69
536.154	93.69
536.369	97.69
536.583	76.69
536.797	79.69
537.011	92.69
537.225	89.69
537.44	82.69
537.654	88.69
537.868	84.69
538.082	91.69
538.296	90.69
538.51	69.69
538.724	80.69
538.938	96.69
539.153	96.69
539.367	109.69
539.581	96.69
539.795	96.69
540.009	83.69
540.222	92.69
540.436	94.69
540.65	70.69
540.864	97.69
541.078	96.69
541.292	85.69
541.506	91.69
541.72	84.69
541.934	90.69
542.147	84.69
542.361	86.69
542.575	92.69
542.789	98.69
543.002	91.69
543.216	100.69
543.43	102.69
543.644	91.69
543.857	92.69
544.071	98.69
544.285	78.69
544.498	71.69
544.712	78.69
544.925	98.69
545.139	97.69
545.352	89.69
545.566	102.69
545.779	98.69
545.993	89.69
546.206	92.69
546.42	81.69
546.633	92.69
546.847	93.69
547.06	88.69
547.274	95.69
547.487	68.69
547.7	103.69
547.914	74.69
548.127	93.69
548.34	86.69
548.554	93.69
548.767	86.69
548.98	85.69
549.193	78.69
549.407	80.69
549.62	101.69
549.833	93.69
550.046	89.69
550.259	72.69
550.473	83.69
550.686	88.69
550.899	90.69
551.112	84.69
551.325	87.69
551.538	88.69
551.751	81.69
551.964	93.69
552.177	93.69
552.39	93.69
552.603	82.69
552.816	104.69
553.029	85.69
553.242	86.69
553.455	104.69
553.667	90.69
553.88	78.69
554.093	84.69
554.306	87.69
554.519	82.69
554.732	92.69
554.944	96.69
555.157	83.69
555.37	98.69
555.583	95.69
555.795	97.69
556.008	73.69
556.221	89.69
556.433	104.69
556.646	102.69
556.859	85.69
557.071	86.69
557.284	87.69
557.496	85.69
557.709	92.69
557.921	76.69
558.134	88.69
558.346	92.69
558.559	101.69
558.771	101.69
558.984	90.69
559.196	84.69
559.409	72.69
559.621	83.69
559.833	82.69
560.046	80.69
560.258	95.69
560.47	100.69
560.683	88.69
560.895	84.69
561.107	89.69
561.32	81.69
561.532	87.69
561.744	91.69
561.956	79.69
562.168	86.69
562.381	85.69
562.593	87.69
562.805	87.69
563.017	103.69
563.229	89.69
563.441	89.69
563.653	97.69
563.865	102.69
564.077	74.69
564.289	106.69
564.501	99.69
564.713	81.69
564.925	108.69
565.137	105.69
565.349	87.69
565.561	93.69
565.773	80.69
565.985	73.69
566.197	82.69
566.408	90.69
566.62	81.69
566.832	86.69
567.044	84.69
567.255	88.69
567.467	80.69
567.679	94.69
567.891	110.69
568.102	88.69
568.314	68.69
568.526	94.69
568.737	84.69
568.949	104.69
569.161	83.69
569.372	79.69
569.584	86.69
569.795	98.69
570.007	126.69
570.218	240.69
570.43	138.69
570.641	92.69
570.853	89.69
571.064	66.69
571.276	87.69
571.487	87.69
571.698	83.69
571.91	90.69
572.121	78.69
572.333	92.69
572.544	86.69
572.755	86.69
572.966	99.69
573.178	88.69
573.389	100.69
573.6	71.69
573.811	87.69
574.023	85.69
574.234	71.69
574.445	94.69
574.656	84.69
574.867	78.69
575.078	80.69
575.289	86.69
575.501	87.69
575.712	88.69
575.923	85.69
576.134	88.69
576.345	79.69
576.556	94.69
576.767	80.69
576.978	90.69
577.188	94.69
577.399	88.69
577.61	90.69
577.821	103.69
578.032	104.69
578.243	268.69
578.454	749.69
578.665	211.69
578.875	96.69
579.086	84.69
579.297	82.69
579.508	79.69
579.718	88.69
579.929	78.69
580.14	73.69
580.35	84.69
580.561	95.69
580.772	97.69
580.982	95.69
581.193	82.69
581.403	84.69
581.614	87.69
581.825	82.69
582.035	91.69
582.246	93.69
582.456	81.69
582.667	80.69
582.877	79.69
583.087	85.69
583.298	92.69
583.508	71.69
583.719	84.69
583.929	97.69
584.139	105.69
584.35	86.69
584.56	88.69
584.77	82.69
584.981	83.69
585.191	88.69
585.401	76.69
585.611	82.69
585.821	89.69
586.032	83.69
586.242	97.69
586.452	89.69
586.662	82.69
586.872	78.69
587.082	89.69
587.292	90.69
587.502	92.69
587.713	82.69
587.923	95.69
588.133	88.69
588.343	73.69
588.553	66.69
588.762	95.69
588.972	95.69
589.182	85.69
589.392	93.69
589.602	85.69
589.812	93.69
590.022	92.69
590.232	90.69
590.441	81.69
590.651	85.69
590.861	83.69
591.071	88.69
591.281	84.69
591.49	87.69
591.7	95.69
591.91	98.69
592.119	83.69
592.329	95.69
592.539	91.69
592.748	64.69
592.958	78.69
593.167	84.69
593.377	85.69
593.587	93.69
593.796	78.69
594.006	92.69
594.215	80.69
594.424	87.69
594.634	73.69
594.843	90.69
595.053	93.69
595.262	85.69
595.472	85.69
595.681	86.69
595.89	64.69
596.1	88.69
596.309	83.69
596.518	87.69
596.727	91.69
596.937	67.69
597.146	93.69
597.355	70.69
597.564	92.69
597.774	84.69
597.983	87.69
598.192	90.69
598.401	76.69
598.61	76.69
598.819	81.69
599.028	77.69
599.237	89.69
599.446	83.69
599.655	81.69
599.864	95.69
600.073	103.69
600.282	97.69
600.491	92.69
600.7	87.69
600.909	86.69
601.118	97.69
601.327	95.69
601.536	78.69
601.745	78.69
601.953	89.69
602.162	86.69
602.371	87.69
602.58	64.69
602.789	95.69
602.997	73.69
603.206	87.69
603.415	94.69
603.623	78.69
603.832	86.69
604.041	77.69
604.249	87.69
604.458	85.69
604.666	90.69
604.875	88.69
605.084	88.69
605.292	76.69
605.501	85.69
605.709	83.69
605.918	83.69
606.126	85.69
606.334	87.69
606.543	92.69
606.751	66.69
606.96	93.69
607.168	81.69
607.376	90.69
607.585	81.69
607.793	93.69
608.001	85.69
608.21	72.69
608.418	80.69
608.626	92.69
608.834	92.69
609.043	102.69
609.251	79.69
609.459	89.69
609.667	90.69
609.875	78.69
610.083	89.69
610.291	81.69
610.499	80.69
610.707	83.69
610.916	81.69
611.124	79.69
611.332	81.69
611.54	85.69
611.748	83.69
611.955	88.69
612.163	78.69
612.371	87.69
612.579	76.69
612.787	88.69
612.995	80.69
613.203	92.69
613.411	78.69
613.618	85.69
613.826	88.69
614.034	83.69
614.242	80.69
614.449	92.69
614.657	92.69
614.865	86.69
615.072	94.69
615.28	96.69
615.488	88.69
615.695	90.69
615.903	96.69
616.111	100.69
616.318	99.69
616.526	101.69
616.733	95.69
616.941	81.69
617.148	76.69
617.356	96.69
617.563	80.69
617.771	82.69
617.978	79.69
618.185	88.69
618.393	88.69
618.6	74.69
618.807	78.69
619.015	85.69
619.222	90.69
619.429	85.69
619.637	77.69
619.844	86.69
620.051	84.69
620.258	90.69
620.466	69.69
620.673	73.69
620.88	73.69
621.087	85.69
621.294	94.69
621.501	71.69
621.708	85.69
621.915	88.69
622.122	74.69
622.329	89.69
622.536	81.69
622.743	81.69
622.95	86.69
623.157	97.69
623.364	76.69
623.571	74.69
623.778	75.69
623.985	78.69
624.192	71.69
624.399	80.69
624.606	82.69
624.812	90.69
625.019	87.69
625.226	81.69
625.433	78.69
625.639	66.69
625.846	82.69
626.053	88.69
626.259	84.69
626.466	76.69
626.673	75.69
626.879	75.69
627.086	68.69
627.293	92.69
627.499	89.69
627.706	88.69
627.912	92.69
628.119	89.69
628.325	70.69
628.532	78.69
628.738	82.69
628.945	73.69
629.151	93.69
629.357	84.69
629.564	86.69
629.77	89.69
629.976	98.69
630.183	106.69
630.389	97.69
630.595	84.69
630.802	80.69
631.008	64.69
631.214	72.69
631.42	90.69
631.627	88.69
631.833	78.69
632.039	80.69
632.245	86.69
632.451	88.69
632.657	86.69
632.863	83.69
633.069	70.69
633.275	78.69
633.481	79.69
633.688	79.69
633.893	86.69
634.099	82.69
634.305	83.69
634.511	83.69
634.717	78.69
634.923	85.69
635.129	82.69
635.335	90.69
635.541	76.69
635.747	86.69
635.952	76.69
636.158	82.69
636.364	95.69
636.57	69.69
636.775	80.69
636.981	84.69
637.187	76.69
637.392	76.69
637.598	79.69
637.804	83.69
638.009	78.69
638.215	79.69
638.421	69.69
638.626	83.69
638.832	82.69
639.037	76.69
639.243	86.69
639.448	76.69
639.654	87.69
639.859	81.69
640.065	78.69
640.27	72.69
640.475	88.69
640.681	71.69
640.886	80.69
641.091	89.69
641.297	72.69
641.502	84.69
641.707	76.69
641.913	78.69
642.118	75.69
642.323	100.69
642.528	84.69
642.733	77.69
642.939	79.69
643.144	88.69
643.349	81.69
643.554	95.69
643.759	88.69
643.964	89.69
644.169	90.69
644.374	79.69
644.579	73.69
644.784	92.69
644.989	94.69
645.194	90.69
645.399	86.69
645.604	68.69
645.809	85.69
646.014	92.69
646.219	73.69
646.423	85.69
646.628	77.69
646.833	72.69
647.038	76.69
647.243	83.69
647.447	84.69
647.652	85.69
647.857	88.69
648.062	81.69
648.266	73.69
648.471	88.69
648.676	96.69
648.88	100.69
649.085	82.69
649.289	99.69
649.494	100.69
649.698	128.69
649.903	99.69
650.107	91.69
650.312	85.69
650.516	80.69
650.721	78.69
650.925	95.69
651.13	84.69
651.334	78.69
651.539	89.69
651.743	84.69
651.947	74.69
652.152	93.69
652.356	110.69
652.56	80.69
652.764	71.69
652.969	77.69
653.173	76.69
653.377	71.69
653.581	78.69
653.785	86.69
653.99	95.69
654.194	73.69
654.398	77.69
654.602	82.69
654.806	95.69
655.01	106.69
655.214	84.69
655.418	78.69
655.622	79.69
655.826	96.69
656.03	74.69
656.234	81.69
656.438	96.69
656.642	95.69
656.846	88.69
657.049	86.69
657.253	83.69
657.457	86.69
657.661	79.69
657.865	82.69
658.068	77.69
658.272	84.69
658.476	95.69
658.68	68.69
658.883	79.69
659.087	81.69
659.291	60.69
659.494	64.69
659.698	64.69
659.901	82.69
660.105	77.69
660.309	89.69
660.512	69.69
660.716	79.69
660.919	88.69
661.123	100.69
661.326	82.69
661.53	57.69
661.733	85.69
661.936	72.69
662.14	89.69
662.343	85.69
662.546	73.69
662.75	83.69
662.953	85.69
663.156	65.69
663.36	62.69
663.563	65.69
663.766	82.69
663.969	87.69
664.173	79.69
664.376	86.69
664.579	78.69
664.782	86.69
664.985	84.69
665.188	87.69
665.391	71.69
665.594	78.69
665.797	81.69
666	82.69
666.203	71.69
666.406	80.69
666.609	77.69
666.812	92.69
667.015	73.69
667.218	61.69
667.421	82.69
667.624	66.69
667.827	83.69
668.03	71.69
668.232	79.69
668.435	76.69
668.638	72.69
668.841	80.69
669.043	95.69
669.246	85.69
669.449	72.69
669.651	68.69
669.854	74.69
670.057	78.69
670.259	70.69
670.462	71.69
670.665	70.69
670.867	78.69
671.07	86.69
671.272	83.69
671.475	86.69
671.677	79.69
671.88	84.69
672.082	78.69
672.284	85.69
672.487	89.69
672.689	68.69
672.892	70.69
