Data from Uncirc_1987_H10_HRD10591_00086.txt Node
Date: Wed Jan 03 12:09:05 EST 2024
User: Yrep
Spectrometer: HR+D1059
Trigger mode: 1
Integration Time (sec): 1.000000E-1
Scans to average: 1
Electric dark correction enabled: true
Nonlinearity correction enabled: false
Boxcar width: 0
XAxis mode: Wavelengths
Number of Pixels in Spectrum: 2048
>>>>>Begin Spectral Data<<<<<
223.165	-11.25
223.4	-11.25
223.635	-11.25
223.869	-29.25
224.104	-23.25
224.338	-13.25
224.573	-13.25
224.808	-9.25
225.042	-13.25
225.277	-8.25
225.511	-11.25
225.746	6.75
225.98	14.75
226.215	9.75
226.449	23.75
226.683	21.75
226.918	30.75
227.152	24.75
227.387	46.75
227.621	26.75
227.856	41.75
228.09	53.75
228.324	46.75
228.559	62.75
228.793	166.75
229.027	438.75
229.262	527.75
229.496	606.75
229.73	818.75
229.964	814.75
230.199	551.75
230.433	509.75
230.667	501.75
230.901	470.75
231.136	452.75
231.37	446.75
231.604	443.75
231.838	444.75
232.072	468.75
232.306	496.75
232.541	476.75
232.775	489.75
233.009	482.75
233.243	475.75
233.477	516.75
233.711	510.75
233.945	511.75
234.179	520.75
234.413	520.75
234.647	508.75
234.881	517.75
235.115	522.75
235.349	563.75
235.583	581.75
235.817	598.75
236.051	647.75
236.285	608.75
236.519	634.75
236.753	732.75
236.987	908.75
237.221	1365.75
237.455	1516.75
237.689	893.75
237.922	775.75
238.156	747.75
238.39	726.75
238.624	673.75
238.858	663.75
239.091	688.75
239.325	690.75
239.559	696.75
239.793	716.75
240.027	760.75
240.26	935.75
240.494	964.75
240.728	965.75
240.961	910.75
241.195	830.75
241.429	821.75
241.662	803.75
241.896	795.75
242.13	780.75
242.363	794.75
242.597	794.75
242.83	846.75
243.064	838.75
243.298	861.75
243.531	849.75
243.765	854.75
243.998	885.75
244.232	888.75
244.465	902.75
244.699	912.75
244.932	936.75
245.166	943.75
245.399	926.75
245.633	895.75
245.866	919.75
246.099	926.75
246.333	962.75
246.566	1000.75
246.8	959.75
247.033	1035.75
247.266	1056.75
247.5	1120.75
247.733	1171.75
247.966	1156.75
248.2	1182.75
248.433	1213.75
248.666	1235.75
248.899	1316.75
249.133	1487.75
249.366	1464.75
249.599	1342.75
249.832	1258.75
250.066	1270.75
250.299	1315.75
250.532	1389.75
250.765	1570.75
250.998	1731.75
251.231	1675.75
251.465	1541.75
251.698	1454.75
251.931	1473.75
252.164	1440.75
252.397	1456.75
252.63	1461.75
252.863	1578.75
253.096	1739.75
253.329	1769.75
253.562	1654.75
253.795	1590.75
254.028	1591.75
254.261	1645.75
254.494	1825.75
254.727	2132.75
254.96	2285.75
255.193	2001.75
255.426	1770.75
255.659	1652.75
255.892	1683.75
256.124	1687.75
256.357	1637.75
256.59	1614.75
256.823	1575.75
257.056	1567.75
257.289	1559.75
257.521	1616.75
257.754	1562.75
257.987	1567.75
258.22	1578.75
258.452	1568.75
258.685	1557.75
258.918	1605.75
259.151	1630.75
259.383	1720.75
259.616	1766.75
259.849	1807.75
260.081	1946.75
260.314	2177.75
260.547	2082.75
260.779	1925.75
261.012	1797.75
261.244	1784.75
261.477	1708.75
261.71	1722.75
261.942	1789.75
262.175	1825.75
262.407	1781.75
262.64	1683.75
262.872	1690.75
263.105	1662.75
263.337	1677.75
263.57	1700.75
263.802	1712.75
264.035	1711.75
264.267	1698.75
264.499	1703.75
264.732	1746.75
264.964	1722.75
265.197	1776.75
265.429	1759.75
265.661	1746.75
265.894	1785.75
266.126	1794.75
266.358	1806.75
266.591	1819.75
266.823	1923.75
267.055	1917.75
267.287	1937.75
267.52	1912.75
267.752	1907.75
267.984	1917.75
268.216	1946.75
268.448	1972.75
268.681	2039.75
268.913	2128.75
269.145	2381.75
269.377	2412.75
269.609	2337.75
269.841	2300.75
270.073	2343.75
270.306	2666.75
270.538	2786.75
270.77	2758.75
271.002	2591.75
271.234	2501.75
271.466	2646.75
271.698	2766.75
271.93	2736.75
272.162	2789.75
272.394	2732.75
272.626	2621.75
272.858	2412.75
273.09	2368.75
273.322	2279.75
273.553	2278.75
273.785	2264.75
274.017	2275.75
274.249	2287.75
274.481	2322.75
274.713	2314.75
274.945	2354.75
275.176	2331.75
275.408	2335.75
275.64	2310.75
275.872	2306.75
276.104	2351.75
276.335	2352.75
276.567	2428.75
276.799	2626.75
277.031	2768.75
277.262	2911.75
277.494	2792.75
277.726	2592.75
277.957	2588.75
278.189	2523.75
278.421	2431.75
278.652	2417.75
278.884	2429.75
279.115	2414.75
279.347	2412.75
279.579	2405.75
279.81	2410.75
280.042	2425.75
280.273	2478.75
280.505	2452.75
280.736	2438.75
280.968	2439.75
281.199	2480.75
281.431	2548.75
281.662	2510.75
281.894	2509.75
282.125	2578.75
282.356	2704.75
282.588	2896.75
282.819	2704.75
283.051	2598.75
283.282	2581.75
283.513	2613.75
283.745	2645.75
283.976	2725.75
284.207	2719.75
284.439	2673.75
284.67	2699.75
284.901	2687.75
285.132	2693.75
285.364	2670.75
285.595	2674.75
285.826	2664.75
286.057	2707.75
286.288	2705.75
286.52	2692.75
286.751	2756.75
286.982	2797.75
287.213	2801.75
287.444	2747.75
287.675	2868.75
287.906	2888.75
288.138	3014.75
288.369	2939.75
288.6	2946.75
288.831	2930.75
289.062	2901.75
289.293	2854.75
289.524	2916.75
289.755	2854.75
289.986	2797.75
290.217	2840.75
290.448	2839.75
290.679	2853.75
290.91	2860.75
291.141	2834.75
291.371	2832.75
291.602	2885.75
291.833	2823.75
292.064	2863.75
292.295	2840.75
292.526	2860.75
292.757	2910.75
292.987	2883.75
293.218	2848.75
293.449	2986.75
293.68	2911.75
293.91	2906.75
294.141	2926.75
294.372	2951.75
294.603	2931.75
294.833	2945.75
295.064	2924.75
295.295	2917.75
295.525	2971.75
295.756	2983.75
295.987	3106.75
296.217	3303.75
296.448	3150.75
296.679	3023.75
296.909	2963.75
297.14	3040.75
297.37	3067.75
297.601	3119.75
297.831	3127.75
298.062	3151.75
298.292	3134.75
298.523	3167.75
298.753	3189.75
298.984	3109.75
299.214	3183.75
299.445	3132.75
299.675	3184.75
299.905	3188.75
300.136	3188.75
300.366	3188.75
300.597	3176.75
300.827	3262.75
301.057	3412.75
301.288	3457.75
301.518	3380.75
301.748	3352.75
301.979	3416.75
302.209	3445.75
302.439	3517.75
302.669	3427.75
302.9	3358.75
303.13	3350.75
303.36	3396.75
303.59	3374.75
303.82	3426.75
304.051	3411.75
304.281	3393.75
304.511	3304.75
304.741	3350.75
304.971	3378.75
305.201	3330.75
305.431	3310.75
305.661	3380.75
305.891	3262.75
306.121	3370.75
306.352	3393.75
306.582	3405.75
306.812	3230.75
307.042	3286.75
307.272	3336.75
307.502	3297.75
307.731	3342.75
307.961	3321.75
308.191	3307.75
308.421	3339.75
308.651	3375.75
308.881	3333.75
309.111	3422.75
309.341	3402.75
309.571	3563.75
309.8	3508.75
310.03	3543.75
310.26	3656.75
310.49	3622.75
310.72	3750.75
310.949	3838.75
311.179	3762.75
311.409	3632.75
311.639	3675.75
311.868	3755.75
312.098	3714.75
312.328	3792.75
312.557	3896.75
312.787	4014.75
313.017	3888.75
313.246	3842.75
313.476	3758.75
313.706	3750.75
313.935	3868.75
314.165	3997.75
314.394	4017.75
314.624	3947.75
314.853	3878.75
315.083	3823.75
315.312	3811.75
315.542	3813.75
315.771	3750.75
316.001	3707.75
316.23	3692.75
316.46	3694.75
316.689	3810.75
316.919	3840.75
317.148	3801.75
317.377	3773.75
317.607	3772.75
317.836	3759.75
318.065	3720.75
318.295	3740.75
318.524	3725.75
318.753	3707.75
318.983	3728.75
319.212	3716.75
319.441	3773.75
319.67	3818.75
319.9	3690.75
320.129	3737.75
320.358	3818.75
320.587	3803.75
320.816	3824.75
321.046	3820.75
321.275	3869.75
321.504	3870.75
321.733	3845.75
321.962	3920.75
322.191	4097.75
322.42	4082.75
322.649	4195.75
322.878	4283.75
323.108	4286.75
323.337	4590.75
323.566	4705.75
323.795	5070.75
324.024	5644.75
324.253	7268.75
324.482	10805.75
324.71	15149.75
324.939	15624.75
325.168	13132.75
325.397	6744.75
325.626	5337.75
325.855	4916.75
326.084	4834.75
326.313	4784.75
326.542	4998.75
326.77	5586.75
326.999	7090.75
327.228	10188.75
327.457	14347.75
327.686	13594.75
327.914	7402.75
328.143	5853.75
328.372	5518.75
328.6	5246.75
328.829	5239.75
329.058	5387.75
329.287	5361.75
329.515	5042.75
329.744	4894.75
329.972	4895.75
330.201	5064.75
330.43	5252.75
330.658	5498.75
330.887	5795.75
331.115	5402.75
331.344	4960.75
331.572	4934.75
331.801	5037.75
332.03	4978.75
332.258	4938.75
332.486	5015.75
332.715	5083.75
332.943	5247.75
333.172	5342.75
333.4	5454.75
333.629	5569.75
333.857	5669.75
334.085	5700.75
334.314	5687.75
334.542	5814.75
334.771	5685.75
334.999	5367.75
335.227	5241.75
335.455	5241.75
335.684	5086.75
335.912	5046.75
336.14	5020.75
336.369	4998.75
336.597	5027.75
336.825	4959.75
337.053	4963.75
337.281	4860.75
337.51	4811.75
337.738	4818.75
337.966	4754.75
338.194	4690.75
338.422	4660.75
338.65	4567.75
338.878	4538.75
339.106	4558.75
339.334	4563.75
339.562	4558.75
339.79	4430.75
340.018	4406.75
340.246	4452.75
340.474	4466.75
340.702	4444.75
340.93	4449.75
341.158	4426.75
341.386	4450.75
341.614	4389.75
341.842	4356.75
342.07	4402.75
342.298	4359.75
342.526	4274.75
342.754	4313.75
342.981	4322.75
343.209	4444.75
343.437	4640.75
343.665	4952.75
343.893	5184.75
344.12	5202.75
344.348	4936.75
344.576	4828.75
344.804	4791.75
345.031	4669.75
345.259	4646.75
345.487	4484.75
345.714	4373.75
345.942	4331.75
346.17	4287.75
346.397	4267.75
346.625	4241.75
346.853	4239.75
347.08	4234.75
347.308	4304.75
347.535	4309.75
347.763	4390.75
347.99	4291.75
348.218	4324.75
348.445	4403.75
348.673	4311.75
348.9	4228.75
349.128	4133.75
349.355	4095.75
349.583	4096.75
349.81	4123.75
350.037	4096.75
350.265	4079.75
350.492	4106.75
350.72	4182.75
350.947	4212.75
351.174	4210.75
351.402	4253.75
351.629	4196.75
351.856	4207.75
352.083	4216.75
352.311	4296.75
352.538	4229.75
352.765	4227.75
352.992	4192.75
353.22	4122.75
353.447	4117.75
353.674	4031.75
353.901	4035.75
354.128	4054.75
354.355	4060.75
354.583	4016.75
354.81	3986.75
355.037	4050.75
355.264	3920.75
355.491	3974.75
355.718	3997.75
355.945	3963.75
356.172	4046.75
356.399	3946.75
356.626	3988.75
356.853	3950.75
357.08	3965.75
357.307	4026.75
357.534	3992.75
357.761	4013.75
357.988	4018.75
358.215	4005.75
358.441	4030.75
358.668	3949.75
358.895	4048.75
359.122	4119.75
359.349	4196.75
359.576	4285.75
359.802	4455.75
360.029	4672.75
360.256	4643.75
360.483	4367.75
360.709	4234.75
360.936	4216.75
361.163	4207.75
361.39	4268.75
361.616	4271.75
361.843	4205.75
362.07	4193.75
362.296	4256.75
362.523	4122.75
362.749	4229.75
362.976	4149.75
363.203	4091.75
363.429	4012.75
363.656	4034.75
363.882	4041.75
364.109	4063.75
364.335	3992.75
364.562	4076.75
364.788	4002.75
365.015	4039.75
365.241	4076.75
365.468	4089.75
365.694	4134.75
365.92	4090.75
366.147	4085.75
366.373	4079.75
366.599	4082.75
366.826	4020.75
367.052	4002.75
367.278	4076.75
367.505	4136.75
367.731	4120.75
367.957	4053.75
368.184	4158.75
368.41	4238.75
368.636	4282.75
368.862	4272.75
369.089	4167.75
369.315	4151.75
369.541	4154.75
369.767	4221.75
369.993	4221.75
370.219	4210.75
370.445	4228.75
370.672	4272.75
370.898	4230.75
371.124	4290.75
371.35	4395.75
371.576	4343.75
371.802	4287.75
372.028	4274.75
372.254	4322.75
372.48	4396.75
372.706	4456.75
372.932	4491.75
373.158	4444.75
373.384	4404.75
373.61	4327.75
373.835	4362.75
374.061	4379.75
374.287	4447.75
374.513	4551.75
374.739	4667.75
374.965	4742.75
375.191	4764.75
375.416	4654.75
375.642	4506.75
375.868	4550.75
376.094	4412.75
376.319	4416.75
376.545	4445.75
376.771	4387.75
376.997	4389.75
377.222	4365.75
377.448	4345.75
377.674	4338.75
377.899	4320.75
378.125	4317.75
378.35	4304.75
378.576	4279.75
378.802	4237.75
379.027	4248.75
379.253	4306.75
379.478	4282.75
379.704	4244.75
379.929	4342.75
380.155	4289.75
380.38	4299.75
380.606	4393.75
380.831	4357.75
381.057	4382.75
381.282	4326.75
381.507	4383.75
381.733	4464.75
381.958	4422.75
382.184	4527.75
382.409	4559.75
382.634	4636.75
382.86	4608.75
383.085	4646.75
383.31	4685.75
383.535	4795.75
383.761	4881.75
383.986	4948.75
384.211	4989.75
384.436	5034.75
384.662	5084.75
384.887	5148.75
385.112	5234.75
385.337	5223.75
385.562	5276.75
385.787	5227.75
386.013	5339.75
386.238	5357.75
386.463	5250.75
386.688	5316.75
386.913	5142.75
387.138	5147.75
387.363	5227.75
387.588	5117.75
387.813	5227.75
388.038	5167.75
388.263	5210.75
388.488	5197.75
388.713	5192.75
388.938	5205.75
389.163	5110.75
389.387	5199.75
389.612	5036.75
389.837	5096.75
390.062	5142.75
390.287	5132.75
390.512	5054.75
390.736	5157.75
390.961	5344.75
391.186	5386.75
391.411	5486.75
391.636	5544.75
391.86	5789.75
392.085	5852.75
392.31	5825.75
392.534	5639.75
392.759	5548.75
392.984	5477.75
393.208	5388.75
393.433	5478.75
393.658	5374.75
393.882	5420.75
394.107	5473.75
394.331	5501.75
394.556	5459.75
394.78	5478.75
395.005	5552.75
395.229	5591.75
395.454	5687.75
395.678	5947.75
395.903	5928.75
396.127	5925.75
396.352	5664.75
396.576	5493.75
396.801	5530.75
397.025	5575.75
397.249	5698.75
397.474	5842.75
397.698	5902.75
397.922	5994.75
398.147	6129.75
398.371	6188.75
398.595	6310.75
398.82	6598.75
399.044	7104.75
399.268	7935.75
399.492	9034.75
399.717	9630.75
399.941	9378.75
400.165	8812.75
400.389	8038.75
400.613	7282.75
400.837	6879.75
401.062	6606.75
401.286	6604.75
401.51	6547.75
401.734	6508.75
401.958	6670.75
402.182	6753.75
402.406	6900.75
402.63	6997.75
402.854	7034.75
403.078	7096.75
403.302	7285.75
403.526	7374.75
403.75	7472.75
403.974	7533.75
404.198	7381.75
404.422	7527.75
404.645	7472.75
404.869	7396.75
405.093	7610.75
405.317	7754.75
405.541	7878.75
405.765	7407.75
405.988	7307.75
406.212	7451.75
406.436	7635.75
406.66	7809.75
406.883	7756.75
407.107	8318.75
407.331	8845.75
407.555	9411.75
407.778	9098.75
408.002	8383.75
408.226	7965.75
408.449	7859.75
408.673	7704.75
408.896	7862.75
409.12	8074.75
409.344	7551.75
409.567	7172.75
409.791	7197.75
410.014	7089.75
410.238	6971.75
410.461	7136.75
410.685	7068.75
410.908	7124.75
411.132	7460.75
411.355	7428.75
411.578	7020.75
411.802	6815.75
412.025	6801.75
412.249	6968.75
412.472	7018.75
412.695	7070.75
412.919	6728.75
413.142	6598.75
413.365	6514.75
413.589	6555.75
413.812	6488.75
414.035	6350.75
414.258	6481.75
414.482	6419.75
414.705	6500.75
414.928	6496.75
415.151	6442.75
415.374	6563.75
415.597	6397.75
415.821	6333.75
416.044	6343.75
416.267	6278.75
416.49	6286.75
416.713	6218.75
416.936	6357.75
417.159	6259.75
417.382	6446.75
417.605	6419.75
417.828	6561.75
418.051	6669.75
418.274	6536.75
418.497	6438.75
418.72	6636.75
418.943	6494.75
419.166	6935.75
419.389	7341.75
419.611	7110.75
419.834	6991.75
420.057	6818.75
420.28	6748.75
420.503	6523.75
420.726	6499.75
420.948	6745.75
421.171	7075.75
421.394	7047.75
421.617	6589.75
421.839	6561.75
422.062	6613.75
422.285	6830.75
422.507	7523.75
422.73	8017.75
422.953	7270.75
423.175	7027.75
423.398	7104.75
423.621	7066.75
423.843	7327.75
424.066	7304.75
424.288	7201.75
424.511	7334.75
424.733	7791.75
424.956	8254.75
425.178	7822.75
425.401	7981.75
425.623	7830.75
425.846	6860.75
426.068	6655.75
426.291	6611.75
426.513	6573.75
426.735	6717.75
426.958	7144.75
427.18	7911.75
427.402	9064.75
427.625	9122.75
427.847	7767.75
428.069	6956.75
428.292	6492.75
428.514	6227.75
428.736	6071.75
428.958	6071.75
429.181	5933.75
429.403	5882.75
429.625	6026.75
429.847	6339.75
430.069	6905.75
430.292	6398.75
430.514	5902.75
430.736	5886.75
430.958	5787.75
431.18	5750.75
431.402	5765.75
431.624	5734.75
431.846	5784.75
432.068	5777.75
432.29	5916.75
432.512	5822.75
432.734	5884.75
432.956	5814.75
433.178	5970.75
433.4	5898.75
433.622	5803.75
433.844	5804.75
434.066	5798.75
434.287	5934.75
434.509	6140.75
434.731	6343.75
434.953	6504.75
435.175	6655.75
435.397	6785.75
435.618	6674.75
435.84	7081.75
436.062	7866.75
436.284	7735.75
436.505	6620.75
436.727	6275.75
436.949	6087.75
437.17	5910.75
437.392	5856.75
437.614	5980.75
437.835	6375.75
438.057	7373.75
438.278	7998.75
438.5	7944.75
438.721	8762.75
438.943	7589.75
439.165	6461.75
439.386	6281.75
439.608	6284.75
439.829	6412.75
440.05	6725.75
440.272	7021.75
440.493	6480.75
440.715	6247.75
440.936	6126.75
441.158	6212.75
441.379	6346.75
441.6	6702.75
441.822	6910.75
442.043	7343.75
442.264	8190.75
442.486	7890.75
442.707	6919.75
442.928	6739.75
443.149	6983.75
443.371	7190.75
443.592	7777.75
443.813	8772.75
444.034	8629.75
444.255	7568.75
444.476	7349.75
444.698	7583.75
444.919	7690.75
445.14	7482.75
445.361	7342.75
445.582	7539.75
445.803	8107.75
446.024	8670.75
446.245	8236.75
446.466	7484.75
446.687	6637.75
446.908	6207.75
447.129	5909.75
447.35	5795.75
447.571	5736.75
447.792	5635.75
448.013	5758.75
448.234	6015.75
448.455	6516.75
448.675	7830.75
448.896	8254.75
449.117	6846.75
449.338	6981.75
449.559	8354.75
449.779	8517.75
450	6512.75
450.221	5788.75
450.442	5633.75
450.662	5483.75
450.883	5564.75
451.104	5712.75
451.324	5542.75
451.545	5388.75
451.766	5275.75
451.986	5152.75
452.207	5106.75
452.428	5156.75
452.648	5125.75
452.869	5157.75
453.089	5194.75
453.31	5374.75
453.53	5117.75
453.751	5134.75
453.971	5123.75
454.192	5248.75
454.412	5021.75
454.633	4948.75
454.853	4912.75
455.073	4976.75
455.294	5406.75
455.514	5921.75
455.734	5406.75
455.955	4838.75
456.175	4783.75
456.395	4720.75
456.616	4719.75
456.836	4682.75
457.056	4735.75
457.276	4673.75
457.497	4754.75
457.717	4754.75
457.937	4875.75
458.157	4950.75
458.377	4993.75
458.598	5370.75
458.818	6115.75
459.038	6817.75
459.258	6695.75
459.478	6001.75
459.698	5932.75
459.918	5893.75
460.138	6112.75
460.358	6393.75
460.578	6449.75
460.798	6504.75
461.018	6476.75
461.238	6365.75
461.458	6202.75
461.678	6235.75
461.898	6387.75
462.118	6423.75
462.338	6736.75
462.558	6930.75
462.777	7140.75
462.997	7778.75
463.217	8300.75
463.437	8001.75
463.657	7382.75
463.876	7204.75
464.096	7324.75
464.316	7253.75
464.536	7300.75
464.755	7102.75
464.975	6901.75
465.195	7053.75
465.414	7048.75
465.634	6238.75
465.854	6033.75
466.073	5702.75
466.293	5508.75
466.512	5396.75
466.732	5301.75
466.951	5310.75
467.171	5190.75
467.391	5361.75
467.61	5399.75
467.829	5260.75
468.049	5216.75
468.268	5135.75
468.488	5079.75
468.707	4997.75
468.927	5021.75
469.146	5023.75
469.365	5074.75
469.585	5121.75
469.804	5359.75
470.023	5432.75
470.243	5442.75
470.462	5560.75
470.681	5674.75
470.901	5652.75
471.12	5377.75
471.339	5343.75
471.558	5334.75
471.777	5225.75
471.997	5186.75
472.216	5192.75
472.435	5268.75
472.654	5164.75
472.873	5028.75
473.092	4963.75
473.311	5020.75
473.53	5044.75
473.749	5213.75
473.968	5676.75
474.187	6672.75
474.406	6276.75
474.625	5397.75
474.844	5068.75
475.063	5052.75
475.282	5087.75
475.501	5170.75
475.72	5183.75
475.939	5155.75
476.158	5218.75
476.377	5320.75
476.596	5254.75
476.814	5342.75
477.033	5445.75
477.252	5478.75
477.471	5636.75
477.69	5736.75
477.908	5831.75
478.127	5898.75
478.346	5953.75
478.564	6086.75
478.783	6174.75
479.002	6414.75
479.22	6362.75
479.439	6411.75
479.658	6452.75
479.876	6564.75
480.095	6796.75
480.313	7292.75
480.532	7089.75
480.751	6948.75
480.969	6906.75
481.188	7004.75
481.406	6802.75
481.624	6399.75
481.843	6126.75
482.061	6085.75
482.28	5994.75
482.498	5948.75
482.717	5917.75
482.935	5951.75
483.153	5854.75
483.372	5910.75
483.59	5871.75
483.808	5830.75
484.027	5931.75
484.245	6034.75
484.463	6038.75
484.681	6159.75
484.9	6202.75
485.118	6200.75
485.336	6205.75
485.554	6260.75
485.772	6333.75
485.99	6352.75
486.209	6328.75
486.427	6427.75
486.645	6462.75
486.863	6531.75
487.081	6419.75
487.299	6362.75
487.517	6367.75
487.735	6401.75
487.953	6328.75
488.171	6306.75
488.389	6323.75
488.607	6318.75
488.825	6325.75
489.043	6378.75
489.261	6338.75
489.479	6379.75
489.696	6458.75
489.914	6567.75
490.132	6619.75
490.35	6659.75
490.568	6674.75
490.786	6836.75
491.003	6838.75
491.221	6940.75
491.439	7072.75
491.657	7133.75
491.874	7149.75
492.092	7156.75
492.31	7134.75
492.527	7331.75
492.745	7248.75
492.963	7323.75
493.18	7311.75
493.398	7372.75
493.615	7536.75
493.833	7548.75
494.05	7521.75
494.268	7525.75
494.485	7502.75
494.703	7475.75
494.92	7530.75
495.138	7472.75
495.355	7494.75
495.573	7554.75
495.79	7524.75
496.008	7509.75
496.225	7520.75
496.442	7622.75
496.66	7590.75
496.877	7703.75
497.094	7632.75
497.312	8028.75
497.529	8125.75
497.746	8291.75
497.963	8513.75
498.181	8938.75
498.398	9118.75
498.615	9529.75
498.832	10014.75
499.049	10675.75
499.267	11108.75
499.484	11850.75
499.701	12732.75
499.918	13486.75
500.135	14330.75
500.352	14949.75
500.569	15038.75
500.786	14888.75
501.003	14482.75
501.22	13872.75
501.437	13102.75
501.654	12274.75
501.871	11586.75
502.088	10924.75
502.305	10253.75
502.522	9658.75
502.739	9330.75
502.956	8948.75
503.172	8640.75
503.389	8272.75
503.606	8241.75
503.823	8205.75
504.04	8110.75
504.256	8155.75
504.473	8228.75
504.69	8402.75
504.907	8138.75
505.123	7696.75
505.34	7443.75
505.557	7298.75
505.773	7143.75
505.99	7124.75
506.207	7033.75
506.423	6996.75
506.64	6813.75
506.856	6794.75
507.073	6726.75
507.289	6738.75
507.506	6615.75
507.722	6746.75
507.939	6783.75
508.155	6541.75
508.372	6356.75
508.588	6337.75
508.805	6393.75
509.021	6430.75
509.238	6599.75
509.454	6593.75
509.67	6481.75
509.887	6295.75
510.103	6356.75
510.319	6414.75
510.536	7690.75
510.752	11231.75
510.968	7488.75
511.184	6148.75
511.401	6144.75
511.617	5917.75
511.833	5920.75
512.049	5903.75
512.265	5856.75
512.481	5885.75
512.698	5931.75
512.914	5910.75
513.13	5847.75
513.346	5843.75
513.562	5936.75
513.778	5914.75
513.994	5980.75
514.21	6092.75
514.426	6247.75
514.642	6588.75
514.858	6767.75
515.074	7107.75
515.29	8562.75
515.506	11130.75
515.721	8150.75
515.937	6929.75
516.153	6799.75
516.369	6688.75
516.585	6662.75
516.801	6906.75
517.016	7078.75
517.232	7287.75
517.448	7535.75
517.664	7667.75
517.879	7683.75
518.095	7590.75
518.311	7450.75
518.527	7185.75
518.742	6959.75
518.958	6724.75
519.173	6526.75
519.389	6440.75
519.605	6367.75
519.82	6194.75
520.036	6288.75
520.251	6446.75
520.467	6498.75
520.682	6426.75
520.898	6341.75
521.113	6514.75
521.329	6822.75
521.544	7410.75
521.76	9314.75
521.975	13820.75
522.19	10726.75
522.406	6957.75
522.621	6094.75
522.836	5870.75
523.052	5574.75
523.267	5483.75
523.482	5346.75
523.698	5308.75
523.913	5296.75
524.128	5258.75
524.343	5180.75
524.559	5068.75
524.774	5031.75
524.989	4982.75
525.204	5065.75
525.419	5104.75
525.634	4946.75
525.849	4927.75
526.064	4943.75
526.28	4893.75
526.495	4823.75
526.71	4814.75
526.925	4777.75
527.14	4775.75
527.355	4766.75
527.57	4835.75
527.785	4757.75
527.999	4805.75
528.214	4744.75
528.429	4831.75
528.644	4858.75
528.859	4718.75
529.074	4795.75
529.289	5084.75
529.503	5492.75
529.718	5263.75
529.933	5017.75
530.148	4912.75
530.363	4830.75
530.577	4764.75
530.792	4771.75
531.007	4802.75
531.221	4754.75
531.436	4710.75
531.651	4772.75
531.865	4813.75
532.08	4718.75
532.295	4702.75
532.509	4664.75
532.724	4688.75
532.938	4701.75
533.153	4674.75
533.367	4677.75
533.582	4685.75
533.796	4655.75
534.011	4576.75
534.225	4654.75
534.44	4581.75
534.654	4583.75
534.868	4561.75
535.083	4568.75
535.297	4582.75
535.511	4559.75
535.726	4610.75
535.94	4560.75
536.154	4486.75
536.369	4489.75
536.583	4402.75
536.797	4395.75
537.011	4425.75
537.225	4357.75
537.44	4314.75
537.654	4406.75
537.868	4401.75
538.082	4338.75
538.296	4383.75
538.51	4322.75
538.724	4391.75
538.938	4310.75
539.153	4294.75
539.367	4302.75
539.581	4302.75
539.795	4264.75
540.009	4268.75
540.222	4260.75
540.436	4215.75
540.65	4320.75
540.864	4360.75
541.078	4381.75
541.292	4338.75
541.506	4267.75
541.72	4211.75
541.934	4135.75
542.147	4123.75
542.361	4120.75
542.575	4051.75
542.789	4092.75
543.002	4146.75
543.216	4203.75
543.43	4241.75
543.644	4212.75
543.857	4138.75
544.071	4200.75
544.285	4242.75
544.498	4240.75
544.712	4167.75
544.925	4111.75
545.139	4150.75
545.352	4256.75
545.566	4170.75
545.779	4139.75
545.993	4182.75
546.206	4254.75
546.42	4195.75
546.633	4182.75
546.847	4140.75
547.06	4115.75
547.274	4163.75
547.487	4038.75
547.7	4079.75
547.914	4207.75
548.127	4181.75
548.34	4160.75
548.554	4167.75
548.767	4135.75
548.98	4166.75
549.193	4179.75
549.407	4207.75
549.62	4248.75
549.833	4277.75
550.046	4209.75
550.259	4122.75
550.473	4076.75
550.686	4066.75
550.899	4117.75
551.112	4048.75
551.325	3967.75
551.538	4039.75
551.751	4040.75
551.964	4094.75
552.177	4107.75
552.39	4226.75
552.603	4232.75
552.816	4320.75
553.029	4395.75
553.242	4460.75
553.455	4485.75
553.667	4582.75
553.88	4551.75
554.093	4442.75
554.306	4326.75
554.519	4163.75
554.732	4071.75
554.944	4076.75
555.157	4020.75
555.37	3909.75
555.583	3862.75
555.795	3803.75
556.008	3731.75
556.221	3685.75
556.433	3582.75
556.646	3618.75
556.859	3570.75
557.071	3523.75
557.284	3444.75
557.496	3471.75
557.709	3464.75
557.921	3466.75
558.134	3486.75
558.346	3380.75
558.559	3373.75
558.771	3389.75
558.984	3421.75
559.196	3363.75
559.409	3349.75
559.621	3279.75
559.833	3345.75
560.046	3338.75
560.258	3323.75
560.47	3335.75
560.683	3278.75
560.895	3331.75
561.107	3303.75
561.32	3270.75
561.532	3284.75
561.744	3265.75
561.956	3260.75
562.168	3308.75
562.381	3286.75
562.593	3284.75
562.805	3348.75
563.017	3402.75
563.229	3373.75
563.441	3392.75
563.653	3426.75
563.865	3366.75
564.077	3464.75
564.289	3434.75
564.501	3506.75
564.713	3608.75
564.925	3693.75
565.137	3792.75
565.349	3808.75
565.561	3921.75
565.773	4050.75
565.985	4255.75
566.197	4470.75
566.408	4712.75
566.62	5067.75
566.832	5306.75
567.044	5405.75
567.255	5381.75
567.467	5588.75
567.679	5888.75
567.891	6207.75
568.102	6275.75
568.314	5930.75
568.526	5267.75
568.737	4854.75
568.949	4537.75
569.161	4154.75
569.372	3957.75
569.584	3752.75
569.795	3698.75
570.007	3575.75
570.218	3838.75
570.43	3556.75
570.641	3414.75
570.853	3359.75
571.064	3476.75
571.276	3435.75
571.487	3255.75
571.698	3104.75
571.91	3080.75
572.121	2992.75
572.333	2955.75
572.544	2881.75
572.755	2832.75
572.966	2799.75
573.178	2766.75
573.389	2724.75
573.6	2751.75
573.811	2702.75
574.023	2686.75
574.234	2678.75
574.445	2668.75
574.656	2669.75
574.867	2660.75
575.078	2689.75
575.289	2637.75
575.501	2612.75
575.712	2520.75
575.923	2540.75
576.134	2487.75
576.345	2547.75
576.556	2486.75
576.767	2500.75
576.978	2480.75
577.188	2491.75
577.399	2456.75
577.61	2428.75
577.821	2448.75
578.032	2459.75
578.243	2803.75
578.454	3865.75
578.665	2684.75
578.875	2372.75
579.086	2337.75
579.297	2372.75
579.508	2298.75
579.718	2237.75
579.929	2281.75
580.14	2259.75
580.35	2231.75
580.561	2250.75
580.772	2202.75
580.982	2209.75
581.193	2222.75
581.403	2183.75
581.614	2177.75
581.825	2179.75
582.035	2191.75
582.246	2183.75
582.456	2160.75
582.667	2192.75
582.877	2167.75
583.087	2124.75
583.298	2133.75
583.508	2126.75
583.719	2101.75
583.929	2166.75
584.139	2124.75
584.35	2104.75
584.56	2114.75
584.77	2080.75
584.981	2096.75
585.191	2095.75
585.401	2128.75
585.611	2073.75
585.821	2041.75
586.032	2060.75
586.242	2073.75
586.452	2099.75
586.662	2051.75
586.872	2048.75
587.082	2041.75
587.292	2044.75
587.502	2067.75
587.713	1990.75
587.923	2019.75
588.133	1992.75
588.343	2005.75
588.553	2022.75
588.762	1978.75
588.972	2037.75
589.182	2047.75
589.392	2024.75
589.602	2108.75
589.812	2015.75
590.022	2042.75
590.232	2051.75
590.441	2059.75
590.651	2106.75
590.861	2034.75
591.071	2117.75
591.281	2118.75
591.49	2144.75
591.7	2192.75
591.91	2147.75
592.119	2242.75
592.329	2310.75
592.539	2400.75
592.748	2451.75
592.958	2519.75
593.167	2604.75
593.377	2604.75
593.587	2643.75
593.796	2606.75
594.006	2687.75
594.215	2659.75
594.424	2658.75
594.634	2601.75
594.843	2416.75
595.053	2328.75
595.262	2231.75
595.472	2237.75
595.681	2113.75
595.89	2080.75
596.1	2034.75
596.309	2066.75
596.518	1980.75
596.727	1964.75
596.937	1911.75
597.146	1874.75
597.355	1853.75
597.564	1812.75
597.774	1780.75
597.983	1769.75
598.192	1750.75
598.401	1743.75
598.61	1742.75
598.819	1681.75
599.028	1681.75
599.237	1714.75
599.446	1742.75
599.655	1692.75
599.864	1702.75
600.073	1649.75
600.282	1677.75
600.491	1672.75
600.7	1646.75
600.909	1627.75
601.118	1635.75
601.327	1572.75
601.536	1588.75
601.745	1613.75
601.953	1615.75
602.162	1573.75
602.371	1556.75
602.58	1598.75
602.789	1594.75
602.997	1589.75
603.206	1591.75
603.415	1557.75
603.623	1540.75
603.832	1525.75
604.041	1539.75
604.249	1530.75
604.458	1524.75
604.666	1502.75
604.875	1523.75
605.084	1461.75
605.292	1465.75
605.501	1478.75
605.709	1470.75
605.918	1483.75
606.126	1490.75
606.334	1472.75
606.543	1462.75
606.751	1457.75
606.96	1464.75
607.168	1452.75
607.376	1454.75
607.585	1432.75
607.793	1447.75
608.001	1438.75
608.21	1461.75
608.418	1422.75
608.626	1430.75
608.834	1406.75
609.043	1440.75
609.251	1443.75
609.459	1404.75
609.667	1391.75
609.875	1400.75
610.083	1384.75
610.291	1375.75
610.499	1423.75
610.707	1391.75
610.916	1380.75
611.124	1397.75
611.332	1414.75
611.54	1419.75
611.748	1403.75
611.955	1388.75
612.163	1385.75
612.371	1344.75
612.579	1384.75
612.787	1397.75
612.995	1400.75
613.203	1350.75
613.411	1360.75
613.618	1312.75
613.826	1338.75
614.034	1351.75
614.242	1378.75
614.449	1344.75
614.657	1370.75
614.865	1330.75
615.072	1362.75
615.28	1373.75
615.488	1366.75
615.695	1339.75
615.903	1381.75
616.111	1406.75
616.318	1402.75
616.526	1398.75
616.733	1398.75
616.941	1422.75
617.148	1391.75
617.356	1381.75
617.563	1386.75
617.771	1365.75
617.978	1358.75
618.185	1362.75
618.393	1321.75
618.6	1335.75
618.807	1350.75
619.015	1330.75
619.222	1306.75
619.429	1319.75
619.637	1295.75
619.844	1314.75
620.051	1282.75
620.258	1279.75
620.466	1262.75
620.673	1252.75
620.88	1211.75
621.087	1202.75
621.294	1253.75
621.501	1217.75
621.708	1274.75
621.915	1262.75
622.122	1271.75
622.329	1259.75
622.536	1255.75
622.743	1200.75
622.95	1210.75
623.157	1196.75
623.364	1214.75
623.571	1193.75
623.778	1181.75
623.985	1168.75
624.192	1128.75
624.399	1155.75
624.606	1171.75
624.812	1123.75
625.019	1138.75
625.226	1157.75
625.433	1148.75
625.639	1145.75
625.846	1099.75
626.053	1103.75
626.259	1120.75
626.466	1086.75
626.673	1099.75
626.879	1072.75
627.086	1070.75
627.293	1087.75
627.499	1092.75
627.706	1078.75
627.912	1021.75
628.119	1050.75
628.325	1082.75
628.532	1046.75
628.738	1043.75
628.945	1042.75
629.151	1052.75
629.357	1034.75
629.564	1028.75
629.77	997.75
629.976	1002.75
630.183	1000.75
630.389	1007.75
630.595	1034.75
630.802	983.75
631.008	972.75
631.214	992.75
631.42	1006.75
631.627	981.75
631.833	967.75
632.039	957.75
632.245	959.75
632.451	970.75
632.657	940.75
632.863	926.75
633.069	942.75
633.275	941.75
633.481	937.75
633.688	924.75
633.893	921.75
634.099	918.75
634.305	917.75
634.511	915.75
634.717	884.75
634.923	887.75
635.129	867.75
635.335	884.75
635.541	871.75
635.747	860.75
635.952	885.75
636.158	856.75
636.364	899.75
636.57	885.75
636.775	887.75
636.981	871.75
637.187	852.75
637.392	824.75
637.598	858.75
637.804	848.75
638.009	844.75
638.215	851.75
638.421	832.75
638.626	824.75
638.832	822.75
639.037	797.75
639.243	798.75
639.448	798.75
639.654	824.75
639.859	808.75
640.065	814.75
640.27	764.75
640.475	772.75
640.681	801.75
640.886	838.75
641.091	789.75
641.297	766.75
641.502	761.75
641.707	775.75
641.913	782.75
642.118	768.75
642.323	728.75
642.528	756.75
642.733	742.75
642.939	757.75
643.144	726.75
643.349	751.75
643.554	752.75
643.759	732.75
643.964	753.75
644.169	734.75
644.374	734.75
644.579	722.75
644.784	734.75
644.989	732.75
645.194	727.75
645.399	734.75
645.604	741.75
645.809	757.75
646.014	725.75
646.219	727.75
646.423	741.75
646.628	733.75
646.833	763.75
647.038	734.75
647.243	765.75
647.447	788.75
647.652	800.75
647.857	813.75
648.062	816.75
648.266	825.75
648.471	817.75
648.676	819.75
648.88	818.75
649.085	799.75
649.289	823.75
649.494	859.75
649.698	994.75
649.903	844.75
650.107	759.75
650.312	730.75
650.516	684.75
650.721	654.75
650.925	670.75
651.13	628.75
651.334	588.75
651.539	606.75
651.743	607.75
651.947	618.75
652.152	575.75
652.356	567.75
652.56	570.75
652.764	551.75
652.969	544.75
653.173	516.75
653.377	522.75
653.581	511.75
653.785	474.75
653.99	509.75
654.194	491.75
654.398	472.75
654.602	483.75
654.806	494.75
655.01	553.75
655.214	509.75
655.418	456.75
655.622	435.75
655.826	464.75
656.03	464.75
656.234	470.75
656.438	480.75
656.642	463.75
656.846	424.75
657.049	424.75
657.253	364.75
657.457	330.75
657.661	338.75
657.865	321.75
658.068	274.75
658.272	273.75
658.476	276.75
658.68	265.75
658.883	238.75
659.087	218.75
659.291	224.75
659.494	219.75
659.698	191.75
659.901	191.75
660.105	175.75
660.309	184.75
660.512	172.75
660.716	168.75
660.919	167.75
661.123	155.75
661.326	136.75
661.53	137.75
661.733	124.75
661.936	136.75
662.14	119.75
662.343	113.75
662.546	115.75
662.75	99.75
662.953	102.75
663.156	105.75
663.36	98.75
663.563	99.75
663.766	83.75
663.969	97.75
664.173	90.75
664.376	92.75
664.579	85.75
664.782	90.75
664.985	82.75
665.188	79.75
665.391	78.75
665.594	88.75
665.797	74.75
666	78.75
666.203	81.75
666.406	83.75
666.609	84.75
666.812	92.75
667.015	90.75
667.218	61.75
667.421	60.75
667.624	95.75
667.827	84.75
668.03	80.75
668.232	73.75
668.435	83.75
668.638	94.75
668.841	87.75
669.043	87.75
669.246	86.75
669.449	91.75
669.651	77.75
669.854	77.75
670.057	88.75
670.259	77.75
670.462	68.75
670.665	83.75
670.867	86.75
671.07	82.75
671.272	79.75
671.475	71.75
671.677	88.75
671.88	82.75
672.082	70.75
672.284	72.75
672.487	92.75
672.689	84.75
672.892	75.75
