Data from Uncirc_1987_H10_HRD10591_00083.txt Node
Date: Wed Jan 03 12:09:05 EST 2024
User: Yrep
Spectrometer: HR+D1059
Trigger mode: 1
Integration Time (sec): 1.000000E-1
Scans to average: 1
Electric dark correction enabled: true
Nonlinearity correction enabled: false
Boxcar width: 0
XAxis mode: Wavelengths
Number of Pixels in Spectrum: 2048
>>>>>Begin Spectral Data<<<<<
223.165	-18.31
223.4	-18.31
223.635	-18.31
223.869	-28.31
224.104	-15.31
224.338	-29.31
224.573	-21.31
224.808	-14.31
225.042	8.69
225.277	-3.31
225.511	-5.31
225.746	10.69
225.98	8.69
226.215	-4.31
226.449	17.69
226.683	26.69
226.918	29.69
227.152	37.69
227.387	32.69
227.621	16.69
227.856	31.69
228.09	31.69
228.324	49.69
228.559	63.69
228.793	56.69
229.027	61.69
229.262	66.69
229.496	75.69
229.73	99.69
229.964	77.69
230.199	58.69
230.433	64.69
230.667	72.69
230.901	81.69
231.136	68.69
231.37	79.69
231.604	82.69
231.838	74.69
232.072	82.69
232.306	80.69
232.541	85.69
232.775	76.69
233.009	64.69
233.243	83.69
233.477	67.69
233.711	83.69
233.945	84.69
234.179	98.69
234.413	69.69
234.647	78.69
234.881	79.69
235.115	82.69
235.349	84.69
235.583	90.69
235.817	82.69
236.051	78.69
236.285	77.69
236.519	76.69
236.753	83.69
236.987	83.69
237.221	89.69
237.455	90.69
237.689	77.69
237.922	68.69
238.156	80.69
238.39	78.69
238.624	71.69
238.858	67.69
239.091	81.69
239.325	77.69
239.559	88.69
239.793	81.69
240.027	81.69
240.26	78.69
240.494	65.69
240.728	66.69
240.961	81.69
241.195	83.69
241.429	73.69
241.662	79.69
241.896	64.69
242.13	65.69
242.363	68.69
242.597	74.69
242.83	74.69
243.064	86.69
243.298	76.69
243.531	72.69
243.765	69.69
243.998	76.69
244.232	66.69
244.465	87.69
244.699	74.69
244.932	80.69
245.166	73.69
245.399	72.69
245.633	89.69
245.866	71.69
246.099	85.69
246.333	83.69
246.566	86.69
246.8	69.69
247.033	89.69
247.266	77.69
247.5	67.69
247.733	90.69
247.966	87.69
248.2	83.69
248.433	81.69
248.666	78.69
248.899	77.69
249.133	89.69
249.366	89.69
249.599	84.69
249.832	76.69
250.066	70.69
250.299	71.69
250.532	78.69
250.765	74.69
250.998	91.69
251.231	76.69
251.465	81.69
251.698	85.69
251.931	87.69
252.164	96.69
252.397	75.69
252.63	73.69
252.863	78.69
253.096	85.69
253.329	84.69
253.562	91.69
253.795	96.69
254.028	72.69
254.261	70.69
254.494	78.69
254.727	82.69
254.96	74.69
255.193	94.69
255.426	89.69
255.659	84.69
255.892	78.69
256.124	69.69
256.357	75.69
256.59	79.69
256.823	79.69
257.056	77.69
257.289	85.69
257.521	74.69
257.754	90.69
257.987	84.69
258.22	86.69
258.452	86.69
258.685	73.69
258.918	87.69
259.151	68.69
259.383	70.69
259.616	79.69
259.849	81.69
260.081	81.69
260.314	81.69
260.547	85.69
260.779	85.69
261.012	99.69
261.244	81.69
261.477	87.69
261.71	99.69
261.942	115.69
262.175	109.69
262.407	84.69
262.64	71.69
262.872	83.69
263.105	98.69
263.337	81.69
263.57	81.69
263.802	70.69
264.035	80.69
264.267	67.69
264.499	86.69
264.732	83.69
264.964	74.69
265.197	80.69
265.429	82.69
265.661	88.69
265.894	91.69
266.126	98.69
266.358	78.69
266.591	81.69
266.823	83.69
267.055	87.69
267.287	89.69
267.52	76.69
267.752	77.69
267.984	70.69
268.216	86.69
268.448	76.69
268.681	64.69
268.913	76.69
269.145	91.69
269.377	82.69
269.609	83.69
269.841	84.69
270.073	77.69
270.306	94.69
270.538	89.69
270.77	62.69
271.002	73.69
271.234	85.69
271.466	90.69
271.698	79.69
271.93	81.69
272.162	80.69
272.394	98.69
272.626	93.69
272.858	84.69
273.09	86.69
273.322	86.69
273.553	88.69
273.785	80.69
274.017	82.69
274.249	93.69
274.481	96.69
274.713	88.69
274.945	93.69
275.176	84.69
275.408	86.69
275.64	83.69
275.872	89.69
276.104	86.69
276.335	91.69
276.567	103.69
276.799	102.69
277.031	79.69
277.262	86.69
277.494	85.69
277.726	84.69
277.957	77.69
278.189	92.69
278.421	83.69
278.652	83.69
278.884	81.69
279.115	90.69
279.347	99.69
279.579	76.69
279.81	81.69
280.042	78.69
280.273	72.69
280.505	82.69
280.736	83.69
280.968	79.69
281.199	91.69
281.431	81.69
281.662	90.69
281.894	89.69
282.125	93.69
282.356	103.69
282.588	112.69
282.819	113.69
283.051	84.69
283.282	75.69
283.513	81.69
283.745	77.69
283.976	93.69
284.207	95.69
284.439	88.69
284.67	94.69
284.901	74.69
285.132	89.69
285.364	75.69
285.595	86.69
285.826	74.69
286.057	90.69
286.288	81.69
286.52	94.69
286.751	73.69
286.982	82.69
287.213	87.69
287.444	89.69
287.675	82.69
287.906	86.69
288.138	107.69
288.369	100.69
288.6	96.69
288.831	78.69
289.062	95.69
289.293	91.69
289.524	70.69
289.755	97.69
289.986	103.69
290.217	97.69
290.448	71.69
290.679	89.69
290.91	94.69
291.141	77.69
291.371	97.69
291.602	96.69
291.833	96.69
292.064	86.69
292.295	85.69
292.526	88.69
292.757	82.69
292.987	82.69
293.218	91.69
293.449	89.69
293.68	87.69
293.91	79.69
294.141	100.69
294.372	87.69
294.603	87.69
294.833	84.69
295.064	95.69
295.295	93.69
295.525	74.69
295.756	107.69
295.987	109.69
296.217	125.69
296.448	123.69
296.679	86.69
296.909	94.69
297.14	89.69
297.37	93.69
297.601	93.69
297.831	80.69
298.062	100.69
298.292	85.69
298.523	93.69
298.753	97.69
298.984	82.69
299.214	91.69
299.445	98.69
299.675	101.69
299.905	101.69
300.136	93.69
300.366	87.69
300.597	95.69
300.827	90.69
301.057	104.69
301.288	98.69
301.518	90.69
301.748	85.69
301.979	95.69
302.209	81.69
302.439	83.69
302.669	102.69
302.9	83.69
303.13	94.69
303.36	86.69
303.59	91.69
303.82	99.69
304.051	97.69
304.281	85.69
304.511	90.69
304.741	92.69
304.971	83.69
305.201	91.69
305.431	87.69
305.661	87.69
305.891	98.69
306.121	90.69
306.352	100.69
306.582	91.69
306.812	97.69
307.042	90.69
307.272	96.69
307.502	88.69
307.731	96.69
307.961	98.69
308.191	86.69
308.421	97.69
308.651	99.69
308.881	98.69
309.111	87.69
309.341	99.69
309.571	93.69
309.8	87.69
310.03	92.69
310.26	95.69
310.49	95.69
310.72	96.69
310.949	96.69
311.179	105.69
311.409	85.69
311.639	95.69
311.868	103.69
312.098	95.69
312.328	103.69
312.557	106.69
312.787	111.69
313.017	107.69
313.246	106.69
313.476	89.69
313.706	104.69
313.935	87.69
314.165	102.69
314.394	104.69
314.624	95.69
314.853	98.69
315.083	94.69
315.312	88.69
315.542	95.69
315.771	81.69
316.001	100.69
316.23	97.69
316.46	96.69
316.689	108.69
316.919	87.69
317.148	112.69
317.377	83.69
317.607	96.69
317.836	87.69
318.065	86.69
318.295	96.69
318.524	87.69
318.753	98.69
318.983	75.69
319.212	93.69
319.441	94.69
319.67	110.69
319.9	106.69
320.129	103.69
320.358	91.69
320.587	97.69
320.816	95.69
321.046	87.69
321.275	100.69
321.504	84.69
321.733	86.69
321.962	101.69
322.191	99.69
322.42	100.69
322.649	113.69
322.878	97.69
323.108	100.69
323.337	125.69
323.566	127.69
323.795	144.69
324.024	181.69
324.253	348.69
324.482	735.69
324.71	1457.69
324.939	1962.69
325.168	734.69
325.397	223.69
325.626	134.69
325.855	101.69
326.084	125.69
326.313	129.69
326.542	145.69
326.77	203.69
326.999	421.69
327.228	829.69
327.457	1517.69
327.686	1213.69
327.914	334.69
328.143	176.69
328.372	149.69
328.6	119.69
328.829	110.69
329.058	116.69
329.287	117.69
329.515	94.69
329.744	100.69
329.972	103.69
330.201	113.69
330.43	112.69
330.658	128.69
330.887	129.69
331.115	120.69
331.344	100.69
331.572	99.69
331.801	111.69
332.03	105.69
332.258	90.69
332.486	103.69
332.715	86.69
332.943	112.69
333.172	110.69
333.4	89.69
333.629	88.69
333.857	111.69
334.085	94.69
334.314	102.69
334.542	117.69
334.771	107.69
334.999	90.69
335.227	109.69
335.455	88.69
335.684	99.69
335.912	89.69
336.14	94.69
336.369	98.69
336.597	93.69
336.825	91.69
337.053	98.69
337.281	98.69
337.51	100.69
337.738	102.69
337.966	101.69
338.194	105.69
338.422	87.69
338.65	90.69
338.878	86.69
339.106	91.69
339.334	94.69
339.562	79.69
339.79	85.69
340.018	82.69
340.246	95.69
340.474	115.69
340.702	90.69
340.93	101.69
341.158	98.69
341.386	98.69
341.614	94.69
341.842	86.69
342.07	103.69
342.298	99.69
342.526	87.69
342.754	103.69
342.981	81.69
343.209	100.69
343.437	96.69
343.665	90.69
343.893	73.69
344.12	99.69
344.348	89.69
344.576	94.69
344.804	87.69
345.031	102.69
345.259	98.69
345.487	98.69
345.714	94.69
345.942	90.69
346.17	85.69
346.397	82.69
346.625	90.69
346.853	80.69
347.08	84.69
347.308	91.69
347.535	105.69
347.763	87.69
347.99	91.69
348.218	101.69
348.445	105.69
348.673	91.69
348.9	83.69
349.128	96.69
349.355	82.69
349.583	104.69
349.81	95.69
350.037	83.69
350.265	106.69
350.492	92.69
350.72	98.69
350.947	100.69
351.174	103.69
351.402	99.69
351.629	101.69
351.856	90.69
352.083	80.69
352.311	98.69
352.538	113.69
352.765	106.69
352.992	114.69
353.22	120.69
353.447	100.69
353.674	104.69
353.901	105.69
354.128	113.69
354.355	88.69
354.583	90.69
354.81	94.69
355.037	93.69
355.264	94.69
355.491	100.69
355.718	87.69
355.945	101.69
356.172	91.69
356.399	101.69
356.626	92.69
356.853	91.69
357.08	99.69
357.307	82.69
357.534	98.69
357.761	89.69
357.988	109.69
358.215	99.69
358.441	89.69
358.668	84.69
358.895	90.69
359.122	90.69
359.349	95.69
359.576	105.69
359.802	89.69
360.029	105.69
360.256	103.69
360.483	87.69
360.709	88.69
360.936	112.69
361.163	93.69
361.39	97.69
361.616	98.69
361.843	87.69
362.07	88.69
362.296	104.69
362.523	96.69
362.749	95.69
362.976	86.69
363.203	102.69
363.429	85.69
363.656	93.69
363.882	95.69
364.109	86.69
364.335	103.69
364.562	89.69
364.788	80.69
365.015	94.69
365.241	103.69
365.468	112.69
365.694	104.69
365.92	101.69
366.147	96.69
366.373	94.69
366.599	81.69
366.826	98.69
367.052	105.69
367.278	89.69
367.505	83.69
367.731	93.69
367.957	110.69
368.184	80.69
368.41	102.69
368.636	113.69
368.862	113.69
369.089	98.69
369.315	93.69
369.541	88.69
369.767	95.69
369.993	86.69
370.219	86.69
370.445	89.69
370.672	100.69
370.898	83.69
371.124	91.69
371.35	96.69
371.576	96.69
371.802	89.69
372.028	97.69
372.254	104.69
372.48	87.69
372.706	71.69
372.932	91.69
373.158	85.69
373.384	90.69
373.61	92.69
373.835	82.69
374.061	101.69
374.287	88.69
374.513	92.69
374.739	91.69
374.965	90.69
375.191	82.69
375.416	80.69
375.642	104.69
375.868	85.69
376.094	86.69
376.319	94.69
376.545	100.69
376.771	86.69
376.997	91.69
377.222	97.69
377.448	85.69
377.674	85.69
377.899	84.69
378.125	98.69
378.35	77.69
378.576	98.69
378.802	89.69
379.027	91.69
379.253	85.69
379.478	86.69
379.704	92.69
379.929	87.69
380.155	93.69
380.38	88.69
380.606	96.69
380.831	96.69
381.057	101.69
381.282	98.69
381.507	94.69
381.733	96.69
381.958	84.69
382.184	91.69
382.409	81.69
382.634	102.69
382.86	110.69
383.085	111.69
383.31	86.69
383.535	111.69
383.761	96.69
383.986	104.69
384.211	84.69
384.436	93.69
384.662	103.69
384.887	97.69
385.112	97.69
385.337	90.69
385.562	91.69
385.787	104.69
386.013	112.69
386.238	96.69
386.463	101.69
386.688	108.69
386.913	83.69
387.138	106.69
387.363	93.69
387.588	95.69
387.813	90.69
388.038	95.69
388.263	114.69
388.488	103.69
388.713	100.69
388.938	96.69
389.163	93.69
389.387	117.69
389.612	105.69
389.837	98.69
390.062	107.69
390.287	100.69
390.512	95.69
390.736	96.69
390.961	111.69
391.186	95.69
391.411	102.69
391.636	86.69
391.86	88.69
392.085	99.69
392.31	88.69
392.534	80.69
392.759	98.69
392.984	98.69
393.208	86.69
393.433	85.69
393.658	74.69
393.882	86.69
394.107	95.69
394.331	90.69
394.556	85.69
394.78	91.69
395.005	107.69
395.229	77.69
395.454	75.69
395.678	106.69
395.903	86.69
396.127	88.69
396.352	84.69
396.576	88.69
396.801	98.69
397.025	88.69
397.249	79.69
397.474	83.69
397.698	77.69
397.922	90.69
398.147	84.69
398.371	69.69
398.595	90.69
398.82	79.69
399.044	85.69
399.268	93.69
399.492	94.69
399.717	76.69
399.941	90.69
400.165	85.69
400.389	96.69
400.613	105.69
400.837	69.69
401.062	89.69
401.286	93.69
401.51	94.69
401.734	86.69
401.958	86.69
402.182	107.69
402.406	154.69
402.63	88.69
402.854	81.69
403.078	80.69
403.302	94.69
403.526	72.69
403.75	73.69
403.974	77.69
404.198	80.69
404.422	84.69
404.645	88.69
404.869	94.69
405.093	100.69
405.317	99.69
405.541	89.69
405.765	91.69
405.988	127.69
406.212	157.69
406.436	214.69
406.66	137.69
406.883	85.69
407.107	98.69
407.331	80.69
407.555	84.69
407.778	85.69
408.002	82.69
408.226	81.69
408.449	82.69
408.673	79.69
408.896	101.69
409.12	95.69
409.344	78.69
409.567	88.69
409.791	99.69
410.014	94.69
410.238	94.69
410.461	94.69
410.685	106.69
410.908	98.69
411.132	111.69
411.355	102.69
411.578	97.69
411.802	112.69
412.025	94.69
412.249	84.69
412.472	97.69
412.695	105.69
412.919	90.69
413.142	95.69
413.365	92.69
413.589	95.69
413.812	87.69
414.035	92.69
414.258	89.69
414.482	85.69
414.705	91.69
414.928	81.69
415.151	82.69
415.374	86.69
415.597	90.69
415.821	71.69
416.044	93.69
416.267	89.69
416.49	94.69
416.713	98.69
416.936	89.69
417.159	90.69
417.382	81.69
417.605	91.69
417.828	100.69
418.051	99.69
418.274	104.69
418.497	98.69
418.72	84.69
418.943	93.69
419.166	65.69
419.389	91.69
419.611	78.69
419.834	87.69
420.057	92.69
420.28	98.69
420.503	80.69
420.726	85.69
420.948	79.69
421.171	86.69
421.394	103.69
421.617	94.69
421.839	86.69
422.062	73.69
422.285	93.69
422.507	98.69
422.73	91.69
422.953	86.69
423.175	85.69
423.398	82.69
423.621	85.69
423.843	87.69
424.066	104.69
424.288	90.69
424.511	83.69
424.733	97.69
424.956	103.69
425.178	78.69
425.401	86.69
425.623	103.69
425.846	97.69
426.068	95.69
426.291	90.69
426.513	91.69
426.735	83.69
426.958	95.69
427.18	98.69
427.402	126.69
427.625	143.69
427.847	135.69
428.069	103.69
428.292	86.69
428.514	85.69
428.736	87.69
428.958	84.69
429.181	76.69
429.403	75.69
429.625	86.69
429.847	92.69
430.069	85.69
430.292	94.69
430.514	89.69
430.736	80.69
430.958	89.69
431.18	94.69
431.402	79.69
431.624	72.69
431.846	79.69
432.068	87.69
432.29	92.69
432.512	94.69
432.734	90.69
432.956	97.69
433.178	103.69
433.4	93.69
433.622	90.69
433.844	90.69
434.066	102.69
434.287	90.69
434.509	94.69
434.731	71.69
434.953	77.69
435.175	88.69
435.397	98.69
435.618	97.69
435.84	112.69
436.062	108.69
436.284	113.69
436.505	92.69
436.727	91.69
436.949	94.69
437.17	80.69
437.392	76.69
437.614	69.69
437.835	101.69
438.057	108.69
438.278	113.69
438.5	107.69
438.721	114.69
438.943	103.69
439.165	93.69
439.386	91.69
439.608	91.69
439.829	92.69
440.05	108.69
440.272	141.69
440.493	96.69
440.715	72.69
440.936	84.69
441.158	93.69
441.379	86.69
441.6	93.69
441.822	87.69
442.043	107.69
442.264	97.69
442.486	92.69
442.707	90.69
442.928	107.69
443.149	118.69
443.371	113.69
443.592	104.69
443.813	101.69
444.034	99.69
444.255	89.69
444.476	85.69
444.698	87.69
444.919	80.69
445.14	127.69
445.361	111.69
445.582	107.69
445.803	142.69
446.024	115.69
446.245	132.69
446.466	107.69
446.687	83.69
446.908	88.69
447.129	91.69
447.35	84.69
447.571	95.69
447.792	86.69
448.013	102.69
448.234	93.69
448.455	93.69
448.675	102.69
448.896	122.69
449.117	101.69
449.338	99.69
449.559	124.69
449.779	121.69
450	100.69
450.221	90.69
450.442	96.69
450.662	95.69
450.883	108.69
451.104	99.69
451.324	80.69
451.545	88.69
451.766	94.69
451.986	95.69
452.207	86.69
452.428	97.69
452.648	112.69
452.869	120.69
453.089	99.69
453.31	106.69
453.53	93.69
453.751	88.69
453.971	89.69
454.192	93.69
454.412	99.69
454.633	94.69
454.853	82.69
455.073	74.69
455.294	69.69
455.514	87.69
455.734	90.69
455.955	80.69
456.175	81.69
456.395	93.69
456.616	79.69
456.836	80.69
457.056	93.69
457.276	87.69
457.497	72.69
457.717	89.69
457.937	75.69
458.157	79.69
458.377	102.69
458.598	119.69
458.818	134.69
459.038	137.69
459.258	112.69
459.478	86.69
459.698	86.69
459.918	89.69
460.138	89.69
460.358	88.69
460.578	93.69
460.798	86.69
461.018	82.69
461.238	90.69
461.458	90.69
461.678	77.69
461.898	83.69
462.118	65.69
462.338	91.69
462.558	95.69
462.777	89.69
462.997	81.69
463.217	84.69
463.437	82.69
463.657	85.69
463.876	85.69
464.096	82.69
464.316	79.69
464.536	98.69
464.755	101.69
464.975	115.69
465.195	153.69
465.414	148.69
465.634	105.69
465.854	98.69
466.073	89.69
466.293	100.69
466.512	93.69
466.732	78.69
466.951	92.69
467.171	90.69
467.391	93.69
467.61	98.69
467.829	103.69
468.049	92.69
468.268	97.69
468.488	68.69
468.707	67.69
468.927	81.69
469.146	92.69
469.365	87.69
469.585	97.69
469.804	82.69
470.023	85.69
470.243	102.69
470.462	95.69
470.681	106.69
470.901	89.69
471.12	97.69
471.339	90.69
471.558	77.69
471.777	78.69
471.997	83.69
472.216	86.69
472.435	113.69
472.654	86.69
472.873	79.69
473.092	93.69
473.311	91.69
473.53	81.69
473.749	83.69
473.968	94.69
474.187	98.69
474.406	94.69
474.625	85.69
474.844	73.69
475.063	105.69
475.282	66.69
475.501	67.69
475.72	93.69
475.939	93.69
476.158	82.69
476.377	85.69
476.596	83.69
476.814	83.69
477.033	89.69
477.252	82.69
477.471	93.69
477.69	90.69
477.908	90.69
478.127	106.69
478.346	98.69
478.564	98.69
478.783	98.69
479.002	94.69
479.22	97.69
479.439	80.69
479.658	100.69
479.876	88.69
480.095	90.69
480.313	93.69
480.532	95.69
480.751	85.69
480.969	107.69
481.188	144.69
481.406	111.69
481.624	90.69
481.843	94.69
482.061	92.69
482.28	83.69
482.498	90.69
482.717	82.69
482.935	73.69
483.153	76.69
483.372	85.69
483.59	90.69
483.808	80.69
484.027	100.69
484.245	96.69
484.463	72.69
484.681	97.69
484.9	103.69
485.118	106.69
485.336	75.69
485.554	94.69
485.772	117.69
485.99	88.69
486.209	88.69
486.427	103.69
486.645	94.69
486.863	116.69
487.081	104.69
487.299	97.69
487.517	103.69
487.735	89.69
487.953	78.69
488.171	87.69
488.389	99.69
488.607	113.69
488.825	95.69
489.043	79.69
489.261	95.69
489.479	96.69
489.696	88.69
489.914	84.69
490.132	97.69
490.35	82.69
490.568	93.69
490.786	90.69
491.003	81.69
491.221	90.69
491.439	88.69
491.657	86.69
491.874	107.69
492.092	97.69
492.31	94.69
492.527	84.69
492.745	84.69
492.963	90.69
493.18	72.69
493.398	92.69
493.615	95.69
493.833	97.69
494.05	87.69
494.268	82.69
494.485	93.69
494.703	86.69
494.92	90.69
495.138	82.69
495.355	96.69
495.573	83.69
495.79	85.69
496.008	96.69
496.225	106.69
496.442	102.69
496.66	80.69
496.877	81.69
497.094	96.69
497.312	100.69
497.529	75.69
497.746	77.69
497.963	96.69
498.181	90.69
498.398	85.69
498.615	93.69
498.832	90.69
499.049	101.69
499.267	101.69
499.484	81.69
499.701	85.69
499.918	104.69
500.135	90.69
500.352	93.69
500.569	83.69
500.786	99.69
501.003	88.69
501.22	83.69
501.437	82.69
501.654	99.69
501.871	109.69
502.088	93.69
502.305	101.69
502.522	83.69
502.739	88.69
502.956	96.69
503.172	93.69
503.389	96.69
503.606	108.69
503.823	84.69
504.04	88.69
504.256	94.69
504.473	89.69
504.69	95.69
504.907	98.69
505.123	93.69
505.34	82.69
505.557	88.69
505.773	77.69
505.99	84.69
506.207	79.69
506.423	82.69
506.64	86.69
506.856	97.69
507.073	85.69
507.289	90.69
507.506	97.69
507.722	116.69
507.939	109.69
508.155	90.69
508.372	85.69
508.588	97.69
508.805	99.69
509.021	109.69
509.238	96.69
509.454	97.69
509.67	92.69
509.887	101.69
510.103	126.69
510.319	201.69
510.536	679.69
510.752	2074.69
510.968	568.69
511.184	134.69
511.401	107.69
511.617	99.69
511.833	83.69
512.049	70.69
512.265	92.69
512.481	99.69
512.698	101.69
512.914	78.69
513.13	93.69
513.346	85.69
513.562	79.69
513.778	74.69
513.994	85.69
514.21	94.69
514.426	111.69
514.642	139.69
514.858	118.69
515.074	146.69
515.29	377.69
515.506	1289.69
515.721	457.69
515.937	129.69
516.153	104.69
516.369	93.69
516.585	109.69
516.801	87.69
517.016	98.69
517.232	79.69
517.448	101.69
517.664	93.69
517.879	93.69
518.095	103.69
518.311	86.69
518.527	87.69
518.742	79.69
518.958	82.69
519.173	87.69
519.389	90.69
519.605	87.69
519.82	95.69
520.036	103.69
520.251	102.69
520.467	105.69
520.682	101.69
520.898	102.69
521.113	109.69
521.329	138.69
521.544	185.69
521.76	478.69
521.975	2030.69
522.19	1210.69
522.406	277.69
522.621	117.69
522.836	84.69
523.052	96.69
523.267	83.69
523.482	79.69
523.698	102.69
523.913	118.69
524.128	106.69
524.343	98.69
524.559	99.69
524.774	89.69
524.989	104.69
525.204	94.69
525.419	93.69
525.634	96.69
525.849	88.69
526.064	90.69
526.28	86.69
526.495	83.69
526.71	92.69
526.925	89.69
527.14	89.69
527.355	77.69
527.57	98.69
527.785	88.69
527.999	86.69
528.214	103.69
528.429	99.69
528.644	105.69
528.859	100.69
529.074	107.69
529.289	106.69
529.503	147.69
529.718	107.69
529.933	97.69
530.148	91.69
530.363	86.69
530.577	79.69
530.792	93.69
531.007	89.69
531.221	89.69
531.436	84.69
531.651	87.69
531.865	82.69
532.08	86.69
532.295	82.69
532.509	94.69
532.724	91.69
532.938	88.69
533.153	96.69
533.367	108.69
533.582	90.69
533.796	91.69
534.011	87.69
534.225	103.69
534.44	94.69
534.654	93.69
534.868	99.69
535.083	94.69
535.297	92.69
535.511	113.69
535.726	87.69
535.94	101.69
536.154	88.69
536.369	97.69
536.583	87.69
536.797	98.69
537.011	96.69
537.225	86.69
537.44	84.69
537.654	95.69
537.868	84.69
538.082	81.69
538.296	89.69
538.51	82.69
538.724	75.69
538.938	78.69
539.153	86.69
539.367	111.69
539.581	103.69
539.795	95.69
540.009	103.69
540.222	97.69
540.436	79.69
540.65	95.69
540.864	95.69
541.078	95.69
541.292	102.69
541.506	99.69
541.72	103.69
541.934	84.69
542.147	106.69
542.361	97.69
542.575	73.69
542.789	88.69
543.002	81.69
543.216	91.69
543.43	103.69
543.644	94.69
543.857	97.69
544.071	71.69
544.285	89.69
544.498	100.69
544.712	81.69
544.925	96.69
545.139	85.69
545.352	93.69
545.566	89.69
545.779	93.69
545.993	95.69
546.206	82.69
546.42	95.69
546.633	94.69
546.847	87.69
547.06	102.69
547.274	90.69
547.487	88.69
547.7	79.69
547.914	94.69
548.127	79.69
548.34	89.69
548.554	99.69
548.767	82.69
548.98	91.69
549.193	95.69
549.407	82.69
549.62	102.69
549.833	85.69
550.046	89.69
550.259	94.69
550.473	81.69
550.686	81.69
550.899	82.69
551.112	91.69
551.325	84.69
551.538	91.69
551.751	67.69
551.964	87.69
552.177	96.69
552.39	88.69
552.603	86.69
552.816	79.69
553.029	94.69
553.242	94.69
553.455	99.69
553.667	116.69
553.88	109.69
554.093	89.69
554.306	84.69
554.519	97.69
554.732	87.69
554.944	83.69
555.157	93.69
555.37	86.69
555.583	80.69
555.795	81.69
556.008	89.69
556.221	90.69
556.433	102.69
556.646	86.69
556.859	83.69
557.071	99.69
557.284	87.69
557.496	97.69
557.709	96.69
557.921	87.69
558.134	90.69
558.346	90.69
558.559	82.69
558.771	86.69
558.984	85.69
559.196	91.69
559.409	87.69
559.621	89.69
559.833	90.69
560.046	84.69
560.258	95.69
560.47	86.69
560.683	83.69
560.895	87.69
561.107	96.69
561.32	90.69
561.532	79.69
561.744	81.69
561.956	104.69
562.168	103.69
562.381	87.69
562.593	89.69
562.805	85.69
563.017	94.69
563.229	93.69
563.441	89.69
563.653	88.69
563.865	100.69
564.077	87.69
564.289	87.69
564.501	78.69
564.713	85.69
564.925	78.69
565.137	107.69
565.349	98.69
565.561	95.69
565.773	74.69
565.985	77.69
566.197	70.69
566.408	83.69
566.62	93.69
566.832	97.69
567.044	80.69
567.255	91.69
567.467	88.69
567.679	94.69
567.891	98.69
568.102	95.69
568.314	95.69
568.526	98.69
568.737	90.69
568.949	104.69
569.161	95.69
569.372	85.69
569.584	87.69
569.795	86.69
570.007	106.69
570.218	223.69
570.43	133.69
570.641	92.69
570.853	91.69
571.064	84.69
571.276	88.69
571.487	98.69
571.698	89.69
571.91	104.69
572.121	93.69
572.333	89.69
572.544	99.69
572.755	84.69
572.966	84.69
573.178	88.69
573.389	86.69
573.6	96.69
573.811	97.69
574.023	87.69
574.234	95.69
574.445	92.69
574.656	95.69
574.867	74.69
575.078	90.69
575.289	99.69
575.501	84.69
575.712	81.69
575.923	85.69
576.134	84.69
576.345	97.69
576.556	92.69
576.767	92.69
576.978	97.69
577.188	85.69
577.399	89.69
577.61	106.69
577.821	103.69
578.032	118.69
578.243	273.69
578.454	664.69
578.665	185.69
578.875	104.69
579.086	81.69
579.297	93.69
579.508	89.69
579.718	77.69
579.929	89.69
580.14	83.69
580.35	102.69
580.561	79.69
580.772	82.69
580.982	91.69
581.193	74.69
581.403	83.69
581.614	89.69
581.825	84.69
582.035	93.69
582.246	93.69
582.456	72.69
582.667	85.69
582.877	80.69
583.087	88.69
583.298	90.69
583.508	87.69
583.719	78.69
583.929	100.69
584.139	90.69
584.35	95.69
584.56	93.69
584.77	78.69
584.981	82.69
585.191	95.69
585.401	89.69
585.611	87.69
585.821	93.69
586.032	96.69
586.242	69.69
586.452	72.69
586.662	97.69
586.872	99.69
587.082	82.69
587.292	84.69
587.502	75.69
587.713	83.69
587.923	89.69
588.133	86.69
588.343	86.69
588.553	68.69
588.762	96.69
588.972	96.69
589.182	87.69
589.392	93.69
589.602	92.69
589.812	70.69
590.022	77.69
590.232	81.69
590.441	79.69
590.651	88.69
590.861	93.69
591.071	86.69
591.281	84.69
591.49	92.69
591.7	96.69
591.91	74.69
592.119	76.69
592.329	89.69
592.539	90.69
592.748	91.69
592.958	80.69
593.167	99.69
593.377	87.69
593.587	105.69
593.796	88.69
594.006	83.69
594.215	83.69
594.424	83.69
594.634	90.69
594.843	89.69
595.053	95.69
595.262	85.69
595.472	79.69
595.681	88.69
595.89	89.69
596.1	89.69
596.309	84.69
596.518	83.69
596.727	81.69
596.937	88.69
597.146	91.69
597.355	78.69
597.564	88.69
597.774	89.69
597.983	74.69
598.192	90.69
598.401	98.69
598.61	89.69
598.819	88.69
599.028	89.69
599.237	81.69
599.446	89.69
599.655	87.69
599.864	85.69
600.073	72.69
600.282	84.69
600.491	97.69
600.7	86.69
600.909	95.69
601.118	97.69
601.327	100.69
601.536	100.69
601.745	90.69
601.953	89.69
602.162	94.69
602.371	86.69
602.58	98.69
602.789	79.69
602.997	81.69
603.206	104.69
603.415	88.69
603.623	81.69
603.832	98.69
604.041	80.69
604.249	82.69
604.458	91.69
604.666	98.69
604.875	77.69
605.084	85.69
605.292	86.69
605.501	94.69
605.709	93.69
605.918	89.69
606.126	89.69
606.334	84.69
606.543	76.69
606.751	84.69
606.96	100.69
607.168	85.69
607.376	92.69
607.585	102.69
607.793	87.69
608.001	81.69
608.21	86.69
608.418	97.69
608.626	79.69
608.834	93.69
609.043	91.69
609.251	91.69
609.459	81.69
609.667	98.69
609.875	84.69
610.083	90.69
610.291	93.69
610.499	81.69
610.707	84.69
610.916	95.69
611.124	89.69
611.332	83.69
611.54	87.69
611.748	96.69
611.955	77.69
612.163	88.69
612.371	88.69
612.579	89.69
612.787	74.69
612.995	89.69
613.203	86.69
613.411	83.69
613.618	90.69
613.826	85.69
614.034	97.69
614.242	82.69
614.449	91.69
614.657	96.69
614.865	89.69
615.072	106.69
615.28	72.69
615.488	103.69
615.695	87.69
615.903	99.69
616.111	98.69
616.318	109.69
616.526	101.69
616.733	114.69
616.941	89.69
617.148	81.69
617.356	86.69
617.563	94.69
617.771	78.69
617.978	91.69
618.185	102.69
618.393	99.69
618.6	86.69
618.807	88.69
619.015	94.69
619.222	77.69
619.429	87.69
619.637	74.69
619.844	91.69
620.051	78.69
620.258	97.69
620.466	82.69
620.673	83.69
620.88	88.69
621.087	93.69
621.294	84.69
621.501	88.69
621.708	82.69
621.915	73.69
622.122	91.69
622.329	82.69
622.536	99.69
622.743	87.69
622.95	96.69
623.157	78.69
623.364	81.69
623.571	79.69
623.778	83.69
623.985	73.69
624.192	81.69
624.399	85.69
624.606	86.69
624.812	78.69
625.019	74.69
625.226	84.69
625.433	86.69
625.639	79.69
625.846	83.69
626.053	89.69
626.259	100.69
626.466	83.69
626.673	85.69
626.879	87.69
627.086	89.69
627.293	83.69
627.499	73.69
627.706	88.69
627.912	86.69
628.119	96.69
628.325	100.69
628.532	78.69
628.738	75.69
628.945	81.69
629.151	83.69
629.357	92.69
629.564	65.69
629.77	85.69
629.976	82.69
630.183	81.69
630.389	91.69
630.595	66.69
630.802	85.69
631.008	86.69
631.214	88.69
631.42	95.69
631.627	93.69
631.833	71.69
632.039	87.69
632.245	75.69
632.451	89.69
632.657	90.69
632.863	88.69
633.069	93.69
633.275	90.69
633.481	89.69
633.688	90.69
633.893	87.69
634.099	75.69
634.305	85.69
634.511	73.69
634.717	87.69
634.923	91.69
635.129	80.69
635.335	89.69
635.541	87.69
635.747	84.69
635.952	74.69
636.158	86.69
636.364	98.69
636.57	89.69
636.775	87.69
636.981	98.69
637.187	84.69
637.392	77.69
637.598	72.69
637.804	79.69
638.009	70.69
638.215	83.69
638.421	93.69
638.626	95.69
638.832	83.69
639.037	76.69
639.243	66.69
639.448	90.69
639.654	88.69
639.859	86.69
640.065	86.69
640.27	102.69
640.475	72.69
640.681	81.69
640.886	93.69
641.091	83.69
641.297	95.69
641.502	95.69
641.707	79.69
641.913	87.69
642.118	77.69
642.323	76.69
642.528	81.69
642.733	78.69
642.939	91.69
643.144	75.69
643.349	97.69
643.554	95.69
643.759	73.69
643.964	92.69
644.169	77.69
644.374	84.69
644.579	78.69
644.784	92.69
644.989	86.69
645.194	97.69
645.399	92.69
645.604	89.69
645.809	80.69
646.014	98.69
646.219	87.69
646.423	98.69
646.628	69.69
646.833	96.69
647.038	75.69
647.243	93.69
647.447	87.69
647.652	84.69
647.857	87.69
648.062	81.69
648.266	81.69
648.471	82.69
648.676	106.69
648.88	106.69
649.085	97.69
649.289	91.69
649.494	107.69
649.698	113.69
649.903	93.69
650.107	99.69
650.312	101.69
650.516	84.69
650.721	99.69
650.925	87.69
651.13	95.69
651.334	102.69
651.539	69.69
651.743	79.69
651.947	89.69
652.152	85.69
652.356	84.69
652.56	101.69
652.764	89.69
652.969	93.69
653.173	93.69
653.377	94.69
653.581	93.69
653.785	78.69
653.99	99.69
654.194	64.69
654.398	103.69
654.602	79.69
654.806	103.69
655.01	99.69
655.214	88.69
655.418	65.69
655.622	79.69
655.826	92.69
656.03	73.69
656.234	98.69
656.438	93.69
656.642	97.69
656.846	90.69
657.049	85.69
657.253	78.69
657.457	75.69
657.661	75.69
657.865	77.69
658.068	83.69
658.272	80.69
658.476	83.69
658.68	86.69
658.883	84.69
659.087	83.69
659.291	93.69
659.494	89.69
659.698	77.69
659.901	78.69
660.105	71.69
660.309	79.69
660.512	87.69
660.716	84.69
660.919	87.69
661.123	97.69
661.326	89.69
661.53	81.69
661.733	84.69
661.936	99.69
662.14	76.69
662.343	80.69
662.546	95.69
662.75	71.69
662.953	83.69
663.156	85.69
663.36	92.69
663.563	85.69
663.766	91.69
663.969	88.69
664.173	81.69
664.376	74.69
664.579	82.69
664.782	81.69
664.985	84.69
665.188	97.69
665.391	93.69
665.594	90.69
665.797	79.69
666	85.69
666.203	88.69
666.406	78.69
666.609	77.69
666.812	75.69
667.015	72.69
667.218	71.69
667.421	84.69
667.624	74.69
667.827	81.69
668.03	87.69
668.232	94.69
668.435	79.69
668.638	90.69
668.841	79.69
669.043	74.69
669.246	75.69
669.449	89.69
669.651	87.69
669.854	94.69
670.057	71.69
670.259	81.69
670.462	72.69
670.665	89.69
670.867	88.69
671.07	78.69
671.272	79.69
671.475	89.69
671.677	83.69
671.88	83.69
672.082	80.69
672.284	87.69
672.487	79.69
672.689	89.69
672.892	86.69
