Data from Lead_5_1_HRD10591_00020.txt Node
Date: Fri Feb 20 11:08:31 EST 2026
User: Yrep
Spectrometer: HR+D1059
Trigger mode: 1
Integration Time (sec): 1.000000E-1
Scans to average: 1
Electric dark correction enabled: true
Nonlinearity correction enabled: false
Boxcar width: 0
XAxis mode: Wavelengths
Number of Pixels in Spectrum: 2048
>>>>>Begin Spectral Data<<<<<
223.165	-14.62
223.4	-14.62
223.635	-14.62
223.869	-22.62
224.104	-21.62
224.338	-11.62
224.573	-11.62
224.808	-9.62
225.042	-6.62
225.277	-12.62
225.511	-5.62
225.746	-2.62
225.98	4.38
226.215	9.38
226.449	13.38
226.683	31.38
226.918	29.38
227.152	31.38
227.387	36.38
227.621	48.38
227.856	49.38
228.09	57.38
228.324	52.38
228.559	66.38
228.793	73.38
229.027	63.38
229.262	61.38
229.496	44.38
229.73	57.38
229.964	71.38
230.199	78.38
230.433	74.38
230.667	82.38
230.901	73.38
231.136	90.38
231.37	79.38
231.604	71.38
231.838	70.38
232.072	81.38
232.306	81.38
232.541	72.38
232.775	75.38
233.009	77.38
233.243	81.38
233.477	87.38
233.711	74.38
233.945	73.38
234.179	76.38
234.413	76.38
234.647	90.38
234.881	71.38
235.115	74.38
235.349	89.38
235.583	67.38
235.817	71.38
236.051	83.38
236.285	71.38
236.519	79.38
236.753	65.38
236.987	80.38
237.221	74.38
237.455	71.38
237.689	85.38
237.922	79.38
238.156	78.38
238.39	68.38
238.624	73.38
238.858	74.38
239.091	78.38
239.325	69.38
239.559	59.38
239.793	75.38
240.027	79.38
240.26	73.38
240.494	76.38
240.728	72.38
240.961	73.38
241.195	82.38
241.429	84.38
241.662	79.38
241.896	71.38
242.13	69.38
242.363	75.38
242.597	60.38
242.83	77.38
243.064	85.38
243.298	94.38
243.531	57.38
243.765	80.38
243.998	74.38
244.232	81.38
244.465	81.38
244.699	81.38
244.932	79.38
245.166	79.38
245.399	90.38
245.633	77.38
245.866	67.38
246.099	74.38
246.333	95.38
246.566	73.38
246.8	74.38
247.033	81.38
247.266	75.38
247.5	76.38
247.733	73.38
247.966	80.38
248.2	78.38
248.433	71.38
248.666	77.38
248.899	70.38
249.133	66.38
249.366	74.38
249.599	82.38
249.832	73.38
250.066	70.38
250.299	79.38
250.532	75.38
250.765	83.38
250.998	79.38
251.231	91.38
251.465	72.38
251.698	84.38
251.931	71.38
252.164	83.38
252.397	89.38
252.63	89.38
252.863	81.38
253.096	78.38
253.329	88.38
253.562	75.38
253.795	84.38
254.028	91.38
254.261	78.38
254.494	64.38
254.727	87.38
254.96	85.38
255.193	86.38
255.426	77.38
255.659	81.38
255.892	82.38
256.124	73.38
256.357	89.38
256.59	72.38
256.823	76.38
257.056	74.38
257.289	75.38
257.521	67.38
257.754	74.38
257.987	80.38
258.22	87.38
258.452	69.38
258.685	84.38
258.918	84.38
259.151	67.38
259.383	86.38
259.616	81.38
259.849	86.38
260.081	74.38
260.314	70.38
260.547	98.38
260.779	84.38
261.012	89.38
261.244	91.38
261.477	79.38
261.71	71.38
261.942	80.38
262.175	82.38
262.407	72.38
262.64	80.38
262.872	73.38
263.105	82.38
263.337	87.38
263.57	91.38
263.802	78.38
264.035	87.38
264.267	85.38
264.499	90.38
264.732	92.38
264.964	74.38
265.197	73.38
265.429	83.38
265.661	66.38
265.894	93.38
266.126	77.38
266.358	91.38
266.591	74.38
266.823	77.38
267.055	67.38
267.287	78.38
267.52	89.38
267.752	92.38
267.984	86.38
268.216	89.38
268.448	82.38
268.681	75.38
268.913	81.38
269.145	73.38
269.377	75.38
269.609	69.38
269.841	82.38
270.073	87.38
270.306	83.38
270.538	80.38
270.77	86.38
271.002	85.38
271.234	72.38
271.466	85.38
271.698	81.38
271.93	82.38
272.162	94.38
272.394	81.38
272.626	79.38
272.858	72.38
273.09	77.38
273.322	88.38
273.553	80.38
273.785	81.38
274.017	73.38
274.249	65.38
274.481	78.38
274.713	72.38
274.945	81.38
275.176	77.38
275.408	78.38
275.64	70.38
275.872	78.38
276.104	81.38
276.335	70.38
276.567	81.38
276.799	75.38
277.031	74.38
277.262	103.38
277.494	86.38
277.726	84.38
277.957	75.38
278.189	89.38
278.421	87.38
278.652	81.38
278.884	96.38
279.115	73.38
279.347	66.38
279.579	74.38
279.81	85.38
280.042	89.38
280.273	94.38
280.505	79.38
280.736	75.38
280.968	76.38
281.199	88.38
281.431	87.38
281.662	89.38
281.894	90.38
282.125	85.38
282.356	79.38
282.588	94.38
282.819	86.38
283.051	84.38
283.282	73.38
283.513	94.38
283.745	85.38
283.976	80.38
284.207	87.38
284.439	91.38
284.67	82.38
284.901	74.38
285.132	82.38
285.364	86.38
285.595	73.38
285.826	85.38
286.057	74.38
286.288	83.38
286.52	73.38
286.751	88.38
286.982	76.38
287.213	85.38
287.444	85.38
287.675	84.38
287.906	89.38
288.138	83.38
288.369	94.38
288.6	74.38
288.831	95.38
289.062	63.38
289.293	86.38
289.524	73.38
289.755	81.38
289.986	74.38
290.217	79.38
290.448	75.38
290.679	101.38
290.91	79.38
291.141	77.38
291.371	83.38
291.602	74.38
291.833	77.38
292.064	79.38
292.295	84.38
292.526	85.38
292.757	95.38
292.987	89.38
293.218	79.38
293.449	91.38
293.68	85.38
293.91	57.38
294.141	82.38
294.372	88.38
294.603	72.38
294.833	90.38
295.064	80.38
295.295	77.38
295.525	81.38
295.756	85.38
295.987	69.38
296.217	91.38
296.448	101.38
296.679	94.38
296.909	79.38
297.14	82.38
297.37	86.38
297.601	73.38
297.831	81.38
298.062	90.38
298.292	84.38
298.523	83.38
298.753	88.38
298.984	78.38
299.214	78.38
299.445	83.38
299.675	85.38
299.905	89.38
300.136	91.38
300.366	84.38
300.597	95.38
300.827	85.38
301.057	93.38
301.288	74.38
301.518	78.38
301.748	88.38
301.979	103.38
302.209	81.38
302.439	85.38
302.669	79.38
302.9	82.38
303.13	83.38
303.36	80.38
303.59	77.38
303.82	97.38
304.051	87.38
304.281	84.38
304.511	89.38
304.741	79.38
304.971	79.38
305.201	94.38
305.431	83.38
305.661	82.38
305.891	87.38
306.121	85.38
306.352	85.38
306.582	79.38
306.812	90.38
307.042	63.38
307.272	81.38
307.502	89.38
307.731	89.38
307.961	86.38
308.191	95.38
308.421	90.38
308.651	88.38
308.881	91.38
309.111	81.38
309.341	83.38
309.571	88.38
309.8	91.38
310.03	83.38
310.26	75.38
310.49	96.38
310.72	89.38
310.949	84.38
311.179	71.38
311.409	74.38
311.639	75.38
311.868	81.38
312.098	96.38
312.328	90.38
312.557	89.38
312.787	88.38
313.017	97.38
313.246	89.38
313.476	75.38
313.706	77.38
313.935	67.38
314.165	86.38
314.394	87.38
314.624	76.38
314.853	82.38
315.083	89.38
315.312	104.38
315.542	80.38
315.771	79.38
316.001	90.38
316.23	70.38
316.46	63.38
316.689	89.38
316.919	86.38
317.148	89.38
317.377	75.38
317.607	79.38
317.836	93.38
318.065	95.38
318.295	89.38
318.524	85.38
318.753	70.38
318.983	77.38
319.212	89.38
319.441	81.38
319.67	79.38
319.9	88.38
320.129	89.38
320.358	85.38
320.587	78.38
320.816	86.38
321.046	83.38
321.275	79.38
321.504	92.38
321.733	96.38
321.962	88.38
322.191	75.38
322.42	89.38
322.649	74.38
322.878	78.38
323.108	85.38
323.337	76.38
323.566	91.38
323.795	85.38
324.024	92.38
324.253	73.38
324.482	84.38
324.71	90.38
324.939	93.38
325.168	97.38
325.397	85.38
325.626	88.38
325.855	79.38
326.084	78.38
326.313	81.38
326.542	87.38
326.77	76.38
326.999	80.38
327.228	89.38
327.457	89.38
327.686	75.38
327.914	93.38
328.143	94.38
328.372	90.38
328.6	82.38
328.829	90.38
329.058	90.38
329.287	70.38
329.515	85.38
329.744	89.38
329.972	74.38
330.201	86.38
330.43	92.38
330.658	90.38
330.887	90.38
331.115	98.38
331.344	78.38
331.572	79.38
331.801	90.38
332.03	85.38
332.258	81.38
332.486	95.38
332.715	69.38
332.943	76.38
333.172	100.38
333.4	90.38
333.629	85.38
333.857	82.38
334.085	91.38
334.314	81.38
334.542	78.38
334.771	87.38
334.999	86.38
335.227	88.38
335.455	82.38
335.684	87.38
335.912	81.38
336.14	77.38
336.369	79.38
336.597	79.38
336.825	80.38
337.053	85.38
337.281	82.38
337.51	73.38
337.738	85.38
337.966	83.38
338.194	95.38
338.422	67.38
338.65	87.38
338.878	81.38
339.106	95.38
339.334	85.38
339.562	67.38
339.79	77.38
340.018	80.38
340.246	89.38
340.474	73.38
340.702	81.38
340.93	81.38
341.158	68.38
341.386	87.38
341.614	97.38
341.842	88.38
342.07	86.38
342.298	83.38
342.526	83.38
342.754	91.38
342.981	84.38
343.209	82.38
343.437	97.38
343.665	67.38
343.893	86.38
344.12	85.38
344.348	76.38
344.576	101.38
344.804	88.38
345.031	83.38
345.259	87.38
345.487	91.38
345.714	76.38
345.942	87.38
346.17	97.38
346.397	88.38
346.625	81.38
346.853	83.38
347.08	95.38
347.308	85.38
347.535	68.38
347.763	83.38
347.99	83.38
348.218	95.38
348.445	76.38
348.673	85.38
348.9	101.38
349.128	81.38
349.355	91.38
349.583	91.38
349.81	91.38
350.037	86.38
350.265	110.38
350.492	94.38
350.72	80.38
350.947	85.38
351.174	81.38
351.402	81.38
351.629	89.38
351.856	91.38
352.083	75.38
352.311	94.38
352.538	86.38
352.765	103.38
352.992	93.38
353.22	75.38
353.447	91.38
353.674	74.38
353.901	72.38
354.128	84.38
354.355	88.38
354.583	99.38
354.81	82.38
355.037	80.38
355.264	89.38
355.491	93.38
355.718	79.38
355.945	75.38
356.172	89.38
356.399	76.38
356.626	79.38
356.853	89.38
357.08	73.38
357.307	79.38
357.534	72.38
357.761	86.38
357.988	86.38
358.215	84.38
358.441	86.38
358.668	95.38
358.895	86.38
359.122	85.38
359.349	98.38
359.576	105.38
359.802	83.38
360.029	73.38
360.256	78.38
360.483	91.38
360.709	96.38
360.936	88.38
361.163	85.38
361.39	76.38
361.616	86.38
361.843	89.38
362.07	90.38
362.296	90.38
362.523	84.38
362.749	83.38
362.976	73.38
363.203	79.38
363.429	89.38
363.656	94.38
363.882	81.38
364.109	94.38
364.335	90.38
364.562	85.38
364.788	90.38
365.015	75.38
365.241	88.38
365.468	85.38
365.694	84.38
365.92	84.38
366.147	93.38
366.373	74.38
366.599	71.38
366.826	68.38
367.052	89.38
367.278	90.38
367.505	75.38
367.731	81.38
367.957	81.38
368.184	72.38
368.41	79.38
368.636	85.38
368.862	67.38
369.089	74.38
369.315	76.38
369.541	69.38
369.767	94.38
369.993	73.38
370.219	75.38
370.445	82.38
370.672	67.38
370.898	60.38
371.124	101.38
371.35	92.38
371.576	87.38
371.802	87.38
372.028	78.38
372.254	77.38
372.48	83.38
372.706	89.38
372.932	93.38
373.158	83.38
373.384	78.38
373.61	81.38
373.835	83.38
374.061	88.38
374.287	75.38
374.513	77.38
374.739	72.38
374.965	89.38
375.191	71.38
375.416	81.38
375.642	77.38
375.868	90.38
376.094	77.38
376.319	65.38
376.545	88.38
376.771	89.38
376.997	85.38
377.222	72.38
377.448	81.38
377.674	81.38
377.899	94.38
378.125	98.38
378.35	93.38
378.576	85.38
378.802	70.38
379.027	80.38
379.253	93.38
379.478	76.38
379.704	102.38
379.929	82.38
380.155	78.38
380.38	72.38
380.606	81.38
380.831	89.38
381.057	84.38
381.282	81.38
381.507	63.38
381.733	93.38
381.958	86.38
382.184	79.38
382.409	75.38
382.634	81.38
382.86	87.38
383.085	78.38
383.31	85.38
383.535	84.38
383.761	81.38
383.986	65.38
384.211	75.38
384.436	88.38
384.662	88.38
384.887	88.38
385.112	80.38
385.337	81.38
385.562	75.38
385.787	84.38
386.013	78.38
386.238	87.38
386.463	74.38
386.688	91.38
386.913	64.38
387.138	71.38
387.363	77.38
387.588	76.38
387.813	91.38
388.038	82.38
388.263	81.38
388.488	76.38
388.713	82.38
388.938	81.38
389.163	81.38
389.387	76.38
389.612	86.38
389.837	76.38
390.062	77.38
390.287	75.38
390.512	79.38
390.736	93.38
390.961	73.38
391.186	81.38
391.411	77.38
391.636	97.38
391.86	80.38
392.085	74.38
392.31	77.38
392.534	73.38
392.759	84.38
392.984	85.38
393.208	92.38
393.433	79.38
393.658	89.38
393.882	73.38
394.107	90.38
394.331	74.38
394.556	76.38
394.78	91.38
395.005	89.38
395.229	79.38
395.454	81.38
395.678	93.38
395.903	89.38
396.127	88.38
396.352	83.38
396.576	77.38
396.801	67.38
397.025	85.38
397.249	80.38
397.474	79.38
397.698	88.38
397.922	78.38
398.147	86.38
398.371	85.38
398.595	86.38
398.82	67.38
399.044	85.38
399.268	77.38
399.492	83.38
399.717	84.38
399.941	84.38
400.165	79.38
400.389	87.38
400.613	81.38
400.837	72.38
401.062	89.38
401.286	76.38
401.51	71.38
401.734	90.38
401.958	88.38
402.182	87.38
402.406	71.38
402.63	78.38
402.854	75.38
403.078	91.38
403.302	78.38
403.526	72.38
403.75	72.38
403.974	87.38
404.198	82.38
404.422	65.38
404.645	75.38
404.869	100.38
405.093	86.38
405.317	88.38
405.541	67.38
405.765	72.38
405.988	75.38
406.212	96.38
406.436	86.38
406.66	82.38
406.883	71.38
407.107	79.38
407.331	90.38
407.555	89.38
407.778	87.38
408.002	95.38
408.226	92.38
408.449	82.38
408.673	77.38
408.896	74.38
409.12	85.38
409.344	80.38
409.567	71.38
409.791	60.38
410.014	86.38
410.238	76.38
410.461	79.38
410.685	78.38
410.908	75.38
411.132	91.38
411.355	91.38
411.578	81.38
411.802	89.38
412.025	88.38
412.249	88.38
412.472	84.38
412.695	82.38
412.919	94.38
413.142	94.38
413.365	88.38
413.589	75.38
413.812	77.38
414.035	70.38
414.258	80.38
414.482	92.38
414.705	69.38
414.928	73.38
415.151	75.38
415.374	81.38
415.597	75.38
415.821	84.38
416.044	80.38
416.267	79.38
416.49	95.38
416.713	83.38
416.936	71.38
417.159	88.38
417.382	82.38
417.605	81.38
417.828	80.38
418.051	76.38
418.274	69.38
418.497	70.38
418.72	83.38
418.943	85.38
419.166	75.38
419.389	83.38
419.611	77.38
419.834	82.38
420.057	79.38
420.28	80.38
420.503	73.38
420.726	81.38
420.948	90.38
421.171	86.38
421.394	75.38
421.617	79.38
421.839	81.38
422.062	74.38
422.285	75.38
422.507	73.38
422.73	67.38
422.953	78.38
423.175	82.38
423.398	76.38
423.621	79.38
423.843	79.38
424.066	70.38
424.288	75.38
424.511	76.38
424.733	81.38
424.956	91.38
425.178	71.38
425.401	74.38
425.623	85.38
425.846	93.38
426.068	69.38
426.291	97.38
426.513	79.38
426.735	97.38
426.958	96.38
427.18	81.38
427.402	89.38
427.625	79.38
427.847	74.38
428.069	82.38
428.292	81.38
428.514	88.38
428.736	86.38
428.958	68.38
429.181	81.38
429.403	83.38
429.625	74.38
429.847	96.38
430.069	81.38
430.292	85.38
430.514	75.38
430.736	68.38
430.958	83.38
431.18	67.38
431.402	71.38
431.624	87.38
431.846	82.38
432.068	77.38
432.29	71.38
432.512	90.38
432.734	69.38
432.956	82.38
433.178	80.38
433.4	91.38
433.622	81.38
433.844	85.38
434.066	65.38
434.287	77.38
434.509	90.38
434.731	88.38
434.953	74.38
435.175	71.38
435.397	79.38
435.618	79.38
435.84	83.38
436.062	66.38
436.284	93.38
436.505	76.38
436.727	76.38
436.949	81.38
437.17	69.38
437.392	76.38
437.614	77.38
437.835	82.38
438.057	73.38
438.278	85.38
438.5	73.38
438.721	79.38
438.943	78.38
439.165	83.38
439.386	91.38
439.608	82.38
439.829	75.38
440.05	75.38
440.272	83.38
440.493	87.38
440.715	94.38
440.936	78.38
441.158	77.38
441.379	79.38
441.6	82.38
441.822	84.38
442.043	93.38
442.264	83.38
442.486	89.38
442.707	88.38
442.928	89.38
443.149	75.38
443.371	80.38
443.592	79.38
443.813	69.38
444.034	66.38
444.255	78.38
444.476	83.38
444.698	81.38
444.919	81.38
445.14	140.38
445.361	119.38
445.582	75.38
445.803	85.38
446.024	81.38
446.245	97.38
446.466	76.38
446.687	79.38
446.908	91.38
447.129	85.38
447.35	85.38
447.571	84.38
447.792	86.38
448.013	86.38
448.234	71.38
448.455	84.38
448.675	90.38
448.896	73.38
449.117	93.38
449.338	67.38
449.559	91.38
449.779	85.38
450	86.38
450.221	83.38
450.442	72.38
450.662	85.38
450.883	89.38
451.104	81.38
451.324	82.38
451.545	80.38
451.766	78.38
451.986	74.38
452.207	77.38
452.428	76.38
452.648	73.38
452.869	85.38
453.089	81.38
453.31	67.38
453.53	86.38
453.751	74.38
453.971	75.38
454.192	72.38
454.412	79.38
454.633	77.38
454.853	75.38
455.073	85.38
455.294	77.38
455.514	75.38
455.734	63.38
455.955	60.38
456.175	80.38
456.395	74.38
456.616	75.38
456.836	79.38
457.056	88.38
457.276	77.38
457.497	84.38
457.717	79.38
457.937	85.38
458.157	77.38
458.377	83.38
458.598	74.38
458.818	89.38
459.038	84.38
459.258	83.38
459.478	76.38
459.698	67.38
459.918	72.38
460.138	83.38
460.358	83.38
460.578	80.38
460.798	93.38
461.018	86.38
461.238	87.38
461.458	95.38
461.678	85.38
461.898	83.38
462.118	70.38
462.338	93.38
462.558	64.38
462.777	68.38
462.997	84.38
463.217	76.38
463.437	92.38
463.657	71.38
463.876	94.38
464.096	87.38
464.316	91.38
464.536	89.38
464.755	73.38
464.975	73.38
465.195	74.38
465.414	93.38
465.634	84.38
465.854	84.38
466.073	63.38
466.293	72.38
466.512	84.38
466.732	81.38
466.951	79.38
467.171	81.38
467.391	75.38
467.61	74.38
467.829	65.38
468.049	92.38
468.268	83.38
468.488	79.38
468.707	79.38
468.927	93.38
469.146	85.38
469.365	94.38
469.585	78.38
469.804	92.38
470.023	73.38
470.243	83.38
470.462	84.38
470.681	77.38
470.901	75.38
471.12	85.38
471.339	95.38
471.558	68.38
471.777	75.38
471.997	80.38
472.216	81.38
472.435	76.38
472.654	89.38
472.873	77.38
473.092	75.38
473.311	87.38
473.53	84.38
473.749	97.38
473.968	85.38
474.187	82.38
474.406	81.38
474.625	72.38
474.844	69.38
475.063	91.38
475.282	82.38
475.501	84.38
475.72	85.38
475.939	88.38
476.158	83.38
476.377	82.38
476.596	77.38
476.814	67.38
477.033	90.38
477.252	67.38
477.471	85.38
477.69	70.38
477.908	76.38
478.127	93.38
478.346	85.38
478.564	79.38
478.783	79.38
479.002	74.38
479.22	92.38
479.439	77.38
479.658	79.38
479.876	97.38
480.095	80.38
480.313	84.38
480.532	74.38
480.751	82.38
480.969	91.38
481.188	86.38
481.406	91.38
481.624	78.38
481.843	74.38
482.061	81.38
482.28	86.38
482.498	73.38
482.717	83.38
482.935	83.38
483.153	95.38
483.372	81.38
483.59	82.38
483.808	82.38
484.027	80.38
484.245	87.38
484.463	77.38
484.681	86.38
484.9	95.38
485.118	74.38
485.336	83.38
485.554	95.38
485.772	83.38
485.99	79.38
486.209	68.38
486.427	81.38
486.645	88.38
486.863	82.38
487.081	72.38
487.299	75.38
487.517	76.38
487.735	74.38
487.953	84.38
488.171	80.38
488.389	74.38
488.607	73.38
488.825	64.38
489.043	64.38
489.261	91.38
489.479	89.38
489.696	76.38
489.914	67.38
490.132	82.38
490.35	90.38
490.568	82.38
490.786	81.38
491.003	81.38
491.221	103.38
491.439	88.38
491.657	91.38
491.874	79.38
492.092	92.38
492.31	74.38
492.527	78.38
492.745	104.38
492.963	86.38
493.18	70.38
493.398	93.38
493.615	82.38
493.833	80.38
494.05	86.38
494.268	77.38
494.485	85.38
494.703	88.38
494.92	77.38
495.138	83.38
495.355	78.38
495.573	81.38
495.79	70.38
496.008	91.38
496.225	73.38
496.442	90.38
496.66	83.38
496.877	86.38
497.094	88.38
497.312	97.38
497.529	89.38
497.746	81.38
497.963	81.38
498.181	71.38
498.398	86.38
498.615	80.38
498.832	81.38
499.049	86.38
499.267	86.38
499.484	80.38
499.701	81.38
499.918	88.38
500.135	76.38
500.352	73.38
500.569	79.38
500.786	87.38
501.003	93.38
501.22	69.38
501.437	89.38
501.654	73.38
501.871	73.38
502.088	81.38
502.305	80.38
502.522	76.38
502.739	81.38
502.956	74.38
503.172	74.38
503.389	76.38
503.606	87.38
503.823	69.38
504.04	71.38
504.256	75.38
504.473	81.38
504.69	71.38
504.907	89.38
505.123	65.38
505.34	83.38
505.557	88.38
505.773	67.38
505.99	88.38
506.207	89.38
506.423	78.38
506.64	83.38
506.856	79.38
507.073	70.38
507.289	81.38
507.506	90.38
507.722	75.38
507.939	86.38
508.155	79.38
508.372	69.38
508.588	75.38
508.805	88.38
509.021	78.38
509.238	71.38
509.454	84.38
509.67	81.38
509.887	83.38
510.103	62.38
510.319	87.38
510.536	90.38
510.752	86.38
510.968	79.38
511.184	75.38
511.401	93.38
511.617	77.38
511.833	79.38
512.049	88.38
512.265	77.38
512.481	74.38
512.698	92.38
512.914	87.38
513.13	85.38
513.346	73.38
513.562	82.38
513.778	85.38
513.994	81.38
514.21	73.38
514.426	93.38
514.642	74.38
514.858	84.38
515.074	76.38
515.29	91.38
515.506	76.38
515.721	81.38
515.937	83.38
516.153	80.38
516.369	89.38
516.585	78.38
516.801	79.38
517.016	91.38
517.232	89.38
517.448	91.38
517.664	92.38
517.879	68.38
518.095	75.38
518.311	82.38
518.527	78.38
518.742	80.38
518.958	67.38
519.173	86.38
519.389	70.38
519.605	66.38
519.82	85.38
520.036	90.38
520.251	83.38
520.467	99.38
520.682	89.38
520.898	81.38
521.113	86.38
521.329	84.38
521.544	85.38
521.76	83.38
521.975	78.38
522.19	87.38
522.406	77.38
522.621	80.38
522.836	89.38
523.052	86.38
523.267	88.38
523.482	74.38
523.698	88.38
523.913	91.38
524.128	82.38
524.343	84.38
524.559	80.38
524.774	93.38
524.989	75.38
525.204	90.38
525.419	67.38
525.634	76.38
525.849	80.38
526.064	78.38
526.28	76.38
526.495	85.38
526.71	73.38
526.925	82.38
527.14	61.38
527.355	71.38
527.57	80.38
527.785	73.38
527.999	79.38
528.214	88.38
528.429	97.38
528.644	84.38
528.859	93.38
529.074	90.38
529.289	90.38
529.503	79.38
529.718	81.38
529.933	90.38
530.148	63.38
530.363	85.38
530.577	93.38
530.792	79.38
531.007	80.38
531.221	72.38
531.436	82.38
531.651	77.38
531.865	77.38
532.08	76.38
532.295	84.38
532.509	89.38
532.724	80.38
532.938	76.38
533.153	86.38
533.367	81.38
533.582	80.38
533.796	81.38
534.011	74.38
534.225	69.38
534.44	96.38
534.654	82.38
534.868	79.38
535.083	91.38
535.297	83.38
535.511	83.38
535.726	79.38
535.94	80.38
536.154	72.38
536.369	94.38
536.583	73.38
536.797	89.38
537.011	83.38
537.225	75.38
537.44	71.38
537.654	93.38
537.868	75.38
538.082	93.38
538.296	63.38
538.51	80.38
538.724	68.38
538.938	102.38
539.153	78.38
539.367	84.38
539.581	84.38
539.795	85.38
540.009	73.38
540.222	93.38
540.436	74.38
540.65	93.38
540.864	79.38
541.078	87.38
541.292	80.38
541.506	71.38
541.72	81.38
541.934	84.38
542.147	78.38
542.361	74.38
542.575	90.38
542.789	87.38
543.002	83.38
543.216	92.38
543.43	91.38
543.644	69.38
543.857	79.38
544.071	85.38
544.285	82.38
544.498	93.38
544.712	81.38
544.925	73.38
545.139	82.38
545.352	65.38
545.566	91.38
545.779	88.38
545.993	86.38
546.206	77.38
546.42	84.38
546.633	78.38
546.847	68.38
547.06	87.38
547.274	75.38
547.487	79.38
547.7	79.38
547.914	81.38
548.127	98.38
548.34	88.38
548.554	85.38
548.767	92.38
548.98	96.38
549.193	93.38
549.407	74.38
549.62	83.38
549.833	83.38
550.046	82.38
550.259	79.38
550.473	82.38
550.686	85.38
550.899	97.38
551.112	77.38
551.325	73.38
551.538	84.38
551.751	93.38
551.964	83.38
552.177	100.38
552.39	84.38
552.603	87.38
552.816	81.38
553.029	94.38
553.242	82.38
553.455	97.38
553.667	83.38
553.88	87.38
554.093	76.38
554.306	70.38
554.519	88.38
554.732	94.38
554.944	88.38
555.157	77.38
555.37	84.38
555.583	75.38
555.795	97.38
556.008	99.38
556.221	88.38
556.433	81.38
556.646	87.38
556.859	91.38
557.071	87.38
557.284	87.38
557.496	93.38
557.709	97.38
557.921	87.38
558.134	81.38
558.346	93.38
558.559	88.38
558.771	81.38
558.984	89.38
559.196	96.38
559.409	94.38
559.621	83.38
559.833	81.38
560.046	89.38
560.258	88.38
560.47	75.38
560.683	89.38
560.895	84.38
561.107	91.38
561.32	86.38
561.532	89.38
561.744	74.38
561.956	81.38
562.168	83.38
562.381	91.38
562.593	82.38
562.805	81.38
563.017	82.38
563.229	84.38
563.441	94.38
563.653	88.38
563.865	84.38
564.077	98.38
564.289	82.38
564.501	95.38
564.713	80.38
564.925	107.38
565.137	77.38
565.349	72.38
565.561	92.38
565.773	85.38
565.985	79.38
566.197	75.38
566.408	81.38
566.62	77.38
566.832	91.38
567.044	90.38
567.255	84.38
567.467	86.38
567.679	83.38
567.891	86.38
568.102	87.38
568.314	99.38
568.526	81.38
568.737	82.38
568.949	82.38
569.161	89.38
569.372	89.38
569.584	85.38
569.795	78.38
570.007	81.38
570.218	87.38
570.43	73.38
570.641	75.38
570.853	83.38
571.064	88.38
571.276	87.38
571.487	95.38
571.698	95.38
571.91	82.38
572.121	88.38
572.333	79.38
572.544	82.38
572.755	61.38
572.966	81.38
573.178	83.38
573.389	83.38
573.6	89.38
573.811	71.38
574.023	83.38
574.234	87.38
574.445	88.38
574.656	83.38
574.867	81.38
575.078	80.38
575.289	75.38
575.501	95.38
575.712	97.38
575.923	91.38
576.134	76.38
576.345	87.38
576.556	72.38
576.767	75.38
576.978	81.38
577.188	84.38
577.399	93.38
577.61	93.38
577.821	69.38
578.032	83.38
578.243	84.38
578.454	85.38
578.665	83.38
578.875	75.38
579.086	89.38
579.297	91.38
579.508	80.38
579.718	88.38
579.929	91.38
580.14	75.38
580.35	74.38
580.561	84.38
580.772	82.38
580.982	83.38
581.193	82.38
581.403	73.38
581.614	69.38
581.825	87.38
582.035	91.38
582.246	81.38
582.456	89.38
582.667	81.38
582.877	69.38
583.087	98.38
583.298	89.38
583.508	84.38
583.719	90.38
583.929	76.38
584.139	79.38
584.35	85.38
584.56	76.38
584.77	90.38
584.981	83.38
585.191	79.38
585.401	75.38
585.611	75.38
585.821	88.38
586.032	86.38
586.242	91.38
586.452	79.38
586.662	88.38
586.872	75.38
587.082	82.38
587.292	93.38
587.502	93.38
587.713	85.38
587.923	87.38
588.133	92.38
588.343	85.38
588.553	84.38
588.762	84.38
588.972	74.38
589.182	100.38
589.392	99.38
589.602	93.38
589.812	99.38
590.022	91.38
590.232	91.38
590.441	82.38
590.651	79.38
590.861	73.38
591.071	94.38
591.281	90.38
591.49	89.38
591.7	71.38
591.91	89.38
592.119	73.38
592.329	87.38
592.539	78.38
592.748	82.38
592.958	84.38
593.167	78.38
593.377	82.38
593.587	83.38
593.796	84.38
594.006	86.38
594.215	75.38
594.424	77.38
594.634	89.38
594.843	83.38
595.053	83.38
595.262	91.38
595.472	77.38
595.681	83.38
595.89	98.38
596.1	87.38
596.309	89.38
596.518	73.38
596.727	79.38
596.937	84.38
597.146	89.38
597.355	79.38
597.564	89.38
597.774	84.38
597.983	87.38
598.192	89.38
598.401	93.38
598.61	78.38
598.819	75.38
599.028	79.38
599.237	82.38
599.446	89.38
599.655	89.38
599.864	84.38
600.073	89.38
600.282	82.38
600.491	69.38
600.7	81.38
600.909	86.38
601.118	80.38
601.327	82.38
601.536	72.38
601.745	88.38
601.953	74.38
602.162	98.38
602.371	82.38
602.58	86.38
602.789	81.38
602.997	92.38
603.206	78.38
603.415	74.38
603.623	86.38
603.832	93.38
604.041	99.38
604.249	80.38
604.458	89.38
604.666	93.38
604.875	72.38
605.084	83.38
605.292	79.38
605.501	83.38
605.709	88.38
605.918	89.38
606.126	73.38
606.334	79.38
606.543	87.38
606.751	101.38
606.96	77.38
607.168	87.38
607.376	89.38
607.585	69.38
607.793	87.38
608.001	77.38
608.21	81.38
608.418	91.38
608.626	85.38
608.834	84.38
609.043	75.38
609.251	95.38
609.459	61.38
609.667	100.38
609.875	87.38
610.083	90.38
610.291	83.38
610.499	94.38
610.707	79.38
610.916	90.38
611.124	79.38
611.332	93.38
611.54	78.38
611.748	88.38
611.955	98.38
612.163	80.38
612.371	85.38
612.579	93.38
612.787	67.38
612.995	82.38
613.203	90.38
613.411	82.38
613.618	90.38
613.826	83.38
614.034	90.38
614.242	80.38
614.449	68.38
614.657	87.38
614.865	69.38
615.072	84.38
615.28	88.38
615.488	88.38
615.695	86.38
615.903	93.38
616.111	75.38
616.318	93.38
616.526	81.38
616.733	81.38
616.941	83.38
617.148	91.38
617.356	62.38
617.563	93.38
617.771	80.38
617.978	80.38
618.185	96.38
618.393	81.38
618.6	90.38
618.807	85.38
619.015	101.38
619.222	80.38
619.429	59.38
619.637	82.38
619.844	84.38
620.051	79.38
620.258	87.38
620.466	89.38
620.673	73.38
620.88	76.38
621.087	90.38
621.294	98.38
621.501	71.38
621.708	84.38
621.915	81.38
622.122	74.38
622.329	79.38
622.536	87.38
622.743	98.38
622.95	82.38
623.157	81.38
623.364	94.38
623.571	78.38
623.778	72.38
623.985	77.38
624.192	85.38
624.399	92.38
624.606	90.38
624.812	85.38
625.019	85.38
625.226	82.38
625.433	93.38
625.639	99.38
625.846	86.38
626.053	69.38
626.259	73.38
626.466	79.38
626.673	92.38
626.879	80.38
627.086	81.38
627.293	88.38
627.499	93.38
627.706	88.38
627.912	69.38
628.119	89.38
628.325	85.38
628.532	85.38
628.738	79.38
628.945	84.38
629.151	75.38
629.357	84.38
629.564	73.38
629.77	85.38
629.976	73.38
630.183	71.38
630.389	70.38
630.595	82.38
630.802	64.38
631.008	73.38
631.214	81.38
631.42	80.38
631.627	82.38
631.833	92.38
632.039	79.38
632.245	81.38
632.451	91.38
632.657	79.38
632.863	91.38
633.069	92.38
633.275	79.38
633.481	83.38
633.688	73.38
633.893	84.38
634.099	92.38
634.305	82.38
634.511	74.38
634.717	83.38
634.923	85.38
635.129	87.38
635.335	83.38
635.541	78.38
635.747	79.38
635.952	77.38
636.158	77.38
636.364	77.38
636.57	77.38
636.775	79.38
636.981	83.38
637.187	75.38
637.392	87.38
637.598	81.38
637.804	87.38
638.009	77.38
638.215	80.38
638.421	66.38
638.626	74.38
638.832	84.38
639.037	103.38
639.243	78.38
639.448	96.38
639.654	77.38
639.859	85.38
640.065	90.38
640.27	94.38
640.475	79.38
640.681	78.38
640.886	90.38
641.091	83.38
641.297	89.38
641.502	93.38
641.707	81.38
641.913	82.38
642.118	73.38
642.323	70.38
642.528	91.38
642.733	85.38
642.939	69.38
643.144	69.38
643.349	86.38
643.554	86.38
643.759	82.38
643.964	83.38
644.169	69.38
644.374	93.38
644.579	76.38
644.784	74.38
644.989	80.38
645.194	89.38
645.399	89.38
645.604	97.38
645.809	97.38
646.014	73.38
646.219	86.38
646.423	98.38
646.628	82.38
646.833	78.38
647.038	89.38
647.243	71.38
647.447	87.38
647.652	81.38
647.857	85.38
648.062	71.38
648.266	85.38
648.471	78.38
648.676	89.38
648.88	85.38
649.085	81.38
649.289	84.38
649.494	73.38
649.698	81.38
649.903	76.38
650.107	85.38
650.312	79.38
650.516	83.38
650.721	78.38
650.925	81.38
651.13	74.38
651.334	81.38
651.539	92.38
651.743	77.38
651.947	81.38
652.152	85.38
652.356	88.38
652.56	90.38
652.764	82.38
652.969	88.38
653.173	82.38
653.377	75.38
653.581	83.38
653.785	74.38
653.99	66.38
654.194	85.38
654.398	85.38
654.602	84.38
654.806	80.38
655.01	75.38
655.214	86.38
655.418	72.38
655.622	81.38
655.826	73.38
656.03	79.38
656.234	97.38
656.438	76.38
656.642	81.38
656.846	88.38
657.049	87.38
657.253	75.38
657.457	90.38
657.661	89.38
657.865	95.38
658.068	63.38
658.272	76.38
658.476	76.38
658.68	87.38
658.883	86.38
659.087	98.38
659.291	75.38
659.494	91.38
659.698	86.38
659.901	91.38
660.105	73.38
660.309	82.38
660.512	76.38
660.716	85.38
660.919	80.38
661.123	81.38
661.326	75.38
661.53	80.38
661.733	81.38
661.936	79.38
662.14	94.38
662.343	88.38
662.546	79.38
662.75	95.38
662.953	81.38
663.156	88.38
663.36	93.38
663.563	71.38
663.766	72.38
663.969	96.38
664.173	75.38
664.376	83.38
664.579	74.38
664.782	87.38
664.985	94.38
665.188	91.38
665.391	69.38
665.594	86.38
665.797	80.38
666	75.38
666.203	83.38
666.406	84.38
666.609	73.38
666.812	90.38
667.015	76.38
667.218	75.38
667.421	90.38
667.624	93.38
667.827	86.38
668.03	93.38
668.232	77.38
668.435	88.38
668.638	85.38
668.841	88.38
669.043	88.38
669.246	97.38
669.449	76.38
669.651	81.38
669.854	82.38
670.057	85.38
670.259	90.38
670.462	91.38
670.665	89.38
670.867	72.38
671.07	76.38
671.272	91.38
671.475	89.38
671.677	61.38
671.88	71.38
672.082	80.38
672.284	69.38
672.487	88.38
672.689	88.38
672.892	77.38
