Data from Lead_5_1_HRD10591_00017.txt Node
Date: Fri Feb 20 11:08:30 EST 2026
User: Yrep
Spectrometer: HR+D1059
Trigger mode: 1
Integration Time (sec): 1.000000E-1
Scans to average: 1
Electric dark correction enabled: true
Nonlinearity correction enabled: false
Boxcar width: 0
XAxis mode: Wavelengths
Number of Pixels in Spectrum: 2048
>>>>>Begin Spectral Data<<<<<
223.165	-10.62
223.4	-10.62
223.635	-10.62
223.869	-19.62
224.104	-24.62
224.338	-22.62
224.573	-10.62
224.808	-1.62
225.042	-5.62
225.277	-1.62
225.511	0.38
225.746	1.38
225.98	12.38
226.215	16.38
226.449	-4.62
226.683	16.38
226.918	31.38
227.152	23.38
227.387	24.38
227.621	42.38
227.856	45.38
228.09	37.38
228.324	45.38
228.559	60.38
228.793	70.38
229.027	63.38
229.262	78.38
229.496	54.38
229.73	84.38
229.964	87.38
230.199	74.38
230.433	77.38
230.667	78.38
230.901	88.38
231.136	88.38
231.37	76.38
231.604	87.38
231.838	99.38
232.072	83.38
232.306	88.38
232.541	86.38
232.775	86.38
233.009	87.38
233.243	80.38
233.477	90.38
233.711	85.38
233.945	85.38
234.179	68.38
234.413	91.38
234.647	71.38
234.881	96.38
235.115	86.38
235.349	76.38
235.583	58.38
235.817	69.38
236.051	79.38
236.285	62.38
236.519	85.38
236.753	72.38
236.987	74.38
237.221	71.38
237.455	79.38
237.689	69.38
237.922	83.38
238.156	79.38
238.39	71.38
238.624	66.38
238.858	81.38
239.091	73.38
239.325	69.38
239.559	66.38
239.793	77.38
240.027	81.38
240.26	88.38
240.494	88.38
240.728	82.38
240.961	88.38
241.195	65.38
241.429	78.38
241.662	68.38
241.896	86.38
242.13	74.38
242.363	75.38
242.597	86.38
242.83	86.38
243.064	84.38
243.298	77.38
243.531	72.38
243.765	74.38
243.998	74.38
244.232	76.38
244.465	71.38
244.699	74.38
244.932	86.38
245.166	72.38
245.399	75.38
245.633	100.38
245.866	75.38
246.099	77.38
246.333	84.38
246.566	80.38
246.8	71.38
247.033	76.38
247.266	86.38
247.5	77.38
247.733	88.38
247.966	90.38
248.2	75.38
248.433	70.38
248.666	70.38
248.899	88.38
249.133	78.38
249.366	82.38
249.599	67.38
249.832	67.38
250.066	94.38
250.299	76.38
250.532	68.38
250.765	87.38
250.998	94.38
251.231	83.38
251.465	75.38
251.698	84.38
251.931	73.38
252.164	88.38
252.397	82.38
252.63	85.38
252.863	74.38
253.096	83.38
253.329	88.38
253.562	84.38
253.795	91.38
254.028	79.38
254.261	78.38
254.494	88.38
254.727	91.38
254.96	84.38
255.193	79.38
255.426	70.38
255.659	73.38
255.892	93.38
256.124	74.38
256.357	81.38
256.59	90.38
256.823	78.38
257.056	78.38
257.289	75.38
257.521	96.38
257.754	88.38
257.987	88.38
258.22	86.38
258.452	84.38
258.685	76.38
258.918	84.38
259.151	74.38
259.383	89.38
259.616	80.38
259.849	82.38
260.081	93.38
260.314	84.38
260.547	85.38
260.779	88.38
261.012	84.38
261.244	85.38
261.477	96.38
261.71	81.38
261.942	80.38
262.175	76.38
262.407	78.38
262.64	76.38
262.872	85.38
263.105	82.38
263.337	91.38
263.57	72.38
263.802	74.38
264.035	83.38
264.267	74.38
264.499	84.38
264.732	97.38
264.964	81.38
265.197	89.38
265.429	83.38
265.661	71.38
265.894	73.38
266.126	92.38
266.358	88.38
266.591	82.38
266.823	71.38
267.055	79.38
267.287	73.38
267.52	75.38
267.752	82.38
267.984	84.38
268.216	70.38
268.448	84.38
268.681	89.38
268.913	92.38
269.145	71.38
269.377	91.38
269.609	98.38
269.841	72.38
270.073	69.38
270.306	88.38
270.538	84.38
270.77	101.38
271.002	92.38
271.234	83.38
271.466	77.38
271.698	79.38
271.93	78.38
272.162	79.38
272.394	78.38
272.626	93.38
272.858	87.38
273.09	88.38
273.322	78.38
273.553	92.38
273.785	80.38
274.017	75.38
274.249	97.38
274.481	83.38
274.713	72.38
274.945	93.38
275.176	87.38
275.408	83.38
275.64	84.38
275.872	79.38
276.104	67.38
276.335	84.38
276.567	94.38
276.799	88.38
277.031	78.38
277.262	84.38
277.494	66.38
277.726	85.38
277.957	74.38
278.189	76.38
278.421	82.38
278.652	87.38
278.884	93.38
279.115	86.38
279.347	88.38
279.579	82.38
279.81	68.38
280.042	82.38
280.273	89.38
280.505	84.38
280.736	84.38
280.968	87.38
281.199	82.38
281.431	90.38
281.662	96.38
281.894	102.38
282.125	82.38
282.356	88.38
282.588	84.38
282.819	69.38
283.051	86.38
283.282	77.38
283.513	80.38
283.745	89.38
283.976	86.38
284.207	69.38
284.439	82.38
284.67	83.38
284.901	94.38
285.132	82.38
285.364	85.38
285.595	92.38
285.826	94.38
286.057	90.38
286.288	81.38
286.52	70.38
286.751	77.38
286.982	88.38
287.213	94.38
287.444	84.38
287.675	92.38
287.906	90.38
288.138	82.38
288.369	93.38
288.6	85.38
288.831	85.38
289.062	93.38
289.293	80.38
289.524	76.38
289.755	82.38
289.986	101.38
290.217	78.38
290.448	71.38
290.679	81.38
290.91	84.38
291.141	82.38
291.371	91.38
291.602	85.38
291.833	85.38
292.064	66.38
292.295	97.38
292.526	102.38
292.757	85.38
292.987	90.38
293.218	73.38
293.449	92.38
293.68	88.38
293.91	86.38
294.141	91.38
294.372	68.38
294.603	88.38
294.833	88.38
295.064	90.38
295.295	94.38
295.525	78.38
295.756	91.38
295.987	96.38
296.217	78.38
296.448	90.38
296.679	88.38
296.909	73.38
297.14	90.38
297.37	78.38
297.601	82.38
297.831	92.38
298.062	73.38
298.292	66.38
298.523	89.38
298.753	82.38
298.984	76.38
299.214	88.38
299.445	93.38
299.675	91.38
299.905	79.38
300.136	82.38
300.366	82.38
300.597	78.38
300.827	86.38
301.057	87.38
301.288	87.38
301.518	87.38
301.748	88.38
301.979	103.38
302.209	84.38
302.439	74.38
302.669	88.38
302.9	93.38
303.13	76.38
303.36	88.38
303.59	84.38
303.82	78.38
304.051	82.38
304.281	79.38
304.511	89.38
304.741	93.38
304.971	82.38
305.201	88.38
305.431	77.38
305.661	90.38
305.891	74.38
306.121	88.38
306.352	91.38
306.582	87.38
306.812	85.38
307.042	79.38
307.272	86.38
307.502	92.38
307.731	84.38
307.961	82.38
308.191	88.38
308.421	81.38
308.651	83.38
308.881	84.38
309.111	95.38
309.341	84.38
309.571	81.38
309.8	89.38
310.03	79.38
310.26	73.38
310.49	94.38
310.72	77.38
310.949	72.38
311.179	77.38
311.409	82.38
311.639	78.38
311.868	87.38
312.098	79.38
312.328	98.38
312.557	86.38
312.787	94.38
313.017	96.38
313.246	79.38
313.476	86.38
313.706	84.38
313.935	83.38
314.165	85.38
314.394	83.38
314.624	92.38
314.853	93.38
315.083	78.38
315.312	86.38
315.542	77.38
315.771	90.38
316.001	96.38
316.23	80.38
316.46	69.38
316.689	90.38
316.919	77.38
317.148	82.38
317.377	83.38
317.607	92.38
317.836	74.38
318.065	84.38
318.295	88.38
318.524	88.38
318.753	92.38
318.983	84.38
319.212	85.38
319.441	87.38
319.67	85.38
319.9	86.38
320.129	84.38
320.358	92.38
320.587	92.38
320.816	84.38
321.046	94.38
321.275	92.38
321.504	84.38
321.733	74.38
321.962	91.38
322.191	96.38
322.42	78.38
322.649	86.38
322.878	90.38
323.108	99.38
323.337	88.38
323.566	80.38
323.795	101.38
324.024	91.38
324.253	87.38
324.482	82.38
324.71	77.38
324.939	86.38
325.168	91.38
325.397	94.38
325.626	88.38
325.855	86.38
326.084	95.38
326.313	88.38
326.542	90.38
326.77	92.38
326.999	92.38
327.228	84.38
327.457	72.38
327.686	82.38
327.914	89.38
328.143	94.38
328.372	71.38
328.6	80.38
328.829	85.38
329.058	87.38
329.287	74.38
329.515	85.38
329.744	91.38
329.972	78.38
330.201	85.38
330.43	92.38
330.658	78.38
330.887	89.38
331.115	68.38
331.344	92.38
331.572	93.38
331.801	83.38
332.03	87.38
332.258	88.38
332.486	70.38
332.715	82.38
332.943	82.38
333.172	85.38
333.4	81.38
333.629	101.38
333.857	92.38
334.085	82.38
334.314	92.38
334.542	82.38
334.771	84.38
334.999	96.38
335.227	87.38
335.455	84.38
335.684	92.38
335.912	87.38
336.14	89.38
336.369	86.38
336.597	83.38
336.825	100.38
337.053	99.38
337.281	92.38
337.51	79.38
337.738	75.38
337.966	89.38
338.194	84.38
338.422	80.38
338.65	86.38
338.878	97.38
339.106	66.38
339.334	77.38
339.562	84.38
339.79	79.38
340.018	88.38
340.246	80.38
340.474	83.38
340.702	84.38
340.93	86.38
341.158	82.38
341.386	76.38
341.614	90.38
341.842	96.38
342.07	86.38
342.298	96.38
342.526	83.38
342.754	79.38
342.981	80.38
343.209	79.38
343.437	94.38
343.665	85.38
343.893	88.38
344.12	84.38
344.348	96.38
344.576	92.38
344.804	88.38
345.031	77.38
345.259	84.38
345.487	80.38
345.714	73.38
345.942	79.38
346.17	93.38
346.397	82.38
346.625	78.38
346.853	84.38
347.08	91.38
347.308	84.38
347.535	95.38
347.763	89.38
347.99	75.38
348.218	79.38
348.445	84.38
348.673	92.38
348.9	85.38
349.128	95.38
349.355	85.38
349.583	84.38
349.81	83.38
350.037	90.38
350.265	92.38
350.492	73.38
350.72	88.38
350.947	74.38
351.174	89.38
351.402	79.38
351.629	89.38
351.856	84.38
352.083	78.38
352.311	82.38
352.538	88.38
352.765	92.38
352.992	99.38
353.22	86.38
353.447	69.38
353.674	77.38
353.901	79.38
354.128	91.38
354.355	86.38
354.583	84.38
354.81	90.38
355.037	105.38
355.264	86.38
355.491	68.38
355.718	75.38
355.945	84.38
356.172	78.38
356.399	90.38
356.626	89.38
356.853	86.38
357.08	78.38
357.307	100.38
357.534	74.38
357.761	77.38
357.988	84.38
358.215	88.38
358.441	89.38
358.668	83.38
358.895	74.38
359.122	100.38
359.349	98.38
359.576	62.38
359.802	83.38
360.029	96.38
360.256	87.38
360.483	93.38
360.709	81.38
360.936	89.38
361.163	84.38
361.39	88.38
361.616	77.38
361.843	79.38
362.07	97.38
362.296	100.38
362.523	77.38
362.749	88.38
362.976	96.38
363.203	78.38
363.429	86.38
363.656	88.38
363.882	88.38
364.109	78.38
364.335	86.38
364.562	86.38
364.788	75.38
365.015	88.38
365.241	92.38
365.468	87.38
365.694	86.38
365.92	93.38
366.147	74.38
366.373	78.38
366.599	96.38
366.826	88.38
367.052	87.38
367.278	92.38
367.505	81.38
367.731	84.38
367.957	85.38
368.184	74.38
368.41	96.38
368.636	93.38
368.862	94.38
369.089	72.38
369.315	85.38
369.541	85.38
369.767	69.38
369.993	97.38
370.219	72.38
370.445	78.38
370.672	77.38
370.898	102.38
371.124	84.38
371.35	91.38
371.576	84.38
371.802	80.38
372.028	84.38
372.254	83.38
372.48	81.38
372.706	83.38
372.932	88.38
373.158	77.38
373.384	98.38
373.61	77.38
373.835	83.38
374.061	67.38
374.287	94.38
374.513	78.38
374.739	78.38
374.965	81.38
375.191	94.38
375.416	82.38
375.642	84.38
375.868	93.38
376.094	86.38
376.319	78.38
376.545	97.38
376.771	77.38
376.997	68.38
377.222	98.38
377.448	93.38
377.674	85.38
377.899	71.38
378.125	91.38
378.35	61.38
378.576	91.38
378.802	84.38
379.027	94.38
379.253	92.38
379.478	84.38
379.704	93.38
379.929	79.38
380.155	79.38
380.38	68.38
380.606	81.38
380.831	81.38
381.057	88.38
381.282	85.38
381.507	96.38
381.733	80.38
381.958	68.38
382.184	84.38
382.409	89.38
382.634	92.38
382.86	77.38
383.085	73.38
383.31	96.38
383.535	91.38
383.761	82.38
383.986	79.38
384.211	95.38
384.436	79.38
384.662	75.38
384.887	92.38
385.112	77.38
385.337	86.38
385.562	74.38
385.787	74.38
386.013	93.38
386.238	83.38
386.463	82.38
386.688	98.38
386.913	89.38
387.138	89.38
387.363	82.38
387.588	95.38
387.813	91.38
388.038	92.38
388.263	85.38
388.488	82.38
388.713	88.38
388.938	76.38
389.163	88.38
389.387	98.38
389.612	73.38
389.837	68.38
390.062	79.38
390.287	88.38
390.512	86.38
390.736	78.38
390.961	83.38
391.186	82.38
391.411	84.38
391.636	75.38
391.86	80.38
392.085	76.38
392.31	83.38
392.534	71.38
392.759	84.38
392.984	94.38
393.208	98.38
393.433	92.38
393.658	76.38
393.882	88.38
394.107	88.38
394.331	77.38
394.556	74.38
394.78	91.38
395.005	78.38
395.229	86.38
395.454	84.38
395.678	84.38
395.903	83.38
396.127	98.38
396.352	72.38
396.576	84.38
396.801	85.38
397.025	88.38
397.249	88.38
397.474	91.38
397.698	94.38
397.922	93.38
398.147	97.38
398.371	72.38
398.595	77.38
398.82	80.38
399.044	67.38
399.268	70.38
399.492	85.38
399.717	90.38
399.941	82.38
400.165	93.38
400.389	84.38
400.613	88.38
400.837	77.38
401.062	92.38
401.286	82.38
401.51	83.38
401.734	74.38
401.958	86.38
402.182	78.38
402.406	77.38
402.63	79.38
402.854	84.38
403.078	78.38
403.302	88.38
403.526	74.38
403.75	78.38
403.974	82.38
404.198	92.38
404.422	87.38
404.645	90.38
404.869	83.38
405.093	81.38
405.317	100.38
405.541	73.38
405.765	76.38
405.988	79.38
406.212	86.38
406.436	91.38
406.66	101.38
406.883	85.38
407.107	90.38
407.331	91.38
407.555	85.38
407.778	72.38
408.002	84.38
408.226	80.38
408.449	83.38
408.673	82.38
408.896	74.38
409.12	83.38
409.344	87.38
409.567	74.38
409.791	88.38
410.014	77.38
410.238	79.38
410.461	71.38
410.685	82.38
410.908	72.38
411.132	84.38
411.355	90.38
411.578	76.38
411.802	82.38
412.025	69.38
412.249	83.38
412.472	82.38
412.695	78.38
412.919	88.38
413.142	71.38
413.365	95.38
413.589	82.38
413.812	94.38
414.035	77.38
414.258	82.38
414.482	87.38
414.705	90.38
414.928	79.38
415.151	87.38
415.374	74.38
415.597	78.38
415.821	77.38
416.044	95.38
416.267	90.38
416.49	88.38
416.713	79.38
416.936	95.38
417.159	77.38
417.382	77.38
417.605	65.38
417.828	91.38
418.051	79.38
418.274	97.38
418.497	75.38
418.72	83.38
418.943	80.38
419.166	95.38
419.389	94.38
419.611	68.38
419.834	75.38
420.057	81.38
420.28	82.38
420.503	61.38
420.726	97.38
420.948	79.38
421.171	83.38
421.394	85.38
421.617	67.38
421.839	73.38
422.062	91.38
422.285	88.38
422.507	82.38
422.73	85.38
422.953	105.38
423.175	85.38
423.398	72.38
423.621	82.38
423.843	87.38
424.066	83.38
424.288	86.38
424.511	88.38
424.733	92.38
424.956	99.38
425.178	73.38
425.401	84.38
425.623	86.38
425.846	87.38
426.068	90.38
426.291	86.38
426.513	96.38
426.735	78.38
426.958	84.38
427.18	82.38
427.402	91.38
427.625	86.38
427.847	68.38
428.069	68.38
428.292	94.38
428.514	92.38
428.736	85.38
428.958	72.38
429.181	84.38
429.403	80.38
429.625	78.38
429.847	68.38
430.069	97.38
430.292	90.38
430.514	84.38
430.736	93.38
430.958	77.38
431.18	74.38
431.402	81.38
431.624	80.38
431.846	75.38
432.068	80.38
432.29	98.38
432.512	79.38
432.734	74.38
432.956	83.38
433.178	75.38
433.4	89.38
433.622	100.38
433.844	74.38
434.066	78.38
434.287	84.38
434.509	69.38
434.731	86.38
434.953	83.38
435.175	77.38
435.397	85.38
435.618	74.38
435.84	84.38
436.062	85.38
436.284	88.38
436.505	74.38
436.727	76.38
436.949	70.38
437.17	84.38
437.392	77.38
437.614	81.38
437.835	88.38
438.057	86.38
438.278	78.38
438.5	68.38
438.721	90.38
438.943	88.38
439.165	81.38
439.386	78.38
439.608	76.38
439.829	82.38
440.05	88.38
440.272	86.38
440.493	88.38
440.715	62.38
440.936	82.38
441.158	90.38
441.379	85.38
441.6	89.38
441.822	85.38
442.043	80.38
442.264	78.38
442.486	83.38
442.707	83.38
442.928	74.38
443.149	82.38
443.371	92.38
443.592	59.38
443.813	78.38
444.034	84.38
444.255	90.38
444.476	71.38
444.698	100.38
444.919	79.38
445.14	168.38
445.361	106.38
445.582	82.38
445.803	92.38
446.024	85.38
446.245	85.38
446.466	82.38
446.687	99.38
446.908	78.38
447.129	88.38
447.35	84.38
447.571	77.38
447.792	94.38
448.013	73.38
448.234	84.38
448.455	82.38
448.675	93.38
448.896	84.38
449.117	81.38
449.338	76.38
449.559	78.38
449.779	72.38
450	88.38
450.221	83.38
450.442	72.38
450.662	85.38
450.883	74.38
451.104	92.38
451.324	87.38
451.545	92.38
451.766	77.38
451.986	72.38
452.207	88.38
452.428	96.38
452.648	90.38
452.869	74.38
453.089	85.38
453.31	68.38
453.53	87.38
453.751	80.38
453.971	77.38
454.192	74.38
454.412	98.38
454.633	84.38
454.853	80.38
455.073	65.38
455.294	95.38
455.514	87.38
455.734	88.38
455.955	84.38
456.175	88.38
456.395	74.38
456.616	92.38
456.836	89.38
457.056	100.38
457.276	69.38
457.497	82.38
457.717	80.38
457.937	85.38
458.157	88.38
458.377	92.38
458.598	76.38
458.818	88.38
459.038	82.38
459.258	79.38
459.478	106.38
459.698	74.38
459.918	69.38
460.138	80.38
460.358	76.38
460.578	83.38
460.798	84.38
461.018	75.38
461.238	92.38
461.458	81.38
461.678	89.38
461.898	91.38
462.118	94.38
462.338	82.38
462.558	94.38
462.777	86.38
462.997	76.38
463.217	66.38
463.437	89.38
463.657	79.38
463.876	83.38
464.096	87.38
464.316	61.38
464.536	70.38
464.755	86.38
464.975	100.38
465.195	75.38
465.414	89.38
465.634	81.38
465.854	90.38
466.073	91.38
466.293	92.38
466.512	84.38
466.732	73.38
466.951	76.38
467.171	77.38
467.391	69.38
467.61	76.38
467.829	86.38
468.049	88.38
468.268	85.38
468.488	82.38
468.707	90.38
468.927	96.38
469.146	72.38
469.365	91.38
469.585	75.38
469.804	78.38
470.023	81.38
470.243	82.38
470.462	93.38
470.681	75.38
470.901	72.38
471.12	79.38
471.339	94.38
471.558	82.38
471.777	83.38
471.997	98.38
472.216	92.38
472.435	85.38
472.654	84.38
472.873	94.38
473.092	88.38
473.311	78.38
473.53	87.38
473.749	80.38
473.968	83.38
474.187	83.38
474.406	82.38
474.625	85.38
474.844	84.38
475.063	79.38
475.282	76.38
475.501	83.38
475.72	84.38
475.939	74.38
476.158	75.38
476.377	77.38
476.596	81.38
476.814	87.38
477.033	87.38
477.252	89.38
477.471	86.38
477.69	83.38
477.908	72.38
478.127	86.38
478.346	79.38
478.564	85.38
478.783	67.38
479.002	76.38
479.22	71.38
479.439	82.38
479.658	77.38
479.876	75.38
480.095	83.38
480.313	78.38
480.532	78.38
480.751	92.38
480.969	79.38
481.188	98.38
481.406	82.38
481.624	87.38
481.843	91.38
482.061	85.38
482.28	83.38
482.498	87.38
482.717	86.38
482.935	81.38
483.153	80.38
483.372	96.38
483.59	75.38
483.808	84.38
484.027	84.38
484.245	86.38
484.463	80.38
484.681	98.38
484.9	90.38
485.118	80.38
485.336	93.38
485.554	85.38
485.772	78.38
485.99	75.38
486.209	86.38
486.427	92.38
486.645	72.38
486.863	86.38
487.081	78.38
487.299	74.38
487.517	76.38
487.735	69.38
487.953	88.38
488.171	84.38
488.389	83.38
488.607	82.38
488.825	89.38
489.043	86.38
489.261	86.38
489.479	83.38
489.696	98.38
489.914	74.38
490.132	78.38
490.35	77.38
490.568	79.38
490.786	80.38
491.003	93.38
491.221	88.38
491.439	93.38
491.657	92.38
491.874	91.38
492.092	76.38
492.31	76.38
492.527	82.38
492.745	77.38
492.963	81.38
493.18	89.38
493.398	84.38
493.615	97.38
493.833	80.38
494.05	82.38
494.268	89.38
494.485	85.38
494.703	68.38
494.92	76.38
495.138	80.38
495.355	95.38
495.573	88.38
495.79	78.38
496.008	85.38
496.225	88.38
496.442	79.38
496.66	97.38
496.877	69.38
497.094	90.38
497.312	74.38
497.529	93.38
497.746	78.38
497.963	85.38
498.181	85.38
498.398	68.38
498.615	86.38
498.832	77.38
499.049	87.38
499.267	79.38
499.484	75.38
499.701	71.38
499.918	86.38
500.135	86.38
500.352	82.38
500.569	84.38
500.786	87.38
501.003	80.38
501.22	92.38
501.437	82.38
501.654	82.38
501.871	89.38
502.088	82.38
502.305	84.38
502.522	90.38
502.739	75.38
502.956	88.38
503.172	73.38
503.389	76.38
503.606	70.38
503.823	83.38
504.04	86.38
504.256	81.38
504.473	94.38
504.69	92.38
504.907	79.38
505.123	93.38
505.34	79.38
505.557	76.38
505.773	90.38
505.99	78.38
506.207	91.38
506.423	86.38
506.64	86.38
506.856	82.38
507.073	96.38
507.289	92.38
507.506	78.38
507.722	83.38
507.939	84.38
508.155	82.38
508.372	93.38
508.588	76.38
508.805	78.38
509.021	95.38
509.238	78.38
509.454	86.38
509.67	79.38
509.887	87.38
510.103	81.38
510.319	85.38
510.536	88.38
510.752	86.38
510.968	90.38
511.184	89.38
511.401	92.38
511.617	84.38
511.833	82.38
512.049	77.38
512.265	96.38
512.481	88.38
512.698	75.38
512.914	82.38
513.13	76.38
513.346	74.38
513.562	98.38
513.778	75.38
513.994	88.38
514.21	79.38
514.426	87.38
514.642	89.38
514.858	87.38
515.074	80.38
515.29	78.38
515.506	81.38
515.721	78.38
515.937	88.38
516.153	76.38
516.369	78.38
516.585	93.38
516.801	91.38
517.016	86.38
517.232	70.38
517.448	93.38
517.664	87.38
517.879	88.38
518.095	73.38
518.311	66.38
518.527	86.38
518.742	93.38
518.958	82.38
519.173	77.38
519.389	85.38
519.605	98.38
519.82	77.38
520.036	77.38
520.251	89.38
520.467	93.38
520.682	98.38
520.898	93.38
521.113	86.38
521.329	84.38
521.544	71.38
521.76	97.38
521.975	84.38
522.19	76.38
522.406	72.38
522.621	91.38
522.836	90.38
523.052	80.38
523.267	84.38
523.482	62.38
523.698	94.38
523.913	77.38
524.128	86.38
524.343	68.38
524.559	84.38
524.774	92.38
524.989	71.38
525.204	77.38
525.419	95.38
525.634	80.38
525.849	86.38
526.064	80.38
526.28	83.38
526.495	84.38
526.71	81.38
526.925	93.38
527.14	90.38
527.355	93.38
527.57	87.38
527.785	86.38
527.999	76.38
528.214	92.38
528.429	91.38
528.644	93.38
528.859	85.38
529.074	89.38
529.289	79.38
529.503	83.38
529.718	88.38
529.933	86.38
530.148	70.38
530.363	97.38
530.577	86.38
530.792	70.38
531.007	81.38
531.221	83.38
531.436	78.38
531.651	94.38
531.865	81.38
532.08	89.38
532.295	90.38
532.509	84.38
532.724	78.38
532.938	88.38
533.153	99.38
533.367	98.38
533.582	76.38
533.796	88.38
534.011	84.38
534.225	89.38
534.44	89.38
534.654	100.38
534.868	89.38
535.083	85.38
535.297	93.38
535.511	83.38
535.726	79.38
535.94	91.38
536.154	93.38
536.369	88.38
536.583	83.38
536.797	81.38
537.011	90.38
537.225	75.38
537.44	81.38
537.654	86.38
537.868	88.38
538.082	69.38
538.296	93.38
538.51	102.38
538.724	90.38
538.938	64.38
539.153	75.38
539.367	104.38
539.581	77.38
539.795	85.38
540.009	81.38
540.222	89.38
540.436	77.38
540.65	74.38
540.864	82.38
541.078	78.38
541.292	76.38
541.506	65.38
541.72	95.38
541.934	93.38
542.147	84.38
542.361	82.38
542.575	78.38
542.789	90.38
543.002	83.38
543.216	73.38
543.43	85.38
543.644	76.38
543.857	91.38
544.071	91.38
544.285	87.38
544.498	91.38
544.712	77.38
544.925	88.38
545.139	87.38
545.352	89.38
545.566	77.38
545.779	84.38
545.993	78.38
546.206	88.38
546.42	74.38
546.633	83.38
546.847	96.38
547.06	83.38
547.274	76.38
547.487	84.38
547.7	76.38
547.914	84.38
548.127	74.38
548.34	88.38
548.554	72.38
548.767	81.38
548.98	87.38
549.193	97.38
549.407	82.38
549.62	105.38
549.833	84.38
550.046	87.38
550.259	90.38
550.473	84.38
550.686	92.38
550.899	80.38
551.112	83.38
551.325	85.38
551.538	85.38
551.751	89.38
551.964	90.38
552.177	89.38
552.39	99.38
552.603	84.38
552.816	92.38
553.029	77.38
553.242	82.38
553.455	84.38
553.667	84.38
553.88	67.38
554.093	80.38
554.306	96.38
554.519	84.38
554.732	92.38
554.944	78.38
555.157	77.38
555.37	84.38
555.583	86.38
555.795	93.38
556.008	84.38
556.221	77.38
556.433	92.38
556.646	86.38
556.859	92.38
557.071	95.38
557.284	74.38
557.496	88.38
557.709	84.38
557.921	80.38
558.134	86.38
558.346	84.38
558.559	76.38
558.771	82.38
558.984	76.38
559.196	87.38
559.409	88.38
559.621	85.38
559.833	79.38
560.046	70.38
560.258	82.38
560.47	70.38
560.683	74.38
560.895	86.38
561.107	85.38
561.32	91.38
561.532	95.38
561.744	91.38
561.956	86.38
562.168	90.38
562.381	98.38
562.593	76.38
562.805	90.38
563.017	93.38
563.229	90.38
563.441	86.38
563.653	92.38
563.865	77.38
564.077	98.38
564.289	84.38
564.501	98.38
564.713	89.38
564.925	92.38
565.137	80.38
565.349	108.38
565.561	88.38
565.773	98.38
565.985	88.38
566.197	88.38
566.408	100.38
566.62	79.38
566.832	83.38
567.044	86.38
567.255	78.38
567.467	89.38
567.679	94.38
567.891	78.38
568.102	70.38
568.314	86.38
568.526	86.38
568.737	84.38
568.949	98.38
569.161	85.38
569.372	94.38
569.584	60.38
569.795	85.38
570.007	96.38
570.218	96.38
570.43	94.38
570.641	69.38
570.853	101.38
571.064	91.38
571.276	84.38
571.487	99.38
571.698	98.38
571.91	83.38
572.121	97.38
572.333	84.38
572.544	80.38
572.755	82.38
572.966	88.38
573.178	89.38
573.389	99.38
573.6	68.38
573.811	78.38
574.023	87.38
574.234	94.38
574.445	89.38
574.656	85.38
574.867	78.38
575.078	94.38
575.289	94.38
575.501	91.38
575.712	74.38
575.923	103.38
576.134	80.38
576.345	79.38
576.556	79.38
576.767	85.38
576.978	93.38
577.188	96.38
577.399	88.38
577.61	97.38
577.821	85.38
578.032	86.38
578.243	89.38
578.454	80.38
578.665	86.38
578.875	88.38
579.086	82.38
579.297	84.38
579.508	75.38
579.718	96.38
579.929	81.38
580.14	91.38
580.35	89.38
580.561	83.38
580.772	91.38
580.982	99.38
581.193	85.38
581.403	84.38
581.614	74.38
581.825	86.38
582.035	97.38
582.246	86.38
582.456	74.38
582.667	96.38
582.877	93.38
583.087	90.38
583.298	102.38
583.508	96.38
583.719	82.38
583.929	73.38
584.139	84.38
584.35	91.38
584.56	86.38
584.77	83.38
584.981	90.38
585.191	70.38
585.401	76.38
585.611	84.38
585.821	90.38
586.032	96.38
586.242	83.38
586.452	76.38
586.662	88.38
586.872	94.38
587.082	86.38
587.292	86.38
587.502	79.38
587.713	92.38
587.923	96.38
588.133	97.38
588.343	88.38
588.553	85.38
588.762	96.38
588.972	90.38
589.182	108.38
589.392	97.38
589.602	94.38
589.812	104.38
590.022	86.38
590.232	84.38
590.441	91.38
590.651	84.38
590.861	89.38
591.071	84.38
591.281	78.38
591.49	87.38
591.7	86.38
591.91	91.38
592.119	76.38
592.329	86.38
592.539	94.38
592.748	95.38
592.958	94.38
593.167	87.38
593.377	97.38
593.587	104.38
593.796	97.38
594.006	85.38
594.215	84.38
594.424	88.38
594.634	76.38
594.843	83.38
595.053	61.38
595.262	79.38
595.472	95.38
595.681	93.38
595.89	102.38
596.1	84.38
596.309	95.38
596.518	85.38
596.727	89.38
596.937	92.38
597.146	88.38
597.355	88.38
597.564	87.38
597.774	102.38
597.983	94.38
598.192	86.38
598.401	102.38
598.61	84.38
598.819	88.38
599.028	85.38
599.237	80.38
599.446	79.38
599.655	72.38
599.864	92.38
600.073	78.38
600.282	93.38
600.491	75.38
600.7	93.38
600.909	91.38
601.118	86.38
601.327	87.38
601.536	91.38
601.745	85.38
601.953	72.38
602.162	92.38
602.371	81.38
602.58	76.38
602.789	74.38
602.997	103.38
603.206	89.38
603.415	72.38
603.623	79.38
603.832	89.38
604.041	74.38
604.249	99.38
604.458	89.38
604.666	71.38
604.875	85.38
605.084	80.38
605.292	86.38
605.501	98.38
605.709	85.38
605.918	86.38
606.126	85.38
606.334	76.38
606.543	84.38
606.751	86.38
606.96	102.38
607.168	92.38
607.376	81.38
607.585	87.38
607.793	87.38
608.001	89.38
608.21	91.38
608.418	84.38
608.626	78.38
608.834	91.38
609.043	101.38
609.251	84.38
609.459	99.38
609.667	98.38
609.875	84.38
610.083	86.38
610.291	85.38
610.499	92.38
610.707	102.38
610.916	98.38
611.124	88.38
611.332	90.38
611.54	82.38
611.748	82.38
611.955	76.38
612.163	80.38
612.371	70.38
612.579	94.38
612.787	78.38
612.995	93.38
613.203	82.38
613.411	80.38
613.618	89.38
613.826	83.38
614.034	104.38
614.242	94.38
614.449	78.38
614.657	75.38
614.865	64.38
615.072	89.38
615.28	91.38
615.488	84.38
615.695	92.38
615.903	92.38
616.111	88.38
616.318	85.38
616.526	88.38
616.733	86.38
616.941	86.38
617.148	87.38
617.356	87.38
617.563	89.38
617.771	88.38
617.978	88.38
618.185	93.38
618.393	74.38
618.6	84.38
618.807	78.38
619.015	79.38
619.222	85.38
619.429	96.38
619.637	82.38
619.844	77.38
620.051	87.38
620.258	84.38
620.466	93.38
620.673	84.38
620.88	65.38
621.087	90.38
621.294	81.38
621.501	84.38
621.708	78.38
621.915	86.38
622.122	99.38
622.329	94.38
622.536	73.38
622.743	62.38
622.95	88.38
623.157	90.38
623.364	86.38
623.571	88.38
623.778	77.38
623.985	84.38
624.192	97.38
624.399	88.38
624.606	72.38
624.812	71.38
625.019	100.38
625.226	88.38
625.433	96.38
625.639	93.38
625.846	80.38
626.053	86.38
626.259	86.38
626.466	84.38
626.673	91.38
626.879	84.38
627.086	85.38
627.293	88.38
627.499	82.38
627.706	77.38
627.912	92.38
628.119	77.38
628.325	99.38
628.532	89.38
628.738	85.38
628.945	87.38
629.151	68.38
629.357	75.38
629.564	83.38
629.77	101.38
629.976	91.38
630.183	87.38
630.389	91.38
630.595	83.38
630.802	96.38
631.008	69.38
631.214	84.38
631.42	86.38
631.627	79.38
631.833	81.38
632.039	84.38
632.245	91.38
632.451	91.38
632.657	80.38
632.863	71.38
633.069	84.38
633.275	79.38
633.481	75.38
633.688	75.38
633.893	80.38
634.099	74.38
634.305	75.38
634.511	71.38
634.717	80.38
634.923	80.38
635.129	72.38
635.335	76.38
635.541	90.38
635.747	86.38
635.952	88.38
636.158	85.38
636.364	86.38
636.57	85.38
636.775	93.38
636.981	81.38
637.187	90.38
637.392	90.38
637.598	78.38
637.804	84.38
638.009	80.38
638.215	66.38
638.421	90.38
638.626	89.38
638.832	93.38
639.037	92.38
639.243	82.38
639.448	78.38
639.654	99.38
639.859	87.38
640.065	83.38
640.27	92.38
640.475	82.38
640.681	89.38
640.886	76.38
641.091	80.38
641.297	83.38
641.502	91.38
641.707	92.38
641.913	89.38
642.118	84.38
642.323	79.38
642.528	94.38
642.733	82.38
642.939	93.38
643.144	80.38
643.349	76.38
643.554	76.38
643.759	88.38
643.964	77.38
644.169	91.38
644.374	82.38
644.579	84.38
644.784	89.38
644.989	78.38
645.194	99.38
645.399	85.38
645.604	78.38
645.809	86.38
646.014	83.38
646.219	70.38
646.423	83.38
646.628	76.38
646.833	84.38
647.038	90.38
647.243	92.38
647.447	89.38
647.652	97.38
647.857	80.38
648.062	82.38
648.266	88.38
648.471	93.38
648.676	90.38
648.88	86.38
649.085	64.38
649.289	81.38
649.494	84.38
649.698	95.38
649.903	91.38
650.107	81.38
650.312	77.38
650.516	84.38
650.721	92.38
650.925	93.38
651.13	93.38
651.334	91.38
651.539	77.38
651.743	82.38
651.947	76.38
652.152	92.38
652.356	90.38
652.56	77.38
652.764	84.38
652.969	81.38
653.173	101.38
653.377	90.38
653.581	78.38
653.785	86.38
653.99	81.38
654.194	86.38
654.398	67.38
654.602	74.38
654.806	87.38
655.01	95.38
655.214	73.38
655.418	78.38
655.622	91.38
655.826	85.38
656.03	85.38
656.234	74.38
656.438	87.38
656.642	98.38
656.846	81.38
657.049	92.38
657.253	88.38
657.457	88.38
657.661	72.38
657.865	68.38
658.068	70.38
658.272	77.38
658.476	96.38
658.68	82.38
658.883	86.38
659.087	87.38
659.291	89.38
659.494	86.38
659.698	77.38
659.901	88.38
660.105	92.38
660.309	75.38
660.512	82.38
660.716	92.38
660.919	76.38
661.123	80.38
661.326	54.38
661.53	89.38
661.733	96.38
661.936	86.38
662.14	96.38
662.343	80.38
662.546	82.38
662.75	81.38
662.953	92.38
663.156	80.38
663.36	86.38
663.563	80.38
663.766	74.38
663.969	91.38
664.173	92.38
664.376	75.38
664.579	84.38
664.782	82.38
664.985	72.38
665.188	75.38
665.391	83.38
665.594	110.38
665.797	92.38
666	96.38
666.203	86.38
666.406	77.38
666.609	74.38
666.812	88.38
667.015	75.38
667.218	84.38
667.421	74.38
667.624	84.38
667.827	84.38
668.03	87.38
668.232	84.38
668.435	71.38
668.638	83.38
668.841	94.38
669.043	84.38
669.246	84.38
669.449	95.38
669.651	82.38
669.854	78.38
670.057	85.38
670.259	97.38
670.462	93.38
670.665	79.38
670.867	95.38
671.07	75.38
671.272	82.38
671.475	88.38
671.677	75.38
671.88	76.38
672.082	99.38
672.284	88.38
672.487	72.38
672.689	78.38
672.892	79.38
