Data from Lead_5_1_HRD10591_00036.txt Node
Date: Fri Feb 20 11:08:36 EST 2026
User: Yrep
Spectrometer: HR+D1059
Trigger mode: 1
Integration Time (sec): 1.000000E-1
Scans to average: 1
Electric dark correction enabled: true
Nonlinearity correction enabled: false
Boxcar width: 0
XAxis mode: Wavelengths
Number of Pixels in Spectrum: 2048
>>>>>Begin Spectral Data<<<<<
223.165	-18.62
223.4	-18.62
223.635	-18.62
223.869	-36.62
224.104	-12.62
224.338	-27.62
224.573	-15.62
224.808	-12.62
225.042	-0.62
225.277	5.38
225.511	-13.62
225.746	8.38
225.98	11.38
226.215	18.38
226.449	18.38
226.683	22.38
226.918	14.38
227.152	39.38
227.387	28.38
227.621	41.38
227.856	37.38
228.09	51.38
228.324	51.38
228.559	70.38
228.793	54.38
229.027	54.38
229.262	65.38
229.496	73.38
229.73	72.38
229.964	71.38
230.199	65.38
230.433	64.38
230.667	76.38
230.901	61.38
231.136	55.38
231.37	84.38
231.604	71.38
231.838	88.38
232.072	81.38
232.306	64.38
232.541	78.38
232.775	82.38
233.009	64.38
233.243	74.38
233.477	87.38
233.711	88.38
233.945	70.38
234.179	81.38
234.413	85.38
234.647	86.38
234.881	90.38
235.115	93.38
235.349	74.38
235.583	86.38
235.817	90.38
236.051	80.38
236.285	56.38
236.519	73.38
236.753	87.38
236.987	67.38
237.221	75.38
237.455	75.38
237.689	90.38
237.922	66.38
238.156	63.38
238.39	83.38
238.624	70.38
238.858	76.38
239.091	69.38
239.325	70.38
239.559	70.38
239.793	73.38
240.027	78.38
240.26	74.38
240.494	80.38
240.728	82.38
240.961	64.38
241.195	85.38
241.429	83.38
241.662	58.38
241.896	69.38
242.13	78.38
242.363	68.38
242.597	75.38
242.83	79.38
243.064	73.38
243.298	87.38
243.531	62.38
243.765	74.38
243.998	94.38
244.232	87.38
244.465	67.38
244.699	75.38
244.932	68.38
245.166	71.38
245.399	69.38
245.633	71.38
245.866	83.38
246.099	76.38
246.333	64.38
246.566	74.38
246.8	70.38
247.033	83.38
247.266	70.38
247.5	90.38
247.733	84.38
247.966	79.38
248.2	87.38
248.433	75.38
248.666	78.38
248.899	82.38
249.133	76.38
249.366	66.38
249.599	62.38
249.832	74.38
250.066	78.38
250.299	65.38
250.532	67.38
250.765	85.38
250.998	78.38
251.231	79.38
251.465	76.38
251.698	72.38
251.931	77.38
252.164	85.38
252.397	85.38
252.63	84.38
252.863	76.38
253.096	77.38
253.329	85.38
253.562	89.38
253.795	80.38
254.028	72.38
254.261	85.38
254.494	70.38
254.727	93.38
254.96	73.38
255.193	79.38
255.426	80.38
255.659	73.38
255.892	87.38
256.124	72.38
256.357	84.38
256.59	88.38
256.823	91.38
257.056	67.38
257.289	81.38
257.521	66.38
257.754	78.38
257.987	80.38
258.22	82.38
258.452	79.38
258.685	71.38
258.918	69.38
259.151	90.38
259.383	84.38
259.616	73.38
259.849	83.38
260.081	58.38
260.314	87.38
260.547	74.38
260.779	93.38
261.012	94.38
261.244	75.38
261.477	101.38
261.71	74.38
261.942	76.38
262.175	90.38
262.407	73.38
262.64	76.38
262.872	93.38
263.105	81.38
263.337	91.38
263.57	87.38
263.802	92.38
264.035	76.38
264.267	80.38
264.499	76.38
264.732	83.38
264.964	89.38
265.197	80.38
265.429	85.38
265.661	73.38
265.894	77.38
266.126	71.38
266.358	78.38
266.591	71.38
266.823	80.38
267.055	71.38
267.287	83.38
267.52	80.38
267.752	93.38
267.984	87.38
268.216	79.38
268.448	91.38
268.681	72.38
268.913	95.38
269.145	83.38
269.377	76.38
269.609	90.38
269.841	70.38
270.073	83.38
270.306	72.38
270.538	83.38
270.77	82.38
271.002	76.38
271.234	86.38
271.466	79.38
271.698	86.38
271.93	87.38
272.162	75.38
272.394	96.38
272.626	91.38
272.858	81.38
273.09	90.38
273.322	72.38
273.553	87.38
273.785	86.38
274.017	81.38
274.249	71.38
274.481	92.38
274.713	89.38
274.945	73.38
275.176	69.38
275.408	90.38
275.64	86.38
275.872	80.38
276.104	84.38
276.335	91.38
276.567	82.38
276.799	71.38
277.031	73.38
277.262	79.38
277.494	84.38
277.726	89.38
277.957	90.38
278.189	82.38
278.421	81.38
278.652	86.38
278.884	96.38
279.115	88.38
279.347	84.38
279.579	82.38
279.81	87.38
280.042	90.38
280.273	84.38
280.505	74.38
280.736	73.38
280.968	94.38
281.199	87.38
281.431	76.38
281.662	79.38
281.894	83.38
282.125	87.38
282.356	82.38
282.588	72.38
282.819	90.38
283.051	73.38
283.282	82.38
283.513	97.38
283.745	77.38
283.976	70.38
284.207	89.38
284.439	79.38
284.67	82.38
284.901	82.38
285.132	87.38
285.364	66.38
285.595	85.38
285.826	82.38
286.057	86.38
286.288	90.38
286.52	87.38
286.751	79.38
286.982	88.38
287.213	73.38
287.444	93.38
287.675	86.38
287.906	82.38
288.138	96.38
288.369	73.38
288.6	79.38
288.831	79.38
289.062	86.38
289.293	72.38
289.524	79.38
289.755	67.38
289.986	80.38
290.217	85.38
290.448	100.38
290.679	81.38
290.91	78.38
291.141	82.38
291.371	85.38
291.602	85.38
291.833	76.38
292.064	94.38
292.295	85.38
292.526	88.38
292.757	77.38
292.987	84.38
293.218	93.38
293.449	86.38
293.68	89.38
293.91	72.38
294.141	90.38
294.372	82.38
294.603	86.38
294.833	96.38
295.064	65.38
295.295	81.38
295.525	82.38
295.756	76.38
295.987	82.38
296.217	76.38
296.448	70.38
296.679	77.38
296.909	88.38
297.14	79.38
297.37	82.38
297.601	84.38
297.831	86.38
298.062	79.38
298.292	86.38
298.523	81.38
298.753	73.38
298.984	87.38
299.214	97.38
299.445	91.38
299.675	73.38
299.905	88.38
300.136	89.38
300.366	61.38
300.597	79.38
300.827	88.38
301.057	91.38
301.288	89.38
301.518	90.38
301.748	79.38
301.979	91.38
302.209	91.38
302.439	89.38
302.669	99.38
302.9	78.38
303.13	85.38
303.36	91.38
303.59	75.38
303.82	82.38
304.051	82.38
304.281	79.38
304.511	86.38
304.741	67.38
304.971	71.38
305.201	81.38
305.431	85.38
305.661	92.38
305.891	73.38
306.121	105.38
306.352	93.38
306.582	72.38
306.812	80.38
307.042	93.38
307.272	97.38
307.502	91.38
307.731	83.38
307.961	89.38
308.191	85.38
308.421	83.38
308.651	89.38
308.881	91.38
309.111	85.38
309.341	74.38
309.571	86.38
309.8	91.38
310.03	75.38
310.26	78.38
310.49	80.38
310.72	76.38
310.949	84.38
311.179	87.38
311.409	79.38
311.639	95.38
311.868	85.38
312.098	86.38
312.328	91.38
312.557	91.38
312.787	88.38
313.017	102.38
313.246	79.38
313.476	81.38
313.706	82.38
313.935	73.38
314.165	81.38
314.394	82.38
314.624	83.38
314.853	80.38
315.083	84.38
315.312	83.38
315.542	73.38
315.771	76.38
316.001	78.38
316.23	73.38
316.46	88.38
316.689	94.38
316.919	77.38
317.148	81.38
317.377	77.38
317.607	83.38
317.836	79.38
318.065	89.38
318.295	87.38
318.524	79.38
318.753	76.38
318.983	70.38
319.212	96.38
319.441	82.38
319.67	84.38
319.9	77.38
320.129	85.38
320.358	111.38
320.587	87.38
320.816	79.38
321.046	91.38
321.275	73.38
321.504	87.38
321.733	87.38
321.962	88.38
322.191	81.38
322.42	88.38
322.649	79.38
322.878	86.38
323.108	84.38
323.337	69.38
323.566	87.38
323.795	73.38
324.024	84.38
324.253	65.38
324.482	83.38
324.71	83.38
324.939	86.38
325.168	81.38
325.397	87.38
325.626	72.38
325.855	80.38
326.084	78.38
326.313	74.38
326.542	87.38
326.77	91.38
326.999	79.38
327.228	86.38
327.457	79.38
327.686	80.38
327.914	78.38
328.143	71.38
328.372	91.38
328.6	81.38
328.829	79.38
329.058	86.38
329.287	73.38
329.515	83.38
329.744	87.38
329.972	81.38
330.201	80.38
330.43	75.38
330.658	81.38
330.887	104.38
331.115	83.38
331.344	78.38
331.572	95.38
331.801	85.38
332.03	93.38
332.258	81.38
332.486	84.38
332.715	82.38
332.943	89.38
333.172	81.38
333.4	73.38
333.629	74.38
333.857	75.38
334.085	85.38
334.314	77.38
334.542	83.38
334.771	80.38
334.999	78.38
335.227	83.38
335.455	71.38
335.684	74.38
335.912	63.38
336.14	81.38
336.369	75.38
336.597	80.38
336.825	87.38
337.053	80.38
337.281	81.38
337.51	72.38
337.738	76.38
337.966	86.38
338.194	81.38
338.422	64.38
338.65	97.38
338.878	95.38
339.106	83.38
339.334	88.38
339.562	70.38
339.79	85.38
340.018	75.38
340.246	85.38
340.474	87.38
340.702	72.38
340.93	80.38
341.158	79.38
341.386	81.38
341.614	79.38
341.842	89.38
342.07	82.38
342.298	81.38
342.526	74.38
342.754	79.38
342.981	81.38
343.209	83.38
343.437	102.38
343.665	80.38
343.893	88.38
344.12	91.38
344.348	78.38
344.576	71.38
344.804	80.38
345.031	96.38
345.259	83.38
345.487	81.38
345.714	71.38
345.942	82.38
346.17	76.38
346.397	83.38
346.625	81.38
346.853	76.38
347.08	88.38
347.308	83.38
347.535	74.38
347.763	85.38
347.99	76.38
348.218	80.38
348.445	96.38
348.673	87.38
348.9	71.38
349.128	85.38
349.355	76.38
349.583	80.38
349.81	82.38
350.037	72.38
350.265	75.38
350.492	86.38
350.72	74.38
350.947	89.38
351.174	81.38
351.402	81.38
351.629	71.38
351.856	83.38
352.083	92.38
352.311	75.38
352.538	76.38
352.765	75.38
352.992	94.38
353.22	94.38
353.447	80.38
353.674	78.38
353.901	78.38
354.128	82.38
354.355	84.38
354.583	77.38
354.81	71.38
355.037	80.38
355.264	82.38
355.491	85.38
355.718	76.38
355.945	71.38
356.172	78.38
356.399	91.38
356.626	69.38
356.853	91.38
357.08	87.38
357.307	75.38
357.534	81.38
357.761	85.38
357.988	80.38
358.215	78.38
358.441	82.38
358.668	86.38
358.895	70.38
359.122	73.38
359.349	88.38
359.576	85.38
359.802	80.38
360.029	87.38
360.256	72.38
360.483	82.38
360.709	84.38
360.936	85.38
361.163	75.38
361.39	95.38
361.616	87.38
361.843	80.38
362.07	79.38
362.296	89.38
362.523	78.38
362.749	79.38
362.976	80.38
363.203	88.38
363.429	85.38
363.656	81.38
363.882	86.38
364.109	90.38
364.335	83.38
364.562	70.38
364.788	85.38
365.015	67.38
365.241	84.38
365.468	79.38
365.694	78.38
365.92	95.38
366.147	80.38
366.373	82.38
366.599	70.38
366.826	82.38
367.052	81.38
367.278	82.38
367.505	57.38
367.731	80.38
367.957	87.38
368.184	73.38
368.41	77.38
368.636	84.38
368.862	64.38
369.089	86.38
369.315	68.38
369.541	79.38
369.767	81.38
369.993	83.38
370.219	88.38
370.445	78.38
370.672	82.38
370.898	78.38
371.124	95.38
371.35	74.38
371.576	86.38
371.802	84.38
372.028	77.38
372.254	86.38
372.48	69.38
372.706	82.38
372.932	78.38
373.158	73.38
373.384	90.38
373.61	69.38
373.835	62.38
374.061	77.38
374.287	88.38
374.513	71.38
374.739	90.38
374.965	75.38
375.191	76.38
375.416	77.38
375.642	78.38
375.868	94.38
376.094	90.38
376.319	85.38
376.545	77.38
376.771	92.38
376.997	78.38
377.222	78.38
377.448	80.38
377.674	80.38
377.899	86.38
378.125	80.38
378.35	74.38
378.576	81.38
378.802	90.38
379.027	87.38
379.253	83.38
379.478	73.38
379.704	79.38
379.929	83.38
380.155	100.38
380.38	77.38
380.606	83.38
380.831	69.38
381.057	85.38
381.282	78.38
381.507	88.38
381.733	70.38
381.958	81.38
382.184	87.38
382.409	79.38
382.634	74.38
382.86	71.38
383.085	79.38
383.31	74.38
383.535	70.38
383.761	73.38
383.986	75.38
384.211	74.38
384.436	80.38
384.662	81.38
384.887	75.38
385.112	71.38
385.337	87.38
385.562	90.38
385.787	82.38
386.013	72.38
386.238	96.38
386.463	82.38
386.688	98.38
386.913	83.38
387.138	86.38
387.363	67.38
387.588	85.38
387.813	81.38
388.038	82.38
388.263	80.38
388.488	81.38
388.713	86.38
388.938	73.38
389.163	79.38
389.387	80.38
389.612	79.38
389.837	71.38
390.062	68.38
390.287	78.38
390.512	76.38
390.736	93.38
390.961	70.38
391.186	68.38
391.411	70.38
391.636	82.38
391.86	89.38
392.085	74.38
392.31	90.38
392.534	72.38
392.759	72.38
392.984	80.38
393.208	86.38
393.433	83.38
393.658	91.38
393.882	63.38
394.107	77.38
394.331	69.38
394.556	76.38
394.78	82.38
395.005	71.38
395.229	85.38
395.454	85.38
395.678	82.38
395.903	72.38
396.127	71.38
396.352	84.38
396.576	72.38
396.801	75.38
397.025	79.38
397.249	87.38
397.474	85.38
397.698	80.38
397.922	71.38
398.147	88.38
398.371	71.38
398.595	75.38
398.82	71.38
399.044	54.38
399.268	80.38
399.492	93.38
399.717	71.38
399.941	66.38
400.165	72.38
400.389	93.38
400.613	73.38
400.837	100.38
401.062	84.38
401.286	76.38
401.51	68.38
401.734	87.38
401.958	71.38
402.182	77.38
402.406	87.38
402.63	74.38
402.854	76.38
403.078	81.38
403.302	80.38
403.526	87.38
403.75	69.38
403.974	83.38
404.198	88.38
404.422	74.38
404.645	69.38
404.869	87.38
405.093	74.38
405.317	76.38
405.541	73.38
405.765	77.38
405.988	75.38
406.212	80.38
406.436	71.38
406.66	73.38
406.883	85.38
407.107	67.38
407.331	71.38
407.555	86.38
407.778	73.38
408.002	72.38
408.226	73.38
408.449	71.38
408.673	80.38
408.896	85.38
409.12	68.38
409.344	62.38
409.567	90.38
409.791	91.38
410.014	80.38
410.238	73.38
410.461	66.38
410.685	87.38
410.908	75.38
411.132	58.38
411.355	79.38
411.578	76.38
411.802	71.38
412.025	64.38
412.249	82.38
412.472	70.38
412.695	73.38
412.919	78.38
413.142	75.38
413.365	72.38
413.589	88.38
413.812	83.38
414.035	83.38
414.258	90.38
414.482	67.38
414.705	79.38
414.928	85.38
415.151	70.38
415.374	78.38
415.597	77.38
415.821	85.38
416.044	75.38
416.267	85.38
416.49	73.38
416.713	77.38
416.936	84.38
417.159	91.38
417.382	79.38
417.605	98.38
417.828	85.38
418.051	75.38
418.274	66.38
418.497	69.38
418.72	88.38
418.943	95.38
419.166	75.38
419.389	79.38
419.611	76.38
419.834	78.38
420.057	90.38
420.28	81.38
420.503	72.38
420.726	84.38
420.948	80.38
421.171	78.38
421.394	75.38
421.617	75.38
421.839	78.38
422.062	77.38
422.285	72.38
422.507	73.38
422.73	75.38
422.953	81.38
423.175	75.38
423.398	73.38
423.621	83.38
423.843	87.38
424.066	69.38
424.288	78.38
424.511	67.38
424.733	89.38
424.956	64.38
425.178	86.38
425.401	74.38
425.623	89.38
425.846	73.38
426.068	68.38
426.291	84.38
426.513	72.38
426.735	73.38
426.958	68.38
427.18	91.38
427.402	68.38
427.625	77.38
427.847	75.38
428.069	82.38
428.292	88.38
428.514	81.38
428.736	80.38
428.958	78.38
429.181	88.38
429.403	79.38
429.625	88.38
429.847	54.38
430.069	63.38
430.292	74.38
430.514	81.38
430.736	79.38
430.958	75.38
431.18	84.38
431.402	73.38
431.624	74.38
431.846	94.38
432.068	69.38
432.29	88.38
432.512	74.38
432.734	75.38
432.956	90.38
433.178	76.38
433.4	90.38
433.622	85.38
433.844	71.38
434.066	69.38
434.287	68.38
434.509	74.38
434.731	97.38
434.953	90.38
435.175	84.38
435.397	87.38
435.618	95.38
435.84	69.38
436.062	74.38
436.284	67.38
436.505	83.38
436.727	88.38
436.949	77.38
437.17	70.38
437.392	92.38
437.614	76.38
437.835	88.38
438.057	79.38
438.278	86.38
438.5	72.38
438.721	75.38
438.943	86.38
439.165	88.38
439.386	78.38
439.608	78.38
439.829	87.38
440.05	96.38
440.272	75.38
440.493	79.38
440.715	88.38
440.936	83.38
441.158	83.38
441.379	87.38
441.6	69.38
441.822	79.38
442.043	83.38
442.264	78.38
442.486	83.38
442.707	79.38
442.928	69.38
443.149	86.38
443.371	87.38
443.592	76.38
443.813	87.38
444.034	66.38
444.255	74.38
444.476	82.38
444.698	71.38
444.919	77.38
445.14	137.38
445.361	117.38
445.582	91.38
445.803	70.38
446.024	80.38
446.245	82.38
446.466	78.38
446.687	73.38
446.908	72.38
447.129	76.38
447.35	85.38
447.571	81.38
447.792	76.38
448.013	80.38
448.234	72.38
448.455	67.38
448.675	70.38
448.896	78.38
449.117	79.38
449.338	82.38
449.559	94.38
449.779	77.38
450	76.38
450.221	74.38
450.442	72.38
450.662	73.38
450.883	61.38
451.104	90.38
451.324	77.38
451.545	80.38
451.766	77.38
451.986	85.38
452.207	84.38
452.428	84.38
452.648	80.38
452.869	85.38
453.089	80.38
453.31	69.38
453.53	77.38
453.751	76.38
453.971	78.38
454.192	81.38
454.412	83.38
454.633	85.38
454.853	81.38
455.073	85.38
455.294	80.38
455.514	83.38
455.734	82.38
455.955	73.38
456.175	82.38
456.395	81.38
456.616	75.38
456.836	81.38
457.056	77.38
457.276	70.38
457.497	77.38
457.717	70.38
457.937	81.38
458.157	76.38
458.377	86.38
458.598	71.38
458.818	69.38
459.038	79.38
459.258	66.38
459.478	79.38
459.698	83.38
459.918	97.38
460.138	71.38
460.358	66.38
460.578	71.38
460.798	81.38
461.018	95.38
461.238	75.38
461.458	75.38
461.678	92.38
461.898	68.38
462.118	82.38
462.338	84.38
462.558	91.38
462.777	73.38
462.997	74.38
463.217	79.38
463.437	78.38
463.657	78.38
463.876	86.38
464.096	81.38
464.316	80.38
464.536	98.38
464.755	77.38
464.975	89.38
465.195	77.38
465.414	89.38
465.634	89.38
465.854	79.38
466.073	89.38
466.293	82.38
466.512	72.38
466.732	78.38
466.951	76.38
467.171	80.38
467.391	62.38
467.61	71.38
467.829	70.38
468.049	68.38
468.268	86.38
468.488	81.38
468.707	74.38
468.927	65.38
469.146	66.38
469.365	90.38
469.585	89.38
469.804	85.38
470.023	81.38
470.243	67.38
470.462	87.38
470.681	78.38
470.901	87.38
471.12	83.38
471.339	87.38
471.558	81.38
471.777	80.38
471.997	72.38
472.216	87.38
472.435	66.38
472.654	84.38
472.873	89.38
473.092	101.38
473.311	78.38
473.53	69.38
473.749	67.38
473.968	78.38
474.187	73.38
474.406	71.38
474.625	89.38
474.844	86.38
475.063	83.38
475.282	82.38
475.501	87.38
475.72	83.38
475.939	81.38
476.158	67.38
476.377	81.38
476.596	73.38
476.814	81.38
477.033	76.38
477.252	84.38
477.471	75.38
477.69	77.38
477.908	65.38
478.127	76.38
478.346	78.38
478.564	81.38
478.783	66.38
479.002	80.38
479.22	68.38
479.439	77.38
479.658	77.38
479.876	69.38
480.095	81.38
480.313	72.38
480.532	87.38
480.751	84.38
480.969	79.38
481.188	82.38
481.406	76.38
481.624	83.38
481.843	78.38
482.061	78.38
482.28	81.38
482.498	80.38
482.717	85.38
482.935	74.38
483.153	74.38
483.372	82.38
483.59	84.38
483.808	64.38
484.027	75.38
484.245	90.38
484.463	74.38
484.681	94.38
484.9	58.38
485.118	83.38
485.336	84.38
485.554	87.38
485.772	73.38
485.99	73.38
486.209	76.38
486.427	74.38
486.645	84.38
486.863	59.38
487.081	79.38
487.299	72.38
487.517	75.38
487.735	86.38
487.953	81.38
488.171	81.38
488.389	84.38
488.607	73.38
488.825	82.38
489.043	70.38
489.261	79.38
489.479	91.38
489.696	72.38
489.914	66.38
490.132	90.38
490.35	83.38
490.568	91.38
490.786	102.38
491.003	84.38
491.221	73.38
491.439	83.38
491.657	94.38
491.874	97.38
492.092	90.38
492.31	88.38
492.527	76.38
492.745	78.38
492.963	79.38
493.18	63.38
493.398	78.38
493.615	68.38
493.833	70.38
494.05	86.38
494.268	71.38
494.485	67.38
494.703	84.38
494.92	80.38
495.138	96.38
495.355	76.38
495.573	89.38
495.79	68.38
496.008	77.38
496.225	78.38
496.442	72.38
496.66	63.38
496.877	83.38
497.094	64.38
497.312	84.38
497.529	65.38
497.746	86.38
497.963	64.38
498.181	85.38
498.398	77.38
498.615	79.38
498.832	89.38
499.049	76.38
499.267	87.38
499.484	67.38
499.701	69.38
499.918	67.38
500.135	70.38
500.352	87.38
500.569	73.38
500.786	88.38
501.003	79.38
501.22	78.38
501.437	79.38
501.654	81.38
501.871	87.38
502.088	78.38
502.305	76.38
502.522	85.38
502.739	65.38
502.956	99.38
503.172	79.38
503.389	70.38
503.606	79.38
503.823	79.38
504.04	82.38
504.256	77.38
504.473	79.38
504.69	83.38
504.907	85.38
505.123	80.38
505.34	86.38
505.557	87.38
505.773	85.38
505.99	88.38
506.207	82.38
506.423	90.38
506.64	75.38
506.856	73.38
507.073	83.38
507.289	89.38
507.506	74.38
507.722	86.38
507.939	80.38
508.155	89.38
508.372	81.38
508.588	94.38
508.805	95.38
509.021	69.38
509.238	83.38
509.454	78.38
509.67	89.38
509.887	93.38
510.103	73.38
510.319	78.38
510.536	73.38
510.752	74.38
510.968	70.38
511.184	59.38
511.401	82.38
511.617	92.38
511.833	85.38
512.049	73.38
512.265	89.38
512.481	86.38
512.698	96.38
512.914	90.38
513.13	87.38
513.346	91.38
513.562	74.38
513.778	68.38
513.994	91.38
514.21	74.38
514.426	90.38
514.642	71.38
514.858	95.38
515.074	82.38
515.29	91.38
515.506	80.38
515.721	81.38
515.937	84.38
516.153	77.38
516.369	80.38
516.585	66.38
516.801	82.38
517.016	82.38
517.232	84.38
517.448	83.38
517.664	73.38
517.879	86.38
518.095	75.38
518.311	67.38
518.527	83.38
518.742	89.38
518.958	81.38
519.173	81.38
519.389	98.38
519.605	86.38
519.82	74.38
520.036	80.38
520.251	82.38
520.467	78.38
520.682	69.38
520.898	65.38
521.113	79.38
521.329	95.38
521.544	76.38
521.76	85.38
521.975	90.38
522.19	79.38
522.406	87.38
522.621	75.38
522.836	84.38
523.052	84.38
523.267	77.38
523.482	86.38
523.698	82.38
523.913	81.38
524.128	74.38
524.343	84.38
524.559	81.38
524.774	84.38
524.989	82.38
525.204	99.38
525.419	94.38
525.634	81.38
525.849	85.38
526.064	75.38
526.28	88.38
526.495	90.38
526.71	57.38
526.925	78.38
527.14	73.38
527.355	84.38
527.57	90.38
527.785	80.38
527.999	81.38
528.214	79.38
528.429	85.38
528.644	75.38
528.859	73.38
529.074	94.38
529.289	85.38
529.503	87.38
529.718	102.38
529.933	87.38
530.148	80.38
530.363	90.38
530.577	67.38
530.792	83.38
531.007	75.38
531.221	79.38
531.436	80.38
531.651	69.38
531.865	86.38
532.08	70.38
532.295	72.38
532.509	70.38
532.724	79.38
532.938	81.38
533.153	87.38
533.367	96.38
533.582	89.38
533.796	78.38
534.011	74.38
534.225	75.38
534.44	84.38
534.654	80.38
534.868	72.38
535.083	71.38
535.297	81.38
535.511	75.38
535.726	79.38
535.94	85.38
536.154	81.38
536.369	74.38
536.583	75.38
536.797	78.38
537.011	70.38
537.225	86.38
537.44	94.38
537.654	102.38
537.868	82.38
538.082	67.38
538.296	84.38
538.51	69.38
538.724	73.38
538.938	97.38
539.153	75.38
539.367	89.38
539.581	88.38
539.795	81.38
540.009	87.38
540.222	89.38
540.436	78.38
540.65	77.38
540.864	75.38
541.078	83.38
541.292	96.38
541.506	76.38
541.72	74.38
541.934	69.38
542.147	82.38
542.361	75.38
542.575	89.38
542.789	89.38
543.002	82.38
543.216	77.38
543.43	90.38
543.644	80.38
543.857	72.38
544.071	74.38
544.285	96.38
544.498	79.38
544.712	83.38
544.925	78.38
545.139	88.38
545.352	79.38
545.566	89.38
545.779	82.38
545.993	83.38
546.206	83.38
546.42	81.38
546.633	81.38
546.847	97.38
547.06	88.38
547.274	91.38
547.487	94.38
547.7	96.38
547.914	81.38
548.127	89.38
548.34	74.38
548.554	77.38
548.767	87.38
548.98	89.38
549.193	102.38
549.407	93.38
549.62	76.38
549.833	86.38
550.046	79.38
550.259	87.38
550.473	81.38
550.686	96.38
550.899	72.38
551.112	84.38
551.325	79.38
551.538	76.38
551.751	89.38
551.964	95.38
552.177	76.38
552.39	79.38
552.603	71.38
552.816	76.38
553.029	73.38
553.242	72.38
553.455	91.38
553.667	85.38
553.88	86.38
554.093	81.38
554.306	85.38
554.519	87.38
554.732	67.38
554.944	84.38
555.157	89.38
555.37	98.38
555.583	90.38
555.795	88.38
556.008	95.38
556.221	85.38
556.433	90.38
556.646	78.38
556.859	94.38
557.071	86.38
557.284	87.38
557.496	69.38
557.709	61.38
557.921	86.38
558.134	93.38
558.346	77.38
558.559	81.38
558.771	73.38
558.984	83.38
559.196	78.38
559.409	81.38
559.621	85.38
559.833	88.38
560.046	93.38
560.258	89.38
560.47	81.38
560.683	79.38
560.895	83.38
561.107	82.38
561.32	75.38
561.532	77.38
561.744	69.38
561.956	79.38
562.168	93.38
562.381	68.38
562.593	87.38
562.805	88.38
563.017	96.38
563.229	89.38
563.441	91.38
563.653	88.38
563.865	83.38
564.077	83.38
564.289	80.38
564.501	72.38
564.713	83.38
564.925	85.38
565.137	87.38
565.349	95.38
565.561	90.38
565.773	88.38
565.985	87.38
566.197	82.38
566.408	80.38
566.62	74.38
566.832	74.38
567.044	78.38
567.255	86.38
567.467	91.38
567.679	89.38
567.891	72.38
568.102	72.38
568.314	88.38
568.526	91.38
568.737	86.38
568.949	96.38
569.161	81.38
569.372	77.38
569.584	67.38
569.795	93.38
570.007	92.38
570.218	90.38
570.43	89.38
570.641	82.38
570.853	86.38
571.064	76.38
571.276	75.38
571.487	98.38
571.698	85.38
571.91	79.38
572.121	73.38
572.333	88.38
572.544	85.38
572.755	80.38
572.966	87.38
573.178	71.38
573.389	73.38
573.6	74.38
573.811	80.38
574.023	89.38
574.234	77.38
574.445	70.38
574.656	86.38
574.867	83.38
575.078	82.38
575.289	94.38
575.501	81.38
575.712	83.38
575.923	90.38
576.134	84.38
576.345	85.38
576.556	87.38
576.767	99.38
576.978	82.38
577.188	76.38
577.399	86.38
577.61	80.38
577.821	94.38
578.032	72.38
578.243	93.38
578.454	87.38
578.665	82.38
578.875	87.38
579.086	83.38
579.297	75.38
579.508	83.38
579.718	86.38
579.929	96.38
580.14	82.38
580.35	83.38
580.561	89.38
580.772	86.38
580.982	76.38
581.193	76.38
581.403	81.38
581.614	86.38
581.825	75.38
582.035	79.38
582.246	80.38
582.456	82.38
582.667	88.38
582.877	81.38
583.087	81.38
583.298	79.38
583.508	91.38
583.719	81.38
583.929	82.38
584.139	89.38
584.35	80.38
584.56	91.38
584.77	82.38
584.981	83.38
585.191	78.38
585.401	89.38
585.611	69.38
585.821	79.38
586.032	84.38
586.242	81.38
586.452	78.38
586.662	82.38
586.872	93.38
587.082	73.38
587.292	77.38
587.502	78.38
587.713	74.38
587.923	79.38
588.133	75.38
588.343	89.38
588.553	82.38
588.762	85.38
588.972	80.38
589.182	98.38
589.392	97.38
589.602	85.38
589.812	75.38
590.022	90.38
590.232	78.38
590.441	94.38
590.651	86.38
590.861	93.38
591.071	76.38
591.281	90.38
591.49	80.38
591.7	84.38
591.91	88.38
592.119	82.38
592.329	70.38
592.539	49.38
592.748	97.38
592.958	96.38
593.167	70.38
593.377	86.38
593.587	83.38
593.796	86.38
594.006	83.38
594.215	89.38
594.424	66.38
594.634	79.38
594.843	97.38
595.053	81.38
595.262	94.38
595.472	81.38
595.681	94.38
595.89	78.38
596.1	85.38
596.309	81.38
596.518	91.38
596.727	83.38
596.937	82.38
597.146	80.38
597.355	87.38
597.564	75.38
597.774	74.38
597.983	78.38
598.192	81.38
598.401	94.38
598.61	91.38
598.819	102.38
599.028	89.38
599.237	86.38
599.446	94.38
599.655	92.38
599.864	80.38
600.073	74.38
600.282	79.38
600.491	85.38
600.7	76.38
600.909	95.38
601.118	94.38
601.327	87.38
601.536	94.38
601.745	72.38
601.953	96.38
602.162	77.38
602.371	76.38
602.58	87.38
602.789	80.38
602.997	82.38
603.206	84.38
603.415	73.38
603.623	81.38
603.832	71.38
604.041	91.38
604.249	79.38
604.458	82.38
604.666	76.38
604.875	94.38
605.084	69.38
605.292	74.38
605.501	92.38
605.709	82.38
605.918	93.38
606.126	85.38
606.334	81.38
606.543	86.38
606.751	80.38
606.96	73.38
607.168	90.38
607.376	81.38
607.585	74.38
607.793	82.38
608.001	83.38
608.21	83.38
608.418	75.38
608.626	80.38
608.834	78.38
609.043	76.38
609.251	83.38
609.459	77.38
609.667	89.38
609.875	69.38
610.083	70.38
610.291	80.38
610.499	77.38
610.707	83.38
610.916	82.38
611.124	86.38
611.332	89.38
611.54	82.38
611.748	70.38
611.955	83.38
612.163	79.38
612.371	96.38
612.579	86.38
612.787	79.38
612.995	85.38
613.203	83.38
613.411	87.38
613.618	78.38
613.826	66.38
614.034	85.38
614.242	76.38
614.449	79.38
614.657	90.38
614.865	87.38
615.072	71.38
615.28	81.38
615.488	79.38
615.695	83.38
615.903	75.38
616.111	75.38
616.318	94.38
616.526	77.38
616.733	83.38
616.941	83.38
617.148	89.38
617.356	79.38
617.563	82.38
617.771	76.38
617.978	68.38
618.185	77.38
618.393	92.38
618.6	83.38
618.807	79.38
619.015	86.38
619.222	66.38
619.429	67.38
619.637	74.38
619.844	79.38
620.051	81.38
620.258	73.38
620.466	70.38
620.673	69.38
620.88	74.38
621.087	79.38
621.294	79.38
621.501	93.38
621.708	85.38
621.915	81.38
622.122	85.38
622.329	94.38
622.536	76.38
622.743	87.38
622.95	82.38
623.157	76.38
623.364	85.38
623.571	72.38
623.778	82.38
623.985	83.38
624.192	71.38
624.399	80.38
624.606	89.38
624.812	81.38
625.019	66.38
625.226	93.38
625.433	81.38
625.639	78.38
625.846	78.38
626.053	85.38
626.259	88.38
626.466	75.38
626.673	87.38
626.879	79.38
627.086	70.38
627.293	81.38
627.499	75.38
627.706	73.38
627.912	80.38
628.119	85.38
628.325	80.38
628.532	73.38
628.738	85.38
628.945	74.38
629.151	75.38
629.357	90.38
629.564	79.38
629.77	85.38
629.976	93.38
630.183	70.38
630.389	62.38
630.595	76.38
630.802	87.38
631.008	100.38
631.214	78.38
631.42	80.38
631.627	83.38
631.833	82.38
632.039	87.38
632.245	75.38
632.451	74.38
632.657	74.38
632.863	80.38
633.069	86.38
633.275	82.38
633.481	91.38
633.688	90.38
633.893	80.38
634.099	87.38
634.305	81.38
634.511	77.38
634.717	79.38
634.923	82.38
635.129	75.38
635.335	76.38
635.541	83.38
635.747	73.38
635.952	68.38
636.158	77.38
636.364	61.38
636.57	73.38
636.775	81.38
636.981	93.38
637.187	74.38
637.392	89.38
637.598	83.38
637.804	77.38
638.009	85.38
638.215	71.38
638.421	83.38
638.626	87.38
638.832	78.38
639.037	78.38
639.243	65.38
639.448	87.38
639.654	79.38
639.859	82.38
640.065	62.38
640.27	87.38
640.475	78.38
640.681	90.38
640.886	82.38
641.091	82.38
641.297	89.38
641.502	74.38
641.707	74.38
641.913	82.38
642.118	80.38
642.323	87.38
642.528	87.38
642.733	88.38
642.939	93.38
643.144	71.38
643.349	82.38
643.554	90.38
643.759	79.38
643.964	74.38
644.169	87.38
644.374	84.38
644.579	95.38
644.784	81.38
644.989	78.38
645.194	85.38
645.399	87.38
645.604	75.38
645.809	78.38
646.014	77.38
646.219	79.38
646.423	88.38
646.628	85.38
646.833	89.38
647.038	87.38
647.243	93.38
647.447	66.38
647.652	80.38
647.857	101.38
648.062	91.38
648.266	72.38
648.471	80.38
648.676	82.38
648.88	81.38
649.085	72.38
649.289	87.38
649.494	90.38
649.698	80.38
649.903	80.38
650.107	82.38
650.312	86.38
650.516	78.38
650.721	76.38
650.925	87.38
651.13	66.38
651.334	81.38
651.539	85.38
651.743	64.38
651.947	82.38
652.152	85.38
652.356	93.38
652.56	88.38
652.764	83.38
652.969	82.38
653.173	85.38
653.377	84.38
653.581	76.38
653.785	85.38
653.99	81.38
654.194	73.38
654.398	69.38
654.602	78.38
654.806	65.38
655.01	73.38
655.214	85.38
655.418	76.38
655.622	75.38
655.826	71.38
656.03	73.38
656.234	78.38
656.438	72.38
656.642	81.38
656.846	78.38
657.049	63.38
657.253	64.38
657.457	79.38
657.661	79.38
657.865	86.38
658.068	89.38
658.272	72.38
658.476	72.38
658.68	76.38
658.883	74.38
659.087	81.38
659.291	83.38
659.494	78.38
659.698	66.38
659.901	72.38
660.105	63.38
660.309	88.38
660.512	77.38
660.716	86.38
660.919	75.38
661.123	84.38
661.326	79.38
661.53	86.38
661.733	84.38
661.936	85.38
662.14	83.38
662.343	85.38
662.546	75.38
662.75	88.38
662.953	75.38
663.156	95.38
663.36	87.38
663.563	74.38
663.766	78.38
663.969	84.38
664.173	92.38
664.376	71.38
664.579	80.38
664.782	81.38
664.985	84.38
665.188	88.38
665.391	91.38
665.594	89.38
665.797	84.38
666	87.38
666.203	76.38
666.406	75.38
666.609	70.38
666.812	81.38
667.015	71.38
667.218	73.38
667.421	86.38
667.624	65.38
667.827	79.38
668.03	81.38
668.232	91.38
668.435	81.38
668.638	78.38
668.841	81.38
669.043	74.38
669.246	75.38
669.449	68.38
669.651	74.38
669.854	89.38
670.057	67.38
670.259	85.38
670.462	79.38
670.665	73.38
670.867	79.38
671.07	84.38
671.272	81.38
671.475	94.38
671.677	81.38
671.88	73.38
672.082	79.38
672.284	81.38
672.487	80.38
672.689	86.38
672.892	82.38
