Data from Lead_5_1_HRD10591_00057.txt Node
Date: Fri Feb 20 11:08:43 EST 2026
User: Yrep
Spectrometer: HR+D1059
Trigger mode: 1
Integration Time (sec): 1.000000E-1
Scans to average: 1
Electric dark correction enabled: true
Nonlinearity correction enabled: false
Boxcar width: 0
XAxis mode: Wavelengths
Number of Pixels in Spectrum: 2048
>>>>>Begin Spectral Data<<<<<
223.165	-11.88
223.4	-11.88
223.635	-11.88
223.869	-30.88
224.104	-26.88
224.338	-18.88
224.573	-20.88
224.808	-8.88
225.042	-3.88
225.277	-8.88
225.511	-2.88
225.746	3.12
225.98	7.12
226.215	10.12
226.449	16.12
226.683	24.12
226.918	33.12
227.152	40.12
227.387	46.12
227.621	35.12
227.856	49.12
228.09	51.12
228.324	48.12
228.559	61.12
228.793	60.12
229.027	67.12
229.262	69.12
229.496	64.12
229.73	66.12
229.964	76.12
230.199	62.12
230.433	56.12
230.667	74.12
230.901	66.12
231.136	77.12
231.37	90.12
231.604	83.12
231.838	80.12
232.072	83.12
232.306	83.12
232.541	80.12
232.775	99.12
233.009	80.12
233.243	72.12
233.477	90.12
233.711	96.12
233.945	77.12
234.179	96.12
234.413	79.12
234.647	73.12
234.881	85.12
235.115	65.12
235.349	76.12
235.583	77.12
235.817	80.12
236.051	81.12
236.285	82.12
236.519	88.12
236.753	86.12
236.987	69.12
237.221	83.12
237.455	88.12
237.689	76.12
237.922	74.12
238.156	85.12
238.39	91.12
238.624	75.12
238.858	73.12
239.091	74.12
239.325	78.12
239.559	67.12
239.793	77.12
240.027	81.12
240.26	86.12
240.494	88.12
240.728	85.12
240.961	79.12
241.195	84.12
241.429	82.12
241.662	68.12
241.896	77.12
242.13	93.12
242.363	81.12
242.597	65.12
242.83	80.12
243.064	86.12
243.298	87.12
243.531	74.12
243.765	72.12
243.998	89.12
244.232	88.12
244.465	76.12
244.699	81.12
244.932	80.12
245.166	67.12
245.399	84.12
245.633	73.12
245.866	64.12
246.099	73.12
246.333	72.12
246.566	82.12
246.8	70.12
247.033	81.12
247.266	80.12
247.5	78.12
247.733	82.12
247.966	94.12
248.2	84.12
248.433	78.12
248.666	89.12
248.899	84.12
249.133	93.12
249.366	90.12
249.599	78.12
249.832	83.12
250.066	92.12
250.299	82.12
250.532	83.12
250.765	89.12
250.998	73.12
251.231	82.12
251.465	89.12
251.698	75.12
251.931	73.12
252.164	87.12
252.397	71.12
252.63	80.12
252.863	79.12
253.096	70.12
253.329	91.12
253.562	89.12
253.795	81.12
254.028	77.12
254.261	83.12
254.494	88.12
254.727	90.12
254.96	92.12
255.193	76.12
255.426	72.12
255.659	85.12
255.892	89.12
256.124	66.12
256.357	65.12
256.59	80.12
256.823	85.12
257.056	88.12
257.289	82.12
257.521	84.12
257.754	77.12
257.987	82.12
258.22	79.12
258.452	59.12
258.685	81.12
258.918	90.12
259.151	75.12
259.383	79.12
259.616	77.12
259.849	75.12
260.081	79.12
260.314	84.12
260.547	72.12
260.779	91.12
261.012	68.12
261.244	77.12
261.477	77.12
261.71	83.12
261.942	95.12
262.175	92.12
262.407	86.12
262.64	72.12
262.872	78.12
263.105	85.12
263.337	88.12
263.57	73.12
263.802	87.12
264.035	77.12
264.267	86.12
264.499	85.12
264.732	95.12
264.964	78.12
265.197	84.12
265.429	72.12
265.661	96.12
265.894	83.12
266.126	98.12
266.358	109.12
266.591	75.12
266.823	87.12
267.055	82.12
267.287	97.12
267.52	79.12
267.752	78.12
267.984	87.12
268.216	83.12
268.448	76.12
268.681	74.12
268.913	78.12
269.145	93.12
269.377	91.12
269.609	76.12
269.841	89.12
270.073	89.12
270.306	87.12
270.538	99.12
270.77	86.12
271.002	81.12
271.234	91.12
271.466	86.12
271.698	80.12
271.93	85.12
272.162	89.12
272.394	87.12
272.626	81.12
272.858	94.12
273.09	75.12
273.322	69.12
273.553	69.12
273.785	85.12
274.017	95.12
274.249	80.12
274.481	85.12
274.713	92.12
274.945	86.12
275.176	88.12
275.408	84.12
275.64	91.12
275.872	73.12
276.104	73.12
276.335	96.12
276.567	86.12
276.799	93.12
277.031	87.12
277.262	78.12
277.494	85.12
277.726	88.12
277.957	83.12
278.189	94.12
278.421	84.12
278.652	88.12
278.884	82.12
279.115	85.12
279.347	88.12
279.579	108.12
279.81	87.12
280.042	80.12
280.273	92.12
280.505	99.12
280.736	88.12
280.968	77.12
281.199	96.12
281.431	99.12
281.662	81.12
281.894	76.12
282.125	80.12
282.356	89.12
282.588	97.12
282.819	82.12
283.051	79.12
283.282	107.12
283.513	91.12
283.745	88.12
283.976	77.12
284.207	93.12
284.439	83.12
284.67	97.12
284.901	95.12
285.132	85.12
285.364	83.12
285.595	95.12
285.826	74.12
286.057	72.12
286.288	71.12
286.52	75.12
286.751	89.12
286.982	81.12
287.213	81.12
287.444	89.12
287.675	88.12
287.906	84.12
288.138	79.12
288.369	91.12
288.6	88.12
288.831	84.12
289.062	93.12
289.293	91.12
289.524	77.12
289.755	91.12
289.986	73.12
290.217	76.12
290.448	91.12
290.679	91.12
290.91	91.12
291.141	99.12
291.371	97.12
291.602	88.12
291.833	100.12
292.064	88.12
292.295	88.12
292.526	98.12
292.757	78.12
292.987	88.12
293.218	69.12
293.449	89.12
293.68	89.12
293.91	83.12
294.141	99.12
294.372	90.12
294.603	90.12
294.833	91.12
295.064	91.12
295.295	79.12
295.525	77.12
295.756	90.12
295.987	83.12
296.217	89.12
296.448	83.12
296.679	74.12
296.909	81.12
297.14	103.12
297.37	101.12
297.601	95.12
297.831	77.12
298.062	98.12
298.292	99.12
298.523	109.12
298.753	107.12
298.984	101.12
299.214	85.12
299.445	96.12
299.675	86.12
299.905	81.12
300.136	95.12
300.366	70.12
300.597	86.12
300.827	78.12
301.057	82.12
301.288	87.12
301.518	92.12
301.748	95.12
301.979	101.12
302.209	83.12
302.439	96.12
302.669	85.12
302.9	85.12
303.13	83.12
303.36	85.12
303.59	96.12
303.82	91.12
304.051	88.12
304.281	96.12
304.511	96.12
304.741	99.12
304.971	89.12
305.201	87.12
305.431	86.12
305.661	75.12
305.891	89.12
306.121	88.12
306.352	84.12
306.582	88.12
306.812	91.12
307.042	78.12
307.272	82.12
307.502	86.12
307.731	91.12
307.961	96.12
308.191	97.12
308.421	89.12
308.651	85.12
308.881	77.12
309.111	104.12
309.341	85.12
309.571	92.12
309.8	97.12
310.03	89.12
310.26	87.12
310.49	95.12
310.72	87.12
310.949	92.12
311.179	96.12
311.409	86.12
311.639	93.12
311.868	85.12
312.098	96.12
312.328	89.12
312.557	93.12
312.787	81.12
313.017	86.12
313.246	91.12
313.476	90.12
313.706	95.12
313.935	101.12
314.165	86.12
314.394	91.12
314.624	106.12
314.853	75.12
315.083	93.12
315.312	76.12
315.542	98.12
315.771	97.12
316.001	99.12
316.23	93.12
316.46	79.12
316.689	102.12
316.919	85.12
317.148	113.12
317.377	91.12
317.607	100.12
317.836	82.12
318.065	98.12
318.295	89.12
318.524	90.12
318.753	89.12
318.983	83.12
319.212	101.12
319.441	99.12
319.67	101.12
319.9	87.12
320.129	88.12
320.358	93.12
320.587	84.12
320.816	90.12
321.046	100.12
321.275	83.12
321.504	80.12
321.733	84.12
321.962	104.12
322.191	98.12
322.42	88.12
322.649	87.12
322.878	95.12
323.108	91.12
323.337	88.12
323.566	92.12
323.795	96.12
324.024	90.12
324.253	102.12
324.482	101.12
324.71	98.12
324.939	83.12
325.168	72.12
325.397	96.12
325.626	87.12
325.855	80.12
326.084	99.12
326.313	92.12
326.542	89.12
326.77	96.12
326.999	90.12
327.228	90.12
327.457	98.12
327.686	82.12
327.914	94.12
328.143	83.12
328.372	98.12
328.6	98.12
328.829	84.12
329.058	104.12
329.287	83.12
329.515	77.12
329.744	84.12
329.972	88.12
330.201	94.12
330.43	87.12
330.658	94.12
330.887	89.12
331.115	86.12
331.344	93.12
331.572	99.12
331.801	99.12
332.03	95.12
332.258	90.12
332.486	98.12
332.715	91.12
332.943	99.12
333.172	90.12
333.4	96.12
333.629	91.12
333.857	91.12
334.085	83.12
334.314	101.12
334.542	112.12
334.771	91.12
334.999	100.12
335.227	100.12
335.455	97.12
335.684	86.12
335.912	91.12
336.14	93.12
336.369	86.12
336.597	95.12
336.825	99.12
337.053	97.12
337.281	108.12
337.51	89.12
337.738	91.12
337.966	100.12
338.194	94.12
338.422	87.12
338.65	87.12
338.878	101.12
339.106	98.12
339.334	100.12
339.562	93.12
339.79	99.12
340.018	102.12
340.246	81.12
340.474	89.12
340.702	105.12
340.93	92.12
341.158	86.12
341.386	99.12
341.614	102.12
341.842	90.12
342.07	88.12
342.298	92.12
342.526	103.12
342.754	100.12
342.981	103.12
343.209	97.12
343.437	95.12
343.665	96.12
343.893	93.12
344.12	99.12
344.348	96.12
344.576	84.12
344.804	80.12
345.031	101.12
345.259	78.12
345.487	100.12
345.714	96.12
345.942	97.12
346.17	90.12
346.397	91.12
346.625	93.12
346.853	99.12
347.08	89.12
347.308	96.12
347.535	84.12
347.763	91.12
347.99	111.12
348.218	93.12
348.445	89.12
348.673	98.12
348.9	95.12
349.128	81.12
349.355	86.12
349.583	96.12
349.81	92.12
350.037	105.12
350.265	97.12
350.492	91.12
350.72	89.12
350.947	96.12
351.174	86.12
351.402	87.12
351.629	95.12
351.856	88.12
352.083	83.12
352.311	95.12
352.538	102.12
352.765	91.12
352.992	83.12
353.22	71.12
353.447	81.12
353.674	92.12
353.901	77.12
354.128	92.12
354.355	97.12
354.583	93.12
354.81	84.12
355.037	83.12
355.264	93.12
355.491	83.12
355.718	103.12
355.945	83.12
356.172	92.12
356.399	103.12
356.626	78.12
356.853	91.12
357.08	100.12
357.307	79.12
357.534	84.12
357.761	95.12
357.988	95.12
358.215	98.12
358.441	84.12
358.668	102.12
358.895	99.12
359.122	88.12
359.349	84.12
359.576	77.12
359.802	78.12
360.029	83.12
360.256	87.12
360.483	98.12
360.709	89.12
360.936	93.12
361.163	84.12
361.39	92.12
361.616	87.12
361.843	90.12
362.07	95.12
362.296	95.12
362.523	93.12
362.749	82.12
362.976	84.12
363.203	100.12
363.429	66.12
363.656	96.12
363.882	89.12
364.109	95.12
364.335	99.12
364.562	91.12
364.788	95.12
365.015	101.12
365.241	93.12
365.468	92.12
365.694	90.12
365.92	92.12
366.147	85.12
366.373	102.12
366.599	91.12
366.826	97.12
367.052	91.12
367.278	87.12
367.505	83.12
367.731	111.12
367.957	100.12
368.184	91.12
368.41	88.12
368.636	89.12
368.862	84.12
369.089	103.12
369.315	90.12
369.541	83.12
369.767	92.12
369.993	95.12
370.219	87.12
370.445	100.12
370.672	91.12
370.898	83.12
371.124	97.12
371.35	83.12
371.576	77.12
371.802	92.12
372.028	94.12
372.254	88.12
372.48	95.12
372.706	96.12
372.932	90.12
373.158	103.12
373.384	91.12
373.61	103.12
373.835	96.12
374.061	97.12
374.287	98.12
374.513	107.12
374.739	83.12
374.965	91.12
375.191	87.12
375.416	97.12
375.642	119.12
375.868	97.12
376.094	81.12
376.319	107.12
376.545	98.12
376.771	87.12
376.997	82.12
377.222	82.12
377.448	113.12
377.674	103.12
377.899	113.12
378.125	95.12
378.35	91.12
378.576	90.12
378.802	100.12
379.027	92.12
379.253	105.12
379.478	85.12
379.704	93.12
379.929	85.12
380.155	87.12
380.38	97.12
380.606	101.12
380.831	94.12
381.057	88.12
381.282	100.12
381.507	97.12
381.733	97.12
381.958	95.12
382.184	90.12
382.409	99.12
382.634	100.12
382.86	92.12
383.085	101.12
383.31	87.12
383.535	88.12
383.761	115.12
383.986	99.12
384.211	93.12
384.436	99.12
384.662	94.12
384.887	97.12
385.112	91.12
385.337	101.12
385.562	93.12
385.787	82.12
386.013	93.12
386.238	98.12
386.463	95.12
386.688	116.12
386.913	98.12
387.138	82.12
387.363	96.12
387.588	92.12
387.813	97.12
388.038	97.12
388.263	109.12
388.488	109.12
388.713	93.12
388.938	100.12
389.163	96.12
389.387	115.12
389.612	90.12
389.837	95.12
390.062	98.12
390.287	95.12
390.512	92.12
390.736	89.12
390.961	91.12
391.186	103.12
391.411	115.12
391.636	96.12
391.86	79.12
392.085	103.12
392.31	90.12
392.534	97.12
392.759	99.12
392.984	99.12
393.208	106.12
393.433	115.12
393.658	111.12
393.882	109.12
394.107	108.12
394.331	98.12
394.556	103.12
394.78	103.12
395.005	99.12
395.229	104.12
395.454	111.12
395.678	95.12
395.903	96.12
396.127	101.12
396.352	78.12
396.576	102.12
396.801	105.12
397.025	117.12
397.249	107.12
397.474	108.12
397.698	101.12
397.922	101.12
398.147	102.12
398.371	93.12
398.595	102.12
398.82	104.12
399.044	104.12
399.268	100.12
399.492	98.12
399.717	99.12
399.941	106.12
400.165	101.12
400.389	97.12
400.613	100.12
400.837	103.12
401.062	113.12
401.286	115.12
401.51	101.12
401.734	118.12
401.958	99.12
402.182	106.12
402.406	103.12
402.63	108.12
402.854	99.12
403.078	94.12
403.302	102.12
403.526	105.12
403.75	96.12
403.974	103.12
404.198	103.12
404.422	99.12
404.645	104.12
404.869	114.12
405.093	101.12
405.317	102.12
405.541	105.12
405.765	114.12
405.988	109.12
406.212	105.12
406.436	96.12
406.66	109.12
406.883	103.12
407.107	103.12
407.331	112.12
407.555	96.12
407.778	105.12
408.002	107.12
408.226	99.12
408.449	105.12
408.673	98.12
408.896	98.12
409.12	101.12
409.344	105.12
409.567	109.12
409.791	105.12
410.014	104.12
410.238	107.12
410.461	100.12
410.685	97.12
410.908	90.12
411.132	102.12
411.355	81.12
411.578	104.12
411.802	106.12
412.025	102.12
412.249	100.12
412.472	92.12
412.695	92.12
412.919	105.12
413.142	99.12
413.365	102.12
413.589	100.12
413.812	106.12
414.035	108.12
414.258	114.12
414.482	96.12
414.705	87.12
414.928	100.12
415.151	106.12
415.374	97.12
415.597	99.12
415.821	105.12
416.044	97.12
416.267	101.12
416.49	99.12
416.713	99.12
416.936	112.12
417.159	116.12
417.382	120.12
417.605	101.12
417.828	106.12
418.051	96.12
418.274	111.12
418.497	89.12
418.72	107.12
418.943	105.12
419.166	96.12
419.389	99.12
419.611	104.12
419.834	115.12
420.057	100.12
420.28	107.12
420.503	90.12
420.726	98.12
420.948	99.12
421.171	93.12
421.394	76.12
421.617	115.12
421.839	89.12
422.062	109.12
422.285	98.12
422.507	95.12
422.73	105.12
422.953	80.12
423.175	99.12
423.398	102.12
423.621	99.12
423.843	99.12
424.066	103.12
424.288	88.12
424.511	93.12
424.733	99.12
424.956	100.12
425.178	101.12
425.401	99.12
425.623	108.12
425.846	94.12
426.068	99.12
426.291	95.12
426.513	95.12
426.735	95.12
426.958	101.12
427.18	88.12
427.402	97.12
427.625	105.12
427.847	90.12
428.069	92.12
428.292	97.12
428.514	105.12
428.736	96.12
428.958	85.12
429.181	96.12
429.403	74.12
429.625	82.12
429.847	108.12
430.069	102.12
430.292	91.12
430.514	84.12
430.736	100.12
430.958	93.12
431.18	99.12
431.402	104.12
431.624	99.12
431.846	96.12
432.068	98.12
432.29	98.12
432.512	117.12
432.734	97.12
432.956	105.12
433.178	103.12
433.4	108.12
433.622	99.12
433.844	91.12
434.066	96.12
434.287	92.12
434.509	94.12
434.731	88.12
434.953	97.12
435.175	105.12
435.397	100.12
435.618	109.12
435.84	88.12
436.062	99.12
436.284	99.12
436.505	102.12
436.727	96.12
436.949	106.12
437.17	89.12
437.392	92.12
437.614	90.12
437.835	95.12
438.057	103.12
438.278	89.12
438.5	98.12
438.721	101.12
438.943	96.12
439.165	98.12
439.386	108.12
439.608	105.12
439.829	100.12
440.05	94.12
440.272	84.12
440.493	106.12
440.715	100.12
440.936	91.12
441.158	109.12
441.379	90.12
441.6	92.12
441.822	89.12
442.043	86.12
442.264	103.12
442.486	101.12
442.707	92.12
442.928	83.12
443.149	101.12
443.371	104.12
443.592	97.12
443.813	98.12
444.034	91.12
444.255	101.12
444.476	92.12
444.698	91.12
444.919	123.12
445.14	160.12
445.361	129.12
445.582	106.12
445.803	111.12
446.024	108.12
446.245	106.12
446.466	114.12
446.687	102.12
446.908	106.12
447.129	93.12
447.35	89.12
447.571	103.12
447.792	92.12
448.013	93.12
448.234	99.12
448.455	99.12
448.675	118.12
448.896	98.12
449.117	105.12
449.338	104.12
449.559	89.12
449.779	104.12
450	101.12
450.221	100.12
450.442	97.12
450.662	107.12
450.883	96.12
451.104	93.12
451.324	103.12
451.545	105.12
451.766	105.12
451.986	106.12
452.207	92.12
452.428	99.12
452.648	99.12
452.869	93.12
453.089	100.12
453.31	83.12
453.53	95.12
453.751	79.12
453.971	102.12
454.192	91.12
454.412	97.12
454.633	104.12
454.853	99.12
455.073	89.12
455.294	92.12
455.514	100.12
455.734	95.12
455.955	101.12
456.175	115.12
456.395	98.12
456.616	100.12
456.836	109.12
457.056	76.12
457.276	105.12
457.497	88.12
457.717	91.12
457.937	88.12
458.157	97.12
458.377	109.12
458.598	103.12
458.818	91.12
459.038	103.12
459.258	81.12
459.478	97.12
459.698	104.12
459.918	97.12
460.138	92.12
460.358	103.12
460.578	98.12
460.798	103.12
461.018	97.12
461.238	104.12
461.458	95.12
461.678	95.12
461.898	76.12
462.118	100.12
462.338	104.12
462.558	119.12
462.777	107.12
462.997	106.12
463.217	107.12
463.437	112.12
463.657	99.12
463.876	107.12
464.096	107.12
464.316	96.12
464.536	111.12
464.755	112.12
464.975	99.12
465.195	105.12
465.414	99.12
465.634	97.12
465.854	100.12
466.073	101.12
466.293	106.12
466.512	88.12
466.732	95.12
466.951	111.12
467.171	94.12
467.391	95.12
467.61	93.12
467.829	81.12
468.049	93.12
468.268	95.12
468.488	95.12
468.707	90.12
468.927	93.12
469.146	77.12
469.365	104.12
469.585	97.12
469.804	84.12
470.023	95.12
470.243	103.12
470.462	102.12
470.681	100.12
470.901	93.12
471.12	105.12
471.339	103.12
471.558	106.12
471.777	108.12
471.997	98.12
472.216	96.12
472.435	96.12
472.654	95.12
472.873	102.12
473.092	99.12
473.311	105.12
473.53	90.12
473.749	101.12
473.968	99.12
474.187	96.12
474.406	88.12
474.625	114.12
474.844	103.12
475.063	95.12
475.282	98.12
475.501	102.12
475.72	96.12
475.939	102.12
476.158	95.12
476.377	104.12
476.596	104.12
476.814	96.12
477.033	107.12
477.252	90.12
477.471	96.12
477.69	88.12
477.908	103.12
478.127	117.12
478.346	105.12
478.564	95.12
478.783	101.12
479.002	102.12
479.22	95.12
479.439	102.12
479.658	98.12
479.876	99.12
480.095	92.12
480.313	103.12
480.532	112.12
480.751	107.12
480.969	91.12
481.188	103.12
481.406	99.12
481.624	107.12
481.843	103.12
482.061	100.12
482.28	89.12
482.498	102.12
482.717	91.12
482.935	103.12
483.153	101.12
483.372	99.12
483.59	96.12
483.808	98.12
484.027	88.12
484.245	98.12
484.463	102.12
484.681	99.12
484.9	92.12
485.118	94.12
485.336	100.12
485.554	99.12
485.772	96.12
485.99	109.12
486.209	99.12
486.427	119.12
486.645	101.12
486.863	108.12
487.081	108.12
487.299	103.12
487.517	130.12
487.735	109.12
487.953	98.12
488.171	100.12
488.389	107.12
488.607	89.12
488.825	104.12
489.043	102.12
489.261	99.12
489.479	98.12
489.696	85.12
489.914	96.12
490.132	105.12
490.35	101.12
490.568	95.12
490.786	113.12
491.003	110.12
491.221	105.12
491.439	111.12
491.657	95.12
491.874	96.12
492.092	113.12
492.31	111.12
492.527	105.12
492.745	96.12
492.963	102.12
493.18	99.12
493.398	119.12
493.615	102.12
493.833	98.12
494.05	89.12
494.268	111.12
494.485	100.12
494.703	107.12
494.92	104.12
495.138	89.12
495.355	100.12
495.573	93.12
495.79	110.12
496.008	112.12
496.225	119.12
496.442	97.12
496.66	119.12
496.877	107.12
497.094	116.12
497.312	113.12
497.529	107.12
497.746	105.12
497.963	100.12
498.181	118.12
498.398	119.12
498.615	115.12
498.832	127.12
499.049	115.12
499.267	132.12
499.484	118.12
499.701	129.12
499.918	124.12
500.135	139.12
500.352	148.12
500.569	139.12
500.786	145.12
501.003	129.12
501.22	118.12
501.437	104.12
501.654	119.12
501.871	122.12
502.088	104.12
502.305	113.12
502.522	128.12
502.739	120.12
502.956	118.12
503.172	98.12
503.389	102.12
503.606	96.12
503.823	103.12
504.04	107.12
504.256	123.12
504.473	107.12
504.69	119.12
504.907	111.12
505.123	108.12
505.34	95.12
505.557	115.12
505.773	88.12
505.99	103.12
506.207	101.12
506.423	113.12
506.64	97.12
506.856	102.12
507.073	95.12
507.289	92.12
507.506	91.12
507.722	88.12
507.939	93.12
508.155	96.12
508.372	96.12
508.588	105.12
508.805	96.12
509.021	93.12
509.238	91.12
509.454	93.12
509.67	96.12
509.887	111.12
510.103	100.12
510.319	97.12
510.536	115.12
510.752	97.12
510.968	98.12
511.184	91.12
511.401	99.12
511.617	85.12
511.833	107.12
512.049	94.12
512.265	95.12
512.481	83.12
512.698	104.12
512.914	99.12
513.13	89.12
513.346	96.12
513.562	97.12
513.778	114.12
513.994	91.12
514.21	97.12
514.426	89.12
514.642	106.12
514.858	106.12
515.074	93.12
515.29	100.12
515.506	92.12
515.721	99.12
515.937	101.12
516.153	93.12
516.369	102.12
516.585	117.12
516.801	101.12
517.016	98.12
517.232	95.12
517.448	100.12
517.664	120.12
517.879	111.12
518.095	112.12
518.311	109.12
518.527	115.12
518.742	107.12
518.958	113.12
519.173	102.12
519.389	108.12
519.605	111.12
519.82	100.12
520.036	101.12
520.251	105.12
520.467	112.12
520.682	81.12
520.898	103.12
521.113	100.12
521.329	109.12
521.544	90.12
521.76	107.12
521.975	103.12
522.19	104.12
522.406	106.12
522.621	89.12
522.836	91.12
523.052	106.12
523.267	102.12
523.482	98.12
523.698	85.12
523.913	91.12
524.128	98.12
524.343	105.12
524.559	106.12
524.774	88.12
524.989	97.12
525.204	95.12
525.419	97.12
525.634	102.12
525.849	98.12
526.064	99.12
526.28	112.12
526.495	92.12
526.71	84.12
526.925	99.12
527.14	107.12
527.355	105.12
527.57	87.12
527.785	103.12
527.999	97.12
528.214	103.12
528.429	93.12
528.644	95.12
528.859	105.12
529.074	98.12
529.289	98.12
529.503	116.12
529.718	92.12
529.933	87.12
530.148	107.12
530.363	90.12
530.577	104.12
530.792	86.12
531.007	92.12
531.221	103.12
531.436	104.12
531.651	104.12
531.865	108.12
532.08	89.12
532.295	101.12
532.509	102.12
532.724	104.12
532.938	93.12
533.153	120.12
533.367	98.12
533.582	103.12
533.796	89.12
534.011	89.12
534.225	96.12
534.44	95.12
534.654	88.12
534.868	98.12
535.083	105.12
535.297	96.12
535.511	93.12
535.726	81.12
535.94	96.12
536.154	105.12
536.369	98.12
536.583	83.12
536.797	91.12
537.011	95.12
537.225	106.12
537.44	95.12
537.654	109.12
537.868	99.12
538.082	88.12
538.296	93.12
538.51	93.12
538.724	97.12
538.938	106.12
539.153	101.12
539.367	116.12
539.581	95.12
539.795	99.12
540.009	109.12
540.222	101.12
540.436	98.12
540.65	72.12
540.864	91.12
541.078	87.12
541.292	106.12
541.506	99.12
541.72	98.12
541.934	103.12
542.147	97.12
542.361	101.12
542.575	93.12
542.789	107.12
543.002	85.12
543.216	88.12
543.43	106.12
543.644	108.12
543.857	114.12
544.071	102.12
544.285	99.12
544.498	82.12
544.712	102.12
544.925	104.12
545.139	97.12
545.352	102.12
545.566	94.12
545.779	87.12
545.993	95.12
546.206	89.12
546.42	89.12
546.633	99.12
546.847	115.12
547.06	95.12
547.274	101.12
547.487	102.12
547.7	117.12
547.914	99.12
548.127	96.12
548.34	103.12
548.554	103.12
548.767	103.12
548.98	108.12
549.193	103.12
549.407	97.12
549.62	94.12
549.833	88.12
550.046	114.12
550.259	105.12
550.473	104.12
550.686	81.12
550.899	85.12
551.112	86.12
551.325	87.12
551.538	100.12
551.751	97.12
551.964	107.12
552.177	100.12
552.39	116.12
552.603	105.12
552.816	107.12
553.029	112.12
553.242	105.12
553.455	101.12
553.667	111.12
553.88	100.12
554.093	98.12
554.306	96.12
554.519	91.12
554.732	101.12
554.944	96.12
555.157	106.12
555.37	106.12
555.583	99.12
555.795	90.12
556.008	104.12
556.221	101.12
556.433	76.12
556.646	96.12
556.859	101.12
557.071	98.12
557.284	97.12
557.496	108.12
557.709	101.12
557.921	93.12
558.134	104.12
558.346	88.12
558.559	98.12
558.771	84.12
558.984	106.12
559.196	100.12
559.409	101.12
559.621	102.12
559.833	91.12
560.046	96.12
560.258	104.12
560.47	86.12
560.683	105.12
560.895	111.12
561.107	105.12
561.32	96.12
561.532	83.12
561.744	96.12
561.956	97.12
562.168	96.12
562.381	96.12
562.593	103.12
562.805	86.12
563.017	101.12
563.229	95.12
563.441	93.12
563.653	99.12
563.865	99.12
564.077	89.12
564.289	95.12
564.501	100.12
564.713	89.12
564.925	89.12
565.137	105.12
565.349	106.12
565.561	112.12
565.773	103.12
565.985	84.12
566.197	91.12
566.408	102.12
566.62	100.12
566.832	118.12
567.044	115.12
567.255	107.12
567.467	105.12
567.679	93.12
567.891	122.12
568.102	115.12
568.314	93.12
568.526	97.12
568.737	103.12
568.949	108.12
569.161	103.12
569.372	113.12
569.584	108.12
569.795	97.12
570.007	92.12
570.218	106.12
570.43	99.12
570.641	111.12
570.853	108.12
571.064	91.12
571.276	85.12
571.487	100.12
571.698	92.12
571.91	101.12
572.121	101.12
572.333	95.12
572.544	103.12
572.755	90.12
572.966	94.12
573.178	88.12
573.389	89.12
573.6	83.12
573.811	99.12
574.023	86.12
574.234	95.12
574.445	91.12
574.656	89.12
574.867	85.12
575.078	95.12
575.289	101.12
575.501	95.12
575.712	94.12
575.923	103.12
576.134	86.12
576.345	82.12
576.556	89.12
576.767	99.12
576.978	89.12
577.188	99.12
577.399	97.12
577.61	101.12
577.821	83.12
578.032	89.12
578.243	103.12
578.454	86.12
578.665	89.12
578.875	100.12
579.086	85.12
579.297	90.12
579.508	93.12
579.718	93.12
579.929	102.12
580.14	97.12
580.35	103.12
580.561	76.12
580.772	90.12
580.982	100.12
581.193	81.12
581.403	96.12
581.614	90.12
581.825	93.12
582.035	97.12
582.246	93.12
582.456	93.12
582.667	93.12
582.877	86.12
583.087	86.12
583.298	92.12
583.508	103.12
583.719	91.12
583.929	95.12
584.139	95.12
584.35	95.12
584.56	90.12
584.77	90.12
584.981	98.12
585.191	101.12
585.401	86.12
585.611	87.12
585.821	102.12
586.032	96.12
586.242	82.12
586.452	85.12
586.662	95.12
586.872	84.12
587.082	93.12
587.292	97.12
587.502	91.12
587.713	97.12
587.923	89.12
588.133	85.12
588.343	89.12
588.553	91.12
588.762	112.12
588.972	85.12
589.182	108.12
589.392	106.12
589.602	102.12
589.812	107.12
590.022	89.12
590.232	95.12
590.441	102.12
590.651	84.12
590.861	90.12
591.071	98.12
591.281	73.12
591.49	87.12
591.7	110.12
591.91	100.12
592.119	85.12
592.329	95.12
592.539	91.12
592.748	106.12
592.958	95.12
593.167	88.12
593.377	104.12
593.587	108.12
593.796	106.12
594.006	90.12
594.215	103.12
594.424	104.12
594.634	95.12
594.843	80.12
595.053	87.12
595.262	91.12
595.472	97.12
595.681	92.12
595.89	83.12
596.1	92.12
596.309	98.12
596.518	105.12
596.727	87.12
596.937	95.12
597.146	95.12
597.355	84.12
597.564	105.12
597.774	105.12
597.983	82.12
598.192	94.12
598.401	89.12
598.61	91.12
598.819	87.12
599.028	100.12
599.237	100.12
599.446	105.12
599.655	88.12
599.864	90.12
600.073	95.12
600.282	103.12
600.491	97.12
600.7	92.12
600.909	87.12
601.118	90.12
601.327	99.12
601.536	103.12
601.745	96.12
601.953	91.12
602.162	80.12
602.371	84.12
602.58	95.12
602.789	99.12
602.997	90.12
603.206	96.12
603.415	87.12
603.623	87.12
603.832	107.12
604.041	83.12
604.249	112.12
604.458	92.12
604.666	97.12
604.875	99.12
605.084	87.12
605.292	103.12
605.501	89.12
605.709	101.12
605.918	94.12
606.126	85.12
606.334	94.12
606.543	95.12
606.751	93.12
606.96	100.12
607.168	96.12
607.376	86.12
607.585	92.12
607.793	104.12
608.001	87.12
608.21	92.12
608.418	103.12
608.626	89.12
608.834	89.12
609.043	81.12
609.251	78.12
609.459	91.12
609.667	89.12
609.875	83.12
610.083	83.12
610.291	92.12
610.499	91.12
610.707	87.12
610.916	93.12
611.124	76.12
611.332	88.12
611.54	95.12
611.748	89.12
611.955	91.12
612.163	99.12
612.371	82.12
612.579	95.12
612.787	95.12
612.995	96.12
613.203	105.12
613.411	95.12
613.618	87.12
613.826	90.12
614.034	90.12
614.242	96.12
614.449	109.12
614.657	89.12
614.865	97.12
615.072	100.12
615.28	92.12
615.488	85.12
615.695	97.12
615.903	90.12
616.111	90.12
616.318	88.12
616.526	101.12
616.733	97.12
616.941	89.12
617.148	87.12
617.356	87.12
617.563	82.12
617.771	89.12
617.978	89.12
618.185	85.12
618.393	88.12
618.6	88.12
618.807	92.12
619.015	103.12
619.222	93.12
619.429	97.12
619.637	78.12
619.844	91.12
620.051	92.12
620.258	79.12
620.466	77.12
620.673	88.12
620.88	97.12
621.087	86.12
621.294	91.12
621.501	85.12
621.708	87.12
621.915	88.12
622.122	96.12
622.329	103.12
622.536	77.12
622.743	92.12
622.95	92.12
623.157	92.12
623.364	96.12
623.571	89.12
623.778	92.12
623.985	87.12
624.192	103.12
624.399	84.12
624.606	88.12
624.812	87.12
625.019	96.12
625.226	67.12
625.433	95.12
625.639	88.12
625.846	87.12
626.053	99.12
626.259	99.12
626.466	105.12
626.673	82.12
626.879	97.12
627.086	104.12
627.293	90.12
627.499	96.12
627.706	96.12
627.912	86.12
628.119	86.12
628.325	89.12
628.532	95.12
628.738	96.12
628.945	76.12
629.151	88.12
629.357	93.12
629.564	89.12
629.77	97.12
629.976	89.12
630.183	96.12
630.389	85.12
630.595	84.12
630.802	93.12
631.008	84.12
631.214	83.12
631.42	90.12
631.627	75.12
631.833	93.12
632.039	85.12
632.245	87.12
632.451	80.12
632.657	89.12
632.863	84.12
633.069	97.12
633.275	93.12
633.481	86.12
633.688	95.12
633.893	97.12
634.099	81.12
634.305	87.12
634.511	93.12
634.717	95.12
634.923	99.12
635.129	85.12
635.335	90.12
635.541	87.12
635.747	92.12
635.952	92.12
636.158	99.12
636.364	85.12
636.57	81.12
636.775	105.12
636.981	86.12
637.187	79.12
637.392	90.12
637.598	71.12
637.804	103.12
638.009	92.12
638.215	88.12
638.421	84.12
638.626	86.12
638.832	91.12
639.037	81.12
639.243	89.12
639.448	67.12
639.654	96.12
639.859	89.12
640.065	93.12
640.27	91.12
640.475	86.12
640.681	90.12
640.886	96.12
641.091	81.12
641.297	98.12
641.502	93.12
641.707	91.12
641.913	86.12
642.118	93.12
642.323	81.12
642.528	99.12
642.733	88.12
642.939	87.12
643.144	96.12
643.349	89.12
643.554	74.12
643.759	86.12
643.964	102.12
644.169	79.12
644.374	83.12
644.579	95.12
644.784	73.12
644.989	85.12
645.194	93.12
645.399	96.12
645.604	87.12
645.809	73.12
646.014	98.12
646.219	78.12
646.423	91.12
646.628	78.12
646.833	83.12
647.038	96.12
647.243	95.12
647.447	84.12
647.652	85.12
647.857	94.12
648.062	97.12
648.266	91.12
648.471	81.12
648.676	90.12
648.88	87.12
649.085	88.12
649.289	90.12
649.494	92.12
649.698	77.12
649.903	85.12
650.107	79.12
650.312	99.12
650.516	78.12
650.721	80.12
650.925	81.12
651.13	84.12
651.334	100.12
651.539	81.12
651.743	88.12
651.947	95.12
652.152	92.12
652.356	95.12
652.56	91.12
652.764	77.12
652.969	91.12
653.173	95.12
653.377	85.12
653.581	75.12
653.785	90.12
653.99	89.12
654.194	99.12
654.398	99.12
654.602	84.12
654.806	84.12
655.01	78.12
655.214	86.12
655.418	77.12
655.622	87.12
655.826	96.12
656.03	81.12
656.234	88.12
656.438	72.12
656.642	76.12
656.846	68.12
657.049	80.12
657.253	98.12
657.457	89.12
657.661	82.12
657.865	81.12
658.068	70.12
658.272	80.12
658.476	95.12
658.68	84.12
658.883	81.12
659.087	79.12
659.291	78.12
659.494	71.12
659.698	79.12
659.901	85.12
660.105	83.12
660.309	66.12
660.512	75.12
660.716	85.12
660.919	83.12
661.123	78.12
661.326	72.12
661.53	94.12
661.733	86.12
661.936	95.12
662.14	77.12
662.343	83.12
662.546	88.12
662.75	84.12
662.953	74.12
663.156	77.12
663.36	73.12
663.563	75.12
663.766	84.12
663.969	86.12
664.173	90.12
664.376	68.12
664.579	81.12
664.782	69.12
664.985	96.12
665.188	83.12
665.391	91.12
665.594	74.12
665.797	89.12
666	65.12
666.203	66.12
666.406	65.12
666.609	83.12
666.812	83.12
667.015	78.12
667.218	83.12
667.421	77.12
667.624	84.12
667.827	76.12
668.03	87.12
668.232	87.12
668.435	77.12
668.638	75.12
668.841	87.12
669.043	74.12
669.246	91.12
669.449	93.12
669.651	82.12
669.854	88.12
670.057	82.12
670.259	82.12
670.462	93.12
670.665	85.12
670.867	79.12
671.07	91.12
671.272	83.12
671.475	79.12
671.677	68.12
671.88	80.12
672.082	83.12
672.284	69.12
672.487	78.12
672.689	83.12
672.892	71.12
