Data from Lead_5_1_HRD10591_00082.txt Node
Date: Fri Feb 20 11:08:51 EST 2026
User: Yrep
Spectrometer: HR+D1059
Trigger mode: 1
Integration Time (sec): 1.000000E-1
Scans to average: 1
Electric dark correction enabled: true
Nonlinearity correction enabled: false
Boxcar width: 0
XAxis mode: Wavelengths
Number of Pixels in Spectrum: 2048
>>>>>Begin Spectral Data<<<<<
223.165	-5.44
223.4	-5.44
223.635	-5.44
223.869	-5.44
224.104	-28.44
224.338	-5.44
224.573	-9.44
224.808	-5.44
225.042	-2.44
225.277	-1.44
225.511	-8.44
225.746	-1.44
225.98	3.56
226.215	7.56
226.449	13.56
226.683	17.56
226.918	17.56
227.152	13.56
227.387	47.56
227.621	44.56
227.856	32.56
228.09	50.56
228.324	47.56
228.559	59.56
228.793	65.56
229.027	61.56
229.262	59.56
229.496	60.56
229.73	56.56
229.964	71.56
230.199	66.56
230.433	73.56
230.667	68.56
230.901	78.56
231.136	77.56
231.37	73.56
231.604	88.56
231.838	66.56
232.072	66.56
232.306	84.56
232.541	87.56
232.775	81.56
233.009	75.56
233.243	78.56
233.477	87.56
233.711	84.56
233.945	72.56
234.179	75.56
234.413	67.56
234.647	64.56
234.881	87.56
235.115	77.56
235.349	78.56
235.583	76.56
235.817	97.56
236.051	87.56
236.285	89.56
236.519	89.56
236.753	55.56
236.987	80.56
237.221	65.56
237.455	67.56
237.689	71.56
237.922	71.56
238.156	58.56
238.39	72.56
238.624	78.56
238.858	80.56
239.091	78.56
239.325	76.56
239.559	68.56
239.793	72.56
240.027	92.56
240.26	73.56
240.494	70.56
240.728	75.56
240.961	68.56
241.195	71.56
241.429	75.56
241.662	70.56
241.896	72.56
242.13	93.56
242.363	61.56
242.597	76.56
242.83	78.56
243.064	59.56
243.298	66.56
243.531	71.56
243.765	78.56
243.998	80.56
244.232	76.56
244.465	84.56
244.699	78.56
244.932	67.56
245.166	70.56
245.399	71.56
245.633	78.56
245.866	63.56
246.099	90.56
246.333	65.56
246.566	89.56
246.8	78.56
247.033	75.56
247.266	69.56
247.5	60.56
247.733	78.56
247.966	58.56
248.2	82.56
248.433	68.56
248.666	74.56
248.899	79.56
249.133	60.56
249.366	79.56
249.599	71.56
249.832	79.56
250.066	80.56
250.299	65.56
250.532	71.56
250.765	78.56
250.998	71.56
251.231	68.56
251.465	75.56
251.698	66.56
251.931	72.56
252.164	85.56
252.397	65.56
252.63	83.56
252.863	76.56
253.096	76.56
253.329	73.56
253.562	66.56
253.795	75.56
254.028	76.56
254.261	72.56
254.494	77.56
254.727	64.56
254.96	72.56
255.193	78.56
255.426	71.56
255.659	64.56
255.892	73.56
256.124	76.56
256.357	74.56
256.59	78.56
256.823	81.56
257.056	73.56
257.289	86.56
257.521	75.56
257.754	58.56
257.987	74.56
258.22	89.56
258.452	78.56
258.685	71.56
258.918	77.56
259.151	68.56
259.383	79.56
259.616	88.56
259.849	77.56
260.081	86.56
260.314	73.56
260.547	76.56
260.779	76.56
261.012	75.56
261.244	76.56
261.477	82.56
261.71	63.56
261.942	79.56
262.175	85.56
262.407	71.56
262.64	71.56
262.872	81.56
263.105	67.56
263.337	61.56
263.57	73.56
263.802	81.56
264.035	84.56
264.267	78.56
264.499	72.56
264.732	76.56
264.964	79.56
265.197	67.56
265.429	74.56
265.661	87.56
265.894	87.56
266.126	75.56
266.358	86.56
266.591	69.56
266.823	82.56
267.055	81.56
267.287	77.56
267.52	72.56
267.752	86.56
267.984	87.56
268.216	90.56
268.448	84.56
268.681	65.56
268.913	83.56
269.145	80.56
269.377	86.56
269.609	83.56
269.841	81.56
270.073	69.56
270.306	71.56
270.538	72.56
270.77	75.56
271.002	72.56
271.234	89.56
271.466	78.56
271.698	58.56
271.93	71.56
272.162	86.56
272.394	80.56
272.626	76.56
272.858	66.56
273.09	72.56
273.322	74.56
273.553	59.56
273.785	87.56
274.017	77.56
274.249	87.56
274.481	87.56
274.713	76.56
274.945	64.56
275.176	70.56
275.408	87.56
275.64	80.56
275.872	75.56
276.104	77.56
276.335	81.56
276.567	71.56
276.799	92.56
277.031	76.56
277.262	89.56
277.494	72.56
277.726	83.56
277.957	86.56
278.189	89.56
278.421	80.56
278.652	64.56
278.884	85.56
279.115	85.56
279.347	90.56
279.579	87.56
279.81	78.56
280.042	84.56
280.273	82.56
280.505	78.56
280.736	78.56
280.968	76.56
281.199	69.56
281.431	80.56
281.662	76.56
281.894	73.56
282.125	76.56
282.356	72.56
282.588	68.56
282.819	82.56
283.051	76.56
283.282	82.56
283.513	94.56
283.745	84.56
283.976	73.56
284.207	77.56
284.439	76.56
284.67	77.56
284.901	78.56
285.132	80.56
285.364	66.56
285.595	86.56
285.826	75.56
286.057	73.56
286.288	63.56
286.52	71.56
286.751	90.56
286.982	85.56
287.213	76.56
287.444	79.56
287.675	80.56
287.906	73.56
288.138	69.56
288.369	81.56
288.6	71.56
288.831	97.56
289.062	70.56
289.293	79.56
289.524	94.56
289.755	74.56
289.986	85.56
290.217	74.56
290.448	70.56
290.679	92.56
290.91	86.56
291.141	86.56
291.371	88.56
291.602	86.56
291.833	72.56
292.064	76.56
292.295	69.56
292.526	81.56
292.757	92.56
292.987	70.56
293.218	80.56
293.449	70.56
293.68	91.56
293.91	86.56
294.141	74.56
294.372	79.56
294.603	69.56
294.833	82.56
295.064	78.56
295.295	67.56
295.525	73.56
295.756	81.56
295.987	85.56
296.217	83.56
296.448	81.56
296.679	78.56
296.909	94.56
297.14	79.56
297.37	80.56
297.601	71.56
297.831	66.56
298.062	81.56
298.292	80.56
298.523	83.56
298.753	70.56
298.984	84.56
299.214	84.56
299.445	83.56
299.675	83.56
299.905	79.56
300.136	78.56
300.366	85.56
300.597	86.56
300.827	75.56
301.057	83.56
301.288	76.56
301.518	91.56
301.748	76.56
301.979	90.56
302.209	90.56
302.439	73.56
302.669	81.56
302.9	78.56
303.13	87.56
303.36	78.56
303.59	88.56
303.82	86.56
304.051	77.56
304.281	81.56
304.511	72.56
304.741	76.56
304.971	84.56
305.201	90.56
305.431	87.56
305.661	73.56
305.891	77.56
306.121	72.56
306.352	85.56
306.582	73.56
306.812	84.56
307.042	78.56
307.272	84.56
307.502	85.56
307.731	94.56
307.961	82.56
308.191	81.56
308.421	71.56
308.651	77.56
308.881	88.56
309.111	83.56
309.341	80.56
309.571	71.56
309.8	76.56
310.03	84.56
310.26	90.56
310.49	80.56
310.72	80.56
310.949	75.56
311.179	69.56
311.409	76.56
311.639	84.56
311.868	82.56
312.098	88.56
312.328	85.56
312.557	82.56
312.787	78.56
313.017	71.56
313.246	90.56
313.476	73.56
313.706	90.56
313.935	96.56
314.165	73.56
314.394	82.56
314.624	88.56
314.853	82.56
315.083	79.56
315.312	84.56
315.542	87.56
315.771	90.56
316.001	82.56
316.23	80.56
316.46	80.56
316.689	77.56
316.919	79.56
317.148	87.56
317.377	96.56
317.607	81.56
317.836	82.56
318.065	81.56
318.295	76.56
318.524	94.56
318.753	78.56
318.983	77.56
319.212	82.56
319.441	81.56
319.67	87.56
319.9	79.56
320.129	79.56
320.358	80.56
320.587	75.56
320.816	62.56
321.046	90.56
321.275	80.56
321.504	67.56
321.733	88.56
321.962	95.56
322.191	70.56
322.42	71.56
322.649	71.56
322.878	72.56
323.108	79.56
323.337	83.56
323.566	78.56
323.795	73.56
324.024	75.56
324.253	72.56
324.482	63.56
324.71	82.56
324.939	69.56
325.168	78.56
325.397	78.56
325.626	87.56
325.855	95.56
326.084	88.56
326.313	86.56
326.542	64.56
326.77	94.56
326.999	73.56
327.228	78.56
327.457	80.56
327.686	81.56
327.914	80.56
328.143	82.56
328.372	83.56
328.6	77.56
328.829	83.56
329.058	79.56
329.287	73.56
329.515	86.56
329.744	82.56
329.972	80.56
330.201	68.56
330.43	76.56
330.658	83.56
330.887	77.56
331.115	88.56
331.344	89.56
331.572	85.56
331.801	69.56
332.03	91.56
332.258	64.56
332.486	82.56
332.715	76.56
332.943	83.56
333.172	76.56
333.4	69.56
333.629	72.56
333.857	79.56
334.085	72.56
334.314	63.56
334.542	91.56
334.771	83.56
334.999	78.56
335.227	84.56
335.455	82.56
335.684	74.56
335.912	70.56
336.14	88.56
336.369	80.56
336.597	79.56
336.825	82.56
337.053	76.56
337.281	74.56
337.51	79.56
337.738	90.56
337.966	78.56
338.194	82.56
338.422	81.56
338.65	67.56
338.878	90.56
339.106	73.56
339.334	85.56
339.562	77.56
339.79	70.56
340.018	68.56
340.246	84.56
340.474	79.56
340.702	75.56
340.93	97.56
341.158	72.56
341.386	86.56
341.614	96.56
341.842	69.56
342.07	67.56
342.298	75.56
342.526	78.56
342.754	79.56
342.981	77.56
343.209	86.56
343.437	98.56
343.665	72.56
343.893	82.56
344.12	85.56
344.348	82.56
344.576	78.56
344.804	74.56
345.031	74.56
345.259	77.56
345.487	82.56
345.714	79.56
345.942	73.56
346.17	76.56
346.397	82.56
346.625	67.56
346.853	74.56
347.08	89.56
347.308	89.56
347.535	86.56
347.763	77.56
347.99	73.56
348.218	70.56
348.445	81.56
348.673	84.56
348.9	91.56
349.128	87.56
349.355	85.56
349.583	62.56
349.81	76.56
350.037	78.56
350.265	82.56
350.492	82.56
350.72	81.56
350.947	81.56
351.174	71.56
351.402	78.56
351.629	76.56
351.856	85.56
352.083	81.56
352.311	80.56
352.538	83.56
352.765	76.56
352.992	107.56
353.22	91.56
353.447	84.56
353.674	72.56
353.901	79.56
354.128	91.56
354.355	84.56
354.583	90.56
354.81	54.56
355.037	70.56
355.264	84.56
355.491	71.56
355.718	82.56
355.945	72.56
356.172	67.56
356.399	67.56
356.626	70.56
356.853	74.56
357.08	84.56
357.307	82.56
357.534	69.56
357.761	71.56
357.988	81.56
358.215	78.56
358.441	86.56
358.668	79.56
358.895	91.56
359.122	71.56
359.349	87.56
359.576	79.56
359.802	82.56
360.029	78.56
360.256	84.56
360.483	79.56
360.709	86.56
360.936	72.56
361.163	81.56
361.39	66.56
361.616	67.56
361.843	85.56
362.07	77.56
362.296	62.56
362.523	75.56
362.749	78.56
362.976	76.56
363.203	70.56
363.429	70.56
363.656	78.56
363.882	87.56
364.109	70.56
364.335	79.56
364.562	76.56
364.788	74.56
365.015	86.56
365.241	79.56
365.468	90.56
365.694	74.56
365.92	85.56
366.147	74.56
366.373	71.56
366.599	78.56
366.826	84.56
367.052	71.56
367.278	79.56
367.505	80.56
367.731	106.56
367.957	87.56
368.184	80.56
368.41	77.56
368.636	86.56
368.862	75.56
369.089	65.56
369.315	71.56
369.541	80.56
369.767	77.56
369.993	82.56
370.219	84.56
370.445	85.56
370.672	79.56
370.898	80.56
371.124	67.56
371.35	88.56
371.576	83.56
371.802	67.56
372.028	90.56
372.254	82.56
372.48	76.56
372.706	80.56
372.932	75.56
373.158	84.56
373.384	75.56
373.61	77.56
373.835	75.56
374.061	85.56
374.287	75.56
374.513	84.56
374.739	80.56
374.965	88.56
375.191	82.56
375.416	87.56
375.642	60.56
375.868	81.56
376.094	82.56
376.319	87.56
376.545	63.56
376.771	78.56
376.997	78.56
377.222	73.56
377.448	90.56
377.674	78.56
377.899	82.56
378.125	68.56
378.35	68.56
378.576	85.56
378.802	94.56
379.027	94.56
379.253	78.56
379.478	94.56
379.704	77.56
379.929	79.56
380.155	79.56
380.38	73.56
380.606	75.56
380.831	81.56
381.057	88.56
381.282	74.56
381.507	70.56
381.733	90.56
381.958	80.56
382.184	76.56
382.409	85.56
382.634	91.56
382.86	71.56
383.085	86.56
383.31	66.56
383.535	66.56
383.761	80.56
383.986	73.56
384.211	87.56
384.436	80.56
384.662	82.56
384.887	91.56
385.112	74.56
385.337	78.56
385.562	72.56
385.787	67.56
386.013	60.56
386.238	78.56
386.463	80.56
386.688	88.56
386.913	84.56
387.138	91.56
387.363	85.56
387.588	84.56
387.813	84.56
388.038	86.56
388.263	84.56
388.488	77.56
388.713	92.56
388.938	84.56
389.163	78.56
389.387	90.56
389.612	83.56
389.837	78.56
390.062	74.56
390.287	67.56
390.512	78.56
390.736	72.56
390.961	83.56
391.186	80.56
391.411	77.56
391.636	69.56
391.86	86.56
392.085	75.56
392.31	73.56
392.534	66.56
392.759	79.56
392.984	77.56
393.208	74.56
393.433	74.56
393.658	73.56
393.882	64.56
394.107	83.56
394.331	70.56
394.556	82.56
394.78	78.56
395.005	77.56
395.229	75.56
395.454	84.56
395.678	82.56
395.903	70.56
396.127	78.56
396.352	70.56
396.576	84.56
396.801	74.56
397.025	78.56
397.249	79.56
397.474	89.56
397.698	80.56
397.922	86.56
398.147	66.56
398.371	84.56
398.595	80.56
398.82	72.56
399.044	86.56
399.268	78.56
399.492	77.56
399.717	87.56
399.941	69.56
400.165	75.56
400.389	67.56
400.613	84.56
400.837	79.56
401.062	70.56
401.286	52.56
401.51	76.56
401.734	79.56
401.958	86.56
402.182	74.56
402.406	69.56
402.63	79.56
402.854	78.56
403.078	73.56
403.302	84.56
403.526	71.56
403.75	70.56
403.974	77.56
404.198	78.56
404.422	70.56
404.645	78.56
404.869	77.56
405.093	80.56
405.317	82.56
405.541	95.56
405.765	78.56
405.988	70.56
406.212	80.56
406.436	76.56
406.66	56.56
406.883	88.56
407.107	77.56
407.331	70.56
407.555	83.56
407.778	84.56
408.002	93.56
408.226	68.56
408.449	64.56
408.673	82.56
408.896	71.56
409.12	79.56
409.344	70.56
409.567	82.56
409.791	91.56
410.014	97.56
410.238	71.56
410.461	73.56
410.685	80.56
410.908	69.56
411.132	83.56
411.355	82.56
411.578	69.56
411.802	71.56
412.025	75.56
412.249	69.56
412.472	64.56
412.695	85.56
412.919	67.56
413.142	70.56
413.365	84.56
413.589	80.56
413.812	66.56
414.035	95.56
414.258	78.56
414.482	84.56
414.705	83.56
414.928	78.56
415.151	92.56
415.374	72.56
415.597	67.56
415.821	66.56
416.044	78.56
416.267	83.56
416.49	78.56
416.713	76.56
416.936	62.56
417.159	82.56
417.382	84.56
417.605	83.56
417.828	80.56
418.051	89.56
418.274	84.56
418.497	82.56
418.72	73.56
418.943	69.56
419.166	90.56
419.389	85.56
419.611	82.56
419.834	75.56
420.057	86.56
420.28	77.56
420.503	66.56
420.726	61.56
420.948	67.56
421.171	79.56
421.394	79.56
421.617	66.56
421.839	80.56
422.062	90.56
422.285	80.56
422.507	72.56
422.73	79.56
422.953	78.56
423.175	77.56
423.398	80.56
423.621	73.56
423.843	78.56
424.066	71.56
424.288	72.56
424.511	71.56
424.733	88.56
424.956	85.56
425.178	76.56
425.401	81.56
425.623	93.56
425.846	84.56
426.068	92.56
426.291	89.56
426.513	82.56
426.735	74.56
426.958	76.56
427.18	78.56
427.402	78.56
427.625	75.56
427.847	80.56
428.069	74.56
428.292	62.56
428.514	83.56
428.736	64.56
428.958	74.56
429.181	86.56
429.403	85.56
429.625	68.56
429.847	74.56
430.069	81.56
430.292	81.56
430.514	79.56
430.736	70.56
430.958	59.56
431.18	74.56
431.402	87.56
431.624	86.56
431.846	72.56
432.068	78.56
432.29	83.56
432.512	75.56
432.734	62.56
432.956	81.56
433.178	83.56
433.4	79.56
433.622	67.56
433.844	94.56
434.066	72.56
434.287	85.56
434.509	76.56
434.731	62.56
434.953	80.56
435.175	78.56
435.397	70.56
435.618	73.56
435.84	67.56
436.062	66.56
436.284	74.56
436.505	86.56
436.727	82.56
436.949	78.56
437.17	67.56
437.392	69.56
437.614	72.56
437.835	78.56
438.057	73.56
438.278	79.56
438.5	78.56
438.721	79.56
438.943	72.56
439.165	65.56
439.386	68.56
439.608	76.56
439.829	68.56
440.05	69.56
440.272	70.56
440.493	78.56
440.715	68.56
440.936	88.56
441.158	71.56
441.379	77.56
441.6	78.56
441.822	92.56
442.043	84.56
442.264	72.56
442.486	82.56
442.707	70.56
442.928	80.56
443.149	86.56
443.371	80.56
443.592	71.56
443.813	66.56
444.034	73.56
444.255	83.56
444.476	83.56
444.698	79.56
444.919	81.56
445.14	149.56
445.361	117.56
445.582	66.56
445.803	72.56
446.024	79.56
446.245	76.56
446.466	82.56
446.687	85.56
446.908	74.56
447.129	75.56
447.35	63.56
447.571	68.56
447.792	70.56
448.013	80.56
448.234	75.56
448.455	69.56
448.675	90.56
448.896	65.56
449.117	91.56
449.338	71.56
449.559	78.56
449.779	78.56
450	84.56
450.221	72.56
450.442	70.56
450.662	66.56
450.883	64.56
451.104	98.56
451.324	74.56
451.545	75.56
451.766	75.56
451.986	76.56
452.207	90.56
452.428	86.56
452.648	69.56
452.869	76.56
453.089	73.56
453.31	75.56
453.53	76.56
453.751	81.56
453.971	71.56
454.192	74.56
454.412	71.56
454.633	67.56
454.853	66.56
455.073	82.56
455.294	76.56
455.514	76.56
455.734	87.56
455.955	82.56
456.175	75.56
456.395	78.56
456.616	80.56
456.836	66.56
457.056	78.56
457.276	76.56
457.497	66.56
457.717	70.56
457.937	90.56
458.157	82.56
458.377	73.56
458.598	79.56
458.818	69.56
459.038	78.56
459.258	54.56
459.478	80.56
459.698	80.56
459.918	77.56
460.138	80.56
460.358	73.56
460.578	64.56
460.798	80.56
461.018	82.56
461.238	61.56
461.458	76.56
461.678	81.56
461.898	66.56
462.118	70.56
462.338	69.56
462.558	82.56
462.777	82.56
462.997	72.56
463.217	72.56
463.437	79.56
463.657	91.56
463.876	72.56
464.096	69.56
464.316	70.56
464.536	67.56
464.755	81.56
464.975	68.56
465.195	76.56
465.414	78.56
465.634	76.56
465.854	69.56
466.073	80.56
466.293	85.56
466.512	78.56
466.732	75.56
466.951	63.56
467.171	78.56
467.391	82.56
467.61	81.56
467.829	81.56
468.049	85.56
468.268	74.56
468.488	74.56
468.707	84.56
468.927	81.56
469.146	73.56
469.365	70.56
469.585	86.56
469.804	76.56
470.023	80.56
470.243	72.56
470.462	78.56
470.681	72.56
470.901	91.56
471.12	79.56
471.339	79.56
471.558	85.56
471.777	70.56
471.997	85.56
472.216	94.56
472.435	84.56
472.654	87.56
472.873	88.56
473.092	79.56
473.311	80.56
473.53	90.56
473.749	74.56
473.968	81.56
474.187	77.56
474.406	62.56
474.625	79.56
474.844	81.56
475.063	72.56
475.282	77.56
475.501	68.56
475.72	90.56
475.939	69.56
476.158	71.56
476.377	76.56
476.596	78.56
476.814	72.56
477.033	74.56
477.252	78.56
477.471	76.56
477.69	93.56
477.908	93.56
478.127	82.56
478.346	67.56
478.564	71.56
478.783	81.56
479.002	71.56
479.22	72.56
479.439	77.56
479.658	70.56
479.876	78.56
480.095	73.56
480.313	79.56
480.532	86.56
480.751	80.56
480.969	75.56
481.188	71.56
481.406	85.56
481.624	80.56
481.843	76.56
482.061	79.56
482.28	81.56
482.498	73.56
482.717	82.56
482.935	72.56
483.153	78.56
483.372	91.56
483.59	78.56
483.808	77.56
484.027	86.56
484.245	85.56
484.463	77.56
484.681	80.56
484.9	62.56
485.118	78.56
485.336	80.56
485.554	84.56
485.772	76.56
485.99	85.56
486.209	76.56
486.427	90.56
486.645	79.56
486.863	68.56
487.081	89.56
487.299	71.56
487.517	75.56
487.735	87.56
487.953	62.56
488.171	83.56
488.389	81.56
488.607	64.56
488.825	62.56
489.043	66.56
489.261	82.56
489.479	71.56
489.696	77.56
489.914	78.56
490.132	70.56
490.35	67.56
490.568	84.56
490.786	81.56
491.003	90.56
491.221	86.56
491.439	86.56
491.657	70.56
491.874	86.56
492.092	73.56
492.31	82.56
492.527	72.56
492.745	74.56
492.963	82.56
493.18	87.56
493.398	82.56
493.615	86.56
493.833	68.56
494.05	91.56
494.268	78.56
494.485	81.56
494.703	96.56
494.92	80.56
495.138	79.56
495.355	80.56
495.573	83.56
495.79	88.56
496.008	82.56
496.225	75.56
496.442	89.56
496.66	93.56
496.877	71.56
497.094	80.56
497.312	89.56
497.529	78.56
497.746	75.56
497.963	70.56
498.181	87.56
498.398	81.56
498.615	78.56
498.832	81.56
499.049	81.56
499.267	68.56
499.484	70.56
499.701	92.56
499.918	74.56
500.135	89.56
500.352	69.56
500.569	75.56
500.786	80.56
501.003	70.56
501.22	82.56
501.437	78.56
501.654	85.56
501.871	80.56
502.088	79.56
502.305	89.56
502.522	86.56
502.739	76.56
502.956	82.56
503.172	86.56
503.389	69.56
503.606	77.56
503.823	79.56
504.04	69.56
504.256	81.56
504.473	84.56
504.69	86.56
504.907	82.56
505.123	74.56
505.34	70.56
505.557	77.56
505.773	78.56
505.99	83.56
506.207	96.56
506.423	76.56
506.64	91.56
506.856	76.56
507.073	78.56
507.289	82.56
507.506	93.56
507.722	76.56
507.939	82.56
508.155	82.56
508.372	84.56
508.588	88.56
508.805	91.56
509.021	79.56
509.238	76.56
509.454	84.56
509.67	78.56
509.887	78.56
510.103	74.56
510.319	81.56
510.536	87.56
510.752	60.56
510.968	76.56
511.184	82.56
511.401	78.56
511.617	82.56
511.833	73.56
512.049	90.56
512.265	84.56
512.481	89.56
512.698	72.56
512.914	56.56
513.13	77.56
513.346	88.56
513.562	92.56
513.778	82.56
513.994	74.56
514.21	102.56
514.426	74.56
514.642	83.56
514.858	85.56
515.074	68.56
515.29	91.56
515.506	64.56
515.721	88.56
515.937	68.56
516.153	82.56
516.369	79.56
516.585	81.56
516.801	70.56
517.016	62.56
517.232	85.56
517.448	86.56
517.664	70.56
517.879	75.56
518.095	84.56
518.311	89.56
518.527	90.56
518.742	84.56
518.958	86.56
519.173	72.56
519.389	82.56
519.605	76.56
519.82	66.56
520.036	78.56
520.251	80.56
520.467	86.56
520.682	75.56
520.898	70.56
521.113	72.56
521.329	80.56
521.544	68.56
521.76	78.56
521.975	78.56
522.19	64.56
522.406	84.56
522.621	72.56
522.836	78.56
523.052	100.56
523.267	87.56
523.482	85.56
523.698	83.56
523.913	73.56
524.128	86.56
524.343	96.56
524.559	78.56
524.774	67.56
524.989	80.56
525.204	87.56
525.419	81.56
525.634	81.56
525.849	87.56
526.064	87.56
526.28	72.56
526.495	86.56
526.71	74.56
526.925	71.56
527.14	72.56
527.355	62.56
527.57	78.56
527.785	85.56
527.999	72.56
528.214	81.56
528.429	70.56
528.644	65.56
528.859	84.56
529.074	81.56
529.289	76.56
529.503	78.56
529.718	72.56
529.933	84.56
530.148	83.56
530.363	92.56
530.577	81.56
530.792	80.56
531.007	83.56
531.221	81.56
531.436	74.56
531.651	81.56
531.865	81.56
532.08	91.56
532.295	84.56
532.509	78.56
532.724	66.56
532.938	80.56
533.153	80.56
533.367	79.56
533.582	84.56
533.796	67.56
534.011	67.56
534.225	73.56
534.44	72.56
534.654	68.56
534.868	86.56
535.083	79.56
535.297	91.56
535.511	78.56
535.726	82.56
535.94	83.56
536.154	76.56
536.369	70.56
536.583	96.56
536.797	83.56
537.011	86.56
537.225	91.56
537.44	76.56
537.654	75.56
537.868	65.56
538.082	72.56
538.296	78.56
538.51	91.56
538.724	86.56
538.938	88.56
539.153	76.56
539.367	96.56
539.581	90.56
539.795	87.56
540.009	81.56
540.222	73.56
540.436	71.56
540.65	90.56
540.864	86.56
541.078	74.56
541.292	76.56
541.506	66.56
541.72	89.56
541.934	90.56
542.147	87.56
542.361	78.56
542.575	67.56
542.789	90.56
543.002	71.56
543.216	82.56
543.43	78.56
543.644	70.56
543.857	75.56
544.071	70.56
544.285	72.56
544.498	83.56
544.712	86.56
544.925	77.56
545.139	69.56
545.352	88.56
545.566	76.56
545.779	83.56
545.993	85.56
546.206	75.56
546.42	70.56
546.633	78.56
546.847	81.56
547.06	62.56
547.274	84.56
547.487	89.56
547.7	88.56
547.914	82.56
548.127	88.56
548.34	79.56
548.554	74.56
548.767	75.56
548.98	74.56
549.193	83.56
549.407	87.56
549.62	93.56
549.833	106.56
550.046	84.56
550.259	68.56
550.473	74.56
550.686	80.56
550.899	62.56
551.112	83.56
551.325	82.56
551.538	77.56
551.751	69.56
551.964	75.56
552.177	73.56
552.39	68.56
552.603	69.56
552.816	90.56
553.029	93.56
553.242	81.56
553.455	88.56
553.667	76.56
553.88	72.56
554.093	88.56
554.306	88.56
554.519	75.56
554.732	83.56
554.944	91.56
555.157	78.56
555.37	84.56
555.583	76.56
555.795	81.56
556.008	75.56
556.221	78.56
556.433	85.56
556.646	76.56
556.859	78.56
557.071	71.56
557.284	72.56
557.496	79.56
557.709	81.56
557.921	87.56
558.134	81.56
558.346	87.56
558.559	69.56
558.771	65.56
558.984	79.56
559.196	82.56
559.409	86.56
559.621	90.56
559.833	68.56
560.046	78.56
560.258	73.56
560.47	86.56
560.683	75.56
560.895	77.56
561.107	81.56
561.32	98.56
561.532	78.56
561.744	80.56
561.956	82.56
562.168	87.56
562.381	89.56
562.593	84.56
562.805	88.56
563.017	74.56
563.229	70.56
563.441	86.56
563.653	82.56
563.865	80.56
564.077	78.56
564.289	72.56
564.501	85.56
564.713	78.56
564.925	87.56
565.137	83.56
565.349	76.56
565.561	82.56
565.773	77.56
565.985	80.56
566.197	83.56
566.408	74.56
566.62	74.56
566.832	65.56
567.044	77.56
567.255	85.56
567.467	76.56
567.679	87.56
567.891	66.56
568.102	82.56
568.314	94.56
568.526	70.56
568.737	83.56
568.949	78.56
569.161	90.56
569.372	86.56
569.584	80.56
569.795	74.56
570.007	81.56
570.218	86.56
570.43	84.56
570.641	77.56
570.853	74.56
571.064	96.56
571.276	78.56
571.487	88.56
571.698	74.56
571.91	78.56
572.121	82.56
572.333	82.56
572.544	77.56
572.755	86.56
572.966	59.56
573.178	80.56
573.389	76.56
573.6	68.56
573.811	90.56
574.023	84.56
574.234	81.56
574.445	82.56
574.656	91.56
574.867	84.56
575.078	79.56
575.289	74.56
575.501	63.56
575.712	67.56
575.923	78.56
576.134	78.56
576.345	77.56
576.556	95.56
576.767	80.56
576.978	86.56
577.188	91.56
577.399	91.56
577.61	73.56
577.821	73.56
578.032	84.56
578.243	79.56
578.454	85.56
578.665	82.56
578.875	92.56
579.086	83.56
579.297	90.56
579.508	82.56
579.718	73.56
579.929	84.56
580.14	87.56
580.35	71.56
580.561	80.56
580.772	85.56
580.982	81.56
581.193	83.56
581.403	94.56
581.614	76.56
581.825	64.56
582.035	78.56
582.246	95.56
582.456	86.56
582.667	71.56
582.877	73.56
583.087	80.56
583.298	89.56
583.508	82.56
583.719	84.56
583.929	87.56
584.139	80.56
584.35	86.56
584.56	75.56
584.77	78.56
584.981	80.56
585.191	85.56
585.401	88.56
585.611	86.56
585.821	79.56
586.032	84.56
586.242	66.56
586.452	88.56
586.662	88.56
586.872	92.56
587.082	81.56
587.292	84.56
587.502	78.56
587.713	80.56
587.923	95.56
588.133	78.56
588.343	70.56
588.553	71.56
588.762	86.56
588.972	73.56
589.182	82.56
589.392	92.56
589.602	78.56
589.812	83.56
590.022	82.56
590.232	71.56
590.441	82.56
590.651	80.56
590.861	71.56
591.071	79.56
591.281	87.56
591.49	70.56
591.7	80.56
591.91	86.56
592.119	85.56
592.329	84.56
592.539	74.56
592.748	89.56
592.958	85.56
593.167	81.56
593.377	67.56
593.587	86.56
593.796	74.56
594.006	73.56
594.215	68.56
594.424	82.56
594.634	90.56
594.843	78.56
595.053	71.56
595.262	75.56
595.472	86.56
595.681	74.56
595.89	88.56
596.1	77.56
596.309	77.56
596.518	76.56
596.727	64.56
596.937	74.56
597.146	75.56
597.355	77.56
597.564	96.56
597.774	82.56
597.983	81.56
598.192	77.56
598.401	65.56
598.61	78.56
598.819	81.56
599.028	84.56
599.237	79.56
599.446	93.56
599.655	86.56
599.864	82.56
600.073	72.56
600.282	88.56
600.491	74.56
600.7	70.56
600.909	77.56
601.118	92.56
601.327	82.56
601.536	84.56
601.745	79.56
601.953	76.56
602.162	86.56
602.371	58.56
602.58	70.56
602.789	80.56
602.997	83.56
603.206	100.56
603.415	86.56
603.623	75.56
603.832	88.56
604.041	63.56
604.249	86.56
604.458	81.56
604.666	82.56
604.875	90.56
605.084	86.56
605.292	86.56
605.501	73.56
605.709	80.56
605.918	73.56
606.126	72.56
606.334	83.56
606.543	95.56
606.751	82.56
606.96	86.56
607.168	82.56
607.376	76.56
607.585	90.56
607.793	93.56
608.001	56.56
608.21	78.56
608.418	82.56
608.626	90.56
608.834	93.56
609.043	88.56
609.251	80.56
609.459	90.56
609.667	74.56
609.875	84.56
610.083	86.56
610.291	69.56
610.499	73.56
610.707	78.56
610.916	68.56
611.124	81.56
611.332	78.56
611.54	76.56
611.748	75.56
611.955	79.56
612.163	69.56
612.371	73.56
612.579	82.56
612.787	78.56
612.995	85.56
613.203	87.56
613.411	67.56
613.618	66.56
613.826	82.56
614.034	72.56
614.242	72.56
614.449	78.56
614.657	86.56
614.865	81.56
615.072	90.56
615.28	76.56
615.488	82.56
615.695	82.56
615.903	73.56
616.111	87.56
616.318	86.56
616.526	79.56
616.733	71.56
616.941	77.56
617.148	79.56
617.356	76.56
617.563	84.56
617.771	76.56
617.978	78.56
618.185	77.56
618.393	87.56
618.6	85.56
618.807	79.56
619.015	76.56
619.222	71.56
619.429	80.56
619.637	78.56
619.844	80.56
620.051	63.56
620.258	84.56
620.466	90.56
620.673	79.56
620.88	93.56
621.087	80.56
621.294	81.56
621.501	74.56
621.708	79.56
621.915	71.56
622.122	69.56
622.329	85.56
622.536	76.56
622.743	76.56
622.95	80.56
623.157	82.56
623.364	80.56
623.571	78.56
623.778	85.56
623.985	87.56
624.192	95.56
624.399	83.56
624.606	80.56
624.812	68.56
625.019	74.56
625.226	70.56
625.433	91.56
625.639	78.56
625.846	83.56
626.053	79.56
626.259	76.56
626.466	79.56
626.673	82.56
626.879	81.56
627.086	75.56
627.293	76.56
627.499	70.56
627.706	74.56
627.912	95.56
628.119	73.56
628.325	79.56
628.532	71.56
628.738	73.56
628.945	76.56
629.151	78.56
629.357	88.56
629.564	78.56
629.77	76.56
629.976	88.56
630.183	73.56
630.389	71.56
630.595	72.56
630.802	79.56
631.008	81.56
631.214	63.56
631.42	78.56
631.627	90.56
631.833	80.56
632.039	73.56
632.245	82.56
632.451	64.56
632.657	58.56
632.863	66.56
633.069	76.56
633.275	92.56
633.481	75.56
633.688	68.56
633.893	81.56
634.099	69.56
634.305	81.56
634.511	88.56
634.717	70.56
634.923	81.56
635.129	79.56
635.335	87.56
635.541	87.56
635.747	73.56
635.952	80.56
636.158	78.56
636.364	80.56
636.57	82.56
636.775	70.56
636.981	85.56
637.187	73.56
637.392	76.56
637.598	82.56
637.804	73.56
638.009	74.56
638.215	79.56
638.421	82.56
638.626	69.56
638.832	66.56
639.037	84.56
639.243	76.56
639.448	82.56
639.654	68.56
639.859	65.56
640.065	84.56
640.27	100.56
640.475	76.56
640.681	80.56
640.886	76.56
641.091	83.56
641.297	82.56
641.502	72.56
641.707	87.56
641.913	85.56
642.118	82.56
642.323	62.56
642.528	80.56
642.733	80.56
642.939	76.56
643.144	87.56
643.349	72.56
643.554	73.56
643.759	78.56
643.964	71.56
644.169	72.56
644.374	90.56
644.579	73.56
644.784	79.56
644.989	86.56
645.194	86.56
645.399	91.56
645.604	64.56
645.809	69.56
646.014	76.56
646.219	71.56
646.423	68.56
646.628	79.56
646.833	78.56
647.038	82.56
647.243	76.56
647.447	71.56
647.652	81.56
647.857	75.56
648.062	78.56
648.266	75.56
648.471	94.56
648.676	82.56
648.88	79.56
649.085	72.56
649.289	75.56
649.494	82.56
649.698	80.56
649.903	88.56
650.107	65.56
650.312	84.56
650.516	82.56
650.721	90.56
650.925	70.56
651.13	84.56
651.334	75.56
651.539	68.56
651.743	77.56
651.947	80.56
652.152	75.56
652.356	92.56
652.56	79.56
652.764	68.56
652.969	84.56
653.173	78.56
653.377	88.56
653.581	75.56
653.785	86.56
653.99	100.56
654.194	94.56
654.398	80.56
654.602	86.56
654.806	76.56
655.01	79.56
655.214	78.56
655.418	76.56
655.622	82.56
655.826	69.56
656.03	86.56
656.234	75.56
656.438	82.56
656.642	78.56
656.846	63.56
657.049	76.56
657.253	79.56
657.457	78.56
657.661	78.56
657.865	76.56
658.068	76.56
658.272	72.56
658.476	71.56
658.68	89.56
658.883	78.56
659.087	80.56
659.291	79.56
659.494	93.56
659.698	73.56
659.901	75.56
660.105	81.56
660.309	76.56
660.512	93.56
660.716	76.56
660.919	85.56
661.123	80.56
661.326	72.56
661.53	73.56
661.733	72.56
661.936	68.56
662.14	68.56
662.343	76.56
662.546	70.56
662.75	85.56
662.953	76.56
663.156	91.56
663.36	79.56
663.563	80.56
663.766	76.56
663.969	75.56
664.173	73.56
664.376	62.56
664.579	87.56
664.782	83.56
664.985	81.56
665.188	85.56
665.391	67.56
665.594	71.56
665.797	62.56
666	81.56
666.203	85.56
666.406	85.56
666.609	74.56
666.812	74.56
667.015	73.56
667.218	70.56
667.421	87.56
667.624	86.56
667.827	65.56
668.03	73.56
668.232	95.56
668.435	74.56
668.638	86.56
668.841	76.56
669.043	72.56
669.246	76.56
669.449	75.56
669.651	91.56
669.854	77.56
670.057	68.56
670.259	66.56
670.462	76.56
670.665	95.56
670.867	78.56
671.07	83.56
671.272	83.56
671.475	67.56
671.677	65.56
671.88	81.56
672.082	71.56
672.284	71.56
672.487	84.56
672.689	85.56
672.892	88.56
