Data from Lead_5_1_HRD10591_00001.txt Node
Date: Fri Feb 20 11:08:24 EST 2026
User: Yrep
Spectrometer: HR+D1059
Trigger mode: 1
Integration Time (sec): 1.000000E-1
Scans to average: 1
Electric dark correction enabled: true
Nonlinearity correction enabled: false
Boxcar width: 0
XAxis mode: Wavelengths
Number of Pixels in Spectrum: 2048
>>>>>Begin Spectral Data<<<<<
223.165	-16.5
223.4	-16.5
223.635	-16.5
223.869	8.5
224.104	-10.5
224.338	-24.5
224.573	-12.5
224.808	-19.5
225.042	0.5
225.277	-19.5
225.511	-2.5
225.746	7.5
225.98	3.5
226.215	7.5
226.449	1.5
226.683	17.5
226.918	26.5
227.152	32.5
227.387	29.5
227.621	28.5
227.856	55.5
228.09	47.5
228.324	48.5
228.559	65.5
228.793	68.5
229.027	61.5
229.262	59.5
229.496	64.5
229.73	67.5
229.964	60.5
230.199	79.5
230.433	75.5
230.667	81.5
230.901	84.5
231.136	75.5
231.37	80.5
231.604	80.5
231.838	80.5
232.072	81.5
232.306	76.5
232.541	86.5
232.775	79.5
233.009	79.5
233.243	70.5
233.477	71.5
233.711	91.5
233.945	82.5
234.179	84.5
234.413	84.5
234.647	86.5
234.881	80.5
235.115	84.5
235.349	78.5
235.583	78.5
235.817	77.5
236.051	60.5
236.285	77.5
236.519	77.5
236.753	76.5
236.987	70.5
237.221	74.5
237.455	83.5
237.689	79.5
237.922	78.5
238.156	79.5
238.39	81.5
238.624	76.5
238.858	74.5
239.091	80.5
239.325	76.5
239.559	73.5
239.793	81.5
240.027	76.5
240.26	69.5
240.494	82.5
240.728	77.5
240.961	71.5
241.195	73.5
241.429	76.5
241.662	75.5
241.896	84.5
242.13	78.5
242.363	74.5
242.597	81.5
242.83	63.5
243.064	78.5
243.298	78.5
243.531	75.5
243.765	73.5
243.998	89.5
244.232	80.5
244.465	74.5
244.699	70.5
244.932	93.5
245.166	77.5
245.399	94.5
245.633	78.5
245.866	92.5
246.099	85.5
246.333	79.5
246.566	69.5
246.8	88.5
247.033	73.5
247.266	85.5
247.5	84.5
247.733	69.5
247.966	68.5
248.2	72.5
248.433	82.5
248.666	85.5
248.899	73.5
249.133	73.5
249.366	77.5
249.599	100.5
249.832	89.5
250.066	79.5
250.299	75.5
250.532	75.5
250.765	77.5
250.998	84.5
251.231	86.5
251.465	68.5
251.698	77.5
251.931	74.5
252.164	81.5
252.397	83.5
252.63	77.5
252.863	78.5
253.096	76.5
253.329	61.5
253.562	67.5
253.795	72.5
254.028	81.5
254.261	80.5
254.494	69.5
254.727	82.5
254.96	83.5
255.193	86.5
255.426	85.5
255.659	68.5
255.892	66.5
256.124	87.5
256.357	76.5
256.59	91.5
256.823	81.5
257.056	81.5
257.289	81.5
257.521	96.5
257.754	81.5
257.987	86.5
258.22	75.5
258.452	74.5
258.685	87.5
258.918	76.5
259.151	81.5
259.383	67.5
259.616	72.5
259.849	76.5
260.081	78.5
260.314	80.5
260.547	88.5
260.779	87.5
261.012	79.5
261.244	85.5
261.477	88.5
261.71	88.5
261.942	99.5
262.175	75.5
262.407	77.5
262.64	78.5
262.872	85.5
263.105	78.5
263.337	93.5
263.57	78.5
263.802	89.5
264.035	82.5
264.267	87.5
264.499	74.5
264.732	88.5
264.964	74.5
265.197	73.5
265.429	77.5
265.661	86.5
265.894	98.5
266.126	88.5
266.358	70.5
266.591	88.5
266.823	89.5
267.055	92.5
267.287	89.5
267.52	86.5
267.752	81.5
267.984	93.5
268.216	86.5
268.448	88.5
268.681	81.5
268.913	86.5
269.145	84.5
269.377	72.5
269.609	75.5
269.841	85.5
270.073	72.5
270.306	76.5
270.538	92.5
270.77	88.5
271.002	81.5
271.234	67.5
271.466	74.5
271.698	88.5
271.93	77.5
272.162	72.5
272.394	90.5
272.626	91.5
272.858	78.5
273.09	73.5
273.322	90.5
273.553	83.5
273.785	91.5
274.017	77.5
274.249	77.5
274.481	97.5
274.713	81.5
274.945	88.5
275.176	76.5
275.408	85.5
275.64	84.5
275.872	81.5
276.104	94.5
276.335	63.5
276.567	72.5
276.799	78.5
277.031	76.5
277.262	85.5
277.494	72.5
277.726	87.5
277.957	88.5
278.189	83.5
278.421	79.5
278.652	84.5
278.884	80.5
279.115	81.5
279.347	84.5
279.579	79.5
279.81	79.5
280.042	83.5
280.273	83.5
280.505	77.5
280.736	85.5
280.968	85.5
281.199	83.5
281.431	71.5
281.662	78.5
281.894	87.5
282.125	91.5
282.356	76.5
282.588	69.5
282.819	86.5
283.051	83.5
283.282	94.5
283.513	90.5
283.745	90.5
283.976	76.5
284.207	88.5
284.439	97.5
284.67	106.5
284.901	79.5
285.132	82.5
285.364	71.5
285.595	90.5
285.826	83.5
286.057	77.5
286.288	91.5
286.52	84.5
286.751	78.5
286.982	85.5
287.213	85.5
287.444	88.5
287.675	95.5
287.906	88.5
288.138	76.5
288.369	75.5
288.6	86.5
288.831	89.5
289.062	93.5
289.293	89.5
289.524	93.5
289.755	95.5
289.986	90.5
290.217	73.5
290.448	87.5
290.679	90.5
290.91	83.5
291.141	81.5
291.371	85.5
291.602	83.5
291.833	83.5
292.064	83.5
292.295	96.5
292.526	82.5
292.757	73.5
292.987	106.5
293.218	90.5
293.449	72.5
293.68	89.5
293.91	85.5
294.141	84.5
294.372	77.5
294.603	79.5
294.833	93.5
295.064	96.5
295.295	68.5
295.525	80.5
295.756	96.5
295.987	90.5
296.217	85.5
296.448	83.5
296.679	82.5
296.909	71.5
297.14	91.5
297.37	85.5
297.601	90.5
297.831	87.5
298.062	86.5
298.292	107.5
298.523	96.5
298.753	81.5
298.984	86.5
299.214	89.5
299.445	86.5
299.675	74.5
299.905	88.5
300.136	87.5
300.366	69.5
300.597	87.5
300.827	72.5
301.057	94.5
301.288	90.5
301.518	99.5
301.748	89.5
301.979	119.5
302.209	85.5
302.439	81.5
302.669	78.5
302.9	79.5
303.13	85.5
303.36	84.5
303.59	88.5
303.82	71.5
304.051	89.5
304.281	96.5
304.511	102.5
304.741	103.5
304.971	109.5
305.201	91.5
305.431	99.5
305.661	85.5
305.891	92.5
306.121	80.5
306.352	86.5
306.582	86.5
306.812	89.5
307.042	76.5
307.272	95.5
307.502	80.5
307.731	89.5
307.961	85.5
308.191	92.5
308.421	93.5
308.651	95.5
308.881	93.5
309.111	100.5
309.341	102.5
309.571	94.5
309.8	89.5
310.03	97.5
310.26	80.5
310.49	93.5
310.72	83.5
310.949	83.5
311.179	80.5
311.409	86.5
311.639	77.5
311.868	90.5
312.098	84.5
312.328	91.5
312.557	100.5
312.787	90.5
313.017	95.5
313.246	79.5
313.476	76.5
313.706	77.5
313.935	80.5
314.165	87.5
314.394	76.5
314.624	86.5
314.853	89.5
315.083	89.5
315.312	77.5
315.542	91.5
315.771	90.5
316.001	85.5
316.23	83.5
316.46	100.5
316.689	81.5
316.919	89.5
317.148	86.5
317.377	105.5
317.607	73.5
317.836	95.5
318.065	89.5
318.295	76.5
318.524	81.5
318.753	84.5
318.983	91.5
319.212	93.5
319.441	93.5
319.67	93.5
319.9	89.5
320.129	85.5
320.358	89.5
320.587	87.5
320.816	74.5
321.046	94.5
321.275	72.5
321.504	84.5
321.733	79.5
321.962	78.5
322.191	81.5
322.42	98.5
322.649	76.5
322.878	95.5
323.108	91.5
323.337	77.5
323.566	68.5
323.795	99.5
324.024	90.5
324.253	89.5
324.482	85.5
324.71	87.5
324.939	96.5
325.168	71.5
325.397	94.5
325.626	84.5
325.855	77.5
326.084	91.5
326.313	85.5
326.542	88.5
326.77	88.5
326.999	92.5
327.228	81.5
327.457	77.5
327.686	101.5
327.914	80.5
328.143	83.5
328.372	83.5
328.6	87.5
328.829	71.5
329.058	85.5
329.287	76.5
329.515	96.5
329.744	85.5
329.972	100.5
330.201	100.5
330.43	87.5
330.658	89.5
330.887	88.5
331.115	91.5
331.344	102.5
331.572	87.5
331.801	82.5
332.03	85.5
332.258	84.5
332.486	88.5
332.715	91.5
332.943	82.5
333.172	87.5
333.4	77.5
333.629	87.5
333.857	77.5
334.085	85.5
334.314	97.5
334.542	86.5
334.771	90.5
334.999	99.5
335.227	90.5
335.455	85.5
335.684	81.5
335.912	77.5
336.14	86.5
336.369	68.5
336.597	82.5
336.825	74.5
337.053	89.5
337.281	92.5
337.51	88.5
337.738	87.5
337.966	85.5
338.194	80.5
338.422	91.5
338.65	83.5
338.878	85.5
339.106	84.5
339.334	105.5
339.562	83.5
339.79	73.5
340.018	77.5
340.246	85.5
340.474	67.5
340.702	83.5
340.93	85.5
341.158	78.5
341.386	83.5
341.614	86.5
341.842	73.5
342.07	83.5
342.298	85.5
342.526	90.5
342.754	73.5
342.981	91.5
343.209	88.5
343.437	99.5
343.665	74.5
343.893	75.5
344.12	98.5
344.348	87.5
344.576	96.5
344.804	80.5
345.031	80.5
345.259	82.5
345.487	92.5
345.714	86.5
345.942	85.5
346.17	87.5
346.397	83.5
346.625	80.5
346.853	74.5
347.08	93.5
347.308	83.5
347.535	75.5
347.763	88.5
347.99	81.5
348.218	84.5
348.445	87.5
348.673	77.5
348.9	77.5
349.128	88.5
349.355	91.5
349.583	88.5
349.81	69.5
350.037	77.5
350.265	73.5
350.492	93.5
350.72	83.5
350.947	83.5
351.174	82.5
351.402	91.5
351.629	75.5
351.856	75.5
352.083	78.5
352.311	82.5
352.538	83.5
352.765	84.5
352.992	90.5
353.22	85.5
353.447	75.5
353.674	87.5
353.901	80.5
354.128	78.5
354.355	87.5
354.583	77.5
354.81	99.5
355.037	89.5
355.264	92.5
355.491	88.5
355.718	82.5
355.945	70.5
356.172	80.5
356.399	80.5
356.626	88.5
356.853	95.5
357.08	92.5
357.307	88.5
357.534	84.5
357.761	87.5
357.988	101.5
358.215	85.5
358.441	90.5
358.668	84.5
358.895	93.5
359.122	89.5
359.349	79.5
359.576	87.5
359.802	86.5
360.029	91.5
360.256	75.5
360.483	80.5
360.709	85.5
360.936	88.5
361.163	79.5
361.39	89.5
361.616	66.5
361.843	92.5
362.07	73.5
362.296	81.5
362.523	90.5
362.749	81.5
362.976	85.5
363.203	94.5
363.429	84.5
363.656	93.5
363.882	100.5
364.109	106.5
364.335	89.5
364.562	88.5
364.788	92.5
365.015	92.5
365.241	85.5
365.468	97.5
365.694	64.5
365.92	73.5
366.147	89.5
366.373	98.5
366.599	69.5
366.826	83.5
367.052	72.5
367.278	78.5
367.505	90.5
367.731	99.5
367.957	85.5
368.184	94.5
368.41	106.5
368.636	103.5
368.862	91.5
369.089	78.5
369.315	76.5
369.541	87.5
369.767	77.5
369.993	85.5
370.219	87.5
370.445	82.5
370.672	78.5
370.898	77.5
371.124	88.5
371.35	87.5
371.576	87.5
371.802	89.5
372.028	99.5
372.254	69.5
372.48	71.5
372.706	71.5
372.932	93.5
373.158	91.5
373.384	98.5
373.61	85.5
373.835	92.5
374.061	86.5
374.287	99.5
374.513	78.5
374.739	91.5
374.965	81.5
375.191	75.5
375.416	76.5
375.642	89.5
375.868	88.5
376.094	86.5
376.319	82.5
376.545	88.5
376.771	75.5
376.997	77.5
377.222	66.5
377.448	88.5
377.674	86.5
377.899	76.5
378.125	85.5
378.35	65.5
378.576	77.5
378.802	79.5
379.027	86.5
379.253	86.5
379.478	81.5
379.704	73.5
379.929	70.5
380.155	87.5
380.38	85.5
380.606	80.5
380.831	82.5
381.057	81.5
381.282	98.5
381.507	93.5
381.733	80.5
381.958	95.5
382.184	81.5
382.409	92.5
382.634	93.5
382.86	87.5
383.085	94.5
383.31	95.5
383.535	93.5
383.761	84.5
383.986	83.5
384.211	80.5
384.436	67.5
384.662	85.5
384.887	74.5
385.112	83.5
385.337	97.5
385.562	84.5
385.787	80.5
386.013	86.5
386.238	86.5
386.463	83.5
386.688	99.5
386.913	80.5
387.138	92.5
387.363	78.5
387.588	87.5
387.813	79.5
388.038	93.5
388.263	86.5
388.488	59.5
388.713	82.5
388.938	89.5
389.163	61.5
389.387	86.5
389.612	73.5
389.837	74.5
390.062	77.5
390.287	82.5
390.512	87.5
390.736	78.5
390.961	83.5
391.186	92.5
391.411	78.5
391.636	86.5
391.86	89.5
392.085	86.5
392.31	84.5
392.534	81.5
392.759	89.5
392.984	102.5
393.208	122.5
393.433	129.5
393.658	106.5
393.882	88.5
394.107	90.5
394.331	107.5
394.556	130.5
394.78	104.5
395.005	79.5
395.229	72.5
395.454	87.5
395.678	74.5
395.903	108.5
396.127	157.5
396.352	142.5
396.576	108.5
396.801	118.5
397.025	105.5
397.249	99.5
397.474	85.5
397.698	61.5
397.922	97.5
398.147	76.5
398.371	72.5
398.595	62.5
398.82	76.5
399.044	85.5
399.268	83.5
399.492	62.5
399.717	69.5
399.941	89.5
400.165	70.5
400.389	78.5
400.613	97.5
400.837	75.5
401.062	77.5
401.286	81.5
401.51	92.5
401.734	81.5
401.958	84.5
402.182	89.5
402.406	83.5
402.63	86.5
402.854	80.5
403.078	84.5
403.302	91.5
403.526	78.5
403.75	86.5
403.974	81.5
404.198	97.5
404.422	120.5
404.645	134.5
404.869	104.5
405.093	99.5
405.317	95.5
405.541	96.5
405.765	109.5
405.988	116.5
406.212	87.5
406.436	74.5
406.66	76.5
406.883	79.5
407.107	81.5
407.331	76.5
407.555	87.5
407.778	76.5
408.002	72.5
408.226	95.5
408.449	84.5
408.673	87.5
408.896	80.5
409.12	64.5
409.344	63.5
409.567	93.5
409.791	83.5
410.014	90.5
410.238	85.5
410.461	80.5
410.685	88.5
410.908	81.5
411.132	81.5
411.355	85.5
411.578	77.5
411.802	82.5
412.025	73.5
412.249	76.5
412.472	59.5
412.695	75.5
412.919	78.5
413.142	76.5
413.365	85.5
413.589	90.5
413.812	85.5
414.035	75.5
414.258	81.5
414.482	76.5
414.705	78.5
414.928	95.5
415.151	89.5
415.374	76.5
415.597	84.5
415.821	83.5
416.044	79.5
416.267	84.5
416.49	78.5
416.713	79.5
416.936	84.5
417.159	84.5
417.382	77.5
417.605	85.5
417.828	85.5
418.051	80.5
418.274	79.5
418.497	90.5
418.72	71.5
418.943	81.5
419.166	77.5
419.389	100.5
419.611	76.5
419.834	83.5
420.057	86.5
420.28	84.5
420.503	74.5
420.726	79.5
420.948	76.5
421.171	89.5
421.394	89.5
421.617	77.5
421.839	92.5
422.062	77.5
422.285	92.5
422.507	121.5
422.73	168.5
422.953	140.5
423.175	101.5
423.398	91.5
423.621	92.5
423.843	82.5
424.066	85.5
424.288	86.5
424.511	87.5
424.733	98.5
424.956	87.5
425.178	99.5
425.401	89.5
425.623	86.5
425.846	75.5
426.068	93.5
426.291	85.5
426.513	82.5
426.735	97.5
426.958	70.5
427.18	88.5
427.402	81.5
427.625	85.5
427.847	88.5
428.069	89.5
428.292	76.5
428.514	80.5
428.736	81.5
428.958	92.5
429.181	88.5
429.403	91.5
429.625	106.5
429.847	75.5
430.069	94.5
430.292	92.5
430.514	98.5
430.736	93.5
430.958	85.5
431.18	75.5
431.402	69.5
431.624	73.5
431.846	88.5
432.068	85.5
432.29	85.5
432.512	77.5
432.734	90.5
432.956	71.5
433.178	75.5
433.4	71.5
433.622	86.5
433.844	76.5
434.066	83.5
434.287	77.5
434.509	76.5
434.731	85.5
434.953	83.5
435.175	73.5
435.397	81.5
435.618	72.5
435.84	79.5
436.062	95.5
436.284	94.5
436.505	87.5
436.727	93.5
436.949	92.5
437.17	69.5
437.392	87.5
437.614	78.5
437.835	82.5
438.057	88.5
438.278	68.5
438.5	83.5
438.721	86.5
438.943	72.5
439.165	84.5
439.386	87.5
439.608	79.5
439.829	74.5
440.05	86.5
440.272	67.5
440.493	81.5
440.715	81.5
440.936	92.5
441.158	79.5
441.379	84.5
441.6	74.5
441.822	81.5
442.043	100.5
442.264	89.5
442.486	74.5
442.707	84.5
442.928	93.5
443.149	87.5
443.371	82.5
443.592	99.5
443.813	85.5
444.034	93.5
444.255	89.5
444.476	78.5
444.698	85.5
444.919	68.5
445.14	157.5
445.361	131.5
445.582	93.5
445.803	107.5
446.024	76.5
446.245	84.5
446.466	85.5
446.687	90.5
446.908	97.5
447.129	101.5
447.35	87.5
447.571	81.5
447.792	76.5
448.013	79.5
448.234	63.5
448.455	92.5
448.675	85.5
448.896	69.5
449.117	93.5
449.338	78.5
449.559	86.5
449.779	70.5
450	91.5
450.221	88.5
450.442	81.5
450.662	61.5
450.883	79.5
451.104	84.5
451.324	96.5
451.545	82.5
451.766	71.5
451.986	78.5
452.207	80.5
452.428	83.5
452.648	81.5
452.869	96.5
453.089	88.5
453.31	82.5
453.53	77.5
453.751	90.5
453.971	86.5
454.192	81.5
454.412	91.5
454.633	85.5
454.853	83.5
455.073	74.5
455.294	77.5
455.514	83.5
455.734	76.5
455.955	76.5
456.175	83.5
456.395	87.5
456.616	85.5
456.836	99.5
457.056	92.5
457.276	84.5
457.497	80.5
457.717	102.5
457.937	59.5
458.157	81.5
458.377	73.5
458.598	77.5
458.818	73.5
459.038	92.5
459.258	89.5
459.478	82.5
459.698	65.5
459.918	101.5
460.138	88.5
460.358	90.5
460.578	91.5
460.798	81.5
461.018	84.5
461.238	95.5
461.458	86.5
461.678	71.5
461.898	97.5
462.118	83.5
462.338	83.5
462.558	90.5
462.777	96.5
462.997	74.5
463.217	84.5
463.437	90.5
463.657	91.5
463.876	86.5
464.096	75.5
464.316	79.5
464.536	83.5
464.755	80.5
464.975	76.5
465.195	87.5
465.414	80.5
465.634	96.5
465.854	73.5
466.073	89.5
466.293	84.5
466.512	78.5
466.732	85.5
466.951	67.5
467.171	80.5
467.391	83.5
467.61	84.5
467.829	76.5
468.049	84.5
468.268	75.5
468.488	78.5
468.707	84.5
468.927	88.5
469.146	85.5
469.365	80.5
469.585	74.5
469.804	83.5
470.023	88.5
470.243	83.5
470.462	92.5
470.681	97.5
470.901	87.5
471.12	68.5
471.339	85.5
471.558	83.5
471.777	85.5
471.997	83.5
472.216	82.5
472.435	69.5
472.654	91.5
472.873	95.5
473.092	77.5
473.311	88.5
473.53	81.5
473.749	87.5
473.968	81.5
474.187	86.5
474.406	84.5
474.625	94.5
474.844	99.5
475.063	97.5
475.282	79.5
475.501	86.5
475.72	70.5
475.939	81.5
476.158	81.5
476.377	89.5
476.596	92.5
476.814	79.5
477.033	82.5
477.252	87.5
477.471	82.5
477.69	83.5
477.908	87.5
478.127	90.5
478.346	89.5
478.564	81.5
478.783	84.5
479.002	68.5
479.22	88.5
479.439	91.5
479.658	92.5
479.876	65.5
480.095	75.5
480.313	76.5
480.532	91.5
480.751	87.5
480.969	86.5
481.188	95.5
481.406	87.5
481.624	84.5
481.843	85.5
482.061	85.5
482.28	92.5
482.498	80.5
482.717	83.5
482.935	76.5
483.153	82.5
483.372	89.5
483.59	93.5
483.808	87.5
484.027	78.5
484.245	84.5
484.463	80.5
484.681	80.5
484.9	80.5
485.118	85.5
485.336	87.5
485.554	84.5
485.772	91.5
485.99	87.5
486.209	84.5
486.427	94.5
486.645	97.5
486.863	83.5
487.081	82.5
487.299	75.5
487.517	85.5
487.735	84.5
487.953	94.5
488.171	100.5
488.389	100.5
488.607	86.5
488.825	79.5
489.043	88.5
489.261	85.5
489.479	101.5
489.696	91.5
489.914	89.5
490.132	87.5
490.35	78.5
490.568	85.5
490.786	92.5
491.003	93.5
491.221	83.5
491.439	72.5
491.657	92.5
491.874	94.5
492.092	82.5
492.31	82.5
492.527	72.5
492.745	91.5
492.963	91.5
493.18	83.5
493.398	77.5
493.615	99.5
493.833	65.5
494.05	73.5
494.268	87.5
494.485	89.5
494.703	83.5
494.92	77.5
495.138	97.5
495.355	80.5
495.573	96.5
495.79	87.5
496.008	87.5
496.225	94.5
496.442	75.5
496.66	84.5
496.877	85.5
497.094	97.5
497.312	92.5
497.529	91.5
497.746	87.5
497.963	94.5
498.181	81.5
498.398	90.5
498.615	93.5
498.832	93.5
499.049	101.5
499.267	95.5
499.484	83.5
499.701	97.5
499.918	91.5
500.135	92.5
500.352	85.5
500.569	96.5
500.786	93.5
501.003	96.5
501.22	97.5
501.437	78.5
501.654	82.5
501.871	97.5
502.088	99.5
502.305	83.5
502.522	92.5
502.739	77.5
502.956	77.5
503.172	96.5
503.389	98.5
503.606	97.5
503.823	76.5
504.04	79.5
504.256	84.5
504.473	89.5
504.69	88.5
504.907	94.5
505.123	91.5
505.34	80.5
505.557	88.5
505.773	83.5
505.99	92.5
506.207	83.5
506.423	86.5
506.64	91.5
506.856	88.5
507.073	82.5
507.289	86.5
507.506	81.5
507.722	87.5
507.939	95.5
508.155	88.5
508.372	78.5
508.588	80.5
508.805	88.5
509.021	87.5
509.238	94.5
509.454	96.5
509.67	85.5
509.887	91.5
510.103	105.5
510.319	81.5
510.536	77.5
510.752	95.5
510.968	91.5
511.184	89.5
511.401	90.5
511.617	101.5
511.833	87.5
512.049	91.5
512.265	87.5
512.481	98.5
512.698	92.5
512.914	78.5
513.13	69.5
513.346	63.5
513.562	88.5
513.778	79.5
513.994	77.5
514.21	91.5
514.426	81.5
514.642	77.5
514.858	91.5
515.074	73.5
515.29	104.5
515.506	90.5
515.721	90.5
515.937	83.5
516.153	87.5
516.369	81.5
516.585	85.5
516.801	90.5
517.016	82.5
517.232	92.5
517.448	93.5
517.664	78.5
517.879	92.5
518.095	89.5
518.311	82.5
518.527	69.5
518.742	80.5
518.958	91.5
519.173	92.5
519.389	83.5
519.605	72.5
519.82	89.5
520.036	92.5
520.251	69.5
520.467	84.5
520.682	90.5
520.898	96.5
521.113	77.5
521.329	84.5
521.544	83.5
521.76	89.5
521.975	83.5
522.19	85.5
522.406	83.5
522.621	87.5
522.836	91.5
523.052	81.5
523.267	79.5
523.482	69.5
523.698	78.5
523.913	83.5
524.128	92.5
524.343	96.5
524.559	85.5
524.774	69.5
524.989	91.5
525.204	85.5
525.419	92.5
525.634	87.5
525.849	87.5
526.064	93.5
526.28	101.5
526.495	105.5
526.71	116.5
526.925	94.5
527.14	95.5
527.355	92.5
527.57	98.5
527.785	89.5
527.999	89.5
528.214	81.5
528.429	85.5
528.644	76.5
528.859	99.5
529.074	87.5
529.289	91.5
529.503	88.5
529.718	80.5
529.933	83.5
530.148	90.5
530.363	89.5
530.577	80.5
530.792	85.5
531.007	89.5
531.221	86.5
531.436	83.5
531.651	81.5
531.865	80.5
532.08	92.5
532.295	83.5
532.509	87.5
532.724	87.5
532.938	99.5
533.153	81.5
533.367	77.5
533.582	75.5
533.796	85.5
534.011	71.5
534.225	97.5
534.44	91.5
534.654	99.5
534.868	81.5
535.083	90.5
535.297	92.5
535.511	81.5
535.726	85.5
535.94	92.5
536.154	72.5
536.369	88.5
536.583	95.5
536.797	88.5
537.011	88.5
537.225	86.5
537.44	93.5
537.654	71.5
537.868	83.5
538.082	89.5
538.296	81.5
538.51	99.5
538.724	91.5
538.938	83.5
539.153	93.5
539.367	70.5
539.581	81.5
539.795	81.5
540.009	86.5
540.222	87.5
540.436	98.5
540.65	103.5
540.864	75.5
541.078	82.5
541.292	75.5
541.506	80.5
541.72	81.5
541.934	78.5
542.147	102.5
542.361	91.5
542.575	81.5
542.789	94.5
543.002	87.5
543.216	81.5
543.43	83.5
543.644	84.5
543.857	81.5
544.071	93.5
544.285	97.5
544.498	87.5
544.712	82.5
544.925	77.5
545.139	85.5
545.352	98.5
545.566	88.5
545.779	95.5
545.993	89.5
546.206	100.5
546.42	85.5
546.633	97.5
546.847	87.5
547.06	89.5
547.274	105.5
547.487	96.5
547.7	83.5
547.914	87.5
548.127	84.5
548.34	91.5
548.554	101.5
548.767	86.5
548.98	85.5
549.193	92.5
549.407	80.5
549.62	107.5
549.833	93.5
550.046	89.5
550.259	81.5
550.473	85.5
550.686	91.5
550.899	91.5
551.112	93.5
551.325	104.5
551.538	86.5
551.751	99.5
551.964	87.5
552.177	86.5
552.39	92.5
552.603	92.5
552.816	88.5
553.029	96.5
553.242	97.5
553.455	95.5
553.667	87.5
553.88	94.5
554.093	86.5
554.306	72.5
554.519	95.5
554.732	88.5
554.944	81.5
555.157	86.5
555.37	84.5
555.583	93.5
555.795	94.5
556.008	86.5
556.221	93.5
556.433	88.5
556.646	89.5
556.859	91.5
557.071	86.5
557.284	100.5
557.496	91.5
557.709	85.5
557.921	88.5
558.134	89.5
558.346	83.5
558.559	93.5
558.771	107.5
558.984	100.5
559.196	111.5
559.409	83.5
559.621	97.5
559.833	105.5
560.046	98.5
560.258	91.5
560.47	89.5
560.683	90.5
560.895	72.5
561.107	84.5
561.32	81.5
561.532	84.5
561.744	85.5
561.956	108.5
562.168	93.5
562.381	87.5
562.593	85.5
562.805	87.5
563.017	89.5
563.229	97.5
563.441	94.5
563.653	91.5
563.865	84.5
564.077	92.5
564.289	81.5
564.501	92.5
564.713	92.5
564.925	85.5
565.137	77.5
565.349	100.5
565.561	85.5
565.773	95.5
565.985	100.5
566.197	80.5
566.408	82.5
566.62	95.5
566.832	86.5
567.044	95.5
567.255	81.5
567.467	90.5
567.679	86.5
567.891	98.5
568.102	101.5
568.314	97.5
568.526	108.5
568.737	108.5
568.949	115.5
569.161	119.5
569.372	106.5
569.584	96.5
569.795	102.5
570.007	102.5
570.218	96.5
570.43	76.5
570.641	82.5
570.853	95.5
571.064	88.5
571.276	86.5
571.487	89.5
571.698	97.5
571.91	90.5
572.121	81.5
572.333	90.5
572.544	83.5
572.755	77.5
572.966	79.5
573.178	97.5
573.389	91.5
573.6	99.5
573.811	91.5
574.023	81.5
574.234	79.5
574.445	92.5
574.656	84.5
574.867	86.5
575.078	93.5
575.289	95.5
575.501	85.5
575.712	100.5
575.923	98.5
576.134	90.5
576.345	103.5
576.556	96.5
576.767	92.5
576.978	79.5
577.188	82.5
577.399	81.5
577.61	88.5
577.821	87.5
578.032	82.5
578.243	79.5
578.454	91.5
578.665	95.5
578.875	95.5
579.086	81.5
579.297	91.5
579.508	88.5
579.718	84.5
579.929	91.5
580.14	96.5
580.35	93.5
580.561	95.5
580.772	95.5
580.982	93.5
581.193	87.5
581.403	92.5
581.614	112.5
581.825	78.5
582.035	75.5
582.246	85.5
582.456	80.5
582.667	66.5
582.877	82.5
583.087	87.5
583.298	109.5
583.508	95.5
583.719	90.5
583.929	88.5
584.139	90.5
584.35	75.5
584.56	104.5
584.77	95.5
584.981	90.5
585.191	91.5
585.401	83.5
585.611	85.5
585.821	77.5
586.032	97.5
586.242	77.5
586.452	87.5
586.662	90.5
586.872	103.5
587.082	100.5
587.292	96.5
587.502	93.5
587.713	115.5
587.923	106.5
588.133	122.5
588.343	125.5
588.553	159.5
588.762	229.5
588.972	402.5
589.182	596.5
589.392	531.5
589.602	453.5
589.812	581.5
590.022	413.5
590.232	218.5
590.441	141.5
590.651	136.5
590.861	116.5
591.071	116.5
591.281	102.5
591.49	91.5
591.7	96.5
591.91	100.5
592.119	85.5
592.329	97.5
592.539	89.5
592.748	93.5
592.958	82.5
593.167	91.5
593.377	84.5
593.587	95.5
593.796	88.5
594.006	98.5
594.215	96.5
594.424	87.5
594.634	113.5
594.843	89.5
595.053	81.5
595.262	86.5
595.472	89.5
595.681	77.5
595.89	96.5
596.1	78.5
596.309	84.5
596.518	87.5
596.727	86.5
596.937	87.5
597.146	73.5
597.355	91.5
597.564	88.5
597.774	87.5
597.983	87.5
598.192	86.5
598.401	97.5
598.61	88.5
598.819	86.5
599.028	78.5
599.237	76.5
599.446	78.5
599.655	81.5
599.864	91.5
600.073	81.5
600.282	79.5
600.491	93.5
600.7	95.5
600.909	89.5
601.118	85.5
601.327	89.5
601.536	87.5
601.745	87.5
601.953	90.5
602.162	91.5
602.371	98.5
602.58	88.5
602.789	81.5
602.997	73.5
603.206	97.5
603.415	83.5
603.623	87.5
603.832	91.5
604.041	84.5
604.249	80.5
604.458	75.5
604.666	81.5
604.875	86.5
605.084	78.5
605.292	96.5
605.501	92.5
605.709	106.5
605.918	97.5
606.126	90.5
606.334	95.5
606.543	104.5
606.751	81.5
606.96	95.5
607.168	80.5
607.376	98.5
607.585	95.5
607.793	93.5
608.001	81.5
608.21	92.5
608.418	98.5
608.626	78.5
608.834	90.5
609.043	91.5
609.251	96.5
609.459	95.5
609.667	102.5
609.875	90.5
610.083	99.5
610.291	101.5
610.499	103.5
610.707	83.5
610.916	78.5
611.124	91.5
611.332	84.5
611.54	101.5
611.748	78.5
611.955	91.5
612.163	85.5
612.371	104.5
612.579	105.5
612.787	91.5
612.995	96.5
613.203	97.5
613.411	92.5
613.618	97.5
613.826	90.5
614.034	75.5
614.242	92.5
614.449	84.5
614.657	87.5
614.865	89.5
615.072	90.5
615.28	78.5
615.488	81.5
615.695	102.5
615.903	98.5
616.111	92.5
616.318	125.5
616.526	107.5
616.733	109.5
616.941	99.5
617.148	97.5
617.356	89.5
617.563	87.5
617.771	85.5
617.978	85.5
618.185	90.5
618.393	107.5
618.6	95.5
618.807	109.5
619.015	80.5
619.222	83.5
619.429	89.5
619.637	96.5
619.844	83.5
620.051	90.5
620.258	86.5
620.466	84.5
620.673	76.5
620.88	90.5
621.087	92.5
621.294	81.5
621.501	72.5
621.708	83.5
621.915	85.5
622.122	88.5
622.329	91.5
622.536	97.5
622.743	87.5
622.95	91.5
623.157	96.5
623.364	93.5
623.571	86.5
623.778	97.5
623.985	79.5
624.192	81.5
624.399	77.5
624.606	103.5
624.812	86.5
625.019	81.5
625.226	88.5
625.433	72.5
625.639	99.5
625.846	74.5
626.053	89.5
626.259	87.5
626.466	102.5
626.673	89.5
626.879	91.5
627.086	98.5
627.293	93.5
627.499	86.5
627.706	71.5
627.912	77.5
628.119	100.5
628.325	85.5
628.532	81.5
628.738	91.5
628.945	81.5
629.151	86.5
629.357	79.5
629.564	78.5
629.77	81.5
629.976	79.5
630.183	78.5
630.389	85.5
630.595	90.5
630.802	80.5
631.008	80.5
631.214	89.5
631.42	85.5
631.627	90.5
631.833	85.5
632.039	72.5
632.245	91.5
632.451	96.5
632.657	80.5
632.863	85.5
633.069	64.5
633.275	99.5
633.481	78.5
633.688	93.5
633.893	84.5
634.099	95.5
634.305	89.5
634.511	101.5
634.717	78.5
634.923	88.5
635.129	76.5
635.335	83.5
635.541	91.5
635.747	89.5
635.952	84.5
636.158	76.5
636.364	75.5
636.57	88.5
636.775	92.5
636.981	84.5
637.187	73.5
637.392	78.5
637.598	86.5
637.804	87.5
638.009	75.5
638.215	86.5
638.421	82.5
638.626	87.5
638.832	96.5
639.037	83.5
639.243	92.5
639.448	97.5
639.654	80.5
639.859	86.5
640.065	89.5
640.27	95.5
640.475	85.5
640.681	83.5
640.886	87.5
641.091	88.5
641.297	67.5
641.502	77.5
641.707	74.5
641.913	98.5
642.118	101.5
642.323	93.5
642.528	77.5
642.733	81.5
642.939	76.5
643.144	75.5
643.349	90.5
643.554	91.5
643.759	75.5
643.964	85.5
644.169	111.5
644.374	77.5
644.579	67.5
644.784	92.5
644.989	98.5
645.194	89.5
645.399	98.5
645.604	80.5
645.809	87.5
646.014	75.5
646.219	74.5
646.423	100.5
646.628	83.5
646.833	89.5
647.038	76.5
647.243	83.5
647.447	83.5
647.652	84.5
647.857	78.5
648.062	78.5
648.266	87.5
648.471	80.5
648.676	92.5
648.88	94.5
649.085	73.5
649.289	71.5
649.494	102.5
649.698	83.5
649.903	76.5
650.107	91.5
650.312	84.5
650.516	77.5
650.721	83.5
650.925	76.5
651.13	83.5
651.334	76.5
651.539	85.5
651.743	73.5
651.947	77.5
652.152	85.5
652.356	73.5
652.56	91.5
652.764	83.5
652.969	82.5
653.173	74.5
653.377	89.5
653.581	83.5
653.785	84.5
653.99	86.5
654.194	86.5
654.398	80.5
654.602	75.5
654.806	95.5
655.01	75.5
655.214	85.5
655.418	76.5
655.622	77.5
655.826	84.5
656.03	88.5
656.234	76.5
656.438	86.5
656.642	83.5
656.846	71.5
657.049	69.5
657.253	89.5
657.457	76.5
657.661	83.5
657.865	89.5
658.068	75.5
658.272	70.5
658.476	89.5
658.68	67.5
658.883	76.5
659.087	85.5
659.291	75.5
659.494	74.5
659.698	74.5
659.901	93.5
660.105	91.5
660.309	96.5
660.512	88.5
660.716	81.5
660.919	100.5
661.123	92.5
661.326	81.5
661.53	85.5
661.733	78.5
661.936	68.5
662.14	82.5
662.343	66.5
662.546	77.5
662.75	95.5
662.953	90.5
663.156	102.5
663.36	68.5
663.563	81.5
663.766	82.5
663.969	84.5
664.173	95.5
664.376	73.5
664.579	82.5
664.782	84.5
664.985	91.5
665.188	80.5
665.391	76.5
665.594	85.5
665.797	84.5
666	83.5
666.203	80.5
666.406	74.5
666.609	92.5
666.812	84.5
667.015	81.5
667.218	68.5
667.421	69.5
667.624	89.5
667.827	85.5
668.03	76.5
668.232	76.5
668.435	83.5
668.638	81.5
668.841	81.5
669.043	85.5
669.246	74.5
669.449	76.5
669.651	82.5
669.854	71.5
670.057	80.5
670.259	71.5
670.462	85.5
670.665	76.5
670.867	99.5
671.07	84.5
671.272	77.5
671.475	87.5
671.677	86.5
671.88	101.5
672.082	72.5
672.284	80.5
672.487	70.5
672.689	67.5
672.892	79.5
