Data from Lead_5_1_HRD10591_00016.txt Node
Date: Fri Feb 20 11:08:29 EST 2026
User: Yrep
Spectrometer: HR+D1059
Trigger mode: 1
Integration Time (sec): 1.000000E-1
Scans to average: 1
Electric dark correction enabled: true
Nonlinearity correction enabled: false
Boxcar width: 0
XAxis mode: Wavelengths
Number of Pixels in Spectrum: 2048
>>>>>Begin Spectral Data<<<<<
223.165	-10.44
223.4	-10.44
223.635	-10.44
223.869	-27.44
224.104	-19.44
224.338	-10.44
224.573	-20.44
224.808	-5.44
225.042	-10.44
225.277	-2.44
225.511	-3.44
225.746	2.56
225.98	15.56
226.215	15.56
226.449	13.56
226.683	17.56
226.918	33.56
227.152	11.56
227.387	23.56
227.621	39.56
227.856	50.56
228.09	44.56
228.324	37.56
228.559	57.56
228.793	63.56
229.027	73.56
229.262	63.56
229.496	58.56
229.73	57.56
229.964	65.56
230.199	72.56
230.433	73.56
230.667	68.56
230.901	73.56
231.136	90.56
231.37	68.56
231.604	79.56
231.838	58.56
232.072	89.56
232.306	86.56
232.541	78.56
232.775	89.56
233.009	82.56
233.243	67.56
233.477	70.56
233.711	77.56
233.945	63.56
234.179	79.56
234.413	72.56
234.647	79.56
234.881	72.56
235.115	70.56
235.349	80.56
235.583	66.56
235.817	72.56
236.051	67.56
236.285	79.56
236.519	81.56
236.753	91.56
236.987	80.56
237.221	81.56
237.455	84.56
237.689	56.56
237.922	79.56
238.156	57.56
238.39	72.56
238.624	60.56
238.858	71.56
239.091	85.56
239.325	82.56
239.559	75.56
239.793	66.56
240.027	73.56
240.26	61.56
240.494	61.56
240.728	63.56
240.961	66.56
241.195	73.56
241.429	78.56
241.662	56.56
241.896	76.56
242.13	71.56
242.363	75.56
242.597	78.56
242.83	81.56
243.064	75.56
243.298	74.56
243.531	71.56
243.765	69.56
243.998	88.56
244.232	75.56
244.465	73.56
244.699	69.56
244.932	72.56
245.166	67.56
245.399	75.56
245.633	94.56
245.866	83.56
246.099	88.56
246.333	93.56
246.566	69.56
246.8	66.56
247.033	81.56
247.266	70.56
247.5	71.56
247.733	61.56
247.966	97.56
248.2	66.56
248.433	63.56
248.666	62.56
248.899	83.56
249.133	74.56
249.366	88.56
249.599	81.56
249.832	69.56
250.066	80.56
250.299	72.56
250.532	82.56
250.765	80.56
250.998	71.56
251.231	89.56
251.465	67.56
251.698	72.56
251.931	75.56
252.164	63.56
252.397	84.56
252.63	75.56
252.863	88.56
253.096	84.56
253.329	71.56
253.562	87.56
253.795	76.56
254.028	74.56
254.261	76.56
254.494	81.56
254.727	101.56
254.96	74.56
255.193	73.56
255.426	79.56
255.659	70.56
255.892	82.56
256.124	85.56
256.357	72.56
256.59	76.56
256.823	75.56
257.056	80.56
257.289	81.56
257.521	84.56
257.754	73.56
257.987	73.56
258.22	100.56
258.452	86.56
258.685	81.56
258.918	87.56
259.151	69.56
259.383	58.56
259.616	77.56
259.849	75.56
260.081	70.56
260.314	93.56
260.547	87.56
260.779	81.56
261.012	83.56
261.244	65.56
261.477	82.56
261.71	75.56
261.942	86.56
262.175	77.56
262.407	84.56
262.64	75.56
262.872	75.56
263.105	80.56
263.337	79.56
263.57	86.56
263.802	82.56
264.035	74.56
264.267	67.56
264.499	81.56
264.732	77.56
264.964	74.56
265.197	84.56
265.429	76.56
265.661	79.56
265.894	81.56
266.126	95.56
266.358	70.56
266.591	92.56
266.823	78.56
267.055	78.56
267.287	78.56
267.52	81.56
267.752	76.56
267.984	74.56
268.216	87.56
268.448	87.56
268.681	87.56
268.913	85.56
269.145	76.56
269.377	70.56
269.609	65.56
269.841	73.56
270.073	73.56
270.306	88.56
270.538	68.56
270.77	86.56
271.002	78.56
271.234	84.56
271.466	94.56
271.698	85.56
271.93	78.56
272.162	83.56
272.394	97.56
272.626	83.56
272.858	96.56
273.09	87.56
273.322	84.56
273.553	75.56
273.785	90.56
274.017	80.56
274.249	83.56
274.481	58.56
274.713	81.56
274.945	82.56
275.176	73.56
275.408	70.56
275.64	79.56
275.872	64.56
276.104	83.56
276.335	77.56
276.567	72.56
276.799	84.56
277.031	85.56
277.262	70.56
277.494	80.56
277.726	68.56
277.957	74.56
278.189	80.56
278.421	86.56
278.652	95.56
278.884	75.56
279.115	64.56
279.347	67.56
279.579	93.56
279.81	74.56
280.042	92.56
280.273	81.56
280.505	76.56
280.736	93.56
280.968	72.56
281.199	83.56
281.431	75.56
281.662	101.56
281.894	87.56
282.125	73.56
282.356	88.56
282.588	89.56
282.819	92.56
283.051	76.56
283.282	79.56
283.513	84.56
283.745	78.56
283.976	73.56
284.207	74.56
284.439	75.56
284.67	76.56
284.901	66.56
285.132	94.56
285.364	75.56
285.595	67.56
285.826	89.56
286.057	82.56
286.288	77.56
286.52	84.56
286.751	75.56
286.982	74.56
287.213	91.56
287.444	84.56
287.675	78.56
287.906	90.56
288.138	87.56
288.369	83.56
288.6	83.56
288.831	79.56
289.062	87.56
289.293	61.56
289.524	85.56
289.755	67.56
289.986	93.56
290.217	83.56
290.448	86.56
290.679	82.56
290.91	80.56
291.141	72.56
291.371	81.56
291.602	80.56
291.833	81.56
292.064	69.56
292.295	81.56
292.526	106.56
292.757	79.56
292.987	77.56
293.218	82.56
293.449	91.56
293.68	74.56
293.91	85.56
294.141	70.56
294.372	87.56
294.603	85.56
294.833	87.56
295.064	85.56
295.295	79.56
295.525	80.56
295.756	75.56
295.987	79.56
296.217	81.56
296.448	78.56
296.679	98.56
296.909	104.56
297.14	79.56
297.37	84.56
297.601	72.56
297.831	91.56
298.062	85.56
298.292	80.56
298.523	93.56
298.753	84.56
298.984	88.56
299.214	84.56
299.445	71.56
299.675	94.56
299.905	91.56
300.136	72.56
300.366	73.56
300.597	68.56
300.827	80.56
301.057	84.56
301.288	85.56
301.518	93.56
301.748	83.56
301.979	96.56
302.209	69.56
302.439	93.56
302.669	73.56
302.9	98.56
303.13	86.56
303.36	78.56
303.59	71.56
303.82	82.56
304.051	91.56
304.281	75.56
304.511	96.56
304.741	90.56
304.971	89.56
305.201	90.56
305.431	87.56
305.661	87.56
305.891	84.56
306.121	86.56
306.352	80.56
306.582	79.56
306.812	73.56
307.042	86.56
307.272	89.56
307.502	71.56
307.731	83.56
307.961	83.56
308.191	72.56
308.421	81.56
308.651	85.56
308.881	90.56
309.111	96.56
309.341	78.56
309.571	90.56
309.8	81.56
310.03	81.56
310.26	74.56
310.49	78.56
310.72	66.56
310.949	85.56
311.179	76.56
311.409	89.56
311.639	80.56
311.868	71.56
312.098	78.56
312.328	85.56
312.557	77.56
312.787	64.56
313.017	83.56
313.246	90.56
313.476	78.56
313.706	73.56
313.935	93.56
314.165	72.56
314.394	93.56
314.624	73.56
314.853	87.56
315.083	82.56
315.312	86.56
315.542	77.56
315.771	88.56
316.001	76.56
316.23	72.56
316.46	82.56
316.689	88.56
316.919	91.56
317.148	99.56
317.377	93.56
317.607	94.56
317.836	74.56
318.065	94.56
318.295	78.56
318.524	79.56
318.753	74.56
318.983	68.56
319.212	90.56
319.441	84.56
319.67	81.56
319.9	79.56
320.129	70.56
320.358	56.56
320.587	73.56
320.816	78.56
321.046	77.56
321.275	93.56
321.504	92.56
321.733	84.56
321.962	71.56
322.191	85.56
322.42	97.56
322.649	77.56
322.878	83.56
323.108	76.56
323.337	95.56
323.566	78.56
323.795	90.56
324.024	75.56
324.253	74.56
324.482	86.56
324.71	83.56
324.939	82.56
325.168	92.56
325.397	86.56
325.626	91.56
325.855	74.56
326.084	87.56
326.313	84.56
326.542	85.56
326.77	84.56
326.999	67.56
327.228	93.56
327.457	83.56
327.686	97.56
327.914	83.56
328.143	83.56
328.372	86.56
328.6	72.56
328.829	89.56
329.058	90.56
329.287	84.56
329.515	72.56
329.744	88.56
329.972	74.56
330.201	80.56
330.43	80.56
330.658	79.56
330.887	78.56
331.115	86.56
331.344	75.56
331.572	89.56
331.801	90.56
332.03	77.56
332.258	85.56
332.486	79.56
332.715	71.56
332.943	99.56
333.172	73.56
333.4	66.56
333.629	78.56
333.857	69.56
334.085	71.56
334.314	79.56
334.542	82.56
334.771	67.56
334.999	85.56
335.227	86.56
335.455	89.56
335.684	91.56
335.912	75.56
336.14	90.56
336.369	77.56
336.597	88.56
336.825	80.56
337.053	77.56
337.281	85.56
337.51	78.56
337.738	98.56
337.966	85.56
338.194	96.56
338.422	77.56
338.65	91.56
338.878	87.56
339.106	79.56
339.334	81.56
339.562	83.56
339.79	87.56
340.018	76.56
340.246	82.56
340.474	83.56
340.702	69.56
340.93	85.56
341.158	87.56
341.386	85.56
341.614	86.56
341.842	82.56
342.07	65.56
342.298	93.56
342.526	87.56
342.754	84.56
342.981	93.56
343.209	85.56
343.437	89.56
343.665	84.56
343.893	90.56
344.12	86.56
344.348	71.56
344.576	58.56
344.804	78.56
345.031	66.56
345.259	65.56
345.487	80.56
345.714	88.56
345.942	78.56
346.17	87.56
346.397	90.56
346.625	89.56
346.853	68.56
347.08	80.56
347.308	80.56
347.535	76.56
347.763	73.56
347.99	77.56
348.218	65.56
348.445	84.56
348.673	83.56
348.9	91.56
349.128	96.56
349.355	83.56
349.583	73.56
349.81	79.56
350.037	81.56
350.265	74.56
350.492	75.56
350.72	78.56
350.947	95.56
351.174	84.56
351.402	85.56
351.629	93.56
351.856	86.56
352.083	103.56
352.311	78.56
352.538	89.56
352.765	86.56
352.992	92.56
353.22	80.56
353.447	68.56
353.674	81.56
353.901	77.56
354.128	85.56
354.355	94.56
354.583	72.56
354.81	82.56
355.037	79.56
355.264	80.56
355.491	74.56
355.718	72.56
355.945	69.56
356.172	78.56
356.399	76.56
356.626	76.56
356.853	93.56
357.08	79.56
357.307	86.56
357.534	79.56
357.761	81.56
357.988	73.56
358.215	75.56
358.441	66.56
358.668	68.56
358.895	88.56
359.122	78.56
359.349	85.56
359.576	83.56
359.802	76.56
360.029	83.56
360.256	89.56
360.483	74.56
360.709	77.56
360.936	69.56
361.163	89.56
361.39	79.56
361.616	102.56
361.843	64.56
362.07	92.56
362.296	84.56
362.523	74.56
362.749	79.56
362.976	82.56
363.203	75.56
363.429	68.56
363.656	81.56
363.882	77.56
364.109	79.56
364.335	78.56
364.562	80.56
364.788	82.56
365.015	67.56
365.241	83.56
365.468	100.56
365.694	90.56
365.92	86.56
366.147	88.56
366.373	85.56
366.599	71.56
366.826	81.56
367.052	83.56
367.278	76.56
367.505	81.56
367.731	91.56
367.957	73.56
368.184	88.56
368.41	83.56
368.636	99.56
368.862	74.56
369.089	95.56
369.315	66.56
369.541	81.56
369.767	85.56
369.993	85.56
370.219	72.56
370.445	66.56
370.672	75.56
370.898	83.56
371.124	82.56
371.35	78.56
371.576	89.56
371.802	73.56
372.028	84.56
372.254	89.56
372.48	86.56
372.706	82.56
372.932	88.56
373.158	81.56
373.384	98.56
373.61	85.56
373.835	79.56
374.061	89.56
374.287	71.56
374.513	83.56
374.739	75.56
374.965	77.56
375.191	78.56
375.416	85.56
375.642	84.56
375.868	71.56
376.094	91.56
376.319	75.56
376.545	86.56
376.771	65.56
376.997	80.56
377.222	82.56
377.448	80.56
377.674	89.56
377.899	85.56
378.125	78.56
378.35	87.56
378.576	69.56
378.802	75.56
379.027	75.56
379.253	76.56
379.478	81.56
379.704	68.56
379.929	81.56
380.155	90.56
380.38	84.56
380.606	80.56
380.831	77.56
381.057	93.56
381.282	75.56
381.507	75.56
381.733	77.56
381.958	71.56
382.184	85.56
382.409	74.56
382.634	65.56
382.86	61.56
383.085	78.56
383.31	83.56
383.535	89.56
383.761	72.56
383.986	78.56
384.211	81.56
384.436	69.56
384.662	89.56
384.887	86.56
385.112	74.56
385.337	81.56
385.562	90.56
385.787	88.56
386.013	91.56
386.238	83.56
386.463	85.56
386.688	94.56
386.913	83.56
387.138	83.56
387.363	80.56
387.588	79.56
387.813	89.56
388.038	77.56
388.263	83.56
388.488	78.56
388.713	84.56
388.938	81.56
389.163	71.56
389.387	76.56
389.612	88.56
389.837	79.56
390.062	88.56
390.287	85.56
390.512	69.56
390.736	67.56
390.961	82.56
391.186	89.56
391.411	61.56
391.636	78.56
391.86	74.56
392.085	96.56
392.31	81.56
392.534	66.56
392.759	74.56
392.984	84.56
393.208	87.56
393.433	93.56
393.658	71.56
393.882	86.56
394.107	80.56
394.331	92.56
394.556	75.56
394.78	93.56
395.005	85.56
395.229	84.56
395.454	69.56
395.678	89.56
395.903	82.56
396.127	93.56
396.352	94.56
396.576	81.56
396.801	84.56
397.025	72.56
397.249	80.56
397.474	69.56
397.698	79.56
397.922	82.56
398.147	81.56
398.371	64.56
398.595	71.56
398.82	79.56
399.044	87.56
399.268	79.56
399.492	69.56
399.717	81.56
399.941	93.56
400.165	87.56
400.389	75.56
400.613	85.56
400.837	73.56
401.062	83.56
401.286	71.56
401.51	73.56
401.734	83.56
401.958	72.56
402.182	71.56
402.406	83.56
402.63	80.56
402.854	84.56
403.078	79.56
403.302	77.56
403.526	80.56
403.75	97.56
403.974	80.56
404.198	82.56
404.422	82.56
404.645	83.56
404.869	73.56
405.093	68.56
405.317	74.56
405.541	88.56
405.765	81.56
405.988	86.56
406.212	87.56
406.436	85.56
406.66	79.56
406.883	79.56
407.107	79.56
407.331	64.56
407.555	68.56
407.778	89.56
408.002	76.56
408.226	89.56
408.449	76.56
408.673	70.56
408.896	78.56
409.12	73.56
409.344	90.56
409.567	87.56
409.791	72.56
410.014	90.56
410.238	84.56
410.461	87.56
410.685	73.56
410.908	82.56
411.132	75.56
411.355	83.56
411.578	74.56
411.802	69.56
412.025	88.56
412.249	83.56
412.472	66.56
412.695	78.56
412.919	81.56
413.142	81.56
413.365	83.56
413.589	64.56
413.812	80.56
414.035	72.56
414.258	79.56
414.482	87.56
414.705	69.56
414.928	98.56
415.151	81.56
415.374	73.56
415.597	81.56
415.821	70.56
416.044	77.56
416.267	77.56
416.49	83.56
416.713	76.56
416.936	88.56
417.159	69.56
417.382	71.56
417.605	68.56
417.828	91.56
418.051	77.56
418.274	70.56
418.497	86.56
418.72	83.56
418.943	81.56
419.166	89.56
419.389	96.56
419.611	96.56
419.834	94.56
420.057	77.56
420.28	81.56
420.503	79.56
420.726	94.56
420.948	71.56
421.171	78.56
421.394	80.56
421.617	85.56
421.839	92.56
422.062	89.56
422.285	86.56
422.507	84.56
422.73	68.56
422.953	93.56
423.175	94.56
423.398	69.56
423.621	88.56
423.843	89.56
424.066	65.56
424.288	68.56
424.511	74.56
424.733	86.56
424.956	85.56
425.178	78.56
425.401	73.56
425.623	76.56
425.846	70.56
426.068	86.56
426.291	89.56
426.513	83.56
426.735	84.56
426.958	75.56
427.18	78.56
427.402	66.56
427.625	76.56
427.847	80.56
428.069	79.56
428.292	74.56
428.514	89.56
428.736	88.56
428.958	87.56
429.181	69.56
429.403	89.56
429.625	83.56
429.847	75.56
430.069	78.56
430.292	85.56
430.514	85.56
430.736	80.56
430.958	65.56
431.18	81.56
431.402	73.56
431.624	85.56
431.846	66.56
432.068	87.56
432.29	84.56
432.512	74.56
432.734	89.56
432.956	89.56
433.178	79.56
433.4	75.56
433.622	73.56
433.844	83.56
434.066	78.56
434.287	83.56
434.509	83.56
434.731	83.56
434.953	75.56
435.175	78.56
435.397	88.56
435.618	87.56
435.84	74.56
436.062	74.56
436.284	85.56
436.505	89.56
436.727	88.56
436.949	76.56
437.17	64.56
437.392	98.56
437.614	87.56
437.835	79.56
438.057	71.56
438.278	87.56
438.5	88.56
438.721	82.56
438.943	82.56
439.165	89.56
439.386	81.56
439.608	72.56
439.829	80.56
440.05	80.56
440.272	74.56
440.493	71.56
440.715	86.56
440.936	84.56
441.158	71.56
441.379	88.56
441.6	81.56
441.822	90.56
442.043	75.56
442.264	77.56
442.486	77.56
442.707	89.56
442.928	80.56
443.149	75.56
443.371	88.56
443.592	85.56
443.813	70.56
444.034	87.56
444.255	84.56
444.476	81.56
444.698	87.56
444.919	77.56
445.14	149.56
445.361	120.56
445.582	72.56
445.803	81.56
446.024	81.56
446.245	85.56
446.466	84.56
446.687	70.56
446.908	94.56
447.129	76.56
447.35	85.56
447.571	74.56
447.792	71.56
448.013	81.56
448.234	86.56
448.455	76.56
448.675	81.56
448.896	81.56
449.117	87.56
449.338	90.56
449.559	90.56
449.779	66.56
450	84.56
450.221	80.56
450.442	82.56
450.662	70.56
450.883	69.56
451.104	89.56
451.324	74.56
451.545	74.56
451.766	79.56
451.986	67.56
452.207	81.56
452.428	82.56
452.648	81.56
452.869	80.56
453.089	89.56
453.31	88.56
453.53	72.56
453.751	89.56
453.971	73.56
454.192	73.56
454.412	84.56
454.633	82.56
454.853	70.56
455.073	71.56
455.294	68.56
455.514	82.56
455.734	77.56
455.955	79.56
456.175	85.56
456.395	87.56
456.616	77.56
456.836	78.56
457.056	85.56
457.276	86.56
457.497	77.56
457.717	73.56
457.937	70.56
458.157	76.56
458.377	72.56
458.598	74.56
458.818	91.56
459.038	84.56
459.258	71.56
459.478	89.56
459.698	82.56
459.918	85.56
460.138	75.56
460.358	91.56
460.578	70.56
460.798	89.56
461.018	77.56
461.238	78.56
461.458	89.56
461.678	74.56
461.898	87.56
462.118	63.56
462.338	73.56
462.558	78.56
462.777	70.56
462.997	74.56
463.217	80.56
463.437	63.56
463.657	79.56
463.876	78.56
464.096	80.56
464.316	70.56
464.536	82.56
464.755	78.56
464.975	91.56
465.195	85.56
465.414	77.56
465.634	91.56
465.854	75.56
466.073	89.56
466.293	88.56
466.512	73.56
466.732	75.56
466.951	94.56
467.171	73.56
467.391	68.56
467.61	81.56
467.829	75.56
468.049	83.56
468.268	85.56
468.488	77.56
468.707	79.56
468.927	82.56
469.146	84.56
469.365	79.56
469.585	72.56
469.804	79.56
470.023	65.56
470.243	87.56
470.462	79.56
470.681	81.56
470.901	93.56
471.12	71.56
471.339	74.56
471.558	89.56
471.777	83.56
471.997	69.56
472.216	83.56
472.435	72.56
472.654	81.56
472.873	95.56
473.092	82.56
473.311	87.56
473.53	86.56
473.749	81.56
473.968	79.56
474.187	94.56
474.406	79.56
474.625	70.56
474.844	69.56
475.063	82.56
475.282	83.56
475.501	83.56
475.72	92.56
475.939	79.56
476.158	93.56
476.377	86.56
476.596	86.56
476.814	95.56
477.033	85.56
477.252	71.56
477.471	70.56
477.69	82.56
477.908	73.56
478.127	85.56
478.346	82.56
478.564	87.56
478.783	87.56
479.002	78.56
479.22	79.56
479.439	81.56
479.658	86.56
479.876	75.56
480.095	83.56
480.313	63.56
480.532	78.56
480.751	91.56
480.969	88.56
481.188	96.56
481.406	87.56
481.624	90.56
481.843	93.56
482.061	72.56
482.28	85.56
482.498	76.56
482.717	78.56
482.935	76.56
483.153	68.56
483.372	82.56
483.59	90.56
483.808	82.56
484.027	85.56
484.245	84.56
484.463	73.56
484.681	84.56
484.9	63.56
485.118	87.56
485.336	89.56
485.554	75.56
485.772	79.56
485.99	71.56
486.209	83.56
486.427	83.56
486.645	83.56
486.863	73.56
487.081	71.56
487.299	79.56
487.517	87.56
487.735	84.56
487.953	89.56
488.171	74.56
488.389	69.56
488.607	77.56
488.825	78.56
489.043	84.56
489.261	87.56
489.479	87.56
489.696	85.56
489.914	82.56
490.132	65.56
490.35	71.56
490.568	79.56
490.786	81.56
491.003	87.56
491.221	89.56
491.439	85.56
491.657	73.56
491.874	95.56
492.092	90.56
492.31	82.56
492.527	87.56
492.745	77.56
492.963	89.56
493.18	90.56
493.398	72.56
493.615	85.56
493.833	85.56
494.05	88.56
494.268	82.56
494.485	83.56
494.703	73.56
494.92	97.56
495.138	93.56
495.355	86.56
495.573	80.56
495.79	76.56
496.008	87.56
496.225	81.56
496.442	76.56
496.66	75.56
496.877	84.56
497.094	83.56
497.312	94.56
497.529	76.56
497.746	79.56
497.963	69.56
498.181	75.56
498.398	80.56
498.615	72.56
498.832	75.56
499.049	81.56
499.267	89.56
499.484	66.56
499.701	82.56
499.918	91.56
500.135	86.56
500.352	87.56
500.569	69.56
500.786	95.56
501.003	78.56
501.22	72.56
501.437	59.56
501.654	86.56
501.871	93.56
502.088	75.56
502.305	87.56
502.522	83.56
502.739	81.56
502.956	96.56
503.172	76.56
503.389	85.56
503.606	62.56
503.823	69.56
504.04	69.56
504.256	86.56
504.473	87.56
504.69	94.56
504.907	90.56
505.123	69.56
505.34	79.56
505.557	93.56
505.773	81.56
505.99	83.56
506.207	73.56
506.423	92.56
506.64	83.56
506.856	79.56
507.073	80.56
507.289	91.56
507.506	81.56
507.722	75.56
507.939	80.56
508.155	85.56
508.372	79.56
508.588	66.56
508.805	77.56
509.021	86.56
509.238	85.56
509.454	65.56
509.67	79.56
509.887	78.56
510.103	74.56
510.319	72.56
510.536	89.56
510.752	88.56
510.968	93.56
511.184	92.56
511.401	82.56
511.617	82.56
511.833	79.56
512.049	89.56
512.265	69.56
512.481	93.56
512.698	84.56
512.914	94.56
513.13	97.56
513.346	89.56
513.562	86.56
513.778	83.56
513.994	69.56
514.21	81.56
514.426	89.56
514.642	79.56
514.858	79.56
515.074	87.56
515.29	86.56
515.506	83.56
515.721	80.56
515.937	91.56
516.153	86.56
516.369	73.56
516.585	83.56
516.801	95.56
517.016	85.56
517.232	72.56
517.448	89.56
517.664	74.56
517.879	91.56
518.095	82.56
518.311	89.56
518.527	77.56
518.742	90.56
518.958	81.56
519.173	85.56
519.389	69.56
519.605	89.56
519.82	84.56
520.036	85.56
520.251	79.56
520.467	70.56
520.682	83.56
520.898	75.56
521.113	88.56
521.329	83.56
521.544	65.56
521.76	85.56
521.975	79.56
522.19	74.56
522.406	79.56
522.621	81.56
522.836	73.56
523.052	90.56
523.267	79.56
523.482	78.56
523.698	76.56
523.913	80.56
524.128	83.56
524.343	83.56
524.559	98.56
524.774	83.56
524.989	85.56
525.204	91.56
525.419	71.56
525.634	69.56
525.849	82.56
526.064	77.56
526.28	93.56
526.495	74.56
526.71	93.56
526.925	82.56
527.14	77.56
527.355	93.56
527.57	68.56
527.785	77.56
527.999	68.56
528.214	86.56
528.429	80.56
528.644	91.56
528.859	79.56
529.074	86.56
529.289	83.56
529.503	83.56
529.718	97.56
529.933	73.56
530.148	85.56
530.363	80.56
530.577	71.56
530.792	98.56
531.007	83.56
531.221	81.56
531.436	81.56
531.651	69.56
531.865	77.56
532.08	78.56
532.295	88.56
532.509	81.56
532.724	89.56
532.938	69.56
533.153	77.56
533.367	80.56
533.582	77.56
533.796	96.56
534.011	85.56
534.225	81.56
534.44	75.56
534.654	67.56
534.868	83.56
535.083	79.56
535.297	84.56
535.511	74.56
535.726	92.56
535.94	90.56
536.154	81.56
536.369	77.56
536.583	86.56
536.797	75.56
537.011	78.56
537.225	71.56
537.44	83.56
537.654	81.56
537.868	76.56
538.082	87.56
538.296	88.56
538.51	74.56
538.724	82.56
538.938	73.56
539.153	93.56
539.367	87.56
539.581	65.56
539.795	70.56
540.009	74.56
540.222	81.56
540.436	95.56
540.65	98.56
540.864	71.56
541.078	93.56
541.292	95.56
541.506	79.56
541.72	89.56
541.934	69.56
542.147	69.56
542.361	73.56
542.575	85.56
542.789	71.56
543.002	84.56
543.216	73.56
543.43	65.56
543.644	84.56
543.857	86.56
544.071	84.56
544.285	104.56
544.498	91.56
544.712	75.56
544.925	79.56
545.139	83.56
545.352	86.56
545.566	81.56
545.779	80.56
545.993	85.56
546.206	96.56
546.42	87.56
546.633	91.56
546.847	85.56
547.06	84.56
547.274	79.56
547.487	90.56
547.7	78.56
547.914	91.56
548.127	80.56
548.34	97.56
548.554	79.56
548.767	88.56
548.98	82.56
549.193	83.56
549.407	73.56
549.62	83.56
549.833	85.56
550.046	73.56
550.259	77.56
550.473	85.56
550.686	81.56
550.899	65.56
551.112	85.56
551.325	82.56
551.538	82.56
551.751	84.56
551.964	85.56
552.177	77.56
552.39	86.56
552.603	91.56
552.816	84.56
553.029	96.56
553.242	74.56
553.455	78.56
553.667	91.56
553.88	80.56
554.093	85.56
554.306	97.56
554.519	93.56
554.732	90.56
554.944	78.56
555.157	72.56
555.37	79.56
555.583	93.56
555.795	72.56
556.008	82.56
556.221	83.56
556.433	92.56
556.646	86.56
556.859	73.56
557.071	81.56
557.284	78.56
557.496	81.56
557.709	85.56
557.921	81.56
558.134	81.56
558.346	80.56
558.559	79.56
558.771	85.56
558.984	82.56
559.196	67.56
559.409	95.56
559.621	94.56
559.833	90.56
560.046	81.56
560.258	72.56
560.47	83.56
560.683	62.56
560.895	78.56
561.107	72.56
561.32	80.56
561.532	89.56
561.744	78.56
561.956	85.56
562.168	87.56
562.381	98.56
562.593	86.56
562.805	71.56
563.017	86.56
563.229	90.56
563.441	83.56
563.653	94.56
563.865	83.56
564.077	81.56
564.289	79.56
564.501	76.56
564.713	85.56
564.925	73.56
565.137	88.56
565.349	74.56
565.561	76.56
565.773	81.56
565.985	85.56
566.197	84.56
566.408	67.56
566.62	77.56
566.832	83.56
567.044	84.56
567.255	77.56
567.467	77.56
567.679	76.56
567.891	70.56
568.102	81.56
568.314	90.56
568.526	76.56
568.737	84.56
568.949	82.56
569.161	72.56
569.372	73.56
569.584	84.56
569.795	87.56
570.007	76.56
570.218	74.56
570.43	79.56
570.641	75.56
570.853	70.56
571.064	73.56
571.276	74.56
571.487	79.56
571.698	67.56
571.91	77.56
572.121	76.56
572.333	84.56
572.544	88.56
572.755	68.56
572.966	84.56
573.178	85.56
573.389	94.56
573.6	90.56
573.811	86.56
574.023	91.56
574.234	89.56
574.445	68.56
574.656	73.56
574.867	82.56
575.078	82.56
575.289	68.56
575.501	78.56
575.712	87.56
575.923	86.56
576.134	76.56
576.345	89.56
576.556	87.56
576.767	73.56
576.978	89.56
577.188	93.56
577.399	73.56
577.61	73.56
577.821	81.56
578.032	86.56
578.243	96.56
578.454	76.56
578.665	74.56
578.875	81.56
579.086	96.56
579.297	81.56
579.508	74.56
579.718	85.56
579.929	81.56
580.14	78.56
580.35	96.56
580.561	71.56
580.772	77.56
580.982	91.56
581.193	80.56
581.403	105.56
581.614	77.56
581.825	93.56
582.035	79.56
582.246	86.56
582.456	89.56
582.667	80.56
582.877	81.56
583.087	82.56
583.298	92.56
583.508	89.56
583.719	91.56
583.929	94.56
584.139	72.56
584.35	94.56
584.56	87.56
584.77	79.56
584.981	79.56
585.191	78.56
585.401	83.56
585.611	79.56
585.821	93.56
586.032	84.56
586.242	82.56
586.452	88.56
586.662	84.56
586.872	93.56
587.082	81.56
587.292	84.56
587.502	72.56
587.713	83.56
587.923	90.56
588.133	81.56
588.343	72.56
588.553	79.56
588.762	86.56
588.972	91.56
589.182	103.56
589.392	98.56
589.602	87.56
589.812	104.56
590.022	90.56
590.232	81.56
590.441	85.56
590.651	79.56
590.861	75.56
591.071	87.56
591.281	79.56
591.49	90.56
591.7	68.56
591.91	86.56
592.119	76.56
592.329	84.56
592.539	75.56
592.748	82.56
592.958	94.56
593.167	88.56
593.377	82.56
593.587	90.56
593.796	75.56
594.006	79.56
594.215	65.56
594.424	95.56
594.634	93.56
594.843	94.56
595.053	93.56
595.262	69.56
595.472	81.56
595.681	75.56
595.89	76.56
596.1	89.56
596.309	73.56
596.518	94.56
596.727	89.56
596.937	87.56
597.146	72.56
597.355	81.56
597.564	71.56
597.774	69.56
597.983	71.56
598.192	89.56
598.401	81.56
598.61	86.56
598.819	88.56
599.028	71.56
599.237	81.56
599.446	81.56
599.655	71.56
599.864	81.56
600.073	67.56
600.282	81.56
600.491	68.56
600.7	101.56
600.909	88.56
601.118	100.56
601.327	83.56
601.536	77.56
601.745	90.56
601.953	78.56
602.162	65.56
602.371	81.56
602.58	76.56
602.789	101.56
602.997	80.56
603.206	81.56
603.415	82.56
603.623	65.56
603.832	76.56
604.041	73.56
604.249	75.56
604.458	76.56
604.666	75.56
604.875	76.56
605.084	73.56
605.292	84.56
605.501	75.56
605.709	80.56
605.918	81.56
606.126	91.56
606.334	76.56
606.543	90.56
606.751	95.56
606.96	87.56
607.168	76.56
607.376	89.56
607.585	90.56
607.793	93.56
608.001	75.56
608.21	82.56
608.418	82.56
608.626	86.56
608.834	86.56
609.043	70.56
609.251	85.56
609.459	74.56
609.667	88.56
609.875	80.56
610.083	90.56
610.291	76.56
610.499	77.56
610.707	82.56
610.916	85.56
611.124	77.56
611.332	89.56
611.54	99.56
611.748	78.56
611.955	80.56
612.163	76.56
612.371	86.56
612.579	80.56
612.787	73.56
612.995	74.56
613.203	81.56
613.411	92.56
613.618	79.56
613.826	87.56
614.034	86.56
614.242	74.56
614.449	89.56
614.657	84.56
614.865	80.56
615.072	86.56
615.28	86.56
615.488	84.56
615.695	83.56
615.903	75.56
616.111	76.56
616.318	83.56
616.526	72.56
616.733	81.56
616.941	75.56
617.148	80.56
617.356	94.56
617.563	79.56
617.771	94.56
617.978	81.56
618.185	92.56
618.393	86.56
618.6	89.56
618.807	71.56
619.015	81.56
619.222	87.56
619.429	87.56
619.637	98.56
619.844	95.56
620.051	73.56
620.258	80.56
620.466	80.56
620.673	82.56
620.88	83.56
621.087	73.56
621.294	83.56
621.501	80.56
621.708	91.56
621.915	82.56
622.122	71.56
622.329	85.56
622.536	79.56
622.743	85.56
622.95	76.56
623.157	87.56
623.364	85.56
623.571	77.56
623.778	66.56
623.985	76.56
624.192	81.56
624.399	70.56
624.606	93.56
624.812	71.56
625.019	92.56
625.226	85.56
625.433	90.56
625.639	87.56
625.846	82.56
626.053	79.56
626.259	65.56
626.466	74.56
626.673	78.56
626.879	77.56
627.086	94.56
627.293	83.56
627.499	90.56
627.706	74.56
627.912	65.56
628.119	72.56
628.325	90.56
628.532	62.56
628.738	81.56
628.945	99.56
629.151	95.56
629.357	74.56
629.564	95.56
629.77	86.56
629.976	92.56
630.183	90.56
630.389	83.56
630.595	89.56
630.802	67.56
631.008	86.56
631.214	84.56
631.42	97.56
631.627	79.56
631.833	84.56
632.039	80.56
632.245	79.56
632.451	79.56
632.657	83.56
632.863	81.56
633.069	76.56
633.275	78.56
633.481	71.56
633.688	82.56
633.893	76.56
634.099	79.56
634.305	80.56
634.511	82.56
634.717	76.56
634.923	77.56
635.129	84.56
635.335	78.56
635.541	80.56
635.747	89.56
635.952	79.56
636.158	83.56
636.364	75.56
636.57	92.56
636.775	83.56
636.981	71.56
637.187	80.56
637.392	71.56
637.598	75.56
637.804	84.56
638.009	81.56
638.215	80.56
638.421	86.56
638.626	75.56
638.832	90.56
639.037	76.56
639.243	94.56
639.448	90.56
639.654	79.56
639.859	88.56
640.065	85.56
640.27	82.56
640.475	81.56
640.681	76.56
640.886	69.56
641.091	74.56
641.297	78.56
641.502	79.56
641.707	86.56
641.913	70.56
642.118	84.56
642.323	81.56
642.528	87.56
642.733	95.56
642.939	90.56
643.144	74.56
643.349	85.56
643.554	76.56
643.759	81.56
643.964	80.56
644.169	88.56
644.374	94.56
644.579	83.56
644.784	94.56
644.989	71.56
645.194	62.56
645.399	86.56
645.604	92.56
645.809	93.56
646.014	91.56
646.219	79.56
646.423	86.56
646.628	81.56
646.833	81.56
647.038	74.56
647.243	79.56
647.447	57.56
647.652	74.56
647.857	84.56
648.062	84.56
648.266	88.56
648.471	67.56
648.676	87.56
648.88	86.56
649.085	95.56
649.289	71.56
649.494	88.56
649.698	76.56
649.903	77.56
650.107	87.56
650.312	75.56
650.516	71.56
650.721	83.56
650.925	73.56
651.13	88.56
651.334	86.56
651.539	76.56
651.743	73.56
651.947	76.56
652.152	83.56
652.356	80.56
652.56	70.56
652.764	79.56
652.969	82.56
653.173	75.56
653.377	83.56
653.581	66.56
653.785	74.56
653.99	90.56
654.194	91.56
654.398	86.56
654.602	87.56
654.806	83.56
655.01	75.56
655.214	81.56
655.418	65.56
655.622	85.56
655.826	92.56
656.03	73.56
656.234	80.56
656.438	78.56
656.642	72.56
656.846	73.56
657.049	78.56
657.253	77.56
657.457	87.56
657.661	69.56
657.865	73.56
658.068	65.56
658.272	72.56
658.476	81.56
658.68	84.56
658.883	78.56
659.087	70.56
659.291	88.56
659.494	89.56
659.698	100.56
659.901	91.56
660.105	81.56
660.309	76.56
660.512	83.56
660.716	87.56
660.919	68.56
661.123	70.56
661.326	76.56
661.53	85.56
661.733	79.56
661.936	90.56
662.14	75.56
662.343	89.56
662.546	81.56
662.75	80.56
662.953	85.56
663.156	95.56
663.36	62.56
663.563	90.56
663.766	73.56
663.969	77.56
664.173	81.56
664.376	85.56
664.579	90.56
664.782	80.56
664.985	81.56
665.188	64.56
665.391	93.56
665.594	79.56
665.797	83.56
666	74.56
666.203	82.56
666.406	87.56
666.609	84.56
666.812	86.56
667.015	69.56
667.218	85.56
667.421	66.56
667.624	80.56
667.827	85.56
668.03	75.56
668.232	86.56
668.435	79.56
668.638	74.56
668.841	97.56
669.043	70.56
669.246	80.56
669.449	75.56
669.651	79.56
669.854	73.56
670.057	84.56
670.259	75.56
670.462	83.56
670.665	63.56
670.867	89.56
671.07	62.56
671.272	79.56
671.475	91.56
671.677	73.56
671.88	78.56
672.082	76.56
672.284	78.56
672.487	88.56
672.689	79.56
672.892	70.56
