Data from Lead_5_1_HRD10591_00045.txt Node
Date: Fri Feb 20 11:08:39 EST 2026
User: Yrep
Spectrometer: HR+D1059
Trigger mode: 1
Integration Time (sec): 1.000000E-1
Scans to average: 1
Electric dark correction enabled: true
Nonlinearity correction enabled: false
Boxcar width: 0
XAxis mode: Wavelengths
Number of Pixels in Spectrum: 2048
>>>>>Begin Spectral Data<<<<<
223.165	-17.19
223.4	-17.19
223.635	-17.19
223.869	-16.19
224.104	-15.19
224.338	-15.19
224.573	-7.19
224.808	-22.19
225.042	-17.19
225.277	-14.19
225.511	2.81
225.746	5.81
225.98	7.81
226.215	13.81
226.449	22.81
226.683	13.81
226.918	25.81
227.152	31.81
227.387	37.81
227.621	44.81
227.856	43.81
228.09	42.81
228.324	66.81
228.559	60.81
228.793	57.81
229.027	62.81
229.262	55.81
229.496	68.81
229.73	65.81
229.964	76.81
230.199	60.81
230.433	78.81
230.667	73.81
230.901	87.81
231.136	83.81
231.37	83.81
231.604	82.81
231.838	85.81
232.072	77.81
232.306	67.81
232.541	68.81
232.775	85.81
233.009	85.81
233.243	84.81
233.477	87.81
233.711	92.81
233.945	84.81
234.179	76.81
234.413	77.81
234.647	96.81
234.881	76.81
235.115	71.81
235.349	73.81
235.583	84.81
235.817	72.81
236.051	70.81
236.285	77.81
236.519	95.81
236.753	76.81
236.987	59.81
237.221	77.81
237.455	88.81
237.689	79.81
237.922	81.81
238.156	83.81
238.39	78.81
238.624	74.81
238.858	74.81
239.091	74.81
239.325	65.81
239.559	76.81
239.793	69.81
240.027	87.81
240.26	88.81
240.494	73.81
240.728	76.81
240.961	86.81
241.195	76.81
241.429	72.81
241.662	74.81
241.896	78.81
242.13	88.81
242.363	75.81
242.597	65.81
242.83	91.81
243.064	75.81
243.298	73.81
243.531	85.81
243.765	77.81
243.998	74.81
244.232	83.81
244.465	83.81
244.699	81.81
244.932	86.81
245.166	75.81
245.399	69.81
245.633	63.81
245.866	60.81
246.099	71.81
246.333	80.81
246.566	79.81
246.8	71.81
247.033	74.81
247.266	81.81
247.5	70.81
247.733	74.81
247.966	77.81
248.2	76.81
248.433	71.81
248.666	80.81
248.899	84.81
249.133	70.81
249.366	79.81
249.599	79.81
249.832	78.81
250.066	90.81
250.299	67.81
250.532	79.81
250.765	75.81
250.998	77.81
251.231	75.81
251.465	76.81
251.698	74.81
251.931	75.81
252.164	60.81
252.397	81.81
252.63	87.81
252.863	71.81
253.096	84.81
253.329	88.81
253.562	85.81
253.795	75.81
254.028	88.81
254.261	75.81
254.494	75.81
254.727	88.81
254.96	85.81
255.193	72.81
255.426	92.81
255.659	82.81
255.892	77.81
256.124	81.81
256.357	78.81
256.59	67.81
256.823	72.81
257.056	77.81
257.289	79.81
257.521	93.81
257.754	88.81
257.987	84.81
258.22	86.81
258.452	85.81
258.685	81.81
258.918	79.81
259.151	77.81
259.383	78.81
259.616	78.81
259.849	75.81
260.081	86.81
260.314	88.81
260.547	81.81
260.779	64.81
261.012	90.81
261.244	71.81
261.477	76.81
261.71	76.81
261.942	84.81
262.175	71.81
262.407	76.81
262.64	77.81
262.872	76.81
263.105	67.81
263.337	87.81
263.57	70.81
263.802	82.81
264.035	85.81
264.267	89.81
264.499	72.81
264.732	77.81
264.964	104.81
265.197	73.81
265.429	77.81
265.661	81.81
265.894	99.81
266.126	75.81
266.358	76.81
266.591	99.81
266.823	75.81
267.055	74.81
267.287	86.81
267.52	71.81
267.752	78.81
267.984	96.81
268.216	72.81
268.448	69.81
268.681	67.81
268.913	83.81
269.145	99.81
269.377	82.81
269.609	80.81
269.841	75.81
270.073	84.81
270.306	70.81
270.538	91.81
270.77	86.81
271.002	89.81
271.234	84.81
271.466	87.81
271.698	81.81
271.93	89.81
272.162	102.81
272.394	80.81
272.626	83.81
272.858	82.81
273.09	85.81
273.322	72.81
273.553	85.81
273.785	87.81
274.017	91.81
274.249	80.81
274.481	71.81
274.713	82.81
274.945	79.81
275.176	78.81
275.408	82.81
275.64	77.81
275.872	73.81
276.104	81.81
276.335	88.81
276.567	73.81
276.799	80.81
277.031	87.81
277.262	93.81
277.494	91.81
277.726	91.81
277.957	85.81
278.189	75.81
278.421	86.81
278.652	76.81
278.884	78.81
279.115	77.81
279.347	77.81
279.579	80.81
279.81	83.81
280.042	89.81
280.273	71.81
280.505	84.81
280.736	87.81
280.968	76.81
281.199	85.81
281.431	80.81
281.662	80.81
281.894	92.81
282.125	91.81
282.356	86.81
282.588	85.81
282.819	87.81
283.051	94.81
283.282	81.81
283.513	80.81
283.745	83.81
283.976	87.81
284.207	75.81
284.439	85.81
284.67	95.81
284.901	81.81
285.132	81.81
285.364	81.81
285.595	74.81
285.826	86.81
286.057	95.81
286.288	94.81
286.52	97.81
286.751	92.81
286.982	72.81
287.213	93.81
287.444	93.81
287.675	83.81
287.906	85.81
288.138	82.81
288.369	86.81
288.6	86.81
288.831	81.81
289.062	73.81
289.293	61.81
289.524	90.81
289.755	80.81
289.986	79.81
290.217	76.81
290.448	86.81
290.679	96.81
290.91	88.81
291.141	84.81
291.371	92.81
291.602	78.81
291.833	80.81
292.064	85.81
292.295	85.81
292.526	79.81
292.757	94.81
292.987	77.81
293.218	90.81
293.449	95.81
293.68	75.81
293.91	82.81
294.141	85.81
294.372	88.81
294.603	80.81
294.833	78.81
295.064	90.81
295.295	79.81
295.525	81.81
295.756	73.81
295.987	74.81
296.217	91.81
296.448	89.81
296.679	83.81
296.909	92.81
297.14	87.81
297.37	79.81
297.601	72.81
297.831	85.81
298.062	76.81
298.292	68.81
298.523	88.81
298.753	75.81
298.984	99.81
299.214	80.81
299.445	81.81
299.675	89.81
299.905	74.81
300.136	90.81
300.366	83.81
300.597	76.81
300.827	91.81
301.057	85.81
301.288	87.81
301.518	79.81
301.748	80.81
301.979	79.81
302.209	79.81
302.439	83.81
302.669	91.81
302.9	95.81
303.13	66.81
303.36	87.81
303.59	95.81
303.82	90.81
304.051	86.81
304.281	77.81
304.511	89.81
304.741	79.81
304.971	77.81
305.201	87.81
305.431	60.81
305.661	71.81
305.891	83.81
306.121	75.81
306.352	82.81
306.582	95.81
306.812	72.81
307.042	84.81
307.272	73.81
307.502	87.81
307.731	79.81
307.961	78.81
308.191	84.81
308.421	82.81
308.651	83.81
308.881	71.81
309.111	76.81
309.341	91.81
309.571	81.81
309.8	93.81
310.03	93.81
310.26	67.81
310.49	72.81
310.72	77.81
310.949	70.81
311.179	84.81
311.409	72.81
311.639	84.81
311.868	87.81
312.098	101.81
312.328	100.81
312.557	76.81
312.787	82.81
313.017	91.81
313.246	77.81
313.476	69.81
313.706	81.81
313.935	85.81
314.165	75.81
314.394	76.81
314.624	88.81
314.853	89.81
315.083	89.81
315.312	84.81
315.542	75.81
315.771	73.81
316.001	83.81
316.23	77.81
316.46	79.81
316.689	89.81
316.919	84.81
317.148	83.81
317.377	81.81
317.607	76.81
317.836	87.81
318.065	77.81
318.295	85.81
318.524	91.81
318.753	84.81
318.983	80.81
319.212	86.81
319.441	83.81
319.67	85.81
319.9	79.81
320.129	84.81
320.358	84.81
320.587	89.81
320.816	83.81
321.046	78.81
321.275	75.81
321.504	72.81
321.733	75.81
321.962	79.81
322.191	91.81
322.42	85.81
322.649	80.81
322.878	64.81
323.108	69.81
323.337	75.81
323.566	82.81
323.795	76.81
324.024	79.81
324.253	71.81
324.482	70.81
324.71	74.81
324.939	83.81
325.168	70.81
325.397	77.81
325.626	77.81
325.855	88.81
326.084	100.81
326.313	75.81
326.542	91.81
326.77	87.81
326.999	77.81
327.228	80.81
327.457	73.81
327.686	85.81
327.914	85.81
328.143	96.81
328.372	74.81
328.6	89.81
328.829	75.81
329.058	84.81
329.287	83.81
329.515	83.81
329.744	59.81
329.972	85.81
330.201	87.81
330.43	95.81
330.658	98.81
330.887	93.81
331.115	91.81
331.344	76.81
331.572	91.81
331.801	84.81
332.03	75.81
332.258	86.81
332.486	88.81
332.715	84.81
332.943	77.81
333.172	91.81
333.4	77.81
333.629	82.81
333.857	97.81
334.085	81.81
334.314	84.81
334.542	86.81
334.771	88.81
334.999	95.81
335.227	82.81
335.455	68.81
335.684	96.81
335.912	84.81
336.14	82.81
336.369	96.81
336.597	95.81
336.825	91.81
337.053	88.81
337.281	77.81
337.51	91.81
337.738	87.81
337.966	77.81
338.194	63.81
338.422	72.81
338.65	74.81
338.878	92.81
339.106	91.81
339.334	92.81
339.562	95.81
339.79	92.81
340.018	90.81
340.246	91.81
340.474	73.81
340.702	89.81
340.93	91.81
341.158	96.81
341.386	74.81
341.614	93.81
341.842	85.81
342.07	82.81
342.298	92.81
342.526	83.81
342.754	70.81
342.981	69.81
343.209	89.81
343.437	87.81
343.665	82.81
343.893	89.81
344.12	79.81
344.348	83.81
344.576	71.81
344.804	81.81
345.031	88.81
345.259	76.81
345.487	75.81
345.714	76.81
345.942	102.81
346.17	73.81
346.397	89.81
346.625	74.81
346.853	87.81
347.08	88.81
347.308	87.81
347.535	80.81
347.763	70.81
347.99	71.81
348.218	79.81
348.445	68.81
348.673	86.81
348.9	76.81
349.128	89.81
349.355	80.81
349.583	66.81
349.81	75.81
350.037	83.81
350.265	83.81
350.492	92.81
350.72	73.81
350.947	78.81
351.174	81.81
351.402	81.81
351.629	95.81
351.856	68.81
352.083	85.81
352.311	67.81
352.538	75.81
352.765	83.81
352.992	75.81
353.22	89.81
353.447	99.81
353.674	74.81
353.901	85.81
354.128	90.81
354.355	77.81
354.583	85.81
354.81	84.81
355.037	81.81
355.264	91.81
355.491	81.81
355.718	89.81
355.945	93.81
356.172	76.81
356.399	77.81
356.626	72.81
356.853	91.81
357.08	93.81
357.307	76.81
357.534	84.81
357.761	80.81
357.988	87.81
358.215	81.81
358.441	89.81
358.668	69.81
358.895	78.81
359.122	71.81
359.349	91.81
359.576	84.81
359.802	87.81
360.029	74.81
360.256	85.81
360.483	95.81
360.709	79.81
360.936	74.81
361.163	90.81
361.39	100.81
361.616	90.81
361.843	87.81
362.07	104.81
362.296	85.81
362.523	72.81
362.749	79.81
362.976	83.81
363.203	74.81
363.429	87.81
363.656	95.81
363.882	85.81
364.109	87.81
364.335	101.81
364.562	75.81
364.788	84.81
365.015	93.81
365.241	77.81
365.468	87.81
365.694	75.81
365.92	78.81
366.147	100.81
366.373	82.81
366.599	83.81
366.826	84.81
367.052	82.81
367.278	85.81
367.505	75.81
367.731	90.81
367.957	67.81
368.184	79.81
368.41	79.81
368.636	94.81
368.862	84.81
369.089	73.81
369.315	65.81
369.541	88.81
369.767	88.81
369.993	78.81
370.219	72.81
370.445	81.81
370.672	73.81
370.898	77.81
371.124	108.81
371.35	67.81
371.576	94.81
371.802	71.81
372.028	78.81
372.254	90.81
372.48	108.81
372.706	92.81
372.932	86.81
373.158	73.81
373.384	89.81
373.61	76.81
373.835	92.81
374.061	89.81
374.287	96.81
374.513	80.81
374.739	84.81
374.965	92.81
375.191	75.81
375.416	87.81
375.642	93.81
375.868	93.81
376.094	86.81
376.319	74.81
376.545	91.81
376.771	90.81
376.997	88.81
377.222	80.81
377.448	83.81
377.674	81.81
377.899	89.81
378.125	80.81
378.35	79.81
378.576	85.81
378.802	81.81
379.027	78.81
379.253	72.81
379.478	85.81
379.704	78.81
379.929	71.81
380.155	75.81
380.38	80.81
380.606	89.81
380.831	91.81
381.057	87.81
381.282	84.81
381.507	86.81
381.733	86.81
381.958	78.81
382.184	67.81
382.409	82.81
382.634	97.81
382.86	98.81
383.085	94.81
383.31	78.81
383.535	76.81
383.761	78.81
383.986	81.81
384.211	78.81
384.436	95.81
384.662	93.81
384.887	78.81
385.112	85.81
385.337	85.81
385.562	81.81
385.787	88.81
386.013	85.81
386.238	110.81
386.463	103.81
386.688	95.81
386.913	78.81
387.138	85.81
387.363	93.81
387.588	95.81
387.813	79.81
388.038	86.81
388.263	87.81
388.488	77.81
388.713	85.81
388.938	82.81
389.163	84.81
389.387	80.81
389.612	77.81
389.837	81.81
390.062	88.81
390.287	81.81
390.512	87.81
390.736	77.81
390.961	91.81
391.186	74.81
391.411	92.81
391.636	81.81
391.86	92.81
392.085	84.81
392.31	88.81
392.534	85.81
392.759	99.81
392.984	81.81
393.208	92.81
393.433	78.81
393.658	68.81
393.882	73.81
394.107	78.81
394.331	93.81
394.556	78.81
394.78	89.81
395.005	81.81
395.229	82.81
395.454	75.81
395.678	71.81
395.903	97.81
396.127	76.81
396.352	84.81
396.576	87.81
396.801	96.81
397.025	86.81
397.249	87.81
397.474	77.81
397.698	75.81
397.922	99.81
398.147	74.81
398.371	76.81
398.595	87.81
398.82	90.81
399.044	91.81
399.268	81.81
399.492	83.81
399.717	98.81
399.941	81.81
400.165	71.81
400.389	85.81
400.613	79.81
400.837	86.81
401.062	85.81
401.286	90.81
401.51	93.81
401.734	76.81
401.958	74.81
402.182	97.81
402.406	78.81
402.63	74.81
402.854	72.81
403.078	83.81
403.302	81.81
403.526	86.81
403.75	86.81
403.974	81.81
404.198	87.81
404.422	64.81
404.645	86.81
404.869	81.81
405.093	73.81
405.317	87.81
405.541	83.81
405.765	86.81
405.988	82.81
406.212	72.81
406.436	79.81
406.66	80.81
406.883	87.81
407.107	76.81
407.331	77.81
407.555	84.81
407.778	86.81
408.002	76.81
408.226	87.81
408.449	80.81
408.673	70.81
408.896	83.81
409.12	79.81
409.344	72.81
409.567	101.81
409.791	74.81
410.014	69.81
410.238	86.81
410.461	90.81
410.685	99.81
410.908	85.81
411.132	88.81
411.355	87.81
411.578	74.81
411.802	77.81
412.025	89.81
412.249	71.81
412.472	75.81
412.695	86.81
412.919	88.81
413.142	74.81
413.365	85.81
413.589	87.81
413.812	85.81
414.035	84.81
414.258	75.81
414.482	81.81
414.705	88.81
414.928	77.81
415.151	89.81
415.374	85.81
415.597	85.81
415.821	87.81
416.044	88.81
416.267	83.81
416.49	74.81
416.713	71.81
416.936	79.81
417.159	75.81
417.382	88.81
417.605	68.81
417.828	74.81
418.051	81.81
418.274	96.81
418.497	85.81
418.72	83.81
418.943	89.81
419.166	78.81
419.389	75.81
419.611	72.81
419.834	89.81
420.057	85.81
420.28	96.81
420.503	89.81
420.726	67.81
420.948	67.81
421.171	76.81
421.394	73.81
421.617	90.81
421.839	81.81
422.062	77.81
422.285	86.81
422.507	81.81
422.73	83.81
422.953	86.81
423.175	69.81
423.398	76.81
423.621	81.81
423.843	77.81
424.066	74.81
424.288	82.81
424.511	87.81
424.733	79.81
424.956	84.81
425.178	73.81
425.401	88.81
425.623	81.81
425.846	83.81
426.068	73.81
426.291	71.81
426.513	71.81
426.735	84.81
426.958	78.81
427.18	79.81
427.402	75.81
427.625	75.81
427.847	80.81
428.069	83.81
428.292	78.81
428.514	75.81
428.736	67.81
428.958	87.81
429.181	96.81
429.403	84.81
429.625	97.81
429.847	83.81
430.069	89.81
430.292	82.81
430.514	84.81
430.736	77.81
430.958	77.81
431.18	72.81
431.402	76.81
431.624	87.81
431.846	75.81
432.068	90.81
432.29	83.81
432.512	81.81
432.734	69.81
432.956	83.81
433.178	95.81
433.4	75.81
433.622	87.81
433.844	84.81
434.066	91.81
434.287	90.81
434.509	79.81
434.731	88.81
434.953	86.81
435.175	77.81
435.397	95.81
435.618	77.81
435.84	91.81
436.062	77.81
436.284	87.81
436.505	75.81
436.727	91.81
436.949	88.81
437.17	72.81
437.392	75.81
437.614	84.81
437.835	81.81
438.057	81.81
438.278	90.81
438.5	76.81
438.721	82.81
438.943	81.81
439.165	69.81
439.386	66.81
439.608	88.81
439.829	91.81
440.05	88.81
440.272	76.81
440.493	70.81
440.715	87.81
440.936	82.81
441.158	81.81
441.379	88.81
441.6	77.81
441.822	87.81
442.043	72.81
442.264	80.81
442.486	66.81
442.707	85.81
442.928	67.81
443.149	85.81
443.371	74.81
443.592	85.81
443.813	85.81
444.034	82.81
444.255	84.81
444.476	69.81
444.698	67.81
444.919	74.81
445.14	150.81
445.361	121.81
445.582	67.81
445.803	85.81
446.024	87.81
446.245	80.81
446.466	81.81
446.687	79.81
446.908	86.81
447.129	89.81
447.35	73.81
447.571	76.81
447.792	85.81
448.013	91.81
448.234	88.81
448.455	83.81
448.675	81.81
448.896	75.81
449.117	70.81
449.338	67.81
449.559	86.81
449.779	81.81
450	82.81
450.221	73.81
450.442	77.81
450.662	74.81
450.883	84.81
451.104	70.81
451.324	71.81
451.545	92.81
451.766	80.81
451.986	85.81
452.207	88.81
452.428	81.81
452.648	81.81
452.869	84.81
453.089	74.81
453.31	82.81
453.53	79.81
453.751	75.81
453.971	86.81
454.192	91.81
454.412	88.81
454.633	75.81
454.853	81.81
455.073	85.81
455.294	84.81
455.514	90.81
455.734	82.81
455.955	74.81
456.175	84.81
456.395	81.81
456.616	89.81
456.836	82.81
457.056	90.81
457.276	78.81
457.497	68.81
457.717	87.81
457.937	87.81
458.157	77.81
458.377	86.81
458.598	77.81
458.818	65.81
459.038	79.81
459.258	77.81
459.478	78.81
459.698	71.81
459.918	83.81
460.138	81.81
460.358	77.81
460.578	78.81
460.798	69.81
461.018	68.81
461.238	84.81
461.458	80.81
461.678	81.81
461.898	85.81
462.118	84.81
462.338	88.81
462.558	88.81
462.777	85.81
462.997	88.81
463.217	79.81
463.437	73.81
463.657	75.81
463.876	82.81
464.096	88.81
464.316	77.81
464.536	81.81
464.755	94.81
464.975	67.81
465.195	69.81
465.414	88.81
465.634	86.81
465.854	96.81
466.073	92.81
466.293	77.81
466.512	71.81
466.732	76.81
466.951	61.81
467.171	78.81
467.391	79.81
467.61	68.81
467.829	85.81
468.049	81.81
468.268	92.81
468.488	86.81
468.707	100.81
468.927	83.81
469.146	101.81
469.365	101.81
469.585	81.81
469.804	96.81
470.023	89.81
470.243	83.81
470.462	90.81
470.681	84.81
470.901	85.81
471.12	88.81
471.339	84.81
471.558	82.81
471.777	80.81
471.997	92.81
472.216	89.81
472.435	87.81
472.654	74.81
472.873	91.81
473.092	76.81
473.311	77.81
473.53	72.81
473.749	88.81
473.968	86.81
474.187	58.81
474.406	80.81
474.625	72.81
474.844	87.81
475.063	86.81
475.282	76.81
475.501	87.81
475.72	77.81
475.939	76.81
476.158	75.81
476.377	92.81
476.596	75.81
476.814	65.81
477.033	89.81
477.252	89.81
477.471	75.81
477.69	71.81
477.908	89.81
478.127	73.81
478.346	95.81
478.564	93.81
478.783	81.81
479.002	92.81
479.22	84.81
479.439	86.81
479.658	94.81
479.876	73.81
480.095	96.81
480.313	79.81
480.532	74.81
480.751	95.81
480.969	76.81
481.188	73.81
481.406	91.81
481.624	90.81
481.843	78.81
482.061	83.81
482.28	76.81
482.498	93.81
482.717	84.81
482.935	78.81
483.153	67.81
483.372	79.81
483.59	81.81
483.808	85.81
484.027	88.81
484.245	91.81
484.463	74.81
484.681	89.81
484.9	81.81
485.118	83.81
485.336	74.81
485.554	83.81
485.772	73.81
485.99	76.81
486.209	80.81
486.427	87.81
486.645	93.81
486.863	77.81
487.081	77.81
487.299	90.81
487.517	83.81
487.735	78.81
487.953	82.81
488.171	82.81
488.389	80.81
488.607	75.81
488.825	85.81
489.043	82.81
489.261	81.81
489.479	76.81
489.696	82.81
489.914	91.81
490.132	84.81
490.35	80.81
490.568	102.81
490.786	84.81
491.003	72.81
491.221	85.81
491.439	89.81
491.657	79.81
491.874	81.81
492.092	84.81
492.31	71.81
492.527	75.81
492.745	64.81
492.963	77.81
493.18	85.81
493.398	80.81
493.615	77.81
493.833	77.81
494.05	88.81
494.268	91.81
494.485	85.81
494.703	88.81
494.92	87.81
495.138	91.81
495.355	86.81
495.573	92.81
495.79	90.81
496.008	91.81
496.225	88.81
496.442	90.81
496.66	92.81
496.877	77.81
497.094	81.81
497.312	83.81
497.529	80.81
497.746	87.81
497.963	71.81
498.181	79.81
498.398	91.81
498.615	96.81
498.832	84.81
499.049	90.81
499.267	78.81
499.484	85.81
499.701	87.81
499.918	86.81
500.135	82.81
500.352	83.81
500.569	83.81
500.786	84.81
501.003	85.81
501.22	88.81
501.437	100.81
501.654	82.81
501.871	96.81
502.088	97.81
502.305	104.81
502.522	93.81
502.739	82.81
502.956	96.81
503.172	87.81
503.389	78.81
503.606	77.81
503.823	83.81
504.04	67.81
504.256	86.81
504.473	87.81
504.69	77.81
504.907	84.81
505.123	65.81
505.34	72.81
505.557	85.81
505.773	77.81
505.99	84.81
506.207	77.81
506.423	72.81
506.64	91.81
506.856	83.81
507.073	68.81
507.289	88.81
507.506	83.81
507.722	81.81
507.939	91.81
508.155	76.81
508.372	81.81
508.588	95.81
508.805	73.81
509.021	59.81
509.238	82.81
509.454	75.81
509.67	85.81
509.887	78.81
510.103	87.81
510.319	81.81
510.536	96.81
510.752	83.81
510.968	76.81
511.184	85.81
511.401	93.81
511.617	87.81
511.833	86.81
512.049	89.81
512.265	87.81
512.481	89.81
512.698	87.81
512.914	81.81
513.13	90.81
513.346	75.81
513.562	86.81
513.778	101.81
513.994	92.81
514.21	95.81
514.426	90.81
514.642	90.81
514.858	73.81
515.074	88.81
515.29	80.81
515.506	90.81
515.721	92.81
515.937	90.81
516.153	80.81
516.369	93.81
516.585	83.81
516.801	72.81
517.016	87.81
517.232	97.81
517.448	93.81
517.664	93.81
517.879	84.81
518.095	87.81
518.311	79.81
518.527	91.81
518.742	75.81
518.958	90.81
519.173	77.81
519.389	97.81
519.605	77.81
519.82	86.81
520.036	87.81
520.251	85.81
520.467	79.81
520.682	92.81
520.898	97.81
521.113	75.81
521.329	69.81
521.544	90.81
521.76	78.81
521.975	79.81
522.19	76.81
522.406	79.81
522.621	87.81
522.836	92.81
523.052	79.81
523.267	76.81
523.482	89.81
523.698	91.81
523.913	77.81
524.128	96.81
524.343	75.81
524.559	76.81
524.774	75.81
524.989	82.81
525.204	74.81
525.419	94.81
525.634	87.81
525.849	79.81
526.064	82.81
526.28	87.81
526.495	83.81
526.71	92.81
526.925	88.81
527.14	82.81
527.355	87.81
527.57	73.81
527.785	78.81
527.999	93.81
528.214	77.81
528.429	84.81
528.644	86.81
528.859	77.81
529.074	77.81
529.289	77.81
529.503	92.81
529.718	86.81
529.933	96.81
530.148	91.81
530.363	78.81
530.577	69.81
530.792	89.81
531.007	70.81
531.221	81.81
531.436	80.81
531.651	82.81
531.865	81.81
532.08	90.81
532.295	104.81
532.509	72.81
532.724	87.81
532.938	83.81
533.153	78.81
533.367	83.81
533.582	75.81
533.796	79.81
534.011	83.81
534.225	83.81
534.44	88.81
534.654	83.81
534.868	89.81
535.083	87.81
535.297	92.81
535.511	82.81
535.726	88.81
535.94	79.81
536.154	81.81
536.369	69.81
536.583	79.81
536.797	81.81
537.011	89.81
537.225	73.81
537.44	89.81
537.654	90.81
537.868	86.81
538.082	75.81
538.296	94.81
538.51	85.81
538.724	99.81
538.938	102.81
539.153	87.81
539.367	92.81
539.581	80.81
539.795	83.81
540.009	87.81
540.222	71.81
540.436	80.81
540.65	75.81
540.864	87.81
541.078	98.81
541.292	93.81
541.506	91.81
541.72	84.81
541.934	93.81
542.147	79.81
542.361	84.81
542.575	83.81
542.789	78.81
543.002	87.81
543.216	88.81
543.43	80.81
543.644	78.81
543.857	81.81
544.071	85.81
544.285	75.81
544.498	83.81
544.712	86.81
544.925	83.81
545.139	89.81
545.352	77.81
545.566	80.81
545.779	107.81
545.993	98.81
546.206	86.81
546.42	88.81
546.633	72.81
546.847	92.81
547.06	88.81
547.274	84.81
547.487	72.81
547.7	97.81
547.914	77.81
548.127	92.81
548.34	85.81
548.554	87.81
548.767	86.81
548.98	85.81
549.193	69.81
549.407	90.81
549.62	93.81
549.833	91.81
550.046	76.81
550.259	90.81
550.473	72.81
550.686	88.81
550.899	92.81
551.112	90.81
551.325	94.81
551.538	84.81
551.751	85.81
551.964	96.81
552.177	78.81
552.39	98.81
552.603	100.81
552.816	86.81
553.029	90.81
553.242	96.81
553.455	86.81
553.667	79.81
553.88	99.81
554.093	81.81
554.306	84.81
554.519	81.81
554.732	93.81
554.944	88.81
555.157	85.81
555.37	96.81
555.583	85.81
555.795	77.81
556.008	89.81
556.221	82.81
556.433	89.81
556.646	93.81
556.859	92.81
557.071	96.81
557.284	87.81
557.496	80.81
557.709	75.81
557.921	95.81
558.134	76.81
558.346	75.81
558.559	86.81
558.771	82.81
558.984	80.81
559.196	89.81
559.409	92.81
559.621	92.81
559.833	81.81
560.046	74.81
560.258	91.81
560.47	83.81
560.683	87.81
560.895	73.81
561.107	84.81
561.32	75.81
561.532	84.81
561.744	89.81
561.956	91.81
562.168	87.81
562.381	90.81
562.593	77.81
562.805	87.81
563.017	85.81
563.229	76.81
563.441	97.81
563.653	79.81
563.865	67.81
564.077	75.81
564.289	79.81
564.501	73.81
564.713	82.81
564.925	81.81
565.137	81.81
565.349	85.81
565.561	84.81
565.773	82.81
565.985	72.81
566.197	86.81
566.408	89.81
566.62	89.81
566.832	81.81
567.044	88.81
567.255	97.81
567.467	78.81
567.679	81.81
567.891	77.81
568.102	94.81
568.314	75.81
568.526	76.81
568.737	82.81
568.949	84.81
569.161	78.81
569.372	84.81
569.584	76.81
569.795	90.81
570.007	86.81
570.218	85.81
570.43	102.81
570.641	80.81
570.853	77.81
571.064	84.81
571.276	90.81
571.487	79.81
571.698	77.81
571.91	88.81
572.121	81.81
572.333	93.81
572.544	67.81
572.755	85.81
572.966	77.81
573.178	97.81
573.389	98.81
573.6	74.81
573.811	76.81
574.023	84.81
574.234	87.81
574.445	88.81
574.656	95.81
574.867	97.81
575.078	85.81
575.289	78.81
575.501	101.81
575.712	87.81
575.923	80.81
576.134	73.81
576.345	86.81
576.556	83.81
576.767	79.81
576.978	82.81
577.188	96.81
577.399	69.81
577.61	72.81
577.821	79.81
578.032	77.81
578.243	85.81
578.454	76.81
578.665	89.81
578.875	77.81
579.086	75.81
579.297	79.81
579.508	83.81
579.718	89.81
579.929	87.81
580.14	82.81
580.35	68.81
580.561	85.81
580.772	77.81
580.982	88.81
581.193	85.81
581.403	97.81
581.614	77.81
581.825	73.81
582.035	77.81
582.246	84.81
582.456	79.81
582.667	82.81
582.877	77.81
583.087	84.81
583.298	102.81
583.508	68.81
583.719	78.81
583.929	87.81
584.139	76.81
584.35	95.81
584.56	71.81
584.77	77.81
584.981	86.81
585.191	66.81
585.401	76.81
585.611	82.81
585.821	85.81
586.032	92.81
586.242	91.81
586.452	77.81
586.662	82.81
586.872	99.81
587.082	63.81
587.292	96.81
587.502	81.81
587.713	90.81
587.923	90.81
588.133	76.81
588.343	72.81
588.553	91.81
588.762	85.81
588.972	69.81
589.182	83.81
589.392	81.81
589.602	81.81
589.812	96.81
590.022	89.81
590.232	95.81
590.441	82.81
590.651	92.81
590.861	78.81
591.071	88.81
591.281	89.81
591.49	76.81
591.7	85.81
591.91	82.81
592.119	62.81
592.329	81.81
592.539	85.81
592.748	90.81
592.958	88.81
593.167	83.81
593.377	90.81
593.587	78.81
593.796	96.81
594.006	90.81
594.215	93.81
594.424	75.81
594.634	87.81
594.843	73.81
595.053	83.81
595.262	98.81
595.472	89.81
595.681	96.81
595.89	90.81
596.1	73.81
596.309	81.81
596.518	81.81
596.727	88.81
596.937	95.81
597.146	102.81
597.355	97.81
597.564	73.81
597.774	84.81
597.983	87.81
598.192	91.81
598.401	80.81
598.61	87.81
598.819	81.81
599.028	97.81
599.237	85.81
599.446	81.81
599.655	101.81
599.864	89.81
600.073	90.81
600.282	78.81
600.491	86.81
600.7	87.81
600.909	91.81
601.118	64.81
601.327	87.81
601.536	85.81
601.745	88.81
601.953	76.81
602.162	81.81
602.371	83.81
602.58	75.81
602.789	79.81
602.997	74.81
603.206	81.81
603.415	96.81
603.623	75.81
603.832	78.81
604.041	79.81
604.249	91.81
604.458	83.81
604.666	85.81
604.875	89.81
605.084	77.81
605.292	84.81
605.501	76.81
605.709	77.81
605.918	89.81
606.126	81.81
606.334	78.81
606.543	89.81
606.751	85.81
606.96	84.81
607.168	99.81
607.376	90.81
607.585	82.81
607.793	75.81
608.001	88.81
608.21	90.81
608.418	67.81
608.626	80.81
608.834	68.81
609.043	81.81
609.251	88.81
609.459	85.81
609.667	93.81
609.875	88.81
610.083	71.81
610.291	73.81
610.499	80.81
610.707	66.81
610.916	98.81
611.124	85.81
611.332	89.81
611.54	85.81
611.748	80.81
611.955	87.81
612.163	84.81
612.371	82.81
612.579	75.81
612.787	81.81
612.995	77.81
613.203	99.81
613.411	85.81
613.618	75.81
613.826	77.81
614.034	75.81
614.242	102.81
614.449	91.81
614.657	85.81
614.865	75.81
615.072	86.81
615.28	84.81
615.488	85.81
615.695	76.81
615.903	77.81
616.111	83.81
616.318	90.81
616.526	81.81
616.733	95.81
616.941	88.81
617.148	96.81
617.356	81.81
617.563	86.81
617.771	70.81
617.978	71.81
618.185	74.81
618.393	89.81
618.6	81.81
618.807	80.81
619.015	92.81
619.222	99.81
619.429	84.81
619.637	83.81
619.844	80.81
620.051	96.81
620.258	86.81
620.466	86.81
620.673	84.81
620.88	90.81
621.087	90.81
621.294	86.81
621.501	84.81
621.708	71.81
621.915	94.81
622.122	77.81
622.329	74.81
622.536	82.81
622.743	84.81
622.95	79.81
623.157	65.81
623.364	77.81
623.571	85.81
623.778	77.81
623.985	95.81
624.192	81.81
624.399	101.81
624.606	84.81
624.812	74.81
625.019	92.81
625.226	81.81
625.433	86.81
625.639	85.81
625.846	91.81
626.053	77.81
626.259	76.81
626.466	83.81
626.673	90.81
626.879	84.81
627.086	73.81
627.293	91.81
627.499	99.81
627.706	75.81
627.912	71.81
628.119	82.81
628.325	89.81
628.532	73.81
628.738	89.81
628.945	87.81
629.151	88.81
629.357	93.81
629.564	92.81
629.77	87.81
629.976	85.81
630.183	78.81
630.389	82.81
630.595	92.81
630.802	93.81
631.008	82.81
631.214	88.81
631.42	88.81
631.627	80.81
631.833	89.81
632.039	89.81
632.245	71.81
632.451	87.81
632.657	91.81
632.863	90.81
633.069	90.81
633.275	83.81
633.481	83.81
633.688	83.81
633.893	90.81
634.099	86.81
634.305	96.81
634.511	69.81
634.717	67.81
634.923	93.81
635.129	90.81
635.335	73.81
635.541	83.81
635.747	84.81
635.952	78.81
636.158	81.81
636.364	91.81
636.57	85.81
636.775	87.81
636.981	99.81
637.187	79.81
637.392	86.81
637.598	88.81
637.804	72.81
638.009	86.81
638.215	82.81
638.421	74.81
638.626	89.81
638.832	83.81
639.037	69.81
639.243	88.81
639.448	75.81
639.654	81.81
639.859	87.81
640.065	83.81
640.27	91.81
640.475	89.81
640.681	82.81
640.886	77.81
641.091	68.81
641.297	95.81
641.502	95.81
641.707	88.81
641.913	84.81
642.118	69.81
642.323	88.81
642.528	96.81
642.733	92.81
642.939	85.81
643.144	94.81
643.349	73.81
643.554	97.81
643.759	89.81
643.964	91.81
644.169	79.81
644.374	89.81
644.579	80.81
644.784	89.81
644.989	83.81
645.194	74.81
645.399	85.81
645.604	71.81
645.809	81.81
646.014	90.81
646.219	79.81
646.423	67.81
646.628	80.81
646.833	83.81
647.038	92.81
647.243	91.81
647.447	82.81
647.652	96.81
647.857	81.81
648.062	87.81
648.266	68.81
648.471	96.81
648.676	87.81
648.88	77.81
649.085	92.81
649.289	86.81
649.494	86.81
649.698	84.81
649.903	81.81
650.107	77.81
650.312	92.81
650.516	75.81
650.721	79.81
650.925	87.81
651.13	76.81
651.334	94.81
651.539	101.81
651.743	84.81
651.947	92.81
652.152	81.81
652.356	92.81
652.56	83.81
652.764	88.81
652.969	76.81
653.173	92.81
653.377	67.81
653.581	80.81
653.785	78.81
653.99	80.81
654.194	84.81
654.398	86.81
654.602	89.81
654.806	74.81
655.01	86.81
655.214	81.81
655.418	89.81
655.622	65.81
655.826	83.81
656.03	78.81
656.234	80.81
656.438	82.81
656.642	75.81
656.846	98.81
657.049	76.81
657.253	71.81
657.457	78.81
657.661	90.81
657.865	75.81
658.068	74.81
658.272	82.81
658.476	93.81
658.68	75.81
658.883	81.81
659.087	82.81
659.291	78.81
659.494	83.81
659.698	78.81
659.901	63.81
660.105	67.81
660.309	70.81
660.512	91.81
660.716	87.81
660.919	89.81
661.123	75.81
661.326	84.81
661.53	83.81
661.733	72.81
661.936	83.81
662.14	74.81
662.343	76.81
662.546	80.81
662.75	79.81
662.953	93.81
663.156	98.81
663.36	81.81
663.563	98.81
663.766	88.81
663.969	87.81
664.173	88.81
664.376	89.81
664.579	75.81
664.782	86.81
664.985	90.81
665.188	75.81
665.391	95.81
665.594	82.81
665.797	77.81
666	87.81
666.203	93.81
666.406	69.81
666.609	76.81
666.812	89.81
667.015	70.81
667.218	72.81
667.421	71.81
667.624	84.81
667.827	88.81
668.03	82.81
668.232	82.81
668.435	88.81
668.638	90.81
668.841	76.81
669.043	76.81
669.246	82.81
669.449	70.81
669.651	88.81
669.854	88.81
670.057	67.81
670.259	73.81
670.462	66.81
670.665	83.81
670.867	84.81
671.07	79.81
671.272	86.81
671.475	91.81
671.677	87.81
671.88	78.81
672.082	76.81
672.284	83.81
672.487	89.81
672.689	81.81
672.892	96.81
