Data from Lead_5_1_HRD10591_00098.txt Node
Date: Fri Feb 20 11:08:57 EST 2026
User: Yrep
Spectrometer: HR+D1059
Trigger mode: 1
Integration Time (sec): 1.000000E-1
Scans to average: 1
Electric dark correction enabled: true
Nonlinearity correction enabled: false
Boxcar width: 0
XAxis mode: Wavelengths
Number of Pixels in Spectrum: 2048
>>>>>Begin Spectral Data<<<<<
223.165	-21.69
223.4	-21.69
223.635	-21.69
223.869	-17.69
224.104	-8.69
224.338	-9.69
224.573	-29.69
224.808	-9.69
225.042	-0.69
225.277	-10.69
225.511	-1.69
225.746	5.31
225.98	6.31
226.215	14.31
226.449	8.31
226.683	18.31
226.918	33.31
227.152	24.31
227.387	34.31
227.621	48.31
227.856	58.31
228.09	50.31
228.324	49.31
228.559	65.31
228.793	65.31
229.027	60.31
229.262	58.31
229.496	58.31
229.73	61.31
229.964	69.31
230.199	58.31
230.433	74.31
230.667	88.31
230.901	66.31
231.136	63.31
231.37	82.31
231.604	84.31
231.838	69.31
232.072	71.31
232.306	81.31
232.541	81.31
232.775	80.31
233.009	81.31
233.243	76.31
233.477	78.31
233.711	80.31
233.945	92.31
234.179	72.31
234.413	55.31
234.647	72.31
234.881	75.31
235.115	81.31
235.349	88.31
235.583	84.31
235.817	79.31
236.051	93.31
236.285	74.31
236.519	80.31
236.753	80.31
236.987	80.31
237.221	70.31
237.455	60.31
237.689	88.31
237.922	76.31
238.156	71.31
238.39	54.31
238.624	74.31
238.858	70.31
239.091	71.31
239.325	75.31
239.559	78.31
239.793	65.31
240.027	75.31
240.26	68.31
240.494	78.31
240.728	71.31
240.961	93.31
241.195	92.31
241.429	84.31
241.662	72.31
241.896	75.31
242.13	86.31
242.363	72.31
242.597	91.31
242.83	67.31
243.064	85.31
243.298	68.31
243.531	75.31
243.765	64.31
243.998	78.31
244.232	76.31
244.465	69.31
244.699	52.31
244.932	67.31
245.166	89.31
245.399	78.31
245.633	77.31
245.866	74.31
246.099	95.31
246.333	88.31
246.566	74.31
246.8	80.31
247.033	78.31
247.266	86.31
247.5	70.31
247.733	75.31
247.966	79.31
248.2	75.31
248.433	68.31
248.666	68.31
248.899	84.31
249.133	68.31
249.366	84.31
249.599	72.31
249.832	84.31
250.066	74.31
250.299	97.31
250.532	83.31
250.765	76.31
250.998	64.31
251.231	70.31
251.465	86.31
251.698	88.31
251.931	70.31
252.164	80.31
252.397	62.31
252.63	84.31
252.863	71.31
253.096	64.31
253.329	78.31
253.562	76.31
253.795	70.31
254.028	68.31
254.261	74.31
254.494	86.31
254.727	73.31
254.96	78.31
255.193	74.31
255.426	71.31
255.659	73.31
255.892	88.31
256.124	80.31
256.357	76.31
256.59	85.31
256.823	72.31
257.056	94.31
257.289	69.31
257.521	82.31
257.754	81.31
257.987	81.31
258.22	77.31
258.452	72.31
258.685	83.31
258.918	78.31
259.151	88.31
259.383	78.31
259.616	89.31
259.849	68.31
260.081	86.31
260.314	67.31
260.547	72.31
260.779	73.31
261.012	74.31
261.244	90.31
261.477	88.31
261.71	69.31
261.942	82.31
262.175	64.31
262.407	72.31
262.64	73.31
262.872	82.31
263.105	80.31
263.337	89.31
263.57	70.31
263.802	82.31
264.035	64.31
264.267	95.31
264.499	79.31
264.732	76.31
264.964	93.31
265.197	84.31
265.429	83.31
265.661	69.31
265.894	70.31
266.126	80.31
266.358	81.31
266.591	73.31
266.823	68.31
267.055	77.31
267.287	78.31
267.52	88.31
267.752	88.31
267.984	72.31
268.216	75.31
268.448	80.31
268.681	82.31
268.913	87.31
269.145	65.31
269.377	96.31
269.609	74.31
269.841	80.31
270.073	72.31
270.306	75.31
270.538	72.31
270.77	67.31
271.002	70.31
271.234	85.31
271.466	78.31
271.698	76.31
271.93	75.31
272.162	79.31
272.394	81.31
272.626	78.31
272.858	79.31
273.09	86.31
273.322	83.31
273.553	96.31
273.785	87.31
274.017	72.31
274.249	84.31
274.481	72.31
274.713	74.31
274.945	67.31
275.176	100.31
275.408	76.31
275.64	85.31
275.872	74.31
276.104	79.31
276.335	76.31
276.567	88.31
276.799	72.31
277.031	69.31
277.262	80.31
277.494	76.31
277.726	80.31
277.957	93.31
278.189	74.31
278.421	84.31
278.652	69.31
278.884	70.31
279.115	70.31
279.347	73.31
279.579	70.31
279.81	86.31
280.042	84.31
280.273	89.31
280.505	85.31
280.736	81.31
280.968	84.31
281.199	88.31
281.431	85.31
281.662	70.31
281.894	84.31
282.125	89.31
282.356	84.31
282.588	79.31
282.819	77.31
283.051	80.31
283.282	86.31
283.513	84.31
283.745	84.31
283.976	74.31
284.207	76.31
284.439	90.31
284.67	83.31
284.901	89.31
285.132	85.31
285.364	95.31
285.595	74.31
285.826	82.31
286.057	80.31
286.288	78.31
286.52	86.31
286.751	99.31
286.982	84.31
287.213	78.31
287.444	92.31
287.675	88.31
287.906	78.31
288.138	94.31
288.369	72.31
288.6	88.31
288.831	69.31
289.062	83.31
289.293	84.31
289.524	66.31
289.755	82.31
289.986	80.31
290.217	87.31
290.448	82.31
290.679	86.31
290.91	96.31
291.141	76.31
291.371	85.31
291.602	84.31
291.833	84.31
292.064	71.31
292.295	80.31
292.526	82.31
292.757	85.31
292.987	71.31
293.218	97.31
293.449	96.31
293.68	83.31
293.91	71.31
294.141	86.31
294.372	71.31
294.603	78.31
294.833	84.31
295.064	80.31
295.295	78.31
295.525	78.31
295.756	84.31
295.987	82.31
296.217	80.31
296.448	81.31
296.679	71.31
296.909	93.31
297.14	92.31
297.37	81.31
297.601	78.31
297.831	80.31
298.062	74.31
298.292	82.31
298.523	92.31
298.753	79.31
298.984	93.31
299.214	80.31
299.445	90.31
299.675	83.31
299.905	81.31
300.136	86.31
300.366	96.31
300.597	79.31
300.827	73.31
301.057	92.31
301.288	94.31
301.518	67.31
301.748	68.31
301.979	96.31
302.209	80.31
302.439	91.31
302.669	86.31
302.9	79.31
303.13	69.31
303.36	88.31
303.59	85.31
303.82	77.31
304.051	87.31
304.281	64.31
304.511	97.31
304.741	86.31
304.971	86.31
305.201	83.31
305.431	72.31
305.661	75.31
305.891	76.31
306.121	89.31
306.352	85.31
306.582	70.31
306.812	87.31
307.042	85.31
307.272	87.31
307.502	77.31
307.731	78.31
307.961	86.31
308.191	91.31
308.421	78.31
308.651	64.31
308.881	82.31
309.111	64.31
309.341	78.31
309.571	86.31
309.8	83.31
310.03	70.31
310.26	78.31
310.49	74.31
310.72	74.31
310.949	79.31
311.179	77.31
311.409	80.31
311.639	85.31
311.868	70.31
312.098	88.31
312.328	85.31
312.557	86.31
312.787	90.31
313.017	82.31
313.246	81.31
313.476	78.31
313.706	73.31
313.935	77.31
314.165	82.31
314.394	80.31
314.624	84.31
314.853	72.31
315.083	80.31
315.312	89.31
315.542	99.31
315.771	92.31
316.001	87.31
316.23	94.31
316.46	95.31
316.689	88.31
316.919	79.31
317.148	89.31
317.377	81.31
317.607	81.31
317.836	83.31
318.065	82.31
318.295	84.31
318.524	84.31
318.753	69.31
318.983	86.31
319.212	79.31
319.441	90.31
319.67	72.31
319.9	81.31
320.129	74.31
320.358	75.31
320.587	82.31
320.816	93.31
321.046	76.31
321.275	67.31
321.504	75.31
321.733	84.31
321.962	68.31
322.191	73.31
322.42	73.31
322.649	67.31
322.878	80.31
323.108	80.31
323.337	88.31
323.566	81.31
323.795	77.31
324.024	79.31
324.253	95.31
324.482	75.31
324.71	69.31
324.939	81.31
325.168	84.31
325.397	70.31
325.626	84.31
325.855	76.31
326.084	80.31
326.313	84.31
326.542	75.31
326.77	82.31
326.999	93.31
327.228	80.31
327.457	64.31
327.686	79.31
327.914	77.31
328.143	69.31
328.372	84.31
328.6	74.31
328.829	74.31
329.058	86.31
329.287	86.31
329.515	86.31
329.744	85.31
329.972	85.31
330.201	84.31
330.43	85.31
330.658	67.31
330.887	74.31
331.115	86.31
331.344	78.31
331.572	88.31
331.801	82.31
332.03	67.31
332.258	81.31
332.486	77.31
332.715	84.31
332.943	79.31
333.172	88.31
333.4	83.31
333.629	88.31
333.857	85.31
334.085	86.31
334.314	75.31
334.542	71.31
334.771	69.31
334.999	89.31
335.227	95.31
335.455	95.31
335.684	89.31
335.912	78.31
336.14	77.31
336.369	70.31
336.597	84.31
336.825	73.31
337.053	79.31
337.281	84.31
337.51	85.31
337.738	80.31
337.966	87.31
338.194	83.31
338.422	94.31
338.65	93.31
338.878	80.31
339.106	86.31
339.334	88.31
339.562	78.31
339.79	88.31
340.018	89.31
340.246	75.31
340.474	77.31
340.702	92.31
340.93	89.31
341.158	84.31
341.386	92.31
341.614	77.31
341.842	86.31
342.07	89.31
342.298	82.31
342.526	82.31
342.754	81.31
342.981	76.31
343.209	96.31
343.437	83.31
343.665	82.31
343.893	62.31
344.12	84.31
344.348	70.31
344.576	70.31
344.804	82.31
345.031	74.31
345.259	74.31
345.487	79.31
345.714	82.31
345.942	80.31
346.17	72.31
346.397	86.31
346.625	75.31
346.853	76.31
347.08	73.31
347.308	89.31
347.535	95.31
347.763	78.31
347.99	78.31
348.218	86.31
348.445	71.31
348.673	70.31
348.9	100.31
349.128	78.31
349.355	82.31
349.583	83.31
349.81	93.31
350.037	74.31
350.265	80.31
350.492	94.31
350.72	83.31
350.947	84.31
351.174	70.31
351.402	77.31
351.629	77.31
351.856	65.31
352.083	66.31
352.311	88.31
352.538	73.31
352.765	77.31
352.992	95.31
353.22	99.31
353.447	79.31
353.674	80.31
353.901	93.31
354.128	80.31
354.355	92.31
354.583	85.31
354.81	88.31
355.037	86.31
355.264	74.31
355.491	81.31
355.718	74.31
355.945	84.31
356.172	80.31
356.399	73.31
356.626	81.31
356.853	96.31
357.08	69.31
357.307	85.31
357.534	85.31
357.761	89.31
357.988	82.31
358.215	85.31
358.441	69.31
358.668	74.31
358.895	72.31
359.122	81.31
359.349	77.31
359.576	81.31
359.802	88.31
360.029	73.31
360.256	86.31
360.483	75.31
360.709	84.31
360.936	90.31
361.163	80.31
361.39	85.31
361.616	100.31
361.843	67.31
362.07	84.31
362.296	88.31
362.523	77.31
362.749	82.31
362.976	84.31
363.203	88.31
363.429	71.31
363.656	78.31
363.882	76.31
364.109	74.31
364.335	79.31
364.562	75.31
364.788	74.31
365.015	86.31
365.241	82.31
365.468	82.31
365.694	69.31
365.92	79.31
366.147	76.31
366.373	87.31
366.599	88.31
366.826	78.31
367.052	83.31
367.278	90.31
367.505	68.31
367.731	73.31
367.957	96.31
368.184	82.31
368.41	86.31
368.636	99.31
368.862	81.31
369.089	81.31
369.315	69.31
369.541	83.31
369.767	77.31
369.993	89.31
370.219	92.31
370.445	90.31
370.672	80.31
370.898	78.31
371.124	70.31
371.35	74.31
371.576	72.31
371.802	60.31
372.028	75.31
372.254	68.31
372.48	84.31
372.706	85.31
372.932	84.31
373.158	88.31
373.384	80.31
373.61	68.31
373.835	78.31
374.061	80.31
374.287	68.31
374.513	70.31
374.739	72.31
374.965	77.31
375.191	66.31
375.416	68.31
375.642	78.31
375.868	75.31
376.094	80.31
376.319	78.31
376.545	89.31
376.771	75.31
376.997	89.31
377.222	89.31
377.448	70.31
377.674	72.31
377.899	79.31
378.125	86.31
378.35	86.31
378.576	80.31
378.802	66.31
379.027	88.31
379.253	78.31
379.478	82.31
379.704	85.31
379.929	78.31
380.155	79.31
380.38	79.31
380.606	85.31
380.831	78.31
381.057	88.31
381.282	71.31
381.507	92.31
381.733	81.31
381.958	69.31
382.184	94.31
382.409	92.31
382.634	99.31
382.86	69.31
383.085	94.31
383.31	90.31
383.535	68.31
383.761	81.31
383.986	76.31
384.211	91.31
384.436	88.31
384.662	84.31
384.887	69.31
385.112	86.31
385.337	80.31
385.562	71.31
385.787	80.31
386.013	74.31
386.238	78.31
386.463	78.31
386.688	89.31
386.913	98.31
387.138	82.31
387.363	64.31
387.588	90.31
387.813	80.31
388.038	86.31
388.263	78.31
388.488	77.31
388.713	70.31
388.938	72.31
389.163	80.31
389.387	85.31
389.612	81.31
389.837	79.31
390.062	100.31
390.287	72.31
390.512	74.31
390.736	85.31
390.961	81.31
391.186	93.31
391.411	79.31
391.636	79.31
391.86	62.31
392.085	80.31
392.31	80.31
392.534	90.31
392.759	85.31
392.984	83.31
393.208	84.31
393.433	62.31
393.658	87.31
393.882	88.31
394.107	84.31
394.331	74.31
394.556	83.31
394.78	72.31
395.005	75.31
395.229	80.31
395.454	82.31
395.678	80.31
395.903	78.31
396.127	72.31
396.352	84.31
396.576	66.31
396.801	84.31
397.025	76.31
397.249	81.31
397.474	82.31
397.698	63.31
397.922	96.31
398.147	82.31
398.371	75.31
398.595	75.31
398.82	88.31
399.044	86.31
399.268	77.31
399.492	73.31
399.717	82.31
399.941	71.31
400.165	74.31
400.389	79.31
400.613	84.31
400.837	84.31
401.062	69.31
401.286	71.31
401.51	87.31
401.734	85.31
401.958	92.31
402.182	55.31
402.406	68.31
402.63	70.31
402.854	84.31
403.078	66.31
403.302	74.31
403.526	86.31
403.75	92.31
403.974	65.31
404.198	80.31
404.422	92.31
404.645	70.31
404.869	64.31
405.093	74.31
405.317	75.31
405.541	74.31
405.765	84.31
405.988	70.31
406.212	77.31
406.436	78.31
406.66	78.31
406.883	95.31
407.107	78.31
407.331	79.31
407.555	76.31
407.778	77.31
408.002	89.31
408.226	73.31
408.449	82.31
408.673	76.31
408.896	82.31
409.12	85.31
409.344	74.31
409.567	86.31
409.791	72.31
410.014	77.31
410.238	72.31
410.461	78.31
410.685	84.31
410.908	73.31
411.132	76.31
411.355	79.31
411.578	75.31
411.802	89.31
412.025	98.31
412.249	80.31
412.472	75.31
412.695	84.31
412.919	79.31
413.142	93.31
413.365	81.31
413.589	85.31
413.812	72.31
414.035	72.31
414.258	74.31
414.482	69.31
414.705	76.31
414.928	81.31
415.151	80.31
415.374	88.31
415.597	68.31
415.821	78.31
416.044	81.31
416.267	82.31
416.49	75.31
416.713	72.31
416.936	53.31
417.159	71.31
417.382	80.31
417.605	88.31
417.828	91.31
418.051	80.31
418.274	84.31
418.497	86.31
418.72	89.31
418.943	80.31
419.166	65.31
419.389	78.31
419.611	68.31
419.834	77.31
420.057	78.31
420.28	72.31
420.503	71.31
420.726	74.31
420.948	78.31
421.171	77.31
421.394	78.31
421.617	78.31
421.839	70.31
422.062	80.31
422.285	80.31
422.507	74.31
422.73	82.31
422.953	78.31
423.175	87.31
423.398	79.31
423.621	77.31
423.843	68.31
424.066	71.31
424.288	90.31
424.511	80.31
424.733	83.31
424.956	80.31
425.178	80.31
425.401	86.31
425.623	94.31
425.846	86.31
426.068	86.31
426.291	93.31
426.513	78.31
426.735	68.31
426.958	88.31
427.18	84.31
427.402	75.31
427.625	85.31
427.847	70.31
428.069	70.31
428.292	77.31
428.514	73.31
428.736	71.31
428.958	71.31
429.181	79.31
429.403	80.31
429.625	86.31
429.847	81.31
430.069	86.31
430.292	72.31
430.514	80.31
430.736	71.31
430.958	75.31
431.18	91.31
431.402	86.31
431.624	81.31
431.846	76.31
432.068	80.31
432.29	63.31
432.512	78.31
432.734	64.31
432.956	77.31
433.178	70.31
433.4	64.31
433.622	84.31
433.844	74.31
434.066	77.31
434.287	86.31
434.509	60.31
434.731	72.31
434.953	84.31
435.175	87.31
435.397	76.31
435.618	84.31
435.84	88.31
436.062	100.31
436.284	80.31
436.505	65.31
436.727	71.31
436.949	88.31
437.17	66.31
437.392	75.31
437.614	70.31
437.835	72.31
438.057	75.31
438.278	86.31
438.5	72.31
438.721	74.31
438.943	84.31
439.165	74.31
439.386	76.31
439.608	75.31
439.829	69.31
440.05	85.31
440.272	85.31
440.493	81.31
440.715	88.31
440.936	78.31
441.158	69.31
441.379	73.31
441.6	77.31
441.822	76.31
442.043	69.31
442.264	78.31
442.486	74.31
442.707	82.31
442.928	78.31
443.149	74.31
443.371	66.31
443.592	89.31
443.813	89.31
444.034	72.31
444.255	77.31
444.476	85.31
444.698	77.31
444.919	78.31
445.14	128.31
445.361	122.31
445.582	77.31
445.803	66.31
446.024	71.31
446.245	94.31
446.466	83.31
446.687	73.31
446.908	84.31
447.129	62.31
447.35	70.31
447.571	82.31
447.792	74.31
448.013	78.31
448.234	81.31
448.455	76.31
448.675	65.31
448.896	73.31
449.117	71.31
449.338	73.31
449.559	94.31
449.779	94.31
450	74.31
450.221	84.31
450.442	85.31
450.662	72.31
450.883	84.31
451.104	82.31
451.324	81.31
451.545	80.31
451.766	81.31
451.986	65.31
452.207	85.31
452.428	75.31
452.648	81.31
452.869	75.31
453.089	80.31
453.31	88.31
453.53	80.31
453.751	85.31
453.971	86.31
454.192	74.31
454.412	75.31
454.633	80.31
454.853	77.31
455.073	58.31
455.294	85.31
455.514	81.31
455.734	79.31
455.955	78.31
456.175	77.31
456.395	70.31
456.616	89.31
456.836	73.31
457.056	87.31
457.276	70.31
457.497	84.31
457.717	68.31
457.937	64.31
458.157	79.31
458.377	80.31
458.598	86.31
458.818	82.31
459.038	77.31
459.258	74.31
459.478	64.31
459.698	67.31
459.918	74.31
460.138	88.31
460.358	73.31
460.578	85.31
460.798	78.31
461.018	73.31
461.238	83.31
461.458	80.31
461.678	72.31
461.898	80.31
462.118	90.31
462.338	71.31
462.558	81.31
462.777	89.31
462.997	77.31
463.217	70.31
463.437	78.31
463.657	78.31
463.876	74.31
464.096	96.31
464.316	80.31
464.536	82.31
464.755	81.31
464.975	84.31
465.195	75.31
465.414	68.31
465.634	74.31
465.854	80.31
466.073	67.31
466.293	89.31
466.512	90.31
466.732	94.31
466.951	74.31
467.171	75.31
467.391	85.31
467.61	80.31
467.829	95.31
468.049	67.31
468.268	70.31
468.488	85.31
468.707	83.31
468.927	74.31
469.146	93.31
469.365	73.31
469.585	86.31
469.804	82.31
470.023	68.31
470.243	72.31
470.462	70.31
470.681	74.31
470.901	67.31
471.12	70.31
471.339	83.31
471.558	80.31
471.777	84.31
471.997	79.31
472.216	66.31
472.435	88.31
472.654	73.31
472.873	65.31
473.092	93.31
473.311	88.31
473.53	83.31
473.749	60.31
473.968	82.31
474.187	100.31
474.406	77.31
474.625	74.31
474.844	70.31
475.063	74.31
475.282	69.31
475.501	74.31
475.72	89.31
475.939	63.31
476.158	84.31
476.377	81.31
476.596	72.31
476.814	74.31
477.033	80.31
477.252	83.31
477.471	69.31
477.69	89.31
477.908	83.31
478.127	90.31
478.346	74.31
478.564	74.31
478.783	80.31
479.002	74.31
479.22	80.31
479.439	100.31
479.658	78.31
479.876	80.31
480.095	82.31
480.313	87.31
480.532	72.31
480.751	84.31
480.969	83.31
481.188	87.31
481.406	76.31
481.624	86.31
481.843	77.31
482.061	82.31
482.28	83.31
482.498	72.31
482.717	80.31
482.935	69.31
483.153	78.31
483.372	98.31
483.59	95.31
483.808	83.31
484.027	88.31
484.245	70.31
484.463	84.31
484.681	100.31
484.9	77.31
485.118	72.31
485.336	78.31
485.554	82.31
485.772	83.31
485.99	80.31
486.209	80.31
486.427	79.31
486.645	81.31
486.863	65.31
487.081	77.31
487.299	73.31
487.517	84.31
487.735	83.31
487.953	72.31
488.171	87.31
488.389	82.31
488.607	88.31
488.825	90.31
489.043	88.31
489.261	87.31
489.479	83.31
489.696	91.31
489.914	75.31
490.132	82.31
490.35	75.31
490.568	85.31
490.786	80.31
491.003	65.31
491.221	74.31
491.439	77.31
491.657	77.31
491.874	81.31
492.092	84.31
492.31	82.31
492.527	79.31
492.745	68.31
492.963	78.31
493.18	80.31
493.398	81.31
493.615	85.31
493.833	81.31
494.05	94.31
494.268	77.31
494.485	80.31
494.703	70.31
494.92	70.31
495.138	88.31
495.355	74.31
495.573	89.31
495.79	82.31
496.008	67.31
496.225	72.31
496.442	81.31
496.66	82.31
496.877	89.31
497.094	78.31
497.312	78.31
497.529	67.31
497.746	80.31
497.963	86.31
498.181	86.31
498.398	84.31
498.615	87.31
498.832	85.31
499.049	77.31
499.267	88.31
499.484	78.31
499.701	84.31
499.918	87.31
500.135	81.31
500.352	81.31
500.569	75.31
500.786	95.31
501.003	81.31
501.22	91.31
501.437	76.31
501.654	70.31
501.871	68.31
502.088	83.31
502.305	86.31
502.522	85.31
502.739	73.31
502.956	78.31
503.172	80.31
503.389	78.31
503.606	80.31
503.823	81.31
504.04	84.31
504.256	69.31
504.473	81.31
504.69	67.31
504.907	82.31
505.123	74.31
505.34	83.31
505.557	80.31
505.773	82.31
505.99	73.31
506.207	74.31
506.423	90.31
506.64	71.31
506.856	81.31
507.073	78.31
507.289	82.31
507.506	85.31
507.722	84.31
507.939	72.31
508.155	81.31
508.372	81.31
508.588	69.31
508.805	87.31
509.021	83.31
509.238	73.31
509.454	94.31
509.67	71.31
509.887	86.31
510.103	86.31
510.319	81.31
510.536	79.31
510.752	75.31
510.968	80.31
511.184	70.31
511.401	73.31
511.617	78.31
511.833	78.31
512.049	87.31
512.265	81.31
512.481	93.31
512.698	93.31
512.914	85.31
513.13	80.31
513.346	75.31
513.562	82.31
513.778	74.31
513.994	84.31
514.21	72.31
514.426	97.31
514.642	76.31
514.858	76.31
515.074	81.31
515.29	66.31
515.506	77.31
515.721	89.31
515.937	92.31
516.153	74.31
516.369	89.31
516.585	77.31
516.801	80.31
517.016	83.31
517.232	90.31
517.448	77.31
517.664	82.31
517.879	93.31
518.095	77.31
518.311	93.31
518.527	92.31
518.742	89.31
518.958	71.31
519.173	67.31
519.389	95.31
519.605	75.31
519.82	70.31
520.036	76.31
520.251	94.31
520.467	94.31
520.682	80.31
520.898	81.31
521.113	84.31
521.329	95.31
521.544	89.31
521.76	86.31
521.975	88.31
522.19	98.31
522.406	93.31
522.621	89.31
522.836	80.31
523.052	79.31
523.267	86.31
523.482	83.31
523.698	72.31
523.913	88.31
524.128	80.31
524.343	71.31
524.559	76.31
524.774	80.31
524.989	82.31
525.204	78.31
525.419	94.31
525.634	83.31
525.849	75.31
526.064	83.31
526.28	89.31
526.495	82.31
526.71	89.31
526.925	88.31
527.14	78.31
527.355	86.31
527.57	86.31
527.785	84.31
527.999	85.31
528.214	82.31
528.429	81.31
528.644	75.31
528.859	81.31
529.074	79.31
529.289	81.31
529.503	93.31
529.718	91.31
529.933	93.31
530.148	85.31
530.363	90.31
530.577	68.31
530.792	73.31
531.007	90.31
531.221	72.31
531.436	71.31
531.651	84.31
531.865	90.31
532.08	80.31
532.295	76.31
532.509	75.31
532.724	82.31
532.938	81.31
533.153	88.31
533.367	92.31
533.582	87.31
533.796	95.31
534.011	78.31
534.225	83.31
534.44	80.31
534.654	76.31
534.868	80.31
535.083	78.31
535.297	85.31
535.511	87.31
535.726	82.31
535.94	79.31
536.154	92.31
536.369	82.31
536.583	66.31
536.797	78.31
537.011	68.31
537.225	80.31
537.44	85.31
537.654	83.31
537.868	85.31
538.082	74.31
538.296	94.31
538.51	67.31
538.724	77.31
538.938	82.31
539.153	79.31
539.367	93.31
539.581	86.31
539.795	89.31
540.009	76.31
540.222	67.31
540.436	63.31
540.65	97.31
540.864	74.31
541.078	89.31
541.292	86.31
541.506	89.31
541.72	81.31
541.934	79.31
542.147	76.31
542.361	88.31
542.575	86.31
542.789	76.31
543.002	79.31
543.216	89.31
543.43	91.31
543.644	82.31
543.857	84.31
544.071	78.31
544.285	78.31
544.498	72.31
544.712	84.31
544.925	80.31
545.139	71.31
545.352	82.31
545.566	80.31
545.779	67.31
545.993	74.31
546.206	96.31
546.42	77.31
546.633	84.31
546.847	80.31
547.06	81.31
547.274	85.31
547.487	98.31
547.7	83.31
547.914	93.31
548.127	79.31
548.34	82.31
548.554	75.31
548.767	78.31
548.98	82.31
549.193	73.31
549.407	82.31
549.62	73.31
549.833	90.31
550.046	82.31
550.259	91.31
550.473	81.31
550.686	79.31
550.899	104.31
551.112	66.31
551.325	76.31
551.538	98.31
551.751	83.31
551.964	90.31
552.177	94.31
552.39	89.31
552.603	95.31
552.816	88.31
553.029	73.31
553.242	76.31
553.455	77.31
553.667	83.31
553.88	64.31
554.093	78.31
554.306	85.31
554.519	81.31
554.732	90.31
554.944	80.31
555.157	75.31
555.37	90.31
555.583	83.31
555.795	80.31
556.008	88.31
556.221	74.31
556.433	79.31
556.646	78.31
556.859	70.31
557.071	86.31
557.284	89.31
557.496	86.31
557.709	92.31
557.921	64.31
558.134	80.31
558.346	86.31
558.559	72.31
558.771	80.31
558.984	89.31
559.196	88.31
559.409	71.31
559.621	82.31
559.833	76.31
560.046	78.31
560.258	77.31
560.47	72.31
560.683	82.31
560.895	74.31
561.107	92.31
561.32	85.31
561.532	81.31
561.744	90.31
561.956	77.31
562.168	75.31
562.381	79.31
562.593	90.31
562.805	79.31
563.017	78.31
563.229	90.31
563.441	80.31
563.653	97.31
563.865	80.31
564.077	88.31
564.289	93.31
564.501	82.31
564.713	95.31
564.925	84.31
565.137	85.31
565.349	84.31
565.561	74.31
565.773	82.31
565.985	89.31
566.197	90.31
566.408	91.31
566.62	81.31
566.832	87.31
567.044	66.31
567.255	73.31
567.467	88.31
567.679	70.31
567.891	77.31
568.102	76.31
568.314	95.31
568.526	91.31
568.737	89.31
568.949	76.31
569.161	88.31
569.372	79.31
569.584	84.31
569.795	92.31
570.007	82.31
570.218	81.31
570.43	80.31
570.641	77.31
570.853	79.31
571.064	86.31
571.276	92.31
571.487	78.31
571.698	90.31
571.91	77.31
572.121	74.31
572.333	81.31
572.544	82.31
572.755	78.31
572.966	82.31
573.178	69.31
573.389	78.31
573.6	74.31
573.811	85.31
574.023	86.31
574.234	86.31
574.445	84.31
574.656	88.31
574.867	89.31
575.078	86.31
575.289	72.31
575.501	75.31
575.712	70.31
575.923	73.31
576.134	74.31
576.345	81.31
576.556	85.31
576.767	84.31
576.978	83.31
577.188	87.31
577.399	81.31
577.61	71.31
577.821	71.31
578.032	88.31
578.243	80.31
578.454	85.31
578.665	88.31
578.875	73.31
579.086	74.31
579.297	67.31
579.508	82.31
579.718	86.31
579.929	73.31
580.14	71.31
580.35	93.31
580.561	91.31
580.772	74.31
580.982	101.31
581.193	69.31
581.403	76.31
581.614	80.31
581.825	79.31
582.035	66.31
582.246	86.31
582.456	86.31
582.667	85.31
582.877	73.31
583.087	84.31
583.298	76.31
583.508	75.31
583.719	79.31
583.929	74.31
584.139	72.31
584.35	85.31
584.56	81.31
584.77	91.31
584.981	71.31
585.191	71.31
585.401	64.31
585.611	82.31
585.821	91.31
586.032	97.31
586.242	87.31
586.452	80.31
586.662	88.31
586.872	77.31
587.082	76.31
587.292	79.31
587.502	94.31
587.713	74.31
587.923	95.31
588.133	74.31
588.343	85.31
588.553	86.31
588.762	78.31
588.972	77.31
589.182	91.31
589.392	87.31
589.602	93.31
589.812	92.31
590.022	94.31
590.232	93.31
590.441	82.31
590.651	73.31
590.861	82.31
591.071	78.31
591.281	79.31
591.49	94.31
591.7	72.31
591.91	79.31
592.119	80.31
592.329	74.31
592.539	89.31
592.748	77.31
592.958	91.31
593.167	89.31
593.377	80.31
593.587	103.31
593.796	92.31
594.006	86.31
594.215	84.31
594.424	80.31
594.634	69.31
594.843	95.31
595.053	90.31
595.262	79.31
595.472	91.31
595.681	96.31
595.89	82.31
596.1	81.31
596.309	87.31
596.518	90.31
596.727	83.31
596.937	87.31
597.146	78.31
597.355	100.31
597.564	88.31
597.774	72.31
597.983	79.31
598.192	82.31
598.401	85.31
598.61	74.31
598.819	77.31
599.028	84.31
599.237	99.31
599.446	73.31
599.655	80.31
599.864	81.31
600.073	83.31
600.282	84.31
600.491	86.31
600.7	70.31
600.909	89.31
601.118	84.31
601.327	90.31
601.536	85.31
601.745	87.31
601.953	90.31
602.162	76.31
602.371	78.31
602.58	95.31
602.789	84.31
602.997	88.31
603.206	73.31
603.415	73.31
603.623	92.31
603.832	87.31
604.041	91.31
604.249	89.31
604.458	83.31
604.666	79.31
604.875	83.31
605.084	88.31
605.292	81.31
605.501	98.31
605.709	86.31
605.918	78.31
606.126	84.31
606.334	68.31
606.543	87.31
606.751	79.31
606.96	80.31
607.168	88.31
607.376	82.31
607.585	104.31
607.793	78.31
608.001	82.31
608.21	62.31
608.418	84.31
608.626	72.31
608.834	105.31
609.043	78.31
609.251	89.31
609.459	88.31
609.667	73.31
609.875	77.31
610.083	84.31
610.291	72.31
610.499	72.31
610.707	85.31
610.916	87.31
611.124	98.31
611.332	89.31
611.54	68.31
611.748	71.31
611.955	84.31
612.163	67.31
612.371	67.31
612.579	87.31
612.787	82.31
612.995	87.31
613.203	82.31
613.411	86.31
613.618	107.31
613.826	71.31
614.034	86.31
614.242	94.31
614.449	84.31
614.657	83.31
614.865	74.31
615.072	71.31
615.28	78.31
615.488	78.31
615.695	82.31
615.903	78.31
616.111	89.31
616.318	91.31
616.526	66.31
616.733	90.31
616.941	66.31
617.148	93.31
617.356	82.31
617.563	83.31
617.771	88.31
617.978	84.31
618.185	87.31
618.393	80.31
618.6	72.31
618.807	74.31
619.015	94.31
619.222	84.31
619.429	78.31
619.637	80.31
619.844	66.31
620.051	86.31
620.258	88.31
620.466	72.31
620.673	89.31
620.88	84.31
621.087	80.31
621.294	77.31
621.501	88.31
621.708	76.31
621.915	88.31
622.122	79.31
622.329	85.31
622.536	72.31
622.743	86.31
622.95	93.31
623.157	74.31
623.364	80.31
623.571	86.31
623.778	86.31
623.985	93.31
624.192	83.31
624.399	65.31
624.606	81.31
624.812	79.31
625.019	87.31
625.226	87.31
625.433	77.31
625.639	82.31
625.846	68.31
626.053	86.31
626.259	87.31
626.466	93.31
626.673	80.31
626.879	87.31
627.086	77.31
627.293	82.31
627.499	92.31
627.706	80.31
627.912	70.31
628.119	88.31
628.325	87.31
628.532	80.31
628.738	83.31
628.945	82.31
629.151	74.31
629.357	66.31
629.564	88.31
629.77	86.31
629.976	84.31
630.183	83.31
630.389	88.31
630.595	80.31
630.802	78.31
631.008	83.31
631.214	82.31
631.42	90.31
631.627	85.31
631.833	88.31
632.039	75.31
632.245	76.31
632.451	80.31
632.657	80.31
632.863	72.31
633.069	76.31
633.275	80.31
633.481	72.31
633.688	76.31
633.893	86.31
634.099	70.31
634.305	91.31
634.511	82.31
634.717	93.31
634.923	86.31
635.129	80.31
635.335	95.31
635.541	82.31
635.747	79.31
635.952	79.31
636.158	93.31
636.364	76.31
636.57	64.31
636.775	84.31
636.981	80.31
637.187	83.31
637.392	87.31
637.598	81.31
637.804	74.31
638.009	74.31
638.215	77.31
638.421	63.31
638.626	75.31
638.832	94.31
639.037	82.31
639.243	90.31
639.448	93.31
639.654	85.31
639.859	77.31
640.065	77.31
640.27	91.31
640.475	78.31
640.681	80.31
640.886	78.31
641.091	90.31
641.297	88.31
641.502	71.31
641.707	86.31
641.913	78.31
642.118	78.31
642.323	87.31
642.528	76.31
642.733	91.31
642.939	83.31
643.144	83.31
643.349	76.31
643.554	84.31
643.759	79.31
643.964	86.31
644.169	83.31
644.374	84.31
644.579	73.31
644.784	74.31
644.989	68.31
645.194	79.31
645.399	75.31
645.604	94.31
645.809	83.31
646.014	84.31
646.219	78.31
646.423	68.31
646.628	75.31
646.833	85.31
647.038	77.31
647.243	86.31
647.447	73.31
647.652	77.31
647.857	86.31
648.062	90.31
648.266	72.31
648.471	78.31
648.676	84.31
648.88	61.31
649.085	69.31
649.289	94.31
649.494	80.31
649.698	63.31
649.903	72.31
650.107	85.31
650.312	78.31
650.516	61.31
650.721	75.31
650.925	94.31
651.13	84.31
651.334	74.31
651.539	75.31
651.743	64.31
651.947	76.31
652.152	87.31
652.356	92.31
652.56	87.31
652.764	71.31
652.969	85.31
653.173	73.31
653.377	75.31
653.581	72.31
653.785	74.31
653.99	89.31
654.194	85.31
654.398	73.31
654.602	81.31
654.806	80.31
655.01	76.31
655.214	77.31
655.418	69.31
655.622	73.31
655.826	83.31
656.03	78.31
656.234	79.31
656.438	73.31
656.642	90.31
656.846	87.31
657.049	86.31
657.253	80.31
657.457	90.31
657.661	92.31
657.865	89.31
658.068	89.31
658.272	81.31
658.476	69.31
658.68	82.31
658.883	78.31
659.087	70.31
659.291	66.31
659.494	75.31
659.698	83.31
659.901	79.31
660.105	73.31
660.309	80.31
660.512	72.31
660.716	92.31
660.919	79.31
661.123	78.31
661.326	75.31
661.53	92.31
661.733	71.31
661.936	80.31
662.14	70.31
662.343	80.31
662.546	86.31
662.75	83.31
662.953	77.31
663.156	93.31
663.36	79.31
663.563	85.31
663.766	84.31
663.969	74.31
664.173	74.31
664.376	79.31
664.579	89.31
664.782	83.31
664.985	72.31
665.188	85.31
665.391	81.31
665.594	78.31
665.797	74.31
666	69.31
666.203	84.31
666.406	75.31
666.609	70.31
666.812	88.31
667.015	64.31
667.218	88.31
667.421	78.31
667.624	74.31
667.827	88.31
668.03	69.31
668.232	85.31
668.435	93.31
668.638	66.31
668.841	85.31
669.043	86.31
669.246	77.31
669.449	79.31
669.651	78.31
669.854	69.31
670.057	82.31
670.259	73.31
670.462	83.31
670.665	68.31
670.867	80.31
671.07	80.31
671.272	79.31
671.475	79.31
671.677	97.31
671.88	71.31
672.082	72.31
672.284	83.31
672.487	74.31
672.689	91.31
672.892	76.31
